TT I
1.2716486653135266 7.79752
1.2939594142134223 7.587089999999999
1.3162702121660406 6.67515
1.3385810600174564 7.28004
1.3608919586137629 7.314080000000001
1.383202908801069 7.118810000000001
1.405513911425503 5.85165
1.4278249673332093 6.30016
1.4501343378461518 6.2080400000000004
1.4724455028545926 6.01122
1.4947567236847858 6.72598
1.517068001182951 6.60035
1.5393793361953272 6.21681
1.5616907295681737 5.5428
1.5840021821477681 5.70286
1.60631369478041 5.51037
1.6286252683124185 5.470680000000001
1.6509369035901333 5.72277
1.6732468618895553 5.80704
1.695558623192809 5.04709
1.7178704487808514 5.08637
1.7401823395001077 4.6100699999999994
1.7625012545597203 5.07625
1.7848028405262486 5.63056
1.8071218901122095 5.1965699999999995
1.8294236121921872 5.30012
1.8517427996910911 5.33764
1.8740620574440425 5.51375
1.8963639900671978 4.985869999999999
1.9186833908139995 5.29068
1.9409854680117449 5.2748099999999996
1.9633050151394713 5.10875
1.9856246367570705 5.40773
2.0079269371922672 5.184
2.03024671027244 5.13954
2.0525491637446027 5.21462
2.074869091674931 4.9160900000000005
2.097171701569106 4.3733699999999995
2.1194917877373847 4.55253
2.141811954326636 4.788069999999999
2.164114805233074 4.56275
2.186435135143035 4.20454
2.208738150935709 4.43315
2.231058647554722 4.7563
2.2533792288321184 4.7588
2.275682498336085 4.45682
2.298003251406138 4.11148
2.3203066942619714 4.28573
2.3426276225136022 3.88826
2.3649486396617507 4.40109
2.387252348930071 4.06856
2.4095735463442893 4.50358
2.4318774374315884 4.5326699999999995
2.4541988185014043 4.78001
2.476502894794693 4.98034
2.498824462909887 4.3291699999999995
2.521146125856138 4.7028
2.5434504863470337 5.19701
2.5657723414244717 5.00941
2.588076895590662 5.84848
2.610398946189713 5.815869999999999
2.6327210958598384 5.26197
2.6550259469304716 6.14151
2.6773482972090137 5.7213400000000005
2.6996533504259 6.23367
2.7219759047039602 7.13088
2.744298562293959 6.3598300000000005
2.7666039251246595 6.879739999999999
2.7889267918020164 6.43649
2.8112323652516555 6.679869999999999
2.833555444408179 7.266139999999999
2.8558786311183852 7.973789999999999
2.8781845268938557 8.73515
2.9005079311721484 8.77917
2.9228140460410397 8.75441
2.9451376712799635 9.317919999999999
2.967444008632326 9.526769999999999
2.9897678582247247 9.57766
3.0120918213106695 10.6148
3.0343984987899373 11.4999
3.0567226913198637 11.7221
3.079029599759726 11.8207
3.101354025127254 12.4421
3.123678568232338 13.0037
3.145985829517914 13.4609
3.16831061055229 14.2135
3.1906181112775593 14.4736
3.212943133635653 15.1154
3.2352682779763207 15.3178
3.2575761442691227 15.5008
3.2799015350264273 16.0714
3.302209649240067 16.5026
3.3245352898092655 16.8151
3.3468436553365257 17.3394
3.369169549113219 17.6119
3.3914955708171384 18.4113
3.413804319727358 18.7218
3.4361305997334863 19.2129
3.4584396084414553 19.8754
3.4807661501462652 20.2915
3.503092824025881 20.5551
3.5254022288463154 20.8769
3.5477291695206588 21.1283
3.5700388426251948 21.7757
3.5923660534916446 22.2716
3.6146934007816114 22.2549
3.637003482731501 22.5313
3.6593311053109985 22.8634
3.681641464033634 23.2121
3.7039693653009733 23.6122
3.726297407241705 24.5438
3.7486081875460804 24.5128
3.7709365132734978 24.8724
3.793247578841633 25.5278
3.8155761917550093 25.755
3.8378875459837216 26.2394
3.8602164494827234 26.3965
3.882545499606844 27.4759
3.9048572932539183 28.0084
3.9271866390645718 28.1153
3.9494987298666713 28.7835
3.971828374764527 29.3881
3.9941581705403255 29.7205
4.016470713506008 30.1474
4.038800813471445 30.8882
4.061113662089144 31.1207
4.0834440696459176 32.1333
4.105774632334751 32.4931
4.128087945865126 33.5752
4.150418821249301 33.8417
4.172732448931298 34.3732
4.195063640413578 34.9777
4.2173775856475215 35.7378
4.239709096631102 36.7262
4.262040768704612 36.8023
4.284355196706267 37.1325
4.306687193387355 37.9435
4.329001947444346 39.5284
4.35133427213731 40.4483
4.373666762177566 40.6713
4.395982011761091 41.4022
4.418314834921175 42.2786
4.44063041906622 43.7127
4.4629635787515625 44.5489
4.4852969080429785 45.6036
4.5076130004776225 46.3132
4.529946671403969 47.7221
4.552263106909177 48.2062
4.574597122877047 50.1303
4.596931312711224 50.8825
4.619248269273446 51.8677
4.6415828092605835 52.9212
4.663900117405352 54.5066
4.686235010953232 55.8045
4.708552674085913 57.1286
4.730887924602802 58.422
4.753223354952695 60.3904
4.775541557023902 61.8062
4.797877349456786 62.7369
4.820195915032126 64.7489
4.842532072957498 66.7241
4.864868414979744 68.5907
4.88718753227192 71.1021
4.909524244902505 73.2472
4.931843734218147 76.027
4.954180820867835 79.0168
4.976518095879839 82.5206
4.998838149695359 86.0832
5.021175803844231 90.7153
5.043496238205739 95.2778
5.065834274903528 100.993
5.088172504230693 107.962
5.1104935158799565 115.898
5.132832132875765 129.767
5.155153533596801 152.369
5.1774925416746225 203.715
5.199814334878411 522.163
5.2221537374521505 1871.51
5.244493338631803 3750.62
5.266815727034316 5584.19
5.289155727832427 8612.2
5.311478517248165 9827.89
5.333818921080011 6173.66
5.356159527788849 1792.06
5.3784829252032536 409.525
5.400823940070432 204.52599999999998
5.423147747031976 159.75799999999998
5.445489173474152 138.189
5.467830807066149 126.604
5.490155234831516 119.52600000000001
5.512497285125229 114.001
5.534822130975162 110.47200000000001
5.557164601388673 107.508
5.579489868738879 103.618
5.601832762690846 102.12799999999999
5.6241758697774475 100.46600000000001
5.646501775867269 98.7875
5.668845311622074 98.5719
5.691171647754637 97.6242
5.713515615597765 96.1953
5.735859800852677 95.8161
5.758186788542988 94.8309
5.780531411018185 95.1464
5.802858837297399 95.1186
5.825203900414495 95.5294
5.8475491852224 96.8117
5.869877275883075 98.6629
5.892223006467101 101.296
5.914551544266608 104.734
5.936897724049891 111.448
5.959244129804903 122.449
5.981573344815301 151.672
6.0039202049061 279.42900000000003
6.026249875609095 730.308
6.04859719346037 1373.6
6.070927323278297 1969.34
6.093275102315365 2874.74
6.115623113320588 3965.0
6.137953938319995 4058.02
6.160302415650845 2149.41
6.182633708324452 636.289
6.2049826554078376 200.926
6.227331838745022 119.65899999999999
6.249663839443684 98.2387
6.27201349767565 88.5053
6.294345974611799 82.8338
6.316696111167083 78.6486
6.339046488263839 75.4254
6.361379686074702 73.0178
6.383730546639482 71.154
6.406064229255215 68.3867
6.428415576718203 68.2595
6.450749747566656 66.8103
6.47310158535871 65.4283
6.495453669698332 64.5334
6.517788579421056 63.918
6.540141159237969 62.6742
6.562476565766648 62.068999999999996
6.5848296444934045 61.4546
6.607182974060425 60.7539
6.6295191323281015 60.3744
6.651872965955752 59.758
6.6742096296068985 58.8511
6.6965639707294615 58.5064
6.71891856698715 57.9805
6.741255995248479 57.6003
6.763611104154477 57.2996
6.785949046381137 56.6759
6.808304671371482 55.9145
6.8306605557940046 55.9505
6.852999275508618 55.1982
6.875355681171544 55.1171
6.897694923437771 54.82
6.92005185377892 54.5698
6.9423916220322655 54.6264
6.964749080490181 53.9445
6.987106804399774 53.9443
7.009447368180821 54.2701
7.031805625367033 53.6041
7.054146723727803 53.6605
7.076505517631004 53.3948
7.098864581288365 53.0246
7.121206488070854 52.8811
7.143566093607822 52.5827
7.165908543567245 52.7074
7.188268694426048 53.0621
7.2106291193438095 52.5907
7.232972390625943 52.4062
7.255333366030969 52.019
7.277677189091925 52.174
7.300038718428332 52.6435
7.322400526130865 52.4652
7.344745183422596 52.7015
7.367107550224791 52.7011
7.389452767901992 52.6608
7.411815697249891 52.6415
7.434161478756298 52.5125
7.456524974096713 52.4487
7.478888753837185 52.5242
7.501235387657368 53.0953
7.523599738562711 55.7543
7.545946944825532 60.6464
7.568311870344528 61.8935
7.5906770845765665 58.3329
7.613025156078678 55.5569
7.635390950099687 54.4668
7.657739602662809 54.1211
7.680105979923558 53.9133
7.702472650212829 54.268
7.724822180948224 54.4889
7.747189439655568 54.6575
7.769539560075357 54.8769
7.791907410653562 55.1728
7.81425812420825 55.273
7.836626570110925 55.8632
7.858995315087906 56.8451
7.881346924933401 56.8064
7.903716270417482 57.0603
7.926068482028405 57.6898
7.948438431475253 58.2121
7.9708086843180235 58.5492
7.993161805171116 59.144
8.015532667162402 59.2685
8.037886398416653 60.5067
8.060257873014221 60.9701
8.082629655331942 61.9445
8.104984308787587 62.5388
8.127356708900503 63.4411
8.149711981398308 64.3145
8.172085002766314 65.2077
8.194458336181368 65.8903
8.216814543847752 67.0042
8.23918850371002 68.2923
8.26154533906492 69.5144
8.283919928836452 71.1811
8.306277395339652 72.4743
8.328652618483376 73.9209
8.351028159736202 76.2356
8.373386579575245 78.8871
8.395762759396959 80.8269
8.418121819038275 83.9605
8.440498640894003 88.7837
8.462875785192262 95.4629
8.485235811156207 109.833
8.507613602688501 170.791
8.529974277114228 359.88199999999995
8.552352719347912 589.635
8.574731488360351 772.495
8.59709314210385 921.06
8.619472567021075 1171.72
8.64183487789147 1576.56
8.664214962183097 1885.4
8.686577933647762 1642.1
8.708958680784317 925.312
8.731339760774953 397.835
8.753703729764451 171.891
8.77608547780821 115.301
8.798450116065078 103.363
8.820832535634787 97.3409
8.843215292401656 94.0039
8.865580941199045 91.5164
8.887964374703538 89.485
8.910330701447199 88.36399999999999
8.932714815164482 87.2707
8.955099270424924 85.98100000000001
8.977466620733543 84.8193
8.999851761421976 84.3946
9.022219798361645 83.5801
9.04460562795561 83.2875
9.066991803441677 82.7489
9.089360876979615 82.7771
9.111747746589993 82.7334
9.13411751544971 81.7249
9.156505082664324 81.5467
9.178875550323522 81.9696
9.20126381862328 82.5993
9.223652438908596 86.4279
9.246023961427412 93.8506
9.26841328802173 94.5936
9.290785518039224 90.3349
9.313175554425882 86.1987
9.335565947154315 83.5568
9.357939245086508 82.6035
9.380330352834827 82.4765
9.40270436697103 82.8444
9.425096193225055 82.3951
9.447488380180165 83.3112
9.469863475295412 83.8782
9.492256385987508 83.8527
9.514632206018318 84.7904
9.537025843935714 84.8662
9.559402392368193 85.8474
9.581796761000229 86.5903
9.604191496441521 86.59700000000001
9.626569144158516 87.7415
9.648964615551032 88.3931
9.671343000390081 89.1539
9.693739211225699 90.2343
9.716135793237463 91.277
9.738515290448102 92.23899999999999
9.760912617143402 93.2763
9.783292860202891 94.801
9.805690935076182 96.2765
9.828089385495742 97.2582
9.850470754023561 99.649
9.872869957865444 101.874
9.89525208097539 104.569
9.917652041736662 108.204
9.940052382417589 113.99
9.962435644102392 130.032
9.984836746950979 183.813
10.007220771957746 335.777
10.029622640473708 535.387
10.052007432299963 675.812
10.074410069984072 754.7260000000001
10.096813093716005 866.1080000000001
10.119199042482517 1087.95
10.141602840636468 1442.02
10.163989564971628 1714.17
10.186394141051062 1536.44
10.208799107559706 946.574
10.231187001965623 461.23199999999997
10.253592751657669 207.30900000000003
10.275981430388155 132.106
10.298387966769793 116.271
10.320794897965431 111.516
10.343184759907361 108.35700000000001
10.36559248305461 105.97200000000001
10.387983138083852 105.227
10.410391656691655 107.16
10.432800574501677 121.492
10.455192425893369 162.93
10.47760214443012 212.362
10.499994797678786 247.386
10.522405320453982 266.92
10.54479877906917 294.327
10.567210109595656 345.334
10.5896218454736 424.68300000000005
10.612016518879773 503.2
10.634429067781074 499.12300000000005
10.656824555333241 362.912
10.679237920773568 222.673
10.701651695961992 132.658
10.724048411481384 100.12700000000001
10.746463008485165 90.7037
10.768860546937125 87.1685
10.791275969274796 84.2683
10.81369180576079 82.6005
10.836090585366925 81.1794
10.858507252467449 79.8748
10.88090686379991 78.7422
10.903324365036394 77.4682
10.925724811614439 76.3286
10.948143150509463 76.0924
10.970561909719066 75.0851
10.992963615930844 74.1415
11.015383218085756 73.2456
11.037785768347074 72.0772
11.06020621697282 71.8783
11.082627090322113 71.2438
11.105030913430326 70.6953
11.12745263854165 70.1753
11.149857314510728 69.2518
11.172279894912576 69.384
11.194702904450653 68.3849
11.217108866490921 67.6363
11.239532736615194 67.5178
11.26193956033512 67.3131
11.284364294577085 66.5963
11.306789462371718 66.0089
11.329197585398376 65.8208
11.351623622610898 65.9132
11.37403261614354 65.2578
11.396459526308487 64.911
11.418869393879497 64.6344
11.441297180532617 64.3254
11.463725406927658 64.0268
11.486136592353875 63.5423
11.508565700543707 63.2935
11.530977768845315 63.397
11.553407762368774 62.7265
11.575838200059769 62.8666
11.598251599479612 62.6084
11.620682927815501 62.3225
11.64309721895548 62.6154
11.665529441478206 62.2023
11.687962112597958 62.1677
11.710377748130886 62.0803
11.732811318753434 61.9276
11.755227854859067 61.883
11.777662328529495 61.9567
11.800079768750786 61.4241
11.822515149015453 61.5913
11.844950984084935 62.0625
11.867369787303163 61.6467
11.889806534289491 62.1243
11.912226250487029 62.7441
11.934663912939751 64.6971
11.9571020346363 65.7621
11.979523127133968 65.2839
12.001962169624331 65.4295
12.024384183972964 65.2356
12.046824150809913 68.1496
12.069264581333726 77.4991
12.091687985297767 90.5463
12.11412934550045 101.40700000000001
12.136553680195208 108.523
12.158995973632788 113.95100000000001
12.181438735204349 121.583
12.20386447284199 135.218
12.226308172985636 156.488
12.24873485024193 181.368
12.271179492516982 195.40400000000002
12.293607112949127 174.65900000000002
12.316052700916226 133.793
12.338498763250042 95.3759
12.360927805303868 73.6371
12.383374818673879 66.6843
12.405804812803074 64.4733
12.428252780773262 63.8838
12.45070122756722 63.6076
12.473132656675375 63.5462
12.49558206341869 63.3566
12.518014453510101 63.4968
12.540464823770117 63.6682
12.562915677315177 63.5755
12.58534951575545 64.1853
12.607801338171472 63.8076
12.630236146511358 64.2323
12.652688941369085 64.7649
12.675124723177234 64.868
12.697578494048786 65.4009
12.720032754458185 65.5773
12.742470003354093 66.138
12.764925245138771 66.6115
12.787363476431278 67.1208
12.809819703166806 67.5361
12.83227642391173 68.398
12.854716135692716 68.6685
12.877173846755147 70.102
12.899614549869717 70.1112
12.9220732548287 71.0493
12.94453245827299 71.4576
12.966974655289818 72.8638
12.989434858002571 73.5973
13.011878055298721 74.5018
13.034339260862497 75.8914
13.056800969391883 77.1671
13.079245674017244 79.5616
13.101708390774869 81.5894
13.12415410463411 86.7302
13.146617833206086 102.65
13.169064559883248 131.836
13.191529303857127 162.482
13.213994557076367 185.71099999999998
13.236442809902437 198.872
13.258909083908291 209.99900000000002
13.28135835851934 226.648
13.30382565690295 257.189
13.326293469022952 306.709
13.348744283242008 364.99199999999996
13.371213125129904 400.275
13.39366497011003 376.97900000000004
13.416134845360597 296.579
13.438605238843131 201.535
13.46105863690397 138.968
13.483530069144786 118.086
13.505984506951902 128.756
13.528456981549432 152.929
13.550929978879088 171.75900000000001
13.573385983253365 182.295
13.595860028340867 188.88099999999997
13.618317081455832 199.45
13.64079217790333 218.715
13.663250283359057 249.956
13.685726434770173 293.494
13.708203115221277 340.477
13.730662806148091 349.32099999999997
13.75314054697177 303.20099999999996
13.775601299246777 224.479
13.798080104050406 149.869
13.820559442405358 104.484
13.843021793671388 88.1276
13.865502201420897 82.6198
13.887965623051947 80.8033
13.910447103807167 79.3698
13.932929122629764 78.0205
13.955394156785959 77.4836
13.977877254034569 76.5898
14.000343367582113 75.6031
14.022827546871707 74.8841
14.045294743423524 74.1156
14.06778000837062 73.4435
14.090265817715476 73.5429
14.112734645763819 73.1795
14.13522154619454 73.811
14.157691466286913 74.1985
14.180179461423874 73.5656
14.202668005486178 72.8085
14.22513957064374 71.5808
14.247629214846473 70.7932
14.270101881097517 70.2926
14.29259262906496 69.9857
14.315083930490205 70.0236
14.337558255389705 69.6132
14.360050666019726 69.5006
14.382526101071944 68.9627
14.405019624534942 68.9406
14.427513705993134 68.7517
14.449990813291825 68.747
14.47248601302899 68.6595
14.49496423954951 69.0404
14.517460561197822 68.7473
14.539939910570322 68.5126
14.562437357763558 68.8699
14.58493536931253 69.1141
14.607416409993311 69.1739
14.62991555254159 69.6148
14.652397725157423 69.5713
14.674898002342799 69.9569
14.697398848433282 70.1899
14.719882725991326 71.2764
14.74238471217934 71.7662
14.764869730765593 74.4414
14.787372860692983 80.9055
14.809876564079925 93.4812
14.83236330125751 106.62899999999999
14.854868153850365 115.87
14.877356041159485 121.441
14.899862046604186 125.07700000000001
14.922351087688757 130.748
14.944858249632887 139.866
14.967365991421232 154.539
14.989856770231246 174.56799999999998
15.012365673994204 198.987
15.03485761569738 212.94799999999998
15.05736768508665 205.13099999999997
15.07987833888692 173.95
15.102372032001655 134.537
15.124883856909658 99.8864
15.14737872204565 81.332
15.169891721717274 73.8168
15.192405310371893 71.572
15.214901940621196 70.2119
15.237416709527137 69.2054
15.259914520936249 69.2404
15.282430473753607 68.2024
15.304947020131227 67.703
15.327446610371178 67.3389
15.349964346154254 66.8955
15.372465126703139 66.7613
15.394984055556009 66.9127
15.417486030076159 66.7657
15.44000615566487 66.3098
15.462526881230803 66.0183
15.485030653812652 65.9371
15.507552581617434 65.8023
15.530057557334603 65.9752
15.55258069104857 65.9157
15.575104429329837 66.1149
15.597611216864632 66.2236
15.620136166564563 66.081
15.6426441664095 66.7532
15.665170331202765 68.7488
15.687697105158826 73.80199999999999
15.710206930593545 83.9828
15.732734925158933 94.7728
15.755245972089478 102.745
15.77777519094324 107.499
15.800287463046663 110.057
15.822817909869592 113.68299999999999
15.84534897229804 119.053
15.867863089299354 129.44899999999998
15.890395385222186 142.489
15.912910736597423 160.577
15.935444269699861 180.055
15.957978423016485 187.52200000000002
15.980495633101265 175.731
16.003031029129367 148.55200000000002
16.02554948280019 113.773
16.048086125229432 86.9909
16.070623392487107 72.6642
16.09314371869582 66.2763
16.11568223789321 63.2554
16.13820381691126 61.9359
16.160743591742527 61.3255
16.183283996022084 60.705
16.205807461423195 59.8855
16.228349126881973 59.1666
16.25087385432698 59.2164
16.27341678466365 58.3966
16.29594277784926 58.0197
16.31848697676433 57.6914
16.341031811604868 57.1291
16.36355971058487 57.0468
16.3861058195587 56.6751
16.40863499352978 56.3766
16.431182380342005 56.1153
16.453730407713202 56.0314
16.476261501364792 55.9208
16.498810812136167 55.4258
16.52134319004079 55.4819
16.54389378792203 55.4343
16.566445031001553 55.2454
16.588979342490088 55.0638
16.61153187824822 55.1167
16.634067483263312 54.7682
16.656621315414416 54.7308
16.679175797408888 54.4584
16.701713349928728 54.4412
16.72426913389191 54.6534
16.74680798922351 54.5472
16.76936507887444 54.6004
16.791905240734874 54.6506
16.814463639794468 54.5924
16.837022695210294 54.5946
16.859564824093756 54.7664
16.882125194503903 54.9592
16.904668639217885 55.0367
16.927230328348003 55.0269
16.949792678493612 55.3842
16.972338104193863 55.285
16.994901778652235 55.2976
17.017448529496576 55.4282
17.040013531998152 55.5952
17.06257920018044 55.9462
17.0851279459922 57.0474
17.107694947817667 59.1957
17.130245028099072 61.2377
17.15281336730298 63.2636
17.17536478578733 64.5074
17.19793446610687 65.3365
17.220504818648422 66.002
17.243058251703697 66.7468
17.265629950971032 68.3535
17.288184731571736 70.4229
17.310757781306908 73.8951
17.33333150794385 77.264
17.355888317140174 81.0408
17.37846339986244 82.9606
17.401021565958885 81.5507
17.42359800851343 77.1368
17.44617513265564 71.0606
17.468735341390783 65.4924
17.491261035594565 61.6979
17.51396340099364 60.1066
17.536490463869136 59.4706
17.559018209820174 59.3116
17.58154663977963 59.4562
17.604251766089718 59.6012
17.626781572227713 59.9051
17.64931206518155 60.2443
17.671843245885103 60.3364
17.69455114821572 60.4817
17.717083712612634 60.7531
17.739616967569667 61.0883
17.762150914021706 61.9305
17.78486160749854 62.0667
17.807396945166804 62.6799
17.829932977143503 63.0754
17.85246970436452 64.3747
17.875183204129467 66.9827
17.897721330097664 72.4238
17.920260154126645 78.7832
17.942799677153296 83.9476
17.9655159983646 87.1931
17.988056927677544 89.1307
18.010598558807683 90.6336
18.033140892692916 92.9477
18.05586005052525 95.7439
18.07840379824407 100.8
18.10094825154059 108.413
18.12366954819864 118.64399999999999
18.146215420998306 131.737
18.16876200220057 143.30200000000002
18.191309292745153 146.389
18.214033452627167 141.259
18.236582170236648 126.609
18.259131600016456 109.865
18.281681742907335 96.4921
18.304408781233683 89.3268
18.32696035875955 87.3279
18.349512652227624 88.4452
18.372065662579683 92.5958
18.394795594587553 97.28399999999999
18.41735004715306 102.654
18.43990521943684 104.961
18.46246111238171 102.25399999999999
18.485193953325208 94.6889
18.507751296070428 84.5977
18.530309362314178 75.5097
18.552868153000343 69.2084
18.57560391815056 65.218
18.59816416623245 63.4417
18.620725141597372 62.4822
18.643286845190268 61.9805
18.666025549835414 61.306000000000004
18.688588718427933 60.6144
18.711152618092243 60.4883
18.73389353884365 60.1824
18.75645890921984 59.5316
18.77902501351406 59.2736
18.801591852673102 59.2899
18.824335739722738 58.7002
18.846904057212626 58.7306
18.8694731124168 58.2119
18.89204290628315 58.2438
18.914789774966803 58.0727
18.937361054791623 57.8449
18.959933076131318 57.4141
18.982505839934877 57.2791
19.00525570560582 57.3696
19.027829963004184 57.2387
19.05040496572238 57.1879
19.072980714710468 57.1274
19.095733592739563 57.0515
19.11831084296757 57.7078
19.140888842324735 58.7447
19.16346759176222 59.9853
19.18622349753803 61.1152
19.208803755869358 62.1003
19.231384767143577 62.5462
19.253966532312948 63.016000000000005
19.276725481241822 63.3031
19.29930876296784 64.0331
19.3218928014549 64.90899999999999
19.34465404436217 66.3532
19.36723960516257 68.2108
19.389825925592426 70.416
19.412413006605938 72.7986
19.43517731967805 74.8985
19.457765930683355 74.9698
19.48035530514408 72.4675
19.50294544401556 68.3069
19.525712842708348 63.7064
19.54830451925909 59.7099
19.570896963095727 56.6237
19.593490175174704 55.1333
19.616260674962184 54.523
19.638855432416964 54.1142
19.661450960992624 54.2279
19.68404726164677 54.0308
19.706820878021247 53.771
19.729418731756834 53.9903
19.752017360452857 53.8286
19.77461676506804 53.9135
19.797393513540218 53.8296
19.819994478951667 53.9948
19.84259622316767 55.0778
19.8651987471481 56.2658
19.887978643247177 56.9832
19.91058273574792 58.0037
19.933187610901943 58.7373
19.955969879466828 58.9091
19.97857632894404 59.2027
20.00118356396599 59.528999999999996
20.023791585494575 59.9199
20.046577028914875 61.2142
20.069186632506966 62.8602
20.091797025500632 65.3741
20.114408208858933 68.0817
20.137196842715273 70.8444
20.159809615886765 73.1909
20.18242318232135 72.8465
20.20503754298326 71.3065
20.227829382875154 68.6894
20.250445341109344 65.9674
20.27306209647285 63.3818
20.29567964993108 61.8906
20.31847471147704 61.8969
20.34109387027612 62.8062
20.363713830075454 64.3638
20.386334591841646 65.5619
20.409132890679302 66.1231
20.431755265564437 64.5269
20.454378445325528 62.2566
20.477002430930366 59.1992
20.499803982716553 56.1431
20.522429589228004 53.5674
20.54505600449589 51.8576
20.567683229489194 51.3481
20.590488049900088 50.9062
20.61311690359731 50.8497
20.63574656993626 50.5413
20.658553853717297 50.153999999999996
20.681185154618298 50.2088
20.703817271080066 50.0414
20.72645020407368 49.6206
20.749260783967177 49.5886
20.771895359337133 49.5203
20.794530754161617 49.6271
20.817166969412938 49.4676
20.83998086114876 49.4978
20.86261872660049 49.2117
20.885257415405402 49.1926
20.90789692853701 49.0216
20.930714147864748 49.0235
20.953355319030678 49.0432
20.97599731745334 49.0993
20.99864014410749 49.1971
21.021460706796564 49.3882
21.044105199328826 49.5995
21.06675052302631 49.7707
21.089396678865015 49.9313
21.112220600704806 49.9081
21.134868430275347 49.9952
21.15751709492456 49.9915
21.180166595629693 50.1103
21.202993892429635 50.2811
21.22564507473034 50.5879
21.24829709602816 50.8991
21.27112693608965 51.2898
21.293780644891275 52.0343
21.316435195634053 52.0631
21.339090589297417 51.6594
21.361923832041875 51.3177
21.384580921090404 50.6903
21.407238856007325 49.8735
21.429897637773326 49.5662
21.45273429906592 49.4102
21.475394784108598 49.0081
21.498056118951983 48.8678
21.520718304578022 49.111999999999995
21.543558400304388 49.3237
21.566222297108816 49.4684
21.58888704765135 49.5956
21.61155265291521 49.7468
21.63439619898156 50.8237
21.657063523335786 51.5804
21.67973170537063 52.6997
21.7024007460706 53.4764
21.72524775840385 54.0202
21.747918526116475 54.5339
21.770590155457388 54.7369
21.79326264741238 55.1006
21.816113141960237 55.727
21.838787368860547 56.6236
21.861462461341976 57.9499
21.884315579735777 59.5407
21.90699241312273 61.2462
21.92967011506078 63.1218
21.95234868653799 65.0998
21.9752053151131 66.5523
21.997885635446785 66.8603
22.020566828293532 66.085
22.04324889464272 63.75
22.066109049404666 60.9171
22.088792872571794 58.4792
22.111477572219204 56.9965
22.1341631493376 56.4243
22.157026846313123 56.3631
22.179714188221507 56.6293
22.202402410582668 56.9507
22.22509151438863 56.3706
22.24795876962584 55.4622
22.270649646204486 54.0976
22.293341407213727 52.8603
22.316034053646906 51.427
22.338904883215342 50.5784
22.36159931041458 49.9251
22.38429462602756 49.6951
22.40699083104897 49.2934
22.429865251039757 49.2279
22.452563244831367 49.4101
22.47526213102522 49.4663
22.49813925616515 49.276
22.520839937143307 49.1742
22.543541513520587 49.303000000000004
22.56624398629403 49.1231
22.589124730075895 48.9993
22.611829005656723 49.388000000000005
22.63453418063466 49.2208
22.657240256008077 49.4132
22.680124634582935 50.0417
22.70283252079775 50.6524
22.725541310413075 51.3172
22.74825100442868 51.7234
22.771139033969575 52.3567
22.79385054687155 52.266000000000005
22.81656296718292 52.5066
22.83927629590484 52.6309
22.862167992606945 52.9558
22.88488314827121 53.6093
22.907599215359284 53.6564
22.93031619487366 54.0763
22.953211574954405 54.9433
22.975930389478226 55.8188
22.998650119445763 57.1829
23.02137076586092 57.8635
23.044269845560063 58.8359
23.06699233506288 58.8498
23.089715744034912 57.9103
23.112617610931565 56.2927
23.135342869061212 54.3682
23.158069049684816 52.424
23.1807961538087 51.0626
23.20370174880544 50.1209
23.226430710184808 49.7459
23.249160598093425 49.8011
23.271891413539002 49.7446
23.294800752937697 50.1999
23.31753343374794 50.885
23.340267045128353 51.3559
23.36300158808808 51.8069
23.38591468821339 52.107
23.408651104658304 52.3066
23.431388455719986 52.1648
23.454126742409 52.2856
23.4770436196085 52.4336
23.499783787914662 52.8682
23.522524894889884 53.2012
23.54526694154616 53.5693
23.56818761219047 54.5813
23.59093154860734 55.5081
23.613676427751283 56.6495
23.636422250635754 57.7441
23.659346731118656 58.5501
23.68209445191868 58.6348
23.704843119509587 57.4399
23.72759273490623 55.5583
23.750521041644767 53.2382
23.77327256312355 51.2617
23.796025035462787 49.3401
23.818956224555475 47.8695
23.841710609113413 47.2497
23.86446594758979 46.8025
23.887222241002014 46.4365
23.910157285144578 46.0564
23.932915498962537 46.0526
23.955674670778713 45.833999999999996
23.978434801611975 45.7252
24.001373717286125 45.5644
24.024135776723917 45.4691
24.046898798245582 45.2416
24.06966278287146 45.1032
24.092605586582614 44.8237
24.115371508023642 44.6268
24.1381383956401 44.4815
24.16090625045381 44.4962
24.183852958731244 44.6249
24.206622758582608 44.2417
24.229393528706886 44.0906
24.252165270127392 44.4096
24.27511589952438 44.353
24.297889594216997 44.1288
24.32066426328598 44.0109
24.34343990775613 43.8689
24.36639447485003 43.8835
24.38917208083877 43.786
24.41195066531332 43.653
24.43490819850244 43.6457
24.457688750692377 43.4148
24.48047028445616 43.4635
24.503252800821233 43.5112
24.526214300784112 43.5716
24.548998793132213 43.4906
24.57178427117417 43.2942
24.59457073593893 43.3942
24.617536219319863 43.4332
24.64032466834748 43.4496
24.663114107195035 43.5666
24.685904536893013 43.3806
24.708874020360852 43.2753
24.731666442613744 43.1835
24.754459858818787 43.1595
24.777254270007962 42.9162
24.80022777025625 42.6902
24.82302418230472 42.7644
24.845821592443674 42.9545
24.86862000170663 42.9907
24.891597535453727 42.8827
24.914397953892728 43.202
24.93719937456671 43.1151
24.96000179851076 43.1351
24.98298338249997 43.1358
25.00578782394922 43.3528
25.028593271784167 43.3342
25.05157790644186 43.851000000000006
25.07438537804115 44.013000000000005
25.097193859145293 44.2014
25.120003350792075 44.406000000000006
25.142992065061257 44.4843
25.165803588823465 44.747
25.18861612625217 44.9641
25.211429678386736 45.0157
25.234422489079968 45.3952
25.257238081693636 45.333999999999996
25.280054692141732 45.6935
25.3028723214652 45.5555
25.325869245420463 45.3879
25.348688923599397 45.2522
25.371509623787006 45.3306
25.394331347025812 45.3839
25.41733240110666 45.4066
25.440156181590016 45.4131
25.46298098826268 45.3107
25.48580682216873 44.8376
25.50881202326435 43.9467
25.53163992281684 43.4454
25.55446885274561 42.7003
25.577298814096377 42.1828
25.600308179121807 41.8425
25.623140214533745 41.6221
25.64597328451537 41.4754
25.66898578564376 41.1891
25.691820936010206 41.2557
25.714657124097695 41.1737
25.737494350954734 41.1219
25.760511045684957 41.1393
25.783350361364224 41.2393
25.806190718969255 41.3464
25.82903211955018 41.3499
25.852053024868923 41.4676
25.874896522722523 41.3718
25.897741066713106 41.2688
25.920586657892454 41.3524
25.943611790812668 41.4359
25.966459487728237 41.4953
25.989308234998564 41.4638
26.01215803367705 41.6734
26.03518741123814 41.6161
26.05803932412957 41.707
26.080892291600094 41.7196
26.10374631470478 41.7863
26.12677995397268 42.1924
26.14963609978026 42.3965
26.172493304397875 42.4632
26.19535156888223 42.5944
26.218389486949604 42.3223
26.241249882640123 42.0636
26.26411134137826 41.8108
26.28715248187403 41.4891
26.31001607820869 41.1147
26.3328807407756 41.0309
26.35574647063438 41.3476
26.37879191991473 41.0727
26.401659795896734 41.0612
26.424528742360263 41.2041
26.447398760366614 41.2878
26.470448535598294 41.3526
26.49332070826805 41.3869
26.516193955675355 41.5577
26.53906827888316 41.5855
26.562122397260108 41.6708
26.584998883685063 41.7889
26.607876449110325 42.0248
26.63075509460056 42.1759
26.65381357334404 42.3898
26.67669439061878 42.5516
26.699576291163382 42.717
26.722459276044212 43.1181
26.745522132402975 43.1944
26.768407297649354 43.0549
26.791293550442003 42.7525
26.814180891848974 42.4225
26.837248143099337 41.8791
26.860137673466657 41.6482
26.88302829566349 41.3909
26.90592001075963 41.2753
26.92899167420566 41.1838
26.951885586870763 40.7564
26.974780595655517 40.5832
26.99785558178161 40.3436
27.020752794605112 40.0512
27.043651106772522 39.8553
27.06655051935668 39.7046
27.089629948036183 39.4631
27.112531573292053 39.4387
27.135434302194138 39.4204
27.158338135817015 39.2608
27.181422024430987 39.313
27.204328079372566 39.224000000000004
27.22723524226965 39.3767
27.250143514198573 39.3516
27.273231880156334 39.2714
27.296142382065014 39.119
27.319053996245536 39.0924
27.341966723775965 39.0441
27.365059584515222 39.0698
27.38797455070062 39.1848
27.410890633481237 39.0216
27.433807833936918 38.8782
27.456905206923906 38.9658
27.47982465472398 39.0154
27.502745223449743 39.0143
27.525666914182825 39.2059
27.548768816912457 39.3064
27.571692763693633 39.1308
27.59461783573812 39.2615
27.617723149491244 39.0617
27.640650484125285 39.0276
27.66357894728264 39.1524
27.686508540048052 39.2044
27.709618414237887 39.159
27.732550278321757 38.8456
27.755483275279115 38.9086
27.778417406196485 38.9417
27.801531858397514 38.8621
27.824468269376716 38.7118
27.847405817586786 38.6926
27.870344504116094 38.7376
27.893463551932008 38.7509
27.916404527281053 38.9335
27.93934664422563 38.8444
27.962289903855886 38.8769
27.98541356491974 39.0569
28.00835912214229 39.1446
28.03130582533231 39.2532
28.054253675581805 39.4235
28.077381967556104 39.3796
28.100332124185126 39.5444
28.123283431160893 39.6758
28.146235889577238 39.8451
28.169368830154156 39.871
28.192323603752033 39.7248
28.215279532083304 39.565
28.238415973016764 39.2837
28.261374223145094 39.0515
28.284333631303806 38.7407
28.307294198589954 38.6397
28.330435319167677 38.4639
28.353398217078915 38.1328
28.376362277420153 37.9369
28.39932750129032 37.6637
28.422473319286713 37.4241
28.44544088262495 37.3425
28.468409612800283 37.0628
28.491379510913497 36.7577
28.51453004413313 36.6228
28.53750229057244 36.6277
28.56047570826344 36.5569
28.583450298308804 36.6692
28.606605564586562 36.3728
28.629582511831156 36.4037
28.65256063474956 36.2515
28.675539934446338 36.3029
28.698699951647605 36.2488
28.72168161743193 36.0999
28.74466446331978 36.0576
28.767648490417624 36.0448
28.790813276438353 35.934
28.813799678527303 35.9413
28.836787265157085 35.8249
28.859955641890075 35.8542
28.882945610203045 35.8538
28.905936766392035 35.7719
28.928929111566863 35.8637
28.952102288520145 35.8375
28.975097024308607 35.716
28.998092952423807 35.6062
29.021090073977508 35.7113
29.04426806913204 35.7392
29.067267590245258 35.4971
29.090268308143695 35.3525
29.11327022394099 35.3584
29.13645305530891 35.1648
29.159457379627167 35.0884
29.18246290519685 35.0801
29.20546963313352 35.019
29.22865731875826 34.9215
29.25166646419296 34.9208
29.27467681535305 34.6944
29.29768837335608 34.7878
29.320880931312562 34.7466
29.34389491580634 34.7956
29.366910110507334 34.6874
29.38992651653503 34.6536
29.41312396492981 34.6741
29.436142806456754 34.6912
29.45916286268059 34.7495
29.48236399319994 34.5789
29.50538649169417 34.6547
29.528410208259935 34.6245
29.55143514402014 34.3719
29.574641196749695 34.302
29.597668583816574 34.1487
29.6206971934585 33.8272
29.64372702680042 33.7373
29.666938019934474 33.6203
29.689970313635285 33.5895
29.713003834422636 33.5377
29.73603858342347 33.4495
29.759254535188578 33.3007
29.78229175361658 33.2913
29.80533020365064 33.3441
29.82836988641968 33.3143
29.85159081507472 33.1697
29.874632976355343 33.1913
29.89767637376955 33.3086
29.920721008448314 33.0796
29.9439469322847 33.1162
29.96699405457564 33.1168
29.9900424175358 33.0956
30.013092022298157 33.0055
30.03632295963995 32.9439
30.059375061131373 33.0087
30.08242840783577 33.0474
30.105483000888153 32.9432
30.128718970092244 32.9389
30.151776069006917 32.7825
30.17483441768648 32.7502
30.198074175317235 32.8247
30.221135036724256 32.8611
30.24419715131772 32.7649
30.267260520236203 32.702
30.290505341942243 32.9617
30.313571232750228 32.9743
30.336638381310948 33.03
30.35970678876503 32.884
30.38295669299435 32.893
30.40602763151657 32.9005
30.429099832366074 32.7944
30.452173296685572 32.7065
30.47542830191959 32.6647
30.498504306502497 32.5914
30.521581577995562 32.6505
30.544660117543582 32.6899
30.56792024229725 32.7187
30.59100133132069 32.6022
30.614083691845494 32.6304
30.637167325018545 32.6505
30.660432587840603 32.7374
30.683518779717886 32.661
30.70660624769615 32.7312
30.729694992924372 32.6264
30.75296541239743 32.7513
30.77605672557558 32.6962
30.799149319462742 32.788000000000004
30.8224236211637 32.7973
30.845518789950724 32.6774
30.868615242910597 32.7139
30.891712981195973 32.5495
30.91499247215866 32.4346
30.938092794619365 32.3648
30.96119440587579 32.3407
30.984297307082752 32.1199
31.00758200598383 32.0309
31.030687500658694 31.8822
31.053794288760695 31.8424
31.076902371446767 31.7535
31.100192296997445 31.8587
31.12330298246119 31.7245
31.14641496599209 31.5849
31.169528248749216 31.6129
31.19282341969534 31.5134
31.215939314557186 31.5188
31.239056512134788 31.5881
31.262175013589378 31.4574
31.28547544871168 31.3988
31.30859657161541 31.3336
31.331719001892175 31.3727
31.35484274070538 31.4789
31.378148458819545 31.3855
31.401274828443725 31.4878
31.424402510106933 31.3912
31.447712205419993 31.3695
31.470842524931633 31.2696
31.493974159989783 31.3518
31.51710711176168 31.3305
31.54042212308802 31.3236
31.563557722100917 31.4241
31.586694641341655 31.2794
31.609832881979628 31.2726
31.63315322823208 31.2398
31.656294125521327 31.1397
31.679436347728515 31.0071
31.70257989602529 31.0661
31.725905596152327 30.9009
31.74905181052835 30.7508
31.772199354521323 30.7262
31.79534822930507 30.6604
31.818679302290967 30.6903
31.84183085259981 30.7325
31.864983737233473 30.7037
31.88813795736804 30.7404
31.911474422233013 30.4778
31.934631327356435 30.660999999999998
31.9577895715215 30.6796
31.980949155906522 30.5765
32.004291031706956 30.5792
32.027453310562606 30.499000000000002
32.05061693318573 30.4435
32.07396288236386 30.4907
32.09712920658542 30.4849
32.12029687812702 30.3645
32.14346589817093 30.205
32.166817291729984 30.2229
32.18998902288583 30.0857
32.21316210610336 30.0434
32.23633654256711 29.8944
32.259693399663725 29.9292
32.282870556771144 29.845
32.30604907069099 29.7731
32.329228942610065 29.5447
32.35259128243769 29.5195
32.375773884550505 29.4712
32.398957848235646 29.4992
32.422143174682176 29.3559
32.445511016471215 29.2199
32.468699082679954 29.2158
32.49188851523011 29.1802
32.51507931531304 29.0678
32.538452678331 29.1425
32.56164622776311 29.0697
32.58484114831493 29.0237
32.60803744118015 28.9248
32.631416344731896 28.9034
32.654615396551876 28.9335
32.67781582427913 28.9516
32.701198898634416 28.8556
32.72440209253756 28.7979
32.747606665947124 28.8244
32.77081262006088 28.6724
32.79420126883317 28.7287
32.81740999876112 28.759
32.840620112999424 28.6038
32.86383161274818 28.5709
32.88722585534586 28.5385
32.91044014056596 28.54
32.933655814909734 28.4645
32.95687287957963 28.4946
32.98027273544904 28.4128
33.00349259526636 28.3999
33.026713849030116 28.4976
33.04993649794511 28.3644
33.073341986570746 28.2717
33.09656744032826 28.1878
33.11979429286444 28.2855
33.14302254538647 28.3624
33.166433686291185 28.2426
33.18966475336992 28.1305
33.212897224069096 28.0144
33.23613109959831 28.1169
33.259547912343415 28.1101
33.2827846121627 28.0414
33.306022720453775 27.9773
33.32926223842861 27.9598
33.352684742614166 27.9674
33.37592709463173 27.9177
33.399170859982064 27.7686
33.422597648419426 27.8795
33.44584425514446 27.6437
33.46909227885668 27.6552
33.4923417207723 27.5865
33.51577423505344 27.6416
33.539026528130385 27.4518
33.56228024307245 27.4811
33.585535381098246 27.316
33.60897364093058 27.2234
33.63223163992385 27.2821
33.6554910656699 27.19
33.678751919389796 27.0711
33.702195944520106 27.0707
33.72545966903325 27.0791
33.74872482519663 26.9315
33.771991414233746 26.9626
33.79544122444841 26.9719
33.81871069412428 26.8537
33.84198160035767 26.9113
33.86525394437455 26.8391
33.88870955949969 26.8052
33.911984794020626 26.7312
33.93526147001624 26.7489
33.958539588715006 26.6372
33.98200102861669 26.636999999999997
34.0052820477047 26.5294
34.02856451319451 26.5805
34.05203033759056 26.5236
34.07531571090147 26.5049
34.09860253431845 26.3284
34.121890809074316 26.3944
34.145362493118924 26.3986
34.16865368561615 26.2802
34.191946333164054 26.1764
34.21524043699793 26.276
34.23871800066799 26.1775
34.26201503218366 26.1096
34.28531352370466 26.0572
34.30861347646881 25.9276
34.33209693978188 25.8754
34.3553998301885 25.943
34.378704185565205 25.8566
34.402010007152356 25.7858
34.42549939016683 25.7937
34.44880815937748 25.756999999999998
34.472118398533134 25.7736
34.49543010887669 25.7536
34.51892543169198 25.6526
34.54224009966052 25.5848
34.56555624255917 25.5981
34.58887386163339 25.5586
34.61237514439016 25.4459
34.6356957311114 25.3873
34.65901779775809 25.4033
34.68252356662995 25.3982
34.705848608458616 25.3393
34.72917513396849 25.2765
34.75250314440949 25.2221
34.77601490857862 25.133000000000003
34.799345904259795 25.0102
34.82267838863559 25.1037
34.846012362958525 25.0147
34.869530142679984 25.0407
34.89286711232212 25.0028
34.91620557568269 24.9398
34.93954553401677 24.9799
34.9630693495876 24.9045
34.986412313340814 24.9255
35.00975677584668 24.934
35.033102738362956 24.8313
35.05663261012228 24.7895
35.0799815881786 24.794
35.10333207003229 24.7344
35.12668405694369 24.7448
35.150220005273056 24.7529
35.17357501786656 24.579
35.19693153931268 24.5809
35.220289570874385 24.4953
35.24383161619786 24.5956
35.267192683604904 24.6304
35.290555264930376 24.4896
35.314101899412165 24.4544
35.33746752422433 24.4559
35.36083466676374 24.4558
35.38420332829803 24.3921
35.407756095629054 24.4275
35.43112781085063 24.3855
35.45450104888391 24.2937
35.477875810999194 24.3204
35.50143473172161 24.3115
35.52481255774625 24.2497
35.54819191167777 24.1835
35.57157279478914 24.1556
35.595137889488406 24.2036
35.61852184675279 24.1199
35.641907337029984 24.1406
35.665294361595684 24.0688
35.68886565090076 23.991
35.7122557598848 23.9638
35.73564740699838 23.9471
35.759040593519934 23.8645
35.78261809810353 23.878
35.80601437933051 23.8073
35.829412203814705 23.845
35.85281157283719 23.715
35.876395313415884 23.674
35.8997977874528 23.6325
35.92320180988546 23.5661
35.946790244133936 23.5318
35.97019737933222 23.569000000000003
35.993606066789866 23.5406
36.01701630779276 23.4526
36.04061101440684 23.4358
36.06402437852291 23.4521
36.08743930005611 23.4207
36.1108557802951 23.2534
36.13445678011326 23.3222
36.15787639383515 23.311999999999998
36.18129757014299 23.2538
36.20472031032821 23.1338
36.22832762423364 23.1293
36.25175350829375 23.1182
36.275180960119776 23.0625
36.298609981005924 23.1269
36.32222362992669 23.1156
36.34565580510207 23.0746
36.36908955323448 23.0154
36.39252487562093 22.9288
36.416144880530226 22.8692
36.43958336764275 22.818
36.463023432914625 22.8532
36.486465077645676 22.7437
36.51009145956204 22.7838
36.53353627947859 22.793000000000003
36.55698268276811 22.7562
36.58043067073321 22.6142
36.60406345072071 22.535
36.62751462435344 22.5993
36.65096738658405 22.5718
36.67460498210655 22.5492
36.69806093788647 22.5315
36.72151848619297 22.488000000000003
36.744977628333636 22.5096
36.76862165890998 22.3116
36.79208400512205 22.3471
36.81554794910557 22.3108
36.83901349217101 22.2683
36.862663978991606 22.2749
36.88613273667352 22.2451
36.90960309738324 22.2502
36.933075062434064 22.1623
36.95673202673572 22.0633
36.98020721697122 22.0173
37.003684015502365 21.9702
37.027162423645365 21.9073
37.050825886711465 21.9583
37.07430753063053 21.8573
37.09779078812467 21.8364
37.121275660513014 21.822
37.144945643673694 21.7911
37.16843376245278 21.769000000000002
37.19192350009803 21.7622
37.215414857931435 21.7815
37.239091382563885 21.6083
37.262585997426164 21.641
37.28608223645736 21.6289
37.309763684451696 21.604
37.33326318851098 21.5321
37.356764320726555 21.4918
37.380267082425526 21.4974
37.40395510942588 21.4337
37.42746114683234 21.4417
37.45096881771841 21.3804
37.474478123414166 21.3355
37.49817275092816 21.3086
37.52168534303452 21.3447
37.54519957395567 21.1924
37.568715445024665 21.2193
37.592416694607714 21.1546
37.61593586281424 21.2009
37.63945667518264 21.1813
37.66297913304891 21.096
37.68668702630454 21.0537
37.710212792059274 20.9996
37.733740207334854 21.0033
37.757269273470364 20.96
37.780983832050374 20.8158
37.80451621684926 20.9847
37.82805025654007 20.8722
37.851585952464795 20.7944
37.8753071980695 20.7811
37.89884622345676 20.747
37.92238690911902 20.6643
37.94611318753442 20.621
37.969657210779765 20.6139
37.99320289834801 20.5542
38.016750251586465 20.5637
38.04048325513017 20.5792
38.06403395679343 20.5202
38.087586328183946 20.4462
38.11114037065203 20.4221
38.13488012115898 20.4339
38.1584375229181 20.3917
38.181996599821 20.3003
38.205557353221124 20.3804
38.229303872575656 20.2949
38.2528679961576 20.2616
38.27643380031219 20.2388
38.30000128639589 20.1621
38.32375459653193 20.207
38.34732546371299 20.1895
38.37089801690786 20.1401
38.39447225747609 20.0009
38.418232380377425 20.0164
38.441810012983396 20.0198
38.46538933705673 19.9675
38.488970353960084 19.9043
38.51273731166058 19.8914
38.536321731567014 19.8142
38.55990784840681 19.7684
38.58367995004091 19.8401
38.60726947812959 19.7506
38.63086070726198 19.6986
38.654453638806274 19.7823
38.678232613930824 19.6212
38.70182896773327 19.5596
38.72542702806741 19.5827
38.7490267963045 19.5486
38.77281266709232 19.4969
38.79641586862214 19.6031
38.8200207821842 19.4456
38.843627409152944 19.4595
38.86742019782782 19.4674
38.891030269149255 19.3865
38.914642058016156 19.3741
38.938255565806124 19.3487
38.96205529464307 19.3267
38.98567225787121 19.2576
39.00929094417078 19.2417
39.03291135492255 19.2544
39.05671804624804 19.2293
39.080341923549106 19.1393
39.103967529460334 19.1417
39.127594865365744 18.9882
39.15140854155791 18.9785
39.17503935514948 19.0656
39.19867190290282 18.9773
39.22249083587951 18.9278
39.24612686969409 18.9222
39.269764641845306 18.9278
39.293404153722804 18.9271
39.317230110864074 18.8608
39.34087311998506 18.7398
39.36451787301696 18.8202
39.388164371352595 18.7622
39.41199737518003 18.6859
39.43564738196752 18.6405
39.45929913825317 18.6314
39.48295264543308 18.6484
39.506792718520884 18.5991
39.530449745387216 18.5137
39.55410852735203 18.5121
39.57776906581474 18.5109
39.60161623079 18.5469
39.625280300200025 18.4777
39.64894613032202 18.4287
39.67261372255866 18.4726
39.6964680021016 18.416
39.72013913657293 18.3756
39.74381203738292 18.4103
39.76748670593756 18.2792
39.79134812278169 18.2491
39.81502634488497 18.2292
39.83870633896685 18.197
39.862388106436654 18.1447
39.88625668336918 18.1774
39.90994201572829 18.1592
39.933629125719285 18.0687
39.957503091207826 18.0108
39.9811937746168 18.0832
40.00488623990914 18.0743
40.02858048850006 17.9983
40.05246165409549 17.9274
40.076159487492085 17.9138
40.099859108448875 17.9135
40.123560518384345 17.8731
40.1474489070226 17.8963
40.171153913178564 17.8203
40.194860712584955 17.7366
40.2185693066637 17.7376
40.242464941335314 17.7307
40.26617714307655 17.6814
40.289891143772046 17.6486
40.3136069448471 17.6221
40.33750984859743 17.6015
40.3612292688043 17.5058
40.3849504936829 17.5597
40.40867352466194 17.5311
40.43258372059144 17.5377
40.45631038219906 17.5327
40.48003885420956 17.4458
40.503769138055105 17.4386
40.52768664931955 17.3429
40.55142057531802 17.3556
40.57515631746428 17.3177
40.599079334038514 17.2739
40.62281872700477 17.2346
40.64655994043941 17.2632
40.67030297578061 17.2246
40.69423334835778 17.1611
40.71798004609188 17.1434
40.74172857006355 17.1177
40.76547892171441 17.1631
40.7894166736039 17.1249
40.813170699248566 16.9793
40.83692655691388 17.0728
40.86068424804498 17.0819
40.884629402612525 17.0351
40.908390779366385 17.0143
40.932153993938 16.9237
40.95591904777605 16.8944
40.979871628443995 16.8887
41.003640379561936 16.8938
41.02741097430883 16.8433
41.05118341413683 16.8169
41.075143444384416 16.7915
41.098919593177826 16.7993
41.1226975914255 16.7112
41.14647744058318 16.6394
41.170444943946755 16.6006
41.19422851378379 16.5771
41.218013938914645 16.5015
41.24198706625173 16.5681
41.26577622087193 16.5276
41.289567235177785 16.5346
41.31336011063129 16.5324
41.337340752422875 16.4496
41.361137369129835 16.3722
41.38493585138705 16.4059
41.40873620066004 16.3434
41.43272438060107 16.3314
41.45652848292052 16.3111
41.48033445666918 16.2746
41.50414230331616 16.1979
41.528138045159764 16.2418
41.551949656675205 16.1656
41.575763145513235 16.1558
41.59957851314666 16.1814
41.62358184070442 16.0998
41.64740098505737 16.0772
41.6712220126409 16.0759
41.69504492493139 16.0496
41.71905586207357 16.0491
41.74288256296395 15.9925
41.766711153007456 15.9629
41.79054163368412 15.911
41.814560204340054 15.8768
41.838394485526365 15.8989
41.86223066180303 15.8903
41.88625497706819 15.8488
41.910094962812 15.8335
41.93393684811168 15.7878
41.95778063445365 15.7014
41.981812625263366 15.6917
42.00566023303407 15.6648
42.029509746323676 15.7066
42.05336116662236 15.6077
42.077400857069705 15.5856
42.10125611078846 15.5829
42.12511327600405 15.5401
42.14897235421036 15.5478
42.173019768448455 15.5067
42.19688269209613 15.4509
42.22074753323349 15.4596
42.24461429335818 15.4348
42.268669455600495 15.4062
42.292540073217886 15.3857
42.31641261433284 15.36
42.34028708044675 15.3476
42.36435001496739 15.3002
42.38822835065557 15.3179
42.41210861586426 15.2158
42.4359908120986 15.187000000000001
42.46006154323262 15.1768
42.48394762115317 15.1032
42.507835634632315 15.1491
42.531912233047436 15.0979
42.55580413732265 15.102
42.579697981698 15.0535
42.60359376768525 15.0377
42.62767820545945 15.0221
42.65157789440821 15.0862
42.67547952952185 14.9475
42.699383112316 14.9088
42.72347541395347 14.9205
42.74738291190531 14.9223
42.771292362102166 14.8602
42.795203766063516 14.8105
42.819303956130405 14.8276
42.843219287476536 14.7713
42.86713657716324 14.7935
42.89105582671383 14.7568
42.91516392983864 14.7512
42.939087119032166 14.7113
42.963012272677304 14.6665
42.98693939230129 14.6261
43.01105543317513 14.64
43.034986504731386 14.5779
43.05891954686589 14.5468
43.08285456110972 14.5373
43.10697856448665 14.5014
43.130917542983475 14.4828
43.15485849820081 14.4895
43.17880143167367 14.4011
43.20293342237094 14.4066
43.226880332449 14.3735
43.25082922540554 14.3265
43.27496722682525 14.3931
43.29892010567796 14.3342
43.32287497204102 14.3098
43.34683182745632 14.270999999999999
43.370977859791836 14.245999999999999
43.39493871351105 14.171
43.41890156092628 14.1946
43.44286640358341 14.1673
43.46702049182749 14.1816
43.49098934522816 14.1527
43.51496019852649 14.1537
43.5389330532723 14.0616
43.56309522248204 14.0548
43.58707210044314 14.0047
43.61105098451946 13.9226
43.63503187626491 13.9671
43.659202151562134 13.9588
43.68318707902681 13.9578
43.70717401884041 13.8752
43.731162972560874 13.8695
43.75534137913236 13.8668
43.779334381108384 13.8069
43.803329401683186 13.8072
43.82732644241872 13.8032
43.8515130055166 13.7747
43.87551410707659 13.7111
43.89951723350145 13.7222
43.923709934595614 13.6535
43.94771713129917 13.6255
43.97172635758096 13.7059
43.99573761501002 13.6768
44.0199385169922 13.6171
44.04395385732619 13.5827
44.067971233533086 13.5582
44.09199064718605 13.5286
44.11619977548961 13.5202
44.14022328470671 13.4594
44.16424883610785 13.4912
44.18827643127035 13.440999999999999
44.21249381139513 13.4268
44.236525514814076 13.3526
44.26055926674478 13.3423
44.28459506876863 13.3394
44.3088207262813 13.2683
44.33286064928722 13.294
44.35690262714919 13.2449
44.38094666145278 13.2142
44.4051806219871 13.2369
44.42922879003185 13.1361
44.45327901929361 13.1907
44.477331311362136 13.1239
44.501573600619416 13.0997
44.525630039221795 13.0624
44.54968854541895 13.0863
44.573937102200176 13.0997
44.5979997645541 13.0112
44.622064499300315 13.0192
44.64613130803592 12.9545
44.67038823869318 12.9846
44.69445921643748 12.9711
44.718532272981385 12.8921
44.742607409926194 12.8788
44.76687274034801 12.8798
44.79095205918753 12.8273
44.81503346325094 12.8434
44.839116954143876 12.82
44.86339071028742 12.8035
44.88747839599524 12.7872
44.91156817336837 12.7653
44.93566004401666 12.7324
44.959942251908146 12.6749
44.984038330325966 12.6681
45.00813650686762 12.6787
45.03223678314731 12.6513
45.05652746888232 12.6086
45.08063196592069 12.57
45.104738567558705 12.5721
45.128847275414856 12.5597
45.15314646515866 12.4804
45.17725940679741 12.4732
45.20137445952892 12.4723
45.22568004865265 12.4556
45.24979934496396 12.4091
45.27392075725247 12.3792
45.29804428714431 12.3945
45.322358426247604 12.3945
45.346486212804315 12.3643
45.370616121861914 12.287
45.39474815505086 12.2883
45.41907087049246 12.2687
45.4432071734666 12.2268
45.46734560548283 12.2417
45.49148616817604 12.212
45.51581748638564 12.2314
45.5399623320197 12.2002
45.56410931325473 12.1164
45.58825843173002 12.1097
45.61259837920865 12.0875
45.636751793816 12.0725
45.66090735060093 12.0445
45.68506505120716 12.0199
45.7094136545275 12.0502
45.73357566449271 11.9337
45.75773982322992 11.9745
45.78190613238733 11.9683
45.806263418194064 11.8905
45.83043404997326 11.8894
45.85460683713677 11.886
45.87897065658495 11.8548
45.90314777634752 11.83
45.92732705646868 11.8431
45.9515084986045 11.7553
45.97588104735473 11.761
46.00006683541565 11.7509
46.02425479047904 11.7143
46.04844491420549 11.7383
46.0728262191024 11.7088
46.09702070211635 11.6776
46.12121735879483 11.6248
46.14541619080294 11.6291
46.169806278764455 11.6369
46.194009483459034 11.5687
46.21821486849841 11.6027
46.24242243555223 11.555
46.266821333570014 11.5251
46.29103328674601 11.4876
46.31524742696538 11.5372
46.33946375590237 11.4668
46.36387149104216 11.4471
46.38809221957392 11.3937
46.41231514186606 11.3887
46.436540259597464 11.4272
46.460956858999374 11.3813
46.48518638983522 11.3676
46.509418121166966 11.3511
46.533652054678114 11.3481
46.55807754555709 11.2703
46.58231590571962 11.2926
46.60655647313217 11.2414
46.630988654873654 11.2175
46.655233659129024 11.1527
46.67948087571551 11.1567
46.70373030632484 11.1253
46.72817142736393 11.1443
46.752425308428684 11.1172
46.77668140861147 11.0606
46.80093972960865 11.0361
46.82538981736788 11.0393
46.849652602470904 11.0176
46.87391761349769 11.0016
46.8981848521493 10.9861
46.9226439341274 10.9026
46.946915650573224 10.9376
46.97118959976749 10.9272
46.99546578341598 10.8899
47.019933887188216 10.8751
47.04421456235744 10.8893
47.06849747711879 10.8791
47.09278263318286 10.8349
47.11725978640143 10.8234
47.14154944775105 10.8073
47.165841355555656 10.724
47.1901355115306 10.7232
47.214621741924994 10.7435
47.23892041698887 10.724
47.26322134538975 10.674000000000001
47.28771440635075 10.6788
47.31201986422527 10.6602
47.33632758061436 10.6208
47.360637557241866 10.593
47.38513974410611 10.5899
47.40945426407847 10.5744
47.43377104948137 10.5169
47.45809010204344 10.5129
47.48260144275502 10.498
47.506925052572285 10.5105
47.53125093475548 10.4645
47.55557909103813 10.4532
47.58009961361992 10.3886
47.60443234110732 10.397
47.62876734791564 10.4128
47.65310463578333 10.3667
47.6776343683373 10.3567
47.7019762413987 10.2968
47.72632040075572 10.2777
47.75066684815169 10.3075
47.77520581885936 10.2568
47.799556865477655 10.2524
47.823910205386 10.2557
47.84826584033272 10.2493
47.87281407745551 10.204
47.89717432569297 10.1772
47.92153687423484 10.1445
47.94609208429692 10.1453
47.97045925671401 10.1178
47.99482873471275 10.122
48.01920052005013 10.1137
48.04376504619224 10.0864
48.068141469543484 10.0951
48.09252020552573 10.0228
48.11690125590099 10.0264
48.1414751266064 9.99417
48.16586082917454 10.0071
48.19024885144316 9.93184
48.2146391951793 9.96035
48.239222439012764 9.92954
48.26361744916137 9.937619999999999
48.28801478610016 9.880930000000001
48.31241445160131 9.875539999999999
48.337007097209366 9.89536
48.36141144338331 9.85651
48.38581812345755 9.82963
48.41022713920929 9.83869
48.434829215320704 9.76602
48.45924292604658 9.79549
48.48365897780325 9.82558
48.50807737237308 9.734630000000001
48.532688907799276 9.73787
48.55711201168574 9.7079
48.581537463754074 9.70613
48.60615611725119 9.67795
48.63058628942721 9.69923
48.65501881516546 9.65681
48.6794536962573 9.6098
48.70408185970339 9.60811
48.72852147531801 9.56752
48.75296345168211 9.56703
48.77740779059232 9.555589999999999
48.80204549302823 9.55083
48.82649458091802 9.48992
48.85094603676547 9.49485
48.87539986237231 9.465819999999999
48.90004713292306 9.49423
48.92450572200832 9.481710000000001
48.94896668628025 9.44727
48.97343002754588 9.426969999999999
48.99808689542115 9.37979
49.02255501470614 9.3879
49.04702551642794 9.37198
49.0714984023988 9.31917
49.096164896893235 9.317
49.120642575466796 9.293510000000001
49.145122643748394 9.29153
49.16960510355558 9.23093
49.19428125404938 9.22728
49.2187685210852 9.239930000000001
49.243258185121555 9.220139999999999
49.26794160167084 9.19164
49.2924360839405 9.16916
49.31693296869764 9.128639999999999
49.34143225776915 9.15582
49.36612538195438 9.15426
49.39062950396021 9.16652
49.41513603578346 9.07553
49.4396449792564 9.02437
49.46434784069503 9.05895
49.488861631846454 9.03552
49.513377840166804 9.02237
49.537896467493745 8.97919
49.56260909589029 8.92497
49.587132585683285 8.949589999999999
49.611658500018365 8.93799
49.636186840738596 8.89138
49.66090926588511 8.90735
49.685442483902584 8.89133
49.70997813385706 8.88687
49.734516217597076 8.8587
49.75924846937352 8.8581
49.7837914452858 8.83151
49.80833686055187 8.813889999999999
49.83288471702571 8.76248
49.85762682540054 8.76823
49.882179588965734 8.748439999999999
49.9067347993235 8.756780000000001
49.93129245833333 8.77229
49.95604445336378 8.72922
49.98060703442832 8.700239999999999
50.005172069746266 8.69018
50.02993150438364 8.686069999999999
50.05450147301533 8.629719999999999
50.07907390151433 8.593060000000001
50.10364879174981 8.58787
50.12841816587289 8.58165
50.1529980044635 8.57432
50.17758031042124 8.5787
50.20216508562089 8.54837
50.22694442953363 8.516210000000001
50.25153416817468 8.492939999999999
50.27612638170508 8.481110000000001
50.300721072005196 8.49142
50.325510416102105 8.43593
50.350110084975064 8.43453
50.37471223628208 8.46105
50.39931687190919 8.43115
50.424116246675766 8.41415
50.44872587605249 8.39892
50.47333799543065 8.37075
50.49795260670191 8.334769999999999
50.52276204271512 8.339089999999999
50.54738166295838 8.32345
50.57200378079314 8.33008
50.596628398116835 8.26596
50.62144792604559 8.23403
50.646077567609396 8.249080000000001
50.670709714377715 8.24202
50.69553683636198 8.234960000000001
50.72017401885922 8.20069
50.7448137122895 8.1859
50.76945591856022 8.19181
50.79429318636823 8.188089999999999
50.818940443716784 8.15525
50.84359021965163 8.1196
50.868242516085964 8.09981
50.893089960641895 8.09201
50.917747323549435 8.06443
50.94240721271973 8.089789999999999
50.96706963007175 8.06228
50.99192728239342 8.0473
51.01659478166073 8.04652
51.04126481489051 8.00731
51.06593738400761 7.98752
51.090805275207074 7.97422
51.11548294172845 7.9504600000000005
51.14016314993547 7.937410000000001
51.164845901758845 7.930680000000001
51.18972406304274 7.881360000000001
51.21441192780656 7.88691
51.23910234200271 7.8585199999999995
51.2637953075678 7.870369999999999
51.288683770237945 7.829860000000001
51.31338186432707 7.811730000000001
51.33808251561888 7.82004
51.362978729967345 7.8154
51.387684521509755 7.79568
51.41239287610203 7.787910000000001
51.437103795691165 7.70595
51.46201036644977 7.70194
51.486726441956634 7.695810000000001
51.51144508832545 7.71173
51.536166307509156 7.7059
51.56108326624387 7.683339999999999
51.58580965706056 7.65813
51.61053862657523 7.637639999999999
51.635270176746864 7.59403
51.66019755512065 7.61228
51.68493429268881 7.5838
51.70967361681515 7.60232
51.73441552946465 7.552169999999999
51.759353359237934 7.562139999999999
51.7841004750961 7.58772
51.80885018539685 7.522639999999999
51.833602492111254 7.5170699999999995
51.8585508051424 7.45591
51.883308330926425 7.4587699999999995
51.90806845906181 7.448860000000001
51.932831191525715 7.40872
51.95779001977161 7.378480000000001
51.98255798721516 7.38611
52.00732856494335 7.37114
52.03229530577543 7.35751
52.057071130455945 7.32808
52.081849571391054 7.31814
52.106630630568695 7.30191
52.13160794279417 7.27354
52.15639426492067 7.267060000000001
52.18118321127822 7.315110000000001
52.205974783860896 7.26485
52.23096269971011 7.2206399999999995
52.255759551287994 7.19353
52.280559035098186 7.17687
52.30536115314103 7.22306
52.33035970494467 7.19435
52.35516711807904 7.15648
52.37997717147198 7.17403
52.40478986713005 7.15045
52.42979908731974 7.1119
52.454617094216 7.13745
52.47943774942214 7.08133
52.50426105495102 7.0488100000000005
52.529280976059844 7.050330000000001
52.554109609024096 7.0782
52.57894089837482 7.016360000000001
52.60377484613117 7.0006699999999995
52.62880550079408 7.038139999999999
52.65364479223379 6.992389999999999
52.67848674816189 6.967639999999999
52.70352547971946 6.95742
52.72837279155837 6.98488
52.753222773982785 6.94746
52.778075429022984 6.95595
52.80312495150885 6.94648
52.827982978797436 6.911239999999999
52.85284368481815 6.88908
52.87770707160767 6.8612899999999994
52.90276741793998 6.85652
52.92763619336701 6.8659300000000005
52.952507655698504 6.87005
52.977381806977576 6.86044
53.00245301017842 6.78332
53.02733256653592 6.77255
53.052214817996074 6.760510000000001
53.077099766608484 6.7776
53.102181859804446 6.7110899999999996
53.127072229988265 6.711760000000001
53.15196530349892 6.72214
53.17686108239249 6.710310000000001
53.20195409881522 6.691330000000001
53.22685531582556 6.66955
53.25175924441303 6.6787600000000005
53.27666588664027 6.628419999999999
53.30176985962693 6.677739999999999
53.3266819565689 6.63284
53.35159677336455 6.59565
53.376514312083096 6.5492099999999995
53.40162927507703 6.57413
53.42655228516116 6.58882
53.45147802340193 6.56378
53.47660125628886 6.51536
53.50153247842639 6.50945
53.52646643496923 6.48914
53.55140312799818 6.4528099999999995
53.576537409691696 6.47516
53.60147960336152 6.46134
53.626424539786164 6.48733
53.65137222105307 6.4679199999999994
53.67651758529126 6.41191
53.70147078399681 6.3705
53.72642673383343 6.3804099999999995
53.75138543689533 6.35695
53.776541917524526 6.37359
53.801506154876755 6.31426
53.826473151763246 6.3076099999999995
53.851442910284916 6.3139
53.87661054126026 6.2778
53.9015858509782 6.32491
53.92656392866066 6.32154
53.95154477641532 6.27355
53.976723591801296 6.2739400000000005
54.00171000771266 6.2581
54.02669920004598 6.23163
54.051691170915745 6.18927
54.076881204886796 6.204680000000001
54.101878760928514 6.16854
54.12687910187696 6.1379
54.152077577768296 6.15183
54.1770835166946 6.10395
54.20209224691339 6.08323
54.22710377055121 6.086130000000001
54.25231352511594 6.07569
54.27733066384342 6.01864
54.30235060239643 6.0175
54.32737334290836 6.023540000000001
54.35259441062629 5.9586
54.377622783395324 5.95855
54.40265396455061 5.94365
54.42768795623251 5.8884099999999995
54.45292037169559 5.8596
54.477960012857906 5.85597
54.50300247099511 5.869680000000001
54.52804774825457 5.83839
54.55329154616743 5.82932
54.57834249018678 5.84809
54.6033962597977 5.83553
54.6284528571545 5.77727
54.653708072335164 5.71507
54.67877035378786 5.713019999999999
54.70383546947698 5.72651
54.72890342156389 5.7112300000000005
54.7541700889442 5.6407099999999994
54.77924374251975 5.646
54.8043202390049 5.60686
54.82959552413022 5.565230000000001
54.8546777351945 5.572769999999999
54.87976279569621 5.54977
54.90485070780914 5.56047
54.930137506558005 5.526669999999999
54.95523115074295 5.56508
54.98032765308844 5.47035
55.005427015775496 5.5120000000000005
55.03072536339621 5.51483
55.05583047570572 5.43109
55.080938454927676 5.3903
55.10604930325027 5.38213
55.131359235107396 5.36952
55.15647585066083 5.31159
55.181595341907496 5.3466
55.20671771104285 5.27931
55.232039262617704 5.26955
55.25716741665048 5.24217
55.28229845518636 5.20222
55.30743238042802 5.15383
55.33276558731939 5.1784
55.357905315183636 5.13687
55.383047936390035 5.08564
55.40819345314859 5.05778
55.433538351073295 5.02975
55.458689688238415 5.07559
55.483843927614096 4.9779599999999995
55.509197623043605 4.99028
55.53435769621134 4.95524
55.55952067826466 4.9576400000000005
55.5846865714265 4.97202
55.61005202069737 4.90231
55.63522376553902 4.8752699999999995
55.66039842818645 4.80701
55.68557601087004 4.88435
55.7109532500271 4.77671
55.73613670233794 4.7903400000000005
