TT I
1.2716486653135266 7.1478600000000005
1.2939594142134223 6.942880000000001
1.3162702121660406 6.69862
1.3385810600174564 6.33137
1.3608919586137629 6.81845
1.383202908801069 6.13545
1.405513911425503 6.354769999999999
1.4278249673332093 6.50858
1.4501343378461518 5.63707
1.4724455028545926 5.84239
1.4947567236847858 6.2131099999999995
1.517068001182951 5.89956
1.5393793361953272 5.01903
1.5616907295681737 6.013809999999999
1.5840021821477681 5.55086
1.60631369478041 4.76187
1.6286252683124185 5.13474
1.6509369035901333 4.81471
1.6732468618895553 4.49522
1.695558623192809 4.55933
1.7178704487808514 4.739730000000001
1.7401823395001077 5.29368
1.7625012545597203 4.66195
1.7848028405262486 4.87352
1.8071218901122095 4.7489300000000005
1.8294236121921872 4.59662
1.8517427996910911 4.128909999999999
1.8740620574440425 4.44376
1.8963639900671978 4.95317
1.9186833908139995 4.46359
1.9409854680117449 4.79437
1.9633050151394713 4.62528
1.9856246367570705 4.71751
2.0079269371922672 4.612
2.03024671027244 4.34575
2.0525491637446027 4.1214
2.074869091674931 4.22879
2.097171701569106 4.43755
2.1194917877373847 4.60966
2.141811954326636 5.0195
2.164114805233074 5.02554
2.186435135143035 5.731380000000001
2.208738150935709 8.518410000000001
2.231058647554722 15.5841
2.2533792288321184 11.7204
2.275682498336085 7.123660000000001
2.298003251406138 6.159730000000001
2.3203066942619714 5.16195
2.3426276225136022 4.83205
2.3649486396617507 5.71437
2.387252348930071 5.97697
2.4095735463442893 6.10468
2.4318774374315884 5.80441
2.4541988185014043 6.307119999999999
2.476502894794693 6.80416
2.498824462909887 6.83068
2.521146125856138 7.0963899999999995
2.5434504863470337 7.188060000000001
2.5657723414244717 7.99965
2.588076895590662 8.34278
2.610398946189713 8.548
2.6327210958598384 7.9335
2.6550259469304716 8.18545
2.6773482972090137 8.12526
2.6996533504259 8.22717
2.7219759047039602 7.94455
2.744298562293959 8.03707
2.7666039251246595 8.38813
2.7889267918020164 8.86974
2.8112323652516555 8.82001
2.833555444408179 8.71907
2.8558786311183852 8.71129
2.8781845268938557 8.57564
2.9005079311721484 8.84999
2.9228140460410397 9.23254
2.9451376712799635 9.48536
2.967444008632326 9.46852
2.9897678582247247 9.65968
3.0120918213106695 10.3938
3.0343984987899373 10.3557
3.0567226913198637 11.3019
3.079029599759726 11.6218
3.101354025127254 12.1148
3.123678568232338 12.8992
3.145985829517914 12.985
3.16831061055229 13.8232
3.1906181112775593 13.9918
3.212943133635653 14.8048
3.2352682779763207 14.8433
3.2575761442691227 15.1321
3.2799015350264273 15.8081
3.302209649240067 16.2166
3.3245352898092655 16.4742
3.3468436553365257 16.6187
3.369169549113219 17.7292
3.3914955708171384 18.5256
3.413804319727358 18.7751
3.4361305997334863 19.1153
3.4584396084414553 19.6683
3.4807661501462652 19.5917
3.503092824025881 20.2953
3.5254022288463154 20.7871
3.5477291695206588 21.3711
3.5700388426251948 21.9803
3.5923660534916446 22.9176
3.6146934007816114 30.1889
3.637003482731501 51.1977
3.6593311053109985 55.2031
3.681641464033634 37.7412
3.7039693653009733 26.8203
3.726297407241705 24.9869
3.7486081875460804 24.9039
3.7709365132734978 25.2777
3.793247578841633 25.711
3.8155761917550093 26.3136
3.8378875459837216 26.4571
3.8602164494827234 26.98
3.882545499606844 27.5173
3.9048572932539183 28.2402
3.9271866390645718 28.6574
3.9494987298666713 29.2581
3.971828374764527 29.7545
3.9941581705403255 30.3936
4.016470713506008 30.8855
4.038800813471445 31.6612
4.061113662089144 32.4644
4.0834440696459176 32.8255
4.105774632334751 33.1624
4.128087945865126 34.0842
4.150418821249301 34.7005
4.172732448931298 35.55
4.195063640413578 37.1237
4.2173775856475215 39.5787
4.239709096631102 54.5418
4.262040768704612 126.575
4.284355196706267 159.386
4.306687193387355 111.32799999999999
4.329001947444346 58.1278
4.35133427213731 44.5556
4.373666762177566 42.9163
4.395982011761091 42.9213
4.418314834921175 44.1092
4.44063041906622 48.2578
4.4629635787515625 53.6698
4.4852969080429785 54.566
4.5076130004776225 52.2748
4.529946671403969 55.6933
4.552263106909177 59.8049
4.574597122877047 56.7638
4.596931312711224 53.9469
4.619248269273446 53.4598
4.6415828092605835 54.0408
4.663900117405352 55.1446
4.686235010953232 56.0274
4.708552674085913 57.6934
4.730887924602802 59.3972
4.753223354952695 61.4556
4.775541557023902 64.3984
4.797877349456786 67.8018
4.820195915032126 68.2398
4.842532072957498 67.8266
4.864868414979744 70.2339
4.88718753227192 73.995
4.909524244902505 75.4294
4.931843734218147 75.8985
4.954180820867835 77.6534
4.976518095879839 80.4354
4.998838149695359 83.369
5.021175803844231 86.6056
5.043496238205739 90.4406
5.065834274903528 94.6346
5.088172504230693 99.2544
5.1104935158799565 105.961
5.132832132875765 124.734
5.155153533596801 156.33700000000002
5.1774925416746225 197.26
5.199814334878411 399.339
5.2221537374521505 1024.86
5.244493338631803 2851.64
5.266815727034316 7975.64
5.289155727832427 12390.5
5.311478517248165 8179.08
5.333818921080011 2506.25
5.356159527788849 485.584
5.3784829252032536 189.546
5.400823940070432 150.309
5.423147747031976 129.10299999999998
5.445489173474152 118.78299999999999
5.467830807066149 117.441
5.490155234831516 117.09
5.512497285125229 110.902
5.534822130975162 105.117
5.557164601388673 101.277
5.579489868738879 98.5694
5.601832762690846 97.574
5.6241758697774475 96.3537
5.646501775867269 95.8864
5.668845311622074 94.1003
5.691171647754637 93.7292
5.713515615597765 92.7564
5.735859800852677 91.9952
5.758186788542988 93.6119
5.780531411018185 96.9921
5.802858837297399 97.2579
5.825203900414495 97.2303
5.8475491852224 100.667
5.869877275883075 99.6709
5.892223006467101 96.1752
5.914551544266608 95.0373
5.936897724049891 97.0468
5.959244129804903 103.60600000000001
5.981573344815301 130.955
6.0039202049061 239.97
6.026249875609095 477.106
6.04859719346037 970.117
6.070927323278297 2286.55
6.093275102315365 4577.35
6.115623113320588 5206.97
6.137953938319995 3009.79
6.160302415650845 855.2639999999999
6.182633708324452 204.00799999999998
6.2049826554078376 106.73
6.227331838745022 89.0731
6.249663839443684 83.0486
6.27201349767565 79.6946
6.294345974611799 80.7788
6.316696111167083 84.6775
6.339046488263839 81.598
6.361379686074702 74.2406
6.383730546639482 70.0084
6.406064229255215 69.0411
6.428415576718203 70.0677
6.450749747566656 68.7972
6.47310158535871 66.3885
6.495453669698332 64.9316
6.517788579421056 63.7801
6.540141159237969 62.6604
6.562476565766648 62.3378
6.5848296444934045 62.5742
6.607182974060425 62.4231
6.6295191323281015 62.8341
6.651872965955752 63.1862
6.6742096296068985 74.0943
6.6965639707294615 92.8407
6.71891856698715 91.7792
6.741255995248479 73.5398
6.763611104154477 62.0658
6.785949046381137 58.7248
6.808304671371482 58.9087
6.8306605557940046 59.7743
6.852999275508618 58.8551
6.875355681171544 57.3815
6.897694923437771 56.2704
6.92005185377892 55.7902
6.9423916220322655 55.6927
6.964749080490181 55.4162
6.987106804399774 55.2896
7.009447368180821 55.5373
7.031805625367033 55.5766
7.054146723727803 54.6291
7.076505517631004 54.5149
7.098864581288365 54.5365
7.121206488070854 54.617
7.143566093607822 54.4543
7.165908543567245 55.1986
7.188268694426048 55.4869
7.2106291193438095 54.924
7.232972390625943 54.8192
7.255333366030969 60.9211
7.277677189091925 83.486
7.300038718428332 104.45
7.322400526130865 94.6727
7.344745183422596 69.0127
7.367107550224791 56.8222
7.389452767901992 54.506
7.411815697249891 53.9312
7.434161478756298 53.1671
7.456524974096713 53.2825
7.478888753837185 53.6398
7.501235387657368 53.9972
7.523599738562711 53.9762
7.545946944825532 53.87
7.568311870344528 54.6557
7.5906770845765665 54.2958
7.613025156078678 55.1561
7.635390950099687 55.7572
7.657739602662809 55.5536
7.680105979923558 55.75
7.702472650212829 56.2355
7.724822180948224 56.3946
7.747189439655568 56.1127
7.769539560075357 55.3152
7.791907410653562 56.0661
7.81425812420825 56.1101
7.836626570110925 56.3839
7.858995315087906 57.2095
7.881346924933401 57.4177
7.903716270417482 57.7962
7.926068482028405 58.0668
7.948438431475253 58.8376
7.9708086843180235 59.025
7.993161805171116 59.8191
8.015532667162402 60.3439
8.037886398416653 61.7779
8.060257873014221 62.1399
8.082629655331942 62.5148
8.104984308787587 63.3877
8.127356708900503 65.8947
8.149711981398308 70.4333
8.172085002766314 72.6034
8.194458336181368 70.1819
8.216814543847752 68.738
8.23918850371002 69.1249
8.26154533906492 69.6898
8.283919928836452 71.4776
8.306277395339652 72.2399
8.328652618483376 73.4015
8.351028159736202 75.6175
8.373386579575245 77.8812
8.395762759396959 79.917
8.418121819038275 83.4905
8.440498640894003 91.3365
8.462875785192262 103.38799999999999
8.485235811156207 127.3
8.507613602688501 177.643
8.529974277114228 259.84
8.552352719347912 385.096
8.574731488360351 664.635
8.59709314210385 1219.38
8.619472567021075 1946.3
8.64183487789147 2174.05
8.664214962183097 1723.51
8.686577933647762 849.446
8.708958680784317 316.574
8.731339760774953 146.875
8.753703729764451 106.73
8.77608547780821 96.8312
8.798450116065078 93.9328
8.820832535634787 91.5145
8.843215292401656 91.5663
8.865580941199045 91.7435
8.887964374703538 91.1949
8.910330701447199 90.6766
8.932714815164482 90.8247
8.955099270424924 88.9648
8.977466620733543 86.74700000000001
8.999851761421976 84.7559
9.022219798361645 83.6072
9.04460562795561 83.2864
9.066991803441677 83.2531
9.089360876979615 83.6071
9.111747746589993 82.9794
9.13411751544971 81.5096
9.156505082664324 81.4982
9.178875550323522 81.6278
9.20126381862328 81.3984
9.223652438908596 81.6532
9.246023961427412 81.6438
9.26841328802173 81.5984
9.290785518039224 81.9476
9.313175554425882 84.2738
9.335565947154315 85.3465
9.357939245086508 85.2676
9.380330352834827 84.8144
9.40270436697103 84.9535
9.425096193225055 84.2454
9.447488380180165 84.3867
9.469863475295412 84.0438
9.492256385987508 84.4139
9.514632206018318 85.3242
9.537025843935714 85.3614
9.559402392368193 86.611
9.581796761000229 88.587
9.604191496441521 90.781
9.626569144158516 93.7688
9.648964615551032 95.6639
9.671343000390081 95.0498
9.693739211225699 93.2675
9.716135793237463 92.35
9.738515290448102 92.5402
9.760912617143402 94.2935
9.783292860202891 96.3277
9.805690935076182 98.2643
9.828089385495742 99.065
9.850470754023561 100.61200000000001
9.872869957865444 104.65
9.89525208097539 112.02799999999999
9.917652041736662 119.861
9.940052382417589 127.171
9.962435644102392 150.411
9.984836746950979 190.275
10.007220771957746 246.68200000000002
10.029622640473708 344.925
10.052007432299963 521.509
10.074410069984072 835.784
10.096813093716005 1312.8
10.119199042482517 1808.99
10.141602840636468 1971.47
10.163989564971628 1501.83
10.186394141051062 810.888
10.208799107559706 347.175
10.231187001965623 168.868
10.253592751657669 120.245
10.275981430388155 110.363
10.298387966769793 108.75
10.320794897965431 108.98100000000001
10.343184759907361 107.546
10.36559248305461 104.758
10.387983138083852 104.24700000000001
10.410391656691655 110.755
10.432800574501677 121.77600000000001
10.455192425893369 136.513
10.47760214443012 161.88299999999998
10.499994797678786 209.173
10.522405320453982 294.818
10.54479877906917 424.466
10.567210109595656 537.3330000000001
10.5896218454736 577.446
10.612016518879773 482.968
10.634429067781074 318.503
10.656824555333241 182.582
10.679237920773568 114.811
10.701651695961992 93.7454
10.724048411481384 88.1802
10.746463008485165 85.5641
10.768860546937125 83.8114
10.791275969274796 82.09899999999999
10.81369180576079 81.4725
10.836090585366925 80.1577
10.858507252467449 79.2318
10.88090686379991 78.0369
10.903324365036394 77.6107
10.925724811614439 77.2081
10.948143150509463 77.9105
10.970561909719066 77.3536
10.992963615930844 76.2064
11.015383218085756 74.7646
11.037785768347074 72.7963
11.06020621697282 72.3397
11.082627090322113 71.5068
11.105030913430326 70.69800000000001
11.12745263854165 70.7819
11.149857314510728 71.7918
11.172279894912576 74.5572
11.194702904450653 74.0479
11.217108866490921 71.89399999999999
11.239532736615194 70.0169
11.26193956033512 68.9967
11.284364294577085 68.3495
11.306789462371718 66.7279
11.329197585398376 66.0707
11.351623622610898 66.0749
11.37403261614354 65.2963
11.396459526308487 65.2267
11.418869393879497 64.941
11.441297180532617 64.7993
11.463725406927658 64.1203
11.486136592353875 64.1677
11.508565700543707 64.0743
11.530977768845315 64.8452
11.553407762368774 65.188
11.575838200059769 64.6447
11.598251599479612 63.7606
11.620682927815501 63.01
11.64309721895548 63.0676
11.665529441478206 62.5238
11.687962112597958 61.9907
11.710377748130886 62.2837
11.732811318753434 62.4136
11.755227854859067 62.183
11.777662328529495 62.0667
11.800079768750786 62.1688
11.822515149015453 62.2852
11.844950984084935 62.3932
11.867369787303163 61.8496
11.889806534289491 61.9258
11.912226250487029 62.1274
11.934663912939751 62.3849
11.9571020346363 62.6084
11.979523127133968 62.8141
12.001962169624331 63.8488
12.024384183972964 65.2752
12.046824150809913 67.9443
12.069264581333726 72.4674
12.091687985297767 77.9855
12.11412934550045 87.0133
12.136553680195208 103.02799999999999
12.158995973632788 128.025
12.181438735204349 160.259
12.20386447284199 192.852
12.226308172985636 216.918
12.24873485024193 202.832
12.271179492516982 164.865
12.293607112949127 117.52799999999999
12.316052700916226 87.1626
12.338498763250042 72.2885
12.360927805303868 66.3898
12.383374818673879 64.3897
12.405804812803074 63.3884
12.428252780773262 63.4518
12.45070122756722 63.4551
12.473132656675375 63.5897
12.49558206341869 64.1704
12.518014453510101 64.2324
12.540464823770117 63.9323
12.562915677315177 64.2885
12.58534951575545 64.7104
12.607801338171472 65.5691
12.630236146511358 67.8849
12.652688941369085 70.4299
12.675124723177234 70.6312
12.697578494048786 69.3988
12.720032754458185 67.4296
12.742470003354093 66.7013
12.764925245138771 67.0302
12.787363476431278 67.2449
12.809819703166806 67.782
12.83227642391173 68.6381
12.854716135692716 69.1794
12.877173846755147 70.406
12.899614549869717 70.8293
12.9220732548287 71.7055
12.94453245827299 72.1674
12.966974655289818 73.5081
12.989434858002571 73.9825
13.011878055298721 74.7435
13.034339260862497 75.5246
13.056800969391883 76.9628
13.079245674017244 79.8236
13.101708390774869 83.5689
13.12415410463411 91.7283
13.146617833206086 101.58
13.169064559883248 111.26100000000001
13.191529303857127 125.27600000000001
13.213994557076367 148.97899999999998
13.236442809902437 188.97099999999998
13.258909083908291 249.12
13.28135835851934 315.966
13.30382565690295 390.85699999999997
13.326293469022952 431.176
13.348744283242008 413.05300000000005
13.371213125129904 332.34
13.39366497011003 234.74599999999998
13.416134845360597 156.056
13.438605238843131 117.806
13.46105863690397 105.193
13.483530069144786 106.081
13.505984506951902 110.25299999999999
13.528456981549432 119.807
13.550929978879088 135.252
13.573385983253365 160.945
13.595860028340867 201.618
13.618317081455832 258.66
13.64079217790333 317.613
13.663250283359057 365.27099999999996
13.685726434770173 374.699
13.708203115221277 328.88
13.730662806148091 244.519
13.75314054697177 168.533
13.775601299246777 117.265
13.798080104050406 92.4888
13.820559442405358 83.5408
13.843021793671388 80.7433
13.865502201420897 79.0367
13.887965623051947 78.6013
13.910447103807167 77.6593
13.932929122629764 76.3673
13.955394156785959 76.0223
13.977877254034569 75.1757
14.000343367582113 74.2265
14.022827546871707 73.9319
14.045294743423524 72.9764
14.06778000837062 72.2283
14.090265817715476 72.1643
14.112734645763819 71.9849
14.13522154619454 71.30199999999999
14.157691466286913 71.0705
14.180179461423874 71.0306
14.202668005486178 70.5926
14.22513957064374 70.0205
14.247629214846473 69.82300000000001
14.270101881097517 69.5985
14.29259262906496 69.2601
14.315083930490205 69.5561
14.337558255389705 69.6765
14.360050666019726 69.4922
14.382526101071944 69.2877
14.405019624534942 68.6445
14.427513705993134 68.3254
14.449990813291825 68.2659
14.47248601302899 68.2188
14.49496423954951 68.2107
14.517460561197822 68.2196
14.539939910570322 68.0703
14.562437357763558 68.4934
14.58493536931253 68.9275
14.607416409993311 69.3978
14.62991555254159 69.8276
14.652397725157423 69.891
14.674898002342799 69.7443
14.697398848433282 70.0619
14.719882725991326 71.6406
14.74238471217934 73.3481
14.764869730765593 76.8332
14.787372860692983 79.2728
14.809876564079925 82.9537
14.83236330125751 88.8916
14.854868153850365 97.5661
14.877356041159485 111.524
14.899862046604186 132.238
14.922351087688757 159.904
14.944858249632887 190.018
14.967365991421232 219.278
14.989856770231246 228.39
15.012365673994204 219.278
15.03485761569738 186.278
15.05736768508665 139.268
15.07987833888692 106.586
15.102372032001655 85.3333
15.124883856909658 74.4905
15.14737872204565 71.2388
15.169891721717274 69.8079
15.192405310371893 69.5855
15.214901940621196 69.4725
15.237416709527137 69.0732
15.259914520936249 68.7602
15.282430473753607 68.1608
15.304947020131227 67.4104
15.327446610371178 66.7875
15.349964346154254 66.3745
15.372465126703139 65.9021
15.394984055556009 65.9241
15.417486030076159 65.5511
15.44000615566487 65.3719
15.462526881230803 65.3329
15.485030653812652 65.4371
15.507552581617434 65.1532
15.530057557334603 65.3781
15.55258069104857 65.2117
15.575104429329837 65.4379
15.597611216864632 65.1701
15.620136166564563 65.7775
15.6426441664095 67.592
15.665170331202765 69.9871
15.687697105158826 72.5488
15.710206930593545 75.3658
15.732734925158933 79.4261
15.755245972089478 85.8934
15.77777519094324 95.249
15.800287463046663 109.427
15.822817909869592 130.244
15.84534897229804 153.059
15.867863089299354 180.138
15.890395385222186 196.707
15.912910736597423 198.232
15.935444269699861 179.21599999999998
15.957978423016485 146.215
15.980495633101265 112.75399999999999
16.003031029129367 88.568
16.02554948280019 72.3163
16.048086125229432 65.5548
16.070623392487107 63.2277
16.09314371869582 62.3152
16.11568223789321 61.6789
16.13820381691126 60.9974
16.160743591742527 60.2352
16.183283996022084 59.5523
16.205807461423195 58.6661
16.228349126881973 57.8849
16.25087385432698 57.9358
16.27341678466365 57.4963
16.29594277784926 57.3134
16.31848697676433 57.218
16.341031811604868 57.1448
16.36355971058487 57.2515
16.3861058195587 57.1849
16.40863499352978 56.2896
16.431182380342005 55.6579
16.453730407713202 55.4313
16.476261501364792 55.2511
16.498810812136167 54.8172
16.52134319004079 54.9721
16.54389378792203 54.7675
16.566445031001553 54.5529
16.588979342490088 54.4911
16.61153187824822 54.5891
16.634067483263312 54.3109
16.656621315414416 54.2056
16.679175797408888 53.9376
16.701713349928728 54.0088
16.72426913389191 54.2381
16.74680798922351 54.1892
16.76936507887444 54.1843
16.791905240734874 54.2254
16.814463639794468 54.0819
16.837022695210294 54.1688
16.859564824093756 54.5689
16.882125194503903 54.7101
16.904668639217885 55.1469
16.927230328348003 54.9452
16.949792678493612 55.141999999999996
16.972338104193863 54.8992
16.994901778652235 54.839
17.017448529496576 55.1463
17.040013531998152 55.4822
17.06257920018044 55.9203
17.0851279459922 56.5329
17.107694947817667 57.4069
17.130245028099072 58.2427
17.15281336730298 59.5832
17.17536478578733 61.4683
17.19793446610687 63.6147
17.220504818648422 66.8969
17.243058251703697 70.5334
17.265629950971032 75.203
17.288184731571736 79.9954
17.310757781306908 83.4063
17.33333150794385 83.2406
17.355888317140174 80.4136
17.37846339986244 74.6686
17.401021565958885 68.1817
17.42359800851343 63.4864
17.44617513265564 60.5557
17.468735341390783 59.1218
17.491261035594565 58.5497
17.51396340099364 58.5782
17.536490463869136 58.4786
17.559018209820174 58.5962
17.58154663977963 58.7885
17.604251766089718 58.9889
17.626781572227713 59.0049
17.64931206518155 59.1774
17.671843245885103 59.6581
17.69455114821572 59.773
17.717083712612634 59.9656
17.739616967569667 60.3134
17.762150914021706 60.8825
17.78486160749854 61.0127
17.807396945166804 61.8927
17.829932977143503 63.1531
17.85246970436452 64.6833
17.875183204129467 65.9301
17.897721330097664 67.9715
17.920260154126645 69.9695
17.942799677153296 73.0703
17.9655159983646 77.0111
17.988056927677544 82.83200000000001
18.010598558807683 91.3234
18.033140892692916 101.985
18.05586005052525 113.791
18.07840379824407 125.738
18.10094825154059 136.252
18.12366954819864 141.66299999999998
18.146215420998306 137.97
18.16876200220057 126.818
18.191309292745153 111.90799999999999
18.214033452627167 98.7055
18.236582170236648 88.6075
18.259131600016456 84.8434
18.281681742907335 86.04899999999999
18.304408781233683 91.1294
18.32696035875955 96.9539
18.349512652227624 101.854
18.372065662579683 105.542
18.394795594587553 105.146
18.41735004715306 100.16799999999999
18.43990521943684 92.139
18.46246111238171 82.4291
18.485193953325208 74.0036
18.507751296070428 67.5013
18.530309362314178 64.264
18.552868153000343 62.4026
18.57560391815056 61.2812
18.59816416623245 60.8293
18.620725141597372 60.4841
18.643286845190268 60.0064
18.666025549835414 59.4722
18.688588718427933 58.976000000000006
18.711152618092243 58.9453
18.73389353884365 58.7338
18.75645890921984 58.3688
18.77902501351406 57.9225
18.801591852673102 57.9751
18.824335739722738 57.4762
18.846904057212626 57.4303
18.8694731124168 57.1355
18.89204290628315 57.2667
18.914789774966803 56.9542
18.937361054791623 56.5285
18.959933076131318 56.2623
18.982505839934877 56.2561
19.00525570560582 56.3709
19.027829963004184 56.1887
19.05040496572238 56.3707
19.072980714710468 56.2932
19.095733592739563 56.5865
19.11831084296757 56.7399
19.140888842324735 56.9852
19.16346759176222 57.1628
19.18622349753803 57.8462
19.208803755869358 58.8153
19.231384767143577 60.0668
19.253966532312948 61.713
19.276725481241822 63.808
19.29930876296784 66.5649
19.3218928014549 69.6083
19.34465404436217 72.2681
19.36723960516257 75.0313
19.389825925592426 75.4421
19.412413006605938 73.9279
19.43517731967805 69.8501
19.457765930683355 65.2181
19.48035530514408 60.8301
19.50294544401556 57.7399
19.525712842708348 55.4845
19.54830451925909 54.2579
19.570896963095727 53.4961
19.593490175174704 53.1816
19.616260674962184 53.1285
19.638855432416964 52.81399999999999
19.661450960992624 53.0424
19.68404726164677 52.8731
19.706820878021247 52.7401
19.729418731756834 52.9165
19.752017360452857 52.8157
19.77461676506804 53.2125
19.797393513540218 53.0967
19.819994478951667 53.4634
19.84259622316767 53.79600000000001
19.8651987471481 54.178000000000004
19.887978643247177 54.4155
19.91058273574792 54.7836
19.933187610901943 55.6314
19.955969879466828 56.9135
19.97857632894404 58.7083
20.00118356396599 60.369
20.023791585494575 62.7164
20.046577028914875 65.495
20.069186632506966 67.8881
20.091797025500632 69.668
20.114408208858933 69.7015
20.137196842715273 68.9861
20.159809615886765 66.9775
20.18242318232135 64.2767
20.20503754298326 62.1948
20.227829382875154 61.3638
20.250445341109344 61.7222
20.27306209647285 62.7207
20.29567964993108 64.1499
20.31847471147704 64.9071
20.34109387027612 65.1894
20.363713830075454 64.3323
20.386334591841646 62.5618
20.409132890679302 60.1204
20.431755265564437 56.754
20.454378445325528 53.8961
20.477002430930366 52.3681
20.499803982716553 51.175
20.522429589228004 50.5932
20.54505600449589 50.0913
20.567683229489194 49.9723
20.590488049900088 49.8104
20.61311690359731 49.6171
20.63574656993626 49.4035
20.658553853717297 48.9446
20.681185154618298 49.0508
20.703817271080066 48.7401
20.72645020407368 48.5695
20.749260783967177 48.5513
20.771895359337133 48.506
20.794530754161617 48.401
20.817166969412938 48.3816
20.83998086114876 48.448
20.86261872660049 48.2291
20.885257415405402 48.1648
20.90789692853701 48.1603
20.930714147864748 48.0818
20.953355319030678 48.0701
20.97599731745334 48.2965
20.99864014410749 48.0608
21.021460706796564 48.0738
21.044105199328826 48.3542
21.06675052302631 48.4151
21.089396678865015 48.7911
21.112220600704806 49.0322
21.134868430275347 49.4674
21.15751709492456 49.70399999999999
21.180166595629693 49.9281
21.202993892429635 50.3946
21.22564507473034 50.8678
21.24829709602816 51.01
21.27112693608965 51.0386
21.293780644891275 50.775
21.316435195634053 50.0787
21.339090589297417 49.292
21.361923832041875 48.9625
21.384580921090404 48.4444
21.407238856007325 48.0268
21.429897637773326 47.8745
21.45273429906592 48.0395
21.475394784108598 48.0938
21.498056118951983 47.8941
21.520718304578022 48.1141
21.543558400304388 48.2905
21.566222297108816 48.3702
21.58888704765135 48.7098
21.61155265291521 48.8724
21.63439619898156 49.2205
21.657063523335786 49.5993
21.67973170537063 50.1186
21.7024007460706 50.4568
21.72524775840385 51.1294
21.747918526116475 52.2932
21.770590155457388 53.7078
21.79326264741238 55.4087
21.816113141960237 57.2155
21.838787368860547 59.1911
21.861462461341976 60.9551
21.884315579735777 62.8138
21.90699241312273 63.8554
21.92967011506078 64.1067
21.95234868653799 63.3643
21.9752053151131 62.0715
21.997885635446785 59.8666
22.020566828293532 57.9972
22.04324889464272 56.4966
22.066109049404666 55.7213
22.088792872571794 55.5745
22.111477572219204 55.7669
22.1341631493376 55.8026
22.157026846313123 55.36
22.179714188221507 54.4413
22.202402410582668 53.1633
22.22509151438863 51.7116
22.24795876962584 50.5979
22.270649646204486 49.7526
22.293341407213727 49.1322
22.316034053646906 48.6154
22.338904883215342 48.4931
22.36159931041458 48.4759
22.38429462602756 48.2962
22.40699083104897 48.1445
22.429865251039757 48.2769
22.452563244831367 48.2731
22.47526213102522 48.3037
22.49813925616515 48.2333
22.520839937143307 48.1389
22.543541513520587 48.2804
22.56624398629403 48.108000000000004
22.589124730075895 48.0708
22.611829005656723 48.2914
22.63453418063466 48.285
22.657240256008077 48.6839
22.680124634582935 48.6466
22.70283252079775 48.6996
22.725541310413075 49.0779
22.74825100442868 49.2024
22.771139033969575 49.7906
22.79385054687155 49.93600000000001
22.81656296718292 50.6607
22.83927629590484 51.7664
22.862167992606945 52.7043
22.88488314827121 54.0308
22.907599215359284 54.9848
22.93031619487366 56.1814
22.953211574954405 56.9456
22.975930389478226 57.3053
22.998650119445763 57.3705
23.02137076586092 56.5744
23.044269845560063 54.9301
23.06699233506288 53.2143
23.089715744034912 51.5541
23.112617610931565 50.1146
23.135342869061212 49.0769
23.158069049684816 48.497
23.1807961538087 48.2566
23.20370174880544 48.2761
23.226430710184808 48.2873
23.249160598093425 48.2075
23.271891413539002 48.3375
23.294800752937697 48.3566
23.31753343374794 48.6543
23.340267045128353 48.6573
23.36300158808808 48.9452
23.38591468821339 49.2777
23.408651104658304 49.7606
23.431388455719986 50.4926
23.454126742409 51.3638
23.4770436196085 52.5712
23.499783787914662 53.9515
23.522524894889884 54.7253
23.54526694154616 55.9035
23.56818761219047 57.1397
23.59093154860734 57.5031
23.613676427751283 57.3917
23.636422250635754 56.1228
23.659346731118656 54.3509
23.68209445191868 52.3909
23.704843119509587 50.3799
23.72759273490623 48.6003
23.750521041644767 47.2741
23.77327256312355 46.4268
23.796025035462787 45.9415
23.818956224555475 45.4643
23.841710609113413 45.4308
23.86446594758979 45.1614
23.887222241002014 44.966
23.910157285144578 44.6556
23.932915498962537 44.656000000000006
23.955674670778713 44.4865
23.978434801611975 44.3404
24.001373717286125 44.2215
24.024135776723917 44.1706
24.046898798245582 44.056999999999995
24.06966278287146 43.8944
24.092605586582614 43.7289
24.115371508023642 43.6577
24.1381383956401 43.5461
24.16090625045381 43.5344
24.183852958731244 43.4214
24.206622758582608 43.2429
24.229393528706886 43.1685
24.252165270127392 43.1587
24.27511589952438 43.144
24.297889594216997 42.8958
24.32066426328598 42.9238
24.34343990775613 42.93899999999999
24.36639447485003 42.7231
24.38917208083877 42.7049
24.41195066531332 42.5645
24.43490819850244 42.696999999999996
24.457688750692377 42.5584
24.48047028445616 42.4493
24.503252800821233 42.6221
24.526214300784112 42.7646
24.548998793132213 42.8059
24.57178427117417 42.6092
24.59457073593893 42.5632
24.617536219319863 42.533
24.64032466834748 42.471000000000004
24.663114107195035 42.4077
24.685904536893013 42.0804
24.708874020360852 42.005
24.731666442613744 41.9591
24.754459858818787 41.9326
24.777254270007962 41.8153
24.80022777025625 41.6644
24.82302418230472 41.7841
24.845821592443674 41.7904
24.86862000170663 41.6396
24.891597535453727 41.56
24.914397953892728 41.9196
24.93719937456671 41.7614
24.96000179851076 42.0561
24.98298338249997 42.2925
25.00578782394922 42.4508
25.028593271784167 42.5074
25.05157790644186 42.8041
25.07438537804115 43.0628
25.097193859145293 43.3081
25.120003350792075 43.4656
25.142992065061257 43.8544
25.165803588823465 44.0389
25.18861612625217 44.117
25.211429678386736 44.2182
25.234422489079968 44.2812
25.257238081693636 44.3544
25.280054692141732 44.3582
25.3028723214652 44.5127
25.325869245420463 44.6424
25.348688923599397 44.6636
25.371509623787006 44.4229
25.394331347025812 44.026
25.41733240110666 43.6938
25.440156181590016 42.8356
25.46298098826268 42.2734
25.48580682216873 41.6757
25.50881202326435 41.2216
25.53163992281684 41.0073
25.55446885274561 40.7459
25.577298814096377 40.3168
25.600308179121807 40.4047
25.623140214533745 40.4163
25.64597328451537 40.2871
25.66898578564376 40.2108
25.691820936010206 40.069
25.714657124097695 40.108000000000004
25.737494350954734 40.0911
25.760511045684957 39.8886
25.783350361364224 40.1736
25.806190718969255 40.0843
25.82903211955018 40.1047
25.852053024868923 40.1794
25.874896522722523 40.3973
25.897741066713106 40.2738
25.920586657892454 40.3156
25.943611790812668 40.4836
25.966459487728237 40.6462
25.989308234998564 40.5753
26.01215803367705 41.0643
26.03518741123814 41.2206
26.05803932412957 41.2391
26.080892291600094 41.3226
26.10374631470478 41.1903
26.12677995397268 41.3178
26.14963609978026 41.2086
26.172493304397875 40.7444
26.19535156888223 40.6281
26.218389486949604 40.2434
26.241249882640123 40.0806
26.26411134137826 39.9058
26.28715248187403 39.8324
26.31001607820869 39.7461
26.3328807407756 39.495
26.35574647063438 39.7228
26.37879191991473 39.6126
26.401659795896734 39.5993
26.424528742360263 39.8901
26.447398760366614 40.0937
26.470448535598294 40.0809
26.49332070826805 40.3679
26.516193955675355 40.6393
26.53906827888316 40.9607
26.562122397260108 41.053999999999995
26.584998883685063 41.3695
26.607876449110325 41.5975
26.63075509460056 41.6072
26.65381357334404 41.8068
26.67669439061878 41.6524
26.699576291163382 41.5131
26.722459276044212 41.5068
26.745522132402975 41.0558
26.768407297649354 40.7558
26.791293550442003 40.5516
26.814180891848974 40.3323
26.837248143099337 39.9518
26.860137673466657 39.9493
26.88302829566349 39.6331
26.90592001075963 39.5651
26.92899167420566 39.4074
26.951885586870763 39.0695
26.974780595655517 38.7905
26.99785558178161 38.7695
27.020752794605112 38.6223
27.043651106772522 38.5305
27.06655051935668 38.5384
27.089629948036183 38.3274
27.112531573292053 38.2509
27.135434302194138 38.3126
27.158338135817015 38.2562
27.181422024430987 38.1891
27.204328079372566 38.0124
27.22723524226965 38.1556
27.250143514198573 38.1645
27.273231880156334 38.1645
27.296142382065014 37.9548
27.319053996245536 37.8154
27.341966723775965 38.0086
27.365059584515222 38.1107
27.38797455070062 38.1261
27.410890633481237 37.9744
27.433807833936918 38.0416
27.456905206923906 38.1683
27.47982465472398 38.1012
27.502745223449743 38.1688
27.525666914182825 38.2073
27.548768816912457 38.3288
27.571692763693633 38.1287
27.59461783573812 38.06
27.617723149491244 37.7011
27.640650484125285 37.7375
27.66357894728264 37.6312
27.686508540048052 37.7106
27.709618414237887 37.6637
27.732550278321757 37.4348
27.755483275279115 37.4599
27.778417406196485 37.5186
27.801531858397514 37.5411
27.824468269376716 37.567
27.847405817586786 37.3795
27.870344504116094 37.6136
27.893463551932008 37.7637
27.916404527281053 38.0603
27.93934664422563 37.9738
27.962289903855886 38.0835
27.98541356491974 38.2781
28.00835912214229 38.4532
28.03130582533231 38.6784
28.054253675581805 38.7783
28.077381967556104 38.7264
28.100332124185126 38.5838
28.123283431160893 38.6501
28.146235889577238 38.4452
28.169368830154156 38.2377
28.192323603752033 38.1034
28.215279532083304 37.8549
28.238415973016764 37.5925
28.261374223145094 37.3415
28.284333631303806 37.0273
28.307294198589954 36.999
28.330435319167677 36.7139
28.353398217078915 36.4473
28.376362277420153 36.3094
28.39932750129032 36.1906
28.422473319286713 36.0143
28.44544088262495 35.9807
28.468409612800283 35.8997
28.491379510913497 35.5837
28.51453004413313 35.5887
28.53750229057244 35.4967
28.56047570826344 35.4697
28.583450298308804 35.5223
28.606605564586562 35.284
28.629582511831156 35.4121
28.65256063474956 35.1849
28.675539934446338 35.3166
28.698699951647605 35.2705
28.72168161743193 35.0575
28.74466446331978 35.0098
28.767648490417624 35.0759
28.790813276438353 35.0399
28.813799678527303 35.0343
28.836787265157085 34.9682
28.859955641890075 35.038000000000004
28.882945610203045 34.9771
28.905936766392035 34.8876
28.928929111566863 34.9741
28.952102288520145 34.8914
28.975097024308607 34.7755
28.998092952423807 34.5467
29.021090073977508 34.4497
29.04426806913204 34.4376
29.067267590245258 34.2109
29.090268308143695 34.2078
29.11327022394099 34.1167
29.13645305530891 34.0097
29.159457379627167 34.0843
29.18246290519685 34.0035
29.20546963313352 33.9396
29.22865731875826 33.9557
29.25166646419296 33.9107
29.27467681535305 33.8315
29.29768837335608 34.0153
29.320880931312562 33.8971
29.34389491580634 33.9555
29.366910110507334 33.8887
29.38992651653503 33.9438
29.41312396492981 33.9442
29.436142806456754 33.6886
29.45916286268059 33.6844
29.48236399319994 33.6043
29.50538649169417 33.4557
29.528410208259935 33.3462
29.55143514402014 33.1185
29.574641196749695 33.0516
29.597668583816574 32.8439
29.6206971934585 32.5754
29.64372702680042 32.7813
29.666938019934474 32.7288
29.689970313635285 32.6711
29.713003834422636 32.699
29.73603858342347 32.5647
29.759254535188578 32.4251
29.78229175361658 32.3802
29.80533020365064 32.4787
29.82836988641968 32.5579
29.85159081507472 32.4518
29.874632976355343 32.3542
29.89767637376955 32.3748
29.920721008448314 32.357
29.9439469322847 32.3071
29.96699405457564 32.2967
29.9900424175358 32.2304
30.013092022298157 32.1402
30.03632295963995 32.2303
30.059375061131373 32.1701
30.08242840783577 32.118
30.105483000888153 32.12
30.128718970092244 31.9726
30.151776069006917 32.1368
30.17483441768648 32.0829
30.198074175317235 32.0638
30.221135036724256 32.1314
30.24419715131772 31.9667
30.267260520236203 31.9536
30.290505341942243 32.0473
30.313571232750228 31.9949
30.336638381310948 31.8644
30.35970678876503 31.8214
30.38295669299435 31.8312
30.40602763151657 31.7809
30.429099832366074 31.8286
30.452173296685572 31.7245
30.47542830191959 31.7595
30.498504306502497 31.7239
30.521581577995562 31.7322
30.544660117543582 31.8027
30.56792024229725 31.8855
30.59100133132069 31.8477
30.614083691845494 31.775
30.637167325018545 31.9693
30.660432587840603 32.0634
30.683518779717886 31.8606
30.70660624769615 31.8763
30.729694992924372 31.9109
30.75296541239743 31.8733
30.77605672557558 31.7905
30.799149319462742 31.6708
30.8224236211637 31.5497
30.845518789950724 31.5727
30.868615242910597 31.4934
30.891712981195973 31.2961
30.91499247215866 31.2404
30.938092794619365 31.2414
30.96119440587579 31.1496
30.984297307082752 31.0585
31.00758200598383 31.0175
31.030687500658694 30.9255
31.053794288760695 30.8777
31.076902371446767 30.7058
31.100192296997445 30.7575
31.12330298246119 30.807
31.14641496599209 30.6685
31.169528248749216 30.72
31.19282341969534 30.5769
31.215939314557186 30.5852
31.239056512134788 30.6596
31.262175013589378 30.5463
31.28547544871168 30.569000000000003
31.30859657161541 30.5442
31.331719001892175 30.6109
31.35484274070538 30.5693
31.378148458819545 30.5974
31.401274828443725 30.607
31.424402510106933 30.7084
31.447712205419993 30.6537
31.470842524931633 30.574
31.493974159989783 30.5022
31.51710711176168 30.5261
31.54042212308802 30.4108
31.563557722100917 30.430999999999997
31.586694641341655 30.1549
31.609832881979628 30.1085
31.63315322823208 30.1151
31.656294125521327 30.0308
31.679436347728515 29.9584
31.70257989602529 29.9433
31.725905596152327 29.8508
31.74905181052835 29.8509
31.772199354521323 29.894000000000002
31.79534822930507 29.8694
31.818679302290967 29.8784
31.84183085259981 29.8722
31.864983737233473 29.8526
31.88813795736804 29.8155
31.911474422233013 29.7865
31.934631327356435 29.9095
31.9577895715215 29.7689
31.980949155906522 29.7357
32.004291031706956 29.6452
32.027453310562606 29.5482
32.05061693318573 29.5706
32.07396288236386 29.5039
32.09712920658542 29.425
32.12029687812702 29.3369
32.14346589817093 29.2466
32.166817291729984 29.1295
32.18998902288583 29.1637
32.21316210610336 29.1022
32.23633654256711 28.9928
32.259693399663725 28.9612
32.282870556771144 28.7874
32.30604907069099 28.9116
32.329228942610065 28.8435
32.35259128243769 28.6837
32.375773884550505 28.6417
32.398957848235646 28.6245
32.422143174682176 28.5799
32.445511016471215 28.4562
32.468699082679954 28.4075
32.49188851523011 28.3705
32.51507931531304 28.3534
32.538452678331 28.3787
32.56164622776311 28.345
32.58484114831493 28.2827
32.60803744118015 28.1962
32.631416344731896 28.256
32.654615396551876 28.2544
32.67781582427913 28.0987
32.701198898634416 28.0038
32.72440209253756 28.0215
32.747606665947124 27.9422
32.77081262006088 27.8282
32.79420126883317 27.8858
32.81740999876112 27.9053
32.840620112999424 27.74
32.86383161274818 27.6411
32.88722585534586 27.74
32.91044014056596 27.8762
32.933655814909734 27.7352
32.95687287957963 27.7296
32.98027273544904 27.6084
33.00349259526636 27.6063
33.026713849030116 27.6424
33.04993649794511 27.5619
33.073341986570746 27.5301
33.09656744032826 27.4871
33.11979429286444 27.5349
33.14302254538647 27.5256
33.166433686291185 27.4652
33.18966475336992 27.3727
33.212897224069096 27.2712
33.23613109959831 27.3304
33.259547912343415 27.2967
33.2827846121627 27.3309
33.306022720453775 27.2437
33.32926223842861 27.1247
33.352684742614166 27.1078
33.37592709463173 27.0671
33.399170859982064 27.0048
33.422597648419426 26.9119
33.44584425514446 26.8833
33.46909227885668 26.8532
33.4923417207723 26.6736
33.51577423505344 26.7687
33.539026528130385 26.6753
33.56228024307245 26.6296
33.585535381098246 26.4279
33.60897364093058 26.4306
33.63223163992385 26.5007
33.6554910656699 26.4029
33.678751919389796 26.4569
33.702195944520106 26.3194
33.72545966903325 26.3626
33.74872482519663 26.217
33.771991414233746 26.2667
33.79544122444841 26.239
33.81871069412428 26.1605
33.84198160035767 26.1428
33.86525394437455 26.1679
33.88870955949969 26.0471
33.911984794020626 26.0174
33.93526147001624 25.9881
33.958539588715006 25.9252
33.98200102861669 25.9091
34.0052820477047 25.7522
34.02856451319451 25.7341
34.05203033759056 25.7007
34.07531571090147 25.7202
34.09860253431845 25.6126
34.121890809074316 25.6122
34.145362493118924 25.6135
34.16865368561615 25.6029
34.191946333164054 25.5207
34.21524043699793 25.4594
34.23871800066799 25.4232
34.26201503218366 25.2818
34.28531352370466 25.4165
34.30861347646881 25.3466
34.33209693978188 25.3212
34.3553998301885 25.2838
34.378704185565205 25.1985
34.402010007152356 25.1676
34.42549939016683 25.0989
34.44880815937748 24.9868
34.472118398533134 24.9932
34.49543010887669 24.9906
34.51892543169198 24.9609
34.54224009966052 24.9499
34.56555624255917 24.9145
34.58887386163339 24.7208
34.61237514439016 24.7038
34.6356957311114 24.7055
34.65901779775809 24.6696
34.68252356662995 24.6164
34.705848608458616 24.5963
34.72917513396849 24.6151
34.75250314440949 24.5613
34.77601490857862 24.4478
34.799345904259795 24.4074
34.82267838863559 24.3804
34.846012362958525 24.3725
34.869530142679984 24.3483
34.89286711232212 24.3181
34.91620557568269 24.2583
34.93954553401677 24.2939
34.9630693495876 24.2182
34.986412313340814 24.2761
35.00975677584668 24.2609
35.033102738362956 24.1386
35.05663261012228 24.1056
35.0799815881786 24.1433
35.10333207003229 24.0688
35.12668405694369 24.0212
35.150220005273056 23.9844
35.17357501786656 23.9729
35.19693153931268 23.9839
35.220289570874385 23.9444
35.24383161619786 24.0054
35.267192683604904 23.8692
35.290555264930376 23.8144
35.314101899412165 23.8859
35.33746752422433 23.8371
35.36083466676374 23.7629
35.38420332829803 23.7672
35.407756095629054 23.8465
35.43112781085063 23.7238
35.45450104888391 23.6905
35.477875810999194 23.7174
35.50143473172161 23.7119
35.52481255774625 23.6172
35.54819191167777 23.4834
35.57157279478914 23.5729
35.595137889488406 23.4649
35.61852184675279 23.4435
35.641907337029984 23.4804
35.665294361595684 23.3935
35.68886565090076 23.2635
35.7122557598848 23.2488
35.73564740699838 23.2802
35.759040593519934 23.2565
35.78261809810353 23.2076
35.80601437933051 23.0573
35.829412203814705 23.0413
35.85281157283719 22.9488
35.876395313415884 23.0323
35.8997977874528 22.9815
35.92320180988546 22.9643
35.946790244133936 22.8795
35.97019737933222 22.8301
35.993606066789866 22.8359
36.01701630779276 22.7978
36.04061101440684 22.7726
36.06402437852291 22.8342
36.08743930005611 22.7071
36.1108557802951 22.5806
36.13445678011326 22.6327
36.15787639383515 22.6597
36.18129757014299 22.6208
36.20472031032821 22.5222
36.22832762423364 22.4276
36.25175350829375 22.4618
36.275180960119776 22.4091
36.298609981005924 22.449
36.32222362992669 22.473000000000003
36.34565580510207 22.3567
36.36908955323448 22.3696
36.39252487562093 22.2683
36.416144880530226 22.1614
36.43958336764275 22.1521
36.463023432914625 22.2329
36.486465077645676 22.0875
36.51009145956204 22.1718
36.53353627947859 22.1677
36.55698268276811 22.0717
36.58043067073321 22.0765
36.60406345072071 21.9352
36.62751462435344 21.8737
36.65096738658405 21.955
36.67460498210655 21.9462
36.69806093788647 21.8828
36.72151848619297 21.771
36.744977628333636 21.7272
36.76862165890998 21.7287
36.79208400512205 21.7655
36.81554794910557 21.6933
36.83901349217101 21.569000000000003
36.862663978991606 21.5237
36.88613273667352 21.5576
36.90960309738324 21.6375
36.933075062434064 21.4751
36.95673202673572 21.4122
36.98020721697122 21.4554
37.003684015502365 21.4166
37.027162423645365 21.3598
37.050825886711465 21.3491
37.07430753063053 21.2054
37.09779078812467 21.2658
37.121275660513014 21.3366
37.144945643673694 21.2025
37.16843376245278 21.1353
37.19192350009803 21.0935
37.215414857931435 21.155
37.239091382563885 21.0875
37.262585997426164 21.0656
37.28608223645736 21.0315
37.309763684451696 20.9631
37.33326318851098 20.9792
37.356764320726555 20.8903
37.380267082425526 20.9851
37.40395510942588 20.9013
37.42746114683234 20.8578
37.45096881771841 20.7739
37.474478123414166 20.7615
37.49817275092816 20.715999999999998
37.52168534303452 20.6755
37.54519957395567 20.6256
37.568715445024665 20.6046
37.592416694607714 20.5385
37.61593586281424 20.6167
37.63945667518264 20.6106
37.66297913304891 20.4667
37.68668702630454 20.4401
37.710212792059274 20.3515
37.733740207334854 20.3432
37.757269273470364 20.3785
37.780983832050374 20.2905
37.80451621684926 20.2911
37.82805025654007 20.2623
37.851585952464795 20.2377
37.8753071980695 20.1715
37.89884622345676 20.1646
37.92238690911902 20.0944
37.94611318753442 20.05
37.969657210779765 20.0147
37.99320289834801 20.0448
38.016750251586465 19.9937
38.04048325513017 19.9991
38.06403395679343 19.8795
38.087586328183946 19.8949
38.11114037065203 19.9392
38.13488012115898 19.8768
38.1584375229181 19.8259
38.181996599821 19.7336
38.205557353221124 19.6906
38.229303872575656 19.6554
38.2528679961576 19.7226
38.27643380031219 19.6273
38.30000128639589 19.5739
38.32375459653193 19.5986
38.34732546371299 19.6301
38.37089801690786 19.5091
38.39447225747609 19.4818
38.418232380377425 19.4471
38.441810012983396 19.4701
38.46538933705673 19.4679
38.488970353960084 19.3739
38.51273731166058 19.3812
38.536321731567014 19.301
38.55990784840681 19.3083
38.58367995004091 19.2269
38.60726947812959 19.1683
38.63086070726198 19.1708
38.654453638806274 19.1576
38.678232613930824 19.0692
38.70182896773327 19.0642
38.72542702806741 19.0404
38.7490267963045 19.092
38.77281266709232 18.9862
38.79641586862214 18.9719
38.8200207821842 18.9434
38.843627409152944 18.9822
38.86742019782782 18.8061
38.891030269149255 18.8265
38.914642058016156 18.8465
38.938255565806124 18.7964
38.96205529464307 18.7556
38.98567225787121 18.706
39.00929094417078 18.6896
39.03291135492255 18.7316
39.05671804624804 18.6918
39.080341923549106 18.5909
39.103967529460334 18.6102
39.127594865365744 18.5748
39.15140854155791 18.5482
39.17503935514948 18.5638
39.19867190290282 18.4967
39.22249083587951 18.4422
39.24612686969409 18.4482
39.269764641845306 18.3935
39.293404153722804 18.3652
39.317230110864074 18.2748
39.34087311998506 18.2551
39.36451787301696 18.2788
39.388164371352595 18.2435
39.41199737518003 18.2428
39.43564738196752 18.1638
39.45929913825317 18.1435
39.48295264543308 18.1316
39.506792718520884 18.0714
39.530449745387216 18.0306
39.55410852735203 18.0046
39.57776906581474 18.0179
39.60161623079 18.0284
39.625280300200025 17.9873
39.64894613032202 17.8812
39.67261372255866 17.8781
39.6964680021016 17.8949
39.72013913657293 17.8049
39.74381203738292 17.83
39.76748670593756 17.7296
39.79134812278169 17.7766
39.81502634488497 17.6869
39.83870633896685 17.695
39.862388106436654 17.6937
39.88625668336918 17.6551
39.90994201572829 17.6615
39.933629125719285 17.5957
39.957503091207826 17.5133
39.9811937746168 17.5642
40.00488623990914 17.491
40.02858048850006 17.475
40.05246165409549 17.3894
40.076159487492085 17.3604
40.099859108448875 17.414
40.123560518384345 17.3468
40.1474489070226 17.3259
40.171153913178564 17.2413
40.194860712584955 17.2396
40.2185693066637 17.2751
40.242464941335314 17.2015
40.26617714307655 17.1499
40.289891143772046 17.1014
40.3136069448471 17.0599
40.33750984859743 17.0978
40.3612292688043 17.0368
40.3849504936829 17.0931
40.40867352466194 17.073
40.43258372059144 17.0183
40.45631038219906 17.0203
40.48003885420956 16.9112
40.503769138055105 16.8883
40.52768664931955 16.9171
40.55142057531802 16.8831
40.57515631746428 16.8405
40.599079334038514 16.8076
40.62281872700477 16.7571
40.64655994043941 16.7187
40.67030297578061 16.769000000000002
40.69423334835778 16.6877
40.71798004609188 16.6927
40.74172857006355 16.6581
40.76547892171441 16.6266
40.7894166736039 16.6416
40.813170699248566 16.5343
40.83692655691388 16.5376
40.86068424804498 16.5472
40.884629402612525 16.4928
40.908390779366385 16.5156
40.932153993938 16.4714
40.95591904777605 16.4128
40.979871628443995 16.4527
41.003640379561936 16.3977
41.02741097430883 16.3109
41.05118341413683 16.383
41.075143444384416 16.3239
41.098919593177826 16.2605
41.1226975914255 16.2462
41.14647744058318 16.2066
41.170444943946755 16.1674
41.19422851378379 16.1441
41.218013938914645 16.1485
41.24198706625173 16.1083
41.26577622087193 16.0686
41.289567235177785 16.0361
41.31336011063129 16.0162
41.337340752422875 16.0037
41.361137369129835 15.9703
41.38493585138705 15.9688
41.40873620066004 15.9308
41.43272438060107 15.8582
41.45652848292052 15.8627
41.48033445666918 15.8396
41.50414230331616 15.8175
41.528138045159764 15.7846
41.551949656675205 15.7061
41.575763145513235 15.7374
41.59957851314666 15.6748
41.62358184070442 15.6444
41.64740098505737 15.6832
41.6712220126409 15.6336
41.69504492493139 15.6085
41.71905586207357 15.5278
41.74288256296395 15.5286
41.766711153007456 15.5304
41.79054163368412 15.5232
41.814560204340054 15.5045
41.838394485526365 15.4754
41.86223066180303 15.4475
41.88625497706819 15.4028
41.910094962812 15.3706
41.93393684811168 15.3589
41.95778063445365 15.3056
41.981812625263366 15.2576
42.00566023303407 15.2539
42.029509746323676 15.2604
42.05336116662236 15.2163
42.077400857069705 15.2197
42.10125611078846 15.218
42.12511327600405 15.1931
42.14897235421036 15.1169
42.173019768448455 15.126
42.19688269209613 15.0752
42.22074753323349 15.0666
42.24461429335818 15.024000000000001
42.268669455600495 14.9834
42.292540073217886 15.0233
42.31641261433284 14.9269
42.34028708044675 14.9055
42.36435001496739 14.9067
42.38822835065557 14.9159
42.41210861586426 14.8514
42.4359908120986 14.8076
42.46006154323262 14.7855
42.48394762115317 14.758
42.507835634632315 14.7591
42.531912233047436 14.7545
42.55580413732265 14.6516
42.579697981698 14.6716
42.60359376768525 14.6505
42.62767820545945 14.6106
42.65157789440821 14.6178
42.67547952952185 14.5907
42.699383112316 14.5333
42.72347541395347 14.4767
42.74738291190531 14.437000000000001
42.771292362102166 14.4714
42.795203766063516 14.4823
42.819303956130405 14.4057
42.843219287476536 14.3953
42.86713657716324 14.367
42.89105582671383 14.3369
42.91516392983864 14.3685
42.939087119032166 14.3063
42.963012272677304 14.2854
42.98693939230129 14.2446
43.01105543317513 14.2286
43.034986504731386 14.2117
43.05891954686589 14.1386
43.08285456110972 14.1337
43.10697856448665 14.0767
43.130917542983475 14.0887
43.15485849820081 14.047
43.17880143167367 14.004000000000001
43.20293342237094 13.9905
43.226880332449 13.9531
43.25082922540554 13.9515
43.27496722682525 13.8967
43.29892010567796 13.8773
43.32287497204102 13.8925
43.34683182745632 13.8326
43.370977859791836 13.8601
43.39493871351105 13.8517
43.41890156092628 13.7743
43.44286640358341 13.8051
43.46702049182749 13.8345
43.49098934522816 13.6987
43.51496019852649 13.6841
43.5389330532723 13.6812
43.56309522248204 13.6773
43.58707210044314 13.6408
43.61105098451946 13.6111
43.63503187626491 13.6107
43.659202151562134 13.5445
43.68318707902681 13.5078
43.70717401884041 13.509
43.731162972560874 13.5024
43.75534137913236 13.4647
43.779334381108384 13.485
43.803329401683186 13.4506
43.82732644241872 13.4158
43.8515130055166 13.3686
43.87551410707659 13.3761
43.89951723350145 13.3552
43.923709934595614 13.2868
43.94771713129917 13.2786
43.97172635758096 13.3206
43.99573761501002 13.2427
44.0199385169922 13.1945
44.04395385732619 13.1545
44.067971233533086 13.1994
44.09199064718605 13.1436
44.11619977548961 13.1121
44.14022328470671 13.0673
44.16424883610785 13.069
44.18827643127035 13.0784
44.21249381139513 13.087
44.236525514814076 13.0004
44.26055926674478 12.982000000000001
44.28459506876863 12.9801
44.3088207262813 12.949000000000002
44.33286064928722 12.9005
44.35690262714919 12.8871
44.38094666145278 12.8683
44.4051806219871 12.8487
44.42922879003185 12.8435
44.45327901929361 12.812999999999999
44.477331311362136 12.8545
44.501573600619416 12.7848
44.525630039221795 12.7324
44.54968854541895 12.7562
44.573937102200176 12.7263
44.5979997645541 12.687999999999999
44.622064499300315 12.6527
44.64613130803592 12.6714
44.67038823869318 12.6471
44.69445921643748 12.5872
44.718532272981385 12.5725
44.742607409926194 12.5825
44.76687274034801 12.5539
44.79095205918753 12.5126
44.81503346325094 12.4642
44.839116954143876 12.4697
44.86339071028742 12.4239
44.88747839599524 12.4157
44.91156817336837 12.3737
44.93566004401666 12.4327
44.959942251908146 12.4018
44.984038330325966 12.3219
45.00813650686762 12.2599
45.03223678314731 12.2447
45.05652746888232 12.2415
45.08063196592069 12.2414
45.104738567558705 12.1999
45.128847275414856 12.1951
45.15314646515866 12.1017
45.17725940679741 12.126
45.20137445952892 12.1477
45.22568004865265 12.0885
45.24979934496396 12.0842
45.27392075725247 12.1027
45.29804428714431 12.0781
45.322358426247604 12.0241
45.346486212804315 11.9798
45.370616121861914 11.9702
45.39474815505086 11.9731
45.41907087049246 11.9099
45.4432071734666 11.8993
45.46734560548283 11.9084
45.49148616817604 11.9034
45.51581748638564 11.8711
45.5399623320197 11.8436
45.56410931325473 11.7663
45.58825843173002 11.8074
45.61259837920865 11.7963
45.636751793816 11.7812
45.66090735060093 11.7052
45.68506505120716 11.7028
45.7094136545275 11.6597
45.73357566449271 11.6641
45.75773982322992 11.606
45.78190613238733 11.6612
45.806263418194064 11.5769
45.83043404997326 11.5768
45.85460683713677 11.5646
45.87897065658495 11.5234
45.90314777634752 11.5232
45.92732705646868 11.5802
45.9515084986045 11.4817
45.97588104735473 11.4436
46.00006683541565 11.4294
46.02425479047904 11.4565
46.04844491420549 11.4396
46.0728262191024 11.4007
46.09702070211635 11.3817
46.12121735879483 11.3512
46.14541619080294 11.3225
46.169806278764455 11.2845
46.194009483459034 11.2713
46.21821486849841 11.2505
46.24242243555223 11.2108
46.266821333570014 11.2139
46.29103328674601 11.1866
46.31524742696538 11.2025
46.33946375590237 11.1543
46.36387149104216 11.1501
46.38809221957392 11.1126
46.41231514186606 11.094000000000001
46.436540259597464 11.0566
46.460956858999374 11.069
46.48518638983522 11.023
46.509418121166966 11.015
46.533652054678114 11.0106
46.55807754555709 10.9798
46.58231590571962 10.9698
46.60655647313217 10.9061
46.630988654873654 10.8897
46.655233659129024 10.8764
46.67948087571551 10.9085
46.70373030632484 10.8507
46.72817142736393 10.835
46.752425308428684 10.8331
46.77668140861147 10.7918
46.80093972960865 10.7882
46.82538981736788 10.7711
46.849652602470904 10.7259
46.87391761349769 10.7058
46.8981848521493 10.675999999999998
46.9226439341274 10.65
46.946915650573224 10.6105
46.97118959976749 10.6077
46.99546578341598 10.6172
47.019933887188216 10.6151
47.04421456235744 10.5731
47.06849747711879 10.5541
47.09278263318286 10.5576
47.11725978640143 10.4996
47.14154944775105 10.4954
47.165841355555656 10.474
47.1901355115306 10.4521
47.214621741924994 10.4527
47.23892041698887 10.4357
47.26322134538975 10.3937
47.28771440635075 10.3723
47.31201986422527 10.3711
47.33632758061436 10.3626
47.360637557241866 10.3171
47.38513974410611 10.2979
47.40945426407847 10.261
47.43377104948137 10.2772
47.45809010204344 10.2482
47.48260144275502 10.2458
47.506925052572285 10.2307
47.53125093475548 10.1427
47.55557909103813 10.1698
47.58009961361992 10.1493
47.60443234110732 10.1234
47.62876734791564 10.1106
47.65310463578333 10.0896
47.6776343683373 10.0815
47.7019762413987 10.0281
47.72632040075572 10.0037
47.75066684815169 10.0438
47.77520581885936 9.98512
47.799556865477655 9.987
47.823910205386 9.97954
47.84826584033272 9.91269
47.87281407745551 9.900889999999999
47.89717432569297 9.90785
47.92153687423484 9.911389999999999
47.94609208429692 9.86481
47.97045925671401 9.88665
47.99482873471275 9.825239999999999
48.01920052005013 9.80167
48.04376504619224 9.78883
48.068141469543484 9.80345
48.09252020552573 9.79014
48.11690125590099 9.772039999999999
48.1414751266064 9.72075
48.16586082917454 9.722430000000001
48.19024885144316 9.6793
48.2146391951793 9.704360000000001
48.239222439012764 9.71487
48.26361744916137 9.63975
48.28801478610016 9.62285
48.31241445160131 9.60695
48.337007097209366 9.595
48.36141144338331 9.59693
48.38581812345755 9.5688
48.41022713920929 9.57957
48.434829215320704 9.51776
48.45924292604658 9.47751
48.48365897780325 9.521239999999999
48.50807737237308 9.46049
48.532688907799276 9.472480000000001
48.55711201168574 9.4693
48.581537463754074 9.44404
48.60615611725119 9.40301
48.63058628942721 9.42165
48.65501881516546 9.373460000000001
48.6794536962573 9.33462
48.70408185970339 9.31315
48.72852147531801 9.31638
48.75296345168211 9.258189999999999
48.77740779059232 9.28546
48.80204549302823 9.2383
48.82649458091802 9.23166
48.85094603676547 9.22045
48.87539986237231 9.21791
48.90004713292306 9.22379
48.92450572200832 9.192789999999999
48.94896668628025 9.150789999999999
48.97343002754588 9.12653
48.99808689542115 9.152610000000001
49.02255501470614 9.14737
49.04702551642794 9.08268
49.0714984023988 9.09499
49.096164896893235 9.060889999999999
49.120642575466796 9.0211
49.145122643748394 9.02716
49.16960510355558 8.99169
49.19428125404938 8.996360000000001
49.2187685210852 8.966280000000001
49.243258185121555 8.97752
49.26794160167084 8.96702
49.2924360839405 8.91853
49.31693296869764 8.89799
49.34143225776915 8.89829
49.36612538195438 8.863480000000001
49.39062950396021 8.86783
49.41513603578346 8.811739999999999
49.4396449792564 8.78942
49.46434784069503 8.797369999999999
49.488861631846454 8.7397
49.513377840166804 8.78185
49.537896467493745 8.74041
49.56260909589029 8.68425
49.587132585683285 8.734210000000001
49.611658500018365 8.7251
49.636186840738596 8.66916
49.66090926588511 8.65742
49.685442483902584 8.64062
49.70997813385706 8.5848
49.734516217597076 8.62809
49.75924846937352 8.61462
49.7837914452858 8.60475
49.80833686055187 8.56431
49.83288471702571 8.52701
49.85762682540054 8.53031
49.882179588965734 8.49808
49.9067347993235 8.50131
49.93129245833333 8.49927
49.95604445336378 8.4471
49.98060703442832 8.42362
50.005172069746266 8.420589999999999
50.02993150438364 8.39669
50.05450147301533 8.42184
50.07907390151433 8.4059
50.10364879174981 8.35242
50.12841816587289 8.33762
50.1529980044635 8.30917
50.17758031042124 8.28599
50.20216508562089 8.3515
50.22694442953363 8.26602
50.25153416817468 8.24244
50.27612638170508 8.259030000000001
50.300721072005196 8.2123
50.325510416102105 8.209760000000001
50.350110084975064 8.19078
50.37471223628208 8.20363
50.39931687190919 8.192919999999999
50.424116246675766 8.18661
50.44872587605249 8.151819999999999
50.47333799543065 8.133230000000001
50.49795260670191 8.162560000000001
50.52276204271512 8.08453
50.54738166295838 8.08282
50.57200378079314 8.073210000000001
50.596628398116835 8.042639999999999
50.62144792604559 8.04454
50.646077567609396 8.0241
50.670709714377715 8.0297
50.69553683636198 7.99856
50.72017401885922 7.95965
50.7448137122895 7.962969999999999
50.76945591856022 7.93697
50.79429318636823 7.930560000000001
50.818940443716784 7.92293
50.84359021965163 7.917839999999999
50.868242516085964 7.921880000000001
50.893089960641895 7.88628
50.917747323549435 7.83938
50.94240721271973 7.84132
50.96706963007175 7.84545
50.99192728239342 7.8326899999999995
51.01659478166073 7.796360000000001
51.04126481489051 7.787089999999999
51.06593738400761 7.79343
51.090805275207074 7.77855
51.11548294172845 7.74954
51.14016314993547 7.769839999999999
51.164845901758845 7.70765
51.18972406304274 7.68492
51.21441192780656 7.66966
51.23910234200271 7.636489999999999
51.2637953075678 7.6697
51.288683770237945 7.65234
51.31338186432707 7.602110000000001
51.33808251561888 7.5846
51.362978729967345 7.58033
51.387684521509755 7.57724
51.41239287610203 7.5611
51.437103795691165 7.506239999999999
51.46201036644977 7.49737
51.486726441956634 7.51577
51.51144508832545 7.469689999999999
51.536166307509156 7.479489999999999
51.56108326624387 7.446610000000001
51.58580965706056 7.420139999999999
51.61053862657523 7.415430000000001
51.635270176746864 7.386010000000001
51.66019755512065 7.370260000000001
51.68493429268881 7.3652
51.70967361681515 7.329839999999999
51.73441552946465 7.32873
51.759353359237934 7.339119999999999
51.7841004750961 7.3204899999999995
51.80885018539685 7.34265
51.833602492111254 7.277660000000001
51.8585508051424 7.273389999999999
51.883308330926425 7.25626
51.90806845906181 7.2496
51.932831191525715 7.185810000000001
51.95779001977161 7.209060000000001
51.98255798721516 7.15004
52.00732856494335 7.1721699999999995
52.03229530577543 7.16265
52.057071130455945 7.1234
52.081849571391054 7.1719
52.106630630568695 7.10447
52.13160794279417 7.07486
52.15639426492067 7.10853
52.18118321127822 7.07676
52.205974783860896 7.02376
52.23096269971011 7.013610000000001
52.255759551287994 7.069889999999999
52.280559035098186 7.0247
52.30536115314103 7.003310000000001
52.33035970494467 7.00927
52.35516711807904 6.9824600000000006
52.37997717147198 6.942810000000001
52.40478986713005 6.959039999999999
52.42979908731974 6.91177
52.454617094216 6.9249
52.47943774942214 6.9306399999999995
52.50426105495102 6.90302
52.529280976059844 6.87017
52.554109609024096 6.84232
52.57894089837482 6.839410000000001
52.60377484613117 6.90349
52.62880550079408 6.85498
52.65364479223379 6.777260000000001
52.67848674816189 6.79568
52.70352547971946 6.77675
52.72837279155837 6.792089999999999
52.753222773982785 6.722910000000001
52.778075429022984 6.765910000000001
52.80312495150885 6.768510000000001
52.827982978797436 6.739210000000001
52.85284368481815 6.731139999999999
52.87770707160767 6.6933300000000004
52.90276741793998 6.61958
52.92763619336701 6.620539999999999
52.952507655698504 6.602360000000001
52.977381806977576 6.6444
53.00245301017842 6.62603
53.02733256653592 6.59674
53.052214817996074 6.58435
53.077099766608484 6.6006100000000005
53.102181859804446 6.55117
53.127072229988265 6.574910000000001
53.15196530349892 6.5399400000000005
53.17686108239249 6.52304
53.20195409881522 6.50497
53.22685531582556 6.499619999999999
53.25175924441303 6.45657
53.27666588664027 6.47924
53.30176985962693 6.45151
53.3266819565689 6.45234
53.35159677336455 6.37993
53.376514312083096 6.3855699999999995
53.40162927507703 6.44076
53.42655228516116 6.38356
53.45147802340193 6.33039
53.47660125628886 6.34746
53.50153247842639 6.32948
53.52646643496923 6.28899
53.55140312799818 6.28129
53.576537409691696 6.2538800000000005
53.60147960336152 6.26352
53.626424539786164 6.27769
53.65137222105307 6.2640400000000005
53.67651758529126 6.22941
53.70147078399681 6.15934
53.72642673383343 6.21185
53.75138543689533 6.22415
53.776541917524526 6.23487
53.801506154876755 6.16136
53.826473151763246 6.14379
53.851442910284916 6.1548
53.87661054126026 6.151330000000001
53.9015858509782 6.15908
53.92656392866066 6.12178
53.95154477641532 6.08766
53.976723591801296 6.02768
54.00171000771266 6.06904
54.02669920004598 6.05391
54.051691170915745 6.02259
54.076881204886796 5.9831199999999995
54.101878760928514 6.04119
54.12687910187696 5.98589
54.152077577768296 6.0177
54.1770835166946 5.95666
54.20209224691339 5.9348
54.22710377055121 5.92012
54.25231352511594 5.91933
54.27733066384342 5.86696
54.30235060239643 5.89957
54.32737334290836 5.85273
54.35259441062629 5.8301
54.377622783395324 5.84497
54.40265396455061 5.86687
54.42768795623251 5.80728
54.45292037169559 5.79849
54.477960012857906 5.8411
54.50300247099511 5.78547
54.52804774825457 5.77821
54.55329154616743 5.71773
54.57834249018678 5.71804
54.6033962597977 5.67143
54.6284528571545 5.6681
54.653708072335164 5.65399
54.67877035378786 5.63593
54.70383546947698 5.6234
54.72890342156389 5.55342
54.7541700889442 5.55692
54.77924374251975 5.56237
54.8043202390049 5.53405
54.82959552413022 5.45886
54.8546777351945 5.46526
54.87976279569621 5.42854
54.90485070780914 5.39029
54.930137506558005 5.35323
54.95523115074295 5.36949
54.98032765308844 5.34741
55.005427015775496 5.36872
55.03072536339621 5.33426
55.05583047570572 5.34086
55.080938454927676 5.3708
55.10604930325027 5.30002
55.131359235107396 5.29113
55.15647585066083 5.25392
55.181595341907496 5.256880000000001
55.20671771104285 5.17821
55.232039262617704 5.17261
55.25716741665048 5.15835
55.28229845518636 5.194319999999999
55.30743238042802 5.1015
55.33276558731939 5.12858
55.357905315183636 5.07251
55.383047936390035 5.02825
55.40819345314859 5.05206
55.433538351073295 5.0159199999999995
55.458689688238415 4.99782
55.483843927614096 4.9636
55.509197623043605 4.94913
55.53435769621134 4.89642
55.55952067826466 4.88676
55.5846865714265 4.88802
55.61005202069737 4.83269
55.63522376553902 4.83904
55.66039842818645 4.81726
55.68557601087004 4.78477
55.7109532500271 4.6790199999999995
55.73613670233794 4.72617
