TT I
1.2716486653135266 7.29627
1.2939594142134223 6.79317
1.3162702121660406 7.30857
1.3385810600174564 6.70787
1.3608919586137629 6.09264
1.383202908801069 5.9593300000000005
1.405513911425503 5.6695
1.4278249673332093 6.365530000000001
1.4501343378461518 6.1742300000000006
1.4724455028545926 5.64818
1.4947567236847858 5.77833
1.517068001182951 5.43987
1.5393793361953272 5.61839
1.5616907295681737 5.28794
1.5840021821477681 5.62674
1.60631369478041 5.17889
1.6286252683124185 5.286519999999999
1.6509369035901333 5.28584
1.6732468618895553 4.98677
1.695558623192809 4.20585
1.7178704487808514 5.31947
1.7401823395001077 4.95521
1.7625012545597203 4.67654
1.7848028405262486 4.44839
1.8071218901122095 4.78485
1.8294236121921872 4.84168
1.8517427996910911 4.730119999999999
1.8740620574440425 4.76998
1.8963639900671978 5.0027099999999995
1.9186833908139995 4.88556
1.9409854680117449 4.99769
1.9633050151394713 5.10215
1.9856246367570705 4.53531
2.0079269371922672 4.80009
2.03024671027244 4.21473
2.0525491637446027 4.69369
2.074869091674931 4.32984
2.097171701569106 4.7489300000000005
2.1194917877373847 4.8654
2.141811954326636 5.34892
2.164114805233074 5.22591
2.186435135143035 6.53855
2.208738150935709 14.797
2.231058647554722 31.7052
2.2533792288321184 24.9749
2.275682498336085 10.6324
2.298003251406138 6.62208
2.3203066942619714 6.610360000000001
2.3426276225136022 5.37162
2.3649486396617507 5.92084
2.387252348930071 6.32481
2.4095735463442893 5.96272
2.4318774374315884 6.084219999999999
2.4541988185014043 7.00022
2.476502894794693 7.293539999999999
2.498824462909887 6.982660000000001
2.521146125856138 6.77756
2.5434504863470337 7.65683
2.5657723414244717 7.887589999999999
2.588076895590662 8.3098
2.610398946189713 8.66925
2.6327210958598384 8.43909
2.6550259469304716 8.135019999999999
2.6773482972090137 8.66429
2.6996533504259 8.16075
2.7219759047039602 8.51505
2.744298562293959 8.9559
2.7666039251246595 8.89581
2.7889267918020164 8.33038
2.8112323652516555 8.378919999999999
2.833555444408179 9.25393
2.8558786311183852 8.80238
2.8781845268938557 9.17944
2.9005079311721484 8.65582
2.9228140460410397 9.42114
2.9451376712799635 9.0463
2.967444008632326 9.44176
2.9897678582247247 9.674489999999999
3.0120918213106695 10.6234
3.0343984987899373 10.7652
3.0567226913198637 11.1856
3.079029599759726 11.9282
3.101354025127254 12.8606
3.123678568232338 13.913
3.145985829517914 13.5988
3.16831061055229 13.8145
3.1906181112775593 14.4731
3.212943133635653 15.267999999999999
3.2352682779763207 14.9407
3.2575761442691227 15.5853
3.2799015350264273 15.9203
3.302209649240067 16.9065
3.3245352898092655 16.9257
3.3468436553365257 17.4057
3.369169549113219 17.8291
3.3914955708171384 18.6638
3.413804319727358 18.9879
3.4361305997334863 19.3355
3.4584396084414553 19.8274
3.4807661501462652 20.4896
3.503092824025881 20.9131
3.5254022288463154 21.1912
3.5477291695206588 21.9239
3.5700388426251948 22.0063
3.5923660534916446 24.2559
3.6146934007816114 40.1793
3.637003482731501 96.6778
3.6593311053109985 109.505
3.681641464033634 61.7595
3.7039693653009733 32.0061
3.726297407241705 26.4541
3.7486081875460804 25.7807
3.7709365132734978 26.0322
3.793247578841633 26.38
3.8155761917550093 26.5295
3.8378875459837216 27.0601
3.8602164494827234 27.2311
3.882545499606844 28.0968
3.9048572932539183 29.0228
3.9271866390645718 29.0274
3.9494987298666713 29.4823
3.971828374764527 30.0126
3.9941581705403255 30.7722
4.016470713506008 31.2186
4.038800813471445 32.2853
4.061113662089144 32.5753
4.0834440696459176 33.2901
4.105774632334751 33.5187
4.128087945865126 34.4958
4.150418821249301 35.2244
4.172732448931298 36.4109
4.195063640413578 38.3724
4.2173775856475215 42.7314
4.239709096631102 77.4516
4.262040768704612 264.371
4.284355196706267 361.996
4.306687193387355 235.09099999999998
4.329001947444346 87.6604
4.35133427213731 48.6925
4.373666762177566 44.4659
4.395982011761091 43.8107
4.418314834921175 45.2039
4.44063041906622 54.1528
4.4629635787515625 66.5979
4.4852969080429785 66.8312
4.5076130004776225 54.8901
4.529946671403969 49.4559
4.552263106909177 48.8551
4.574597122877047 50.0565
4.596931312711224 51.0661
4.619248269273446 52.2386
4.6415828092605835 53.4235
4.663900117405352 54.1229
4.686235010953232 55.7216
4.708552674085913 56.8736
4.730887924602802 58.6076
4.753223354952695 59.6298
4.775541557023902 60.6608
4.797877349456786 62.6663
4.820195915032126 64.5969
4.842532072957498 65.7704
4.864868414979744 67.8052
4.88718753227192 69.6752
4.909524244902505 71.7569
4.931843734218147 73.582
4.954180820867835 76.085
4.976518095879839 78.4414
4.998838149695359 80.7152
5.021175803844231 84.4599
5.043496238205739 87.5571
5.065834274903528 90.7747
5.088172504230693 95.6762
5.1104935158799565 100.73100000000001
5.132832132875765 122.065
5.155153533596801 165.636
5.1774925416746225 195.24599999999998
5.199814334878411 271.033
5.2221537374521505 723.7260000000001
5.244493338631803 2278.62
5.266815727034316 7299.22
5.289155727832427 13490.6
5.311478517248165 9177.6
5.333818921080011 2781.39
5.356159527788849 507.642
5.3784829252032536 172.831
5.400823940070432 137.102
5.423147747031976 123.40100000000001
5.445489173474152 115.00399999999999
5.467830807066149 109.992
5.490155234831516 106.02799999999999
5.512497285125229 102.691
5.534822130975162 101.292
5.557164601388673 99.3772
5.579489868738879 96.6273
5.601832762690846 95.9314
5.6241758697774475 95.1535
5.646501775867269 94.59899999999999
5.668845311622074 92.6613
5.691171647754637 92.2616
5.713515615597765 90.8083
5.735859800852677 90.2024
5.758186788542988 89.146
5.780531411018185 88.7597
5.802858837297399 88.5896
5.825203900414495 88.4983
5.8475491852224 88.3237
5.869877275883075 88.786
5.892223006467101 89.7996
5.914551544266608 90.3186
5.936897724049891 91.9501
5.959244129804903 94.7773
5.981573344815301 106.557
6.0039202049061 165.68
6.026249875609095 345.944
6.04859719346037 773.0039999999999
6.070927323278297 2023.34
6.093275102315365 4568.64
6.115623113320588 5399.57
6.137953938319995 3283.94
6.160302415650845 926.48
6.182633708324452 213.52
6.2049826554078376 108.20200000000001
6.227331838745022 89.1638
6.249663839443684 82.7762
6.27201349767565 80.9423
6.294345974611799 88.3847
6.316696111167083 102.462
6.339046488263839 96.4857
6.361379686074702 79.7269
6.383730546639482 70.4736
6.406064229255215 67.6891
6.428415576718203 67.1272
6.450749747566656 66.0333
6.47310158535871 65.1194
6.495453669698332 64.2553
6.517788579421056 63.7588
6.540141159237969 62.9351
6.562476565766648 62.2709
6.5848296444934045 62.1592
6.607182974060425 61.5623
6.6295191323281015 61.6445
6.651872965955752 65.9684
6.6742096296068985 95.0301
6.6965639707294615 148.875
6.71891856698715 149.416
6.741255995248479 100.024
6.763611104154477 69.3929
6.785949046381137 60.2113
6.808304671371482 57.6098
6.8306605557940046 57.2465
6.852999275508618 56.766999999999996
6.875355681171544 56.3569
6.897694923437771 56.0697
6.92005185377892 56.2479
6.9423916220322655 56.0677
6.964749080490181 55.5878
6.987106804399774 55.1673
7.009447368180821 55.0612
7.031805625367033 54.6195
7.054146723727803 54.9233
7.076505517631004 54.9893
7.098864581288365 54.7761
7.121206488070854 54.4481
7.143566093607822 54.3065
7.165908543567245 54.8892
7.188268694426048 54.6938
7.2106291193438095 55.2339
7.232972390625943 56.9647
7.255333366030969 71.1837
7.277677189091925 133.827
7.300038718428332 188.88
7.322400526130865 157.387
7.344745183422596 93.8831
7.367107550224791 62.4397
7.389452767901992 55.8163
7.411815697249891 54.8039
7.434161478756298 53.9481
7.456524974096713 53.979
7.478888753837185 53.5842
7.501235387657368 53.9735
7.523599738562711 54.1286
7.545946944825532 54.2593
7.568311870344528 54.5522
7.5906770845765665 54.6723
7.613025156078678 56.1997
7.635390950099687 58.0558
7.657739602662809 57.083
7.680105979923558 55.7829
7.702472650212829 55.372
7.724822180948224 54.9109
7.747189439655568 55.1135
7.769539560075357 55.1229
7.791907410653562 55.8293
7.81425812420825 55.6384
7.836626570110925 55.81100000000001
7.858995315087906 56.8777
7.881346924933401 56.9744
7.903716270417482 57.0892
7.926068482028405 57.6132
7.948438431475253 58.2598
7.9708086843180235 58.7925
7.993161805171116 59.3841
8.015532667162402 59.5063
8.037886398416653 60.5015
8.060257873014221 61.3739
8.082629655331942 61.6625
8.104984308787587 62.8501
8.127356708900503 66.13
8.149711981398308 72.94800000000001
8.172085002766314 75.0576
8.194458336181368 71.2405
8.216814543847752 68.4519
8.23918850371002 68.41
8.26154533906492 68.7211
8.283919928836452 70.0625
8.306277395339652 70.9675
8.328652618483376 72.3452
8.351028159736202 74.1275
8.373386579575245 76.2904
8.395762759396959 77.8485
8.418121819038275 82.6717
8.440498640894003 97.3845
8.462875785192262 111.59700000000001
8.485235811156207 118.015
8.507613602688501 140.34799999999998
8.529974277114228 205.829
8.552352719347912 320.178
8.574731488360351 554.518
8.59709314210385 1118.84
8.619472567021075 1896.59
8.64183487789147 2311.19
8.664214962183097 1851.48
8.686577933647762 918.7239999999999
8.708958680784317 347.436
8.731339760774953 158.77100000000002
8.753703729764451 107.92399999999999
8.77608547780821 96.0624
8.798450116065078 92.8707
8.820832535634787 90.2468
8.843215292401656 89.146
8.865580941199045 87.5908
8.887964374703538 86.8025
8.910330701447199 88.1228
8.932714815164482 90.9977
8.955099270424924 90.2752
8.977466620733543 86.6601
8.999851761421976 83.9384
9.022219798361645 82.1163
9.04460562795561 81.8646
9.066991803441677 81.6029
9.089360876979615 81.1212
9.111747746589993 80.4856
9.13411751544971 80.2068
9.156505082664324 79.9627
9.178875550323522 80.3433
9.20126381862328 80.71600000000001
9.223652438908596 80.8909
9.246023961427412 80.6379
9.26841328802173 80.1796
9.290785518039224 79.9841
9.313175554425882 80.6581
9.335565947154315 80.8169
9.357939245086508 81.0945
9.380330352834827 80.8484
9.40270436697103 81.0881
9.425096193225055 80.9303
9.447488380180165 81.9244
9.469863475295412 82.3713
9.492256385987508 82.667
9.514632206018318 83.4259
9.537025843935714 83.5492
9.559402392368193 84.3411
9.581796761000229 85.20100000000001
9.604191496441521 86.4795
9.626569144158516 90.2973
9.648964615551032 95.4068
9.671343000390081 97.37899999999999
9.693739211225699 94.8233
9.716135793237463 91.8512
9.738515290448102 90.7145
9.760912617143402 92.0349
9.783292860202891 92.8562
9.805690935076182 93.708
9.828089385495742 94.7223
9.850470754023561 97.1927
9.872869957865444 105.521
9.89525208097539 122.62299999999999
9.917652041736662 135.766
9.940052382417589 134.026
9.962435644102392 131.809
9.984836746950979 152.311
10.007220771957746 202.174
10.029622640473708 289.907
10.052007432299963 459.273
10.074410069984072 743.763
10.096813093716005 1254.87
10.119199042482517 1767.72
10.141602840636468 2046.54
10.163989564971628 1559.86
10.186394141051062 856.691
10.208799107559706 368.24800000000005
10.231187001965623 177.475
10.253592751657669 122.109
10.275981430388155 110.34200000000001
10.298387966769793 110.65899999999999
10.320794897965431 114.095
10.343184759907361 112.84200000000001
10.36559248305461 106.92
10.387983138083852 101.944
10.410391656691655 102.492
10.432800574501677 109.883
10.455192425893369 122.219
10.47760214443012 143.882
10.499994797678786 185.52900000000002
10.522405320453982 265.20799999999997
10.54479877906917 402.211
10.567210109595656 532.015
10.5896218454736 598.474
10.612016518879773 507.88800000000003
10.634429067781074 342.227
10.656824555333241 197.628
10.679237920773568 121.635
10.701651695961992 94.1683
10.724048411481384 87.3331
10.746463008485165 84.4461
10.768860546937125 83.0409
10.791275969274796 81.6131
10.81369180576079 80.4296
10.836090585366925 79.5986
10.858507252467449 78.293
10.88090686379991 77.0643
10.903324365036394 77.062
10.925724811614439 77.2449
10.948143150509463 78.4317
10.970561909719066 77.6476
10.992963615930844 75.6653
11.015383218085756 73.5113
11.037785768347074 71.6434
11.06020621697282 71.2865
11.082627090322113 70.95
11.105030913430326 70.6108
11.12745263854165 71.2237
11.149857314510728 75.449
11.172279894912576 82.1752
11.194702904450653 83.1469
11.217108866490921 78.4925
11.239532736615194 73.5444
11.26193956033512 71.0562
11.284364294577085 69.2024
11.306789462371718 67.2762
11.329197585398376 65.9602
11.351623622610898 65.8114
11.37403261614354 64.8218
11.396459526308487 64.6684
11.418869393879497 64.2218
11.441297180532617 64.2012
11.463725406927658 63.3231
11.486136592353875 63.4254
11.508565700543707 64.4606
11.530977768845315 66.5177
11.553407762368774 67.4487
11.575838200059769 66.9713
11.598251599479612 64.5121
11.620682927815501 62.8512
11.64309721895548 62.3963
11.665529441478206 61.7984
11.687962112597958 61.7021
11.710377748130886 61.8186
11.732811318753434 61.2762
11.755227854859067 61.678000000000004
11.777662328529495 61.4848
11.800079768750786 61.5191
11.822515149015453 61.4475
11.844950984084935 61.2964
11.867369787303163 61.102
11.889806534289491 61.2823
11.912226250487029 61.4931
11.934663912939751 61.6032
11.9571020346363 61.5044
11.979523127133968 61.5254
12.001962169624331 62.0796
12.024384183972964 62.7326
12.046824150809913 64.8292
12.069264581333726 68.8448
12.091687985297767 74.6913
12.11412934550045 82.7093
12.136553680195208 97.052
12.158995973632788 119.113
12.181438735204349 150.406
12.20386447284199 184.313
12.226308172985636 204.46
12.24873485024193 198.465
12.271179492516982 162.643
12.293607112949127 123.287
12.316052700916226 94.8788
12.338498763250042 77.7808
12.360927805303868 69.5871
12.383374818673879 65.4465
12.405804812803074 63.3712
12.428252780773262 63.3792
12.45070122756722 62.9973
12.473132656675375 62.625
12.49558206341869 63.0136
12.518014453510101 63.0544
12.540464823770117 63.1438
12.562915677315177 63.4873
12.58534951575545 64.3209
12.607801338171472 66.5749
12.630236146511358 72.525
12.652688941369085 77.7512
12.675124723177234 78.5066
12.697578494048786 73.586
12.720032754458185 69.0674
12.742470003354093 66.7976
12.764925245138771 66.55
12.787363476431278 66.3678
12.809819703166806 66.7063
12.83227642391173 67.5029
12.854716135692716 68.0197
12.877173846755147 69.0634
12.899614549869717 69.3423
12.9220732548287 70.0681
12.94453245827299 70.4801
12.966974655289818 71.6958
12.989434858002571 72.0516
13.011878055298721 72.9035
13.034339260862497 73.7535
13.056800969391883 75.1416
13.079245674017244 76.696
13.101708390774869 77.9159
13.12415410463411 83.0846
13.146617833206086 92.7539
13.169064559883248 103.226
13.191529303857127 115.605
13.213994557076367 136.046
13.236442809902437 171.233
13.258909083908291 227.675
13.28135835851934 299.994
13.30382565690295 377.838
13.326293469022952 435.154
13.348744283242008 428.58
13.371213125129904 348.97
13.39366497011003 249.03599999999997
13.416134845360597 167.013
13.438605238843131 119.522
13.46105863690397 101.01299999999999
13.483530069144786 99.4478
13.505984506951902 103.052
13.528456981549432 111.839
13.550929978879088 125.285
13.573385983253365 147.304
13.595860028340867 185.988
13.618317081455832 242.394
13.64079217790333 307.926
13.663250283359057 358.38800000000003
13.685726434770173 379.968
13.708203115221277 334.05800000000005
13.730662806148091 252.872
13.75314054697177 177.13099999999997
13.775601299246777 123.07700000000001
13.798080104050406 94.7302
13.820559442405358 83.4924
13.843021793671388 80.2568
13.865502201420897 78.4022
13.887965623051947 77.7171
13.910447103807167 76.7079
13.932929122629764 75.3762
13.955394156785959 75.102
13.977877254034569 74.2635
14.000343367582113 73.3478
14.022827546871707 72.9005
14.045294743423524 71.9783
14.06778000837062 71.3303
14.090265817715476 71.2757
14.112734645763819 70.97
14.13522154619454 70.5434
14.157691466286913 70.8922
14.180179461423874 70.6577
14.202668005486178 69.99
14.22513957064374 69.1656
14.247629214846473 68.653
14.270101881097517 68.4437
14.29259262906496 69.2029
14.315083930490205 70.2074
14.337558255389705 70.4025
14.360050666019726 69.8329
14.382526101071944 68.6604
14.405019624534942 67.8821
14.427513705993134 67.1007
14.449990813291825 67.2611
14.47248601302899 67.0559
14.49496423954951 67.3021
14.517460561197822 67.1249
14.539939910570322 67.084
14.562437357763558 67.6382
14.58493536931253 68.7693
14.607416409993311 69.7723
14.62991555254159 70.2639
14.652397725157423 70.1642
14.674898002342799 69.6709
14.697398848433282 68.7913
14.719882725991326 69.3288
14.74238471217934 69.5248
14.764869730765593 71.6901
14.787372860692983 74.2714
14.809876564079925 78.3621
14.83236330125751 83.4956
14.854868153850365 90.9123
14.877356041159485 103.955
14.899862046604186 122.208
14.922351087688757 150.016
14.944858249632887 182.997
14.967365991421232 213.47
14.989856770231246 230.803
15.012365673994204 218.11900000000003
15.03485761569738 187.59099999999998
15.05736768508665 146.963
15.07987833888692 111.84100000000001
15.102372032001655 88.5243
15.124883856909658 75.3143
15.14737872204565 70.7954
15.169891721717274 68.8255
15.192405310371893 68.9519
15.214901940621196 69.3583
15.237416709527137 69.8801
15.259914520936249 70.09
15.282430473753607 68.8733
15.304947020131227 67.9136
15.327446610371178 66.7458
15.349964346154254 65.7789
15.372465126703139 65.2596
15.394984055556009 65.0743
15.417486030076159 64.8237
15.44000615566487 64.4765
15.462526881230803 64.6459
15.485030653812652 64.8796
15.507552581617434 64.7078
15.530057557334603 64.8411
15.55258069104857 64.8183
15.575104429329837 64.7953
15.597611216864632 64.3782
15.620136166564563 63.9656
15.6426441664095 64.6166
15.665170331202765 66.0015
15.687697105158826 68.5854
15.710206930593545 71.286
15.732734925158933 75.0982
15.755245972089478 80.4428
15.77777519094324 89.5039
15.800287463046663 102.04
15.822817909869592 121.456
15.84534897229804 146.578
15.867863089299354 172.801
15.890395385222186 192.06799999999998
15.912910736597423 197.58
15.935444269699861 181.78400000000002
15.957978423016485 152.662
15.980495633101265 120.211
16.003031029129367 93.8585
16.02554948280019 76.2005
16.048086125229432 66.8767
16.070623392487107 64.2896
16.09314371869582 63.4767
16.11568223789321 62.5602
16.13820381691126 61.528999999999996
16.160743591742527 60.3245
16.183283996022084 59.3018
16.205807461423195 58.2579
16.228349126881973 57.6802
16.25087385432698 57.8517
16.27341678466365 57.3395
16.29594277784926 57.2913
16.31848697676433 57.6098
16.341031811604868 57.9154
16.36355971058487 58.2977
16.3861058195587 58.1126
16.40863499352978 56.8045
16.431182380342005 55.7667
16.453730407713202 54.9647
16.476261501364792 54.5332
16.498810812136167 54.568000000000005
16.52134319004079 54.6377
16.54389378792203 54.3492
16.566445031001553 54.0945
16.588979342490088 53.9118
16.61153187824822 53.7201
16.634067483263312 53.599
16.656621315414416 53.583
16.679175797408888 53.3556
16.701713349928728 53.5146
16.72426913389191 53.6887
16.74680798922351 53.8208
16.76936507887444 53.8138
16.791905240734874 53.9457
16.814463639794468 53.6008
16.837022695210294 53.6793
16.859564824093756 54.2101
16.882125194503903 54.9201
16.904668639217885 55.7922
16.927230328348003 55.9447
16.949792678493612 55.9442
16.972338104193863 55.1738
16.994901778652235 54.5471
17.017448529496576 54.5133
17.040013531998152 54.5775
17.06257920018044 54.6655
17.0851279459922 55.4254
17.107694947817667 56.1336
17.130245028099072 56.7869
17.15281336730298 58.2842
17.17536478578733 59.6875
17.19793446610687 61.9803
17.220504818648422 64.7775
17.243058251703697 68.2168
17.265629950971032 73.0849
17.288184731571736 78.1221
17.310757781306908 82.5515
17.33333150794385 82.5687
17.355888317140174 80.36
17.37846339986244 74.7369
17.401021565958885 68.7004
17.42359800851343 63.723
17.44617513265564 60.5004
17.468735341390783 58.7115
17.491261035594565 57.8204
17.51396340099364 57.6545
17.536490463869136 57.6725
17.559018209820174 57.8285
17.58154663977963 58.0815
17.604251766089718 58.0568
17.626781572227713 58.2392
17.64931206518155 58.4616
17.671843245885103 59.0111
17.69455114821572 59.2406
17.717083712612634 59.47
17.739616967569667 59.4963
17.762150914021706 59.8624
17.78486160749854 59.8307
17.807396945166804 60.3775
17.829932977143503 60.833
17.85246970436452 61.943999999999996
17.875183204129467 63.4239
17.897721330097664 65.2388
17.920260154126645 67.477
17.942799677153296 70.2175
17.9655159983646 73.4789
17.988056927677544 78.7639
18.010598558807683 86.3284
18.033140892692916 96.6444
18.05586005052525 108.743
18.07840379824407 121.074
18.10094825154059 131.298
18.12366954819864 138.476
18.146215420998306 136.185
18.16876200220057 126.085
18.191309292745153 112.384
18.214033452627167 99.355
18.236582170236648 88.0686
18.259131600016456 83.2811
18.281681742907335 83.8295
18.304408781233683 88.9076
18.32696035875955 94.8621
18.349512652227624 100.279
18.372065662579683 104.905
18.394795594587553 106.103
18.41735004715306 101.804
18.43990521943684 94.3124
18.46246111238171 84.6179
18.485193953325208 75.3155
18.507751296070428 68.434
18.530309362314178 64.3542
18.552868153000343 62.2395
18.57560391815056 60.8281
18.59816416623245 60.3606
18.620725141597372 59.8127
18.643286845190268 59.5654
18.666025549835414 59.2087
18.688588718427933 58.5951
18.711152618092243 58.3762
18.73389353884365 58.1948
18.75645890921984 57.6517
18.77902501351406 57.3378
18.801591852673102 57.4364
18.824335739722738 56.9293
18.846904057212626 56.903999999999996
18.8694731124168 56.5733
18.89204290628315 56.4523
18.914789774966803 56.2331
18.937361054791623 56.0118
18.959933076131318 55.8543
18.982505839934877 55.89
19.00525570560582 55.8279
19.027829963004184 55.7105
19.05040496572238 55.8095
19.072980714710468 55.7366
19.095733592739563 55.7655
19.11831084296757 55.8709
19.140888842324735 56.4391
19.16346759176222 56.7219
19.18622349753803 57.1981
19.208803755869358 57.8156
19.231384767143577 58.7982
19.253966532312948 60.199
19.276725481241822 62.3754
19.29930876296784 65.1524
19.3218928014549 68.2115
19.34465404436217 71.8489
19.36723960516257 74.7997
19.389825925592426 75.5784
19.412413006605938 74.2517
19.43517731967805 70.41
19.457765930683355 65.8492
19.48035530514408 61.4175
19.50294544401556 57.9949
19.525712842708348 55.5013
19.54830451925909 54.2205
19.570896963095727 53.0823
19.593490175174704 52.8215
19.616260674962184 52.8134
19.638855432416964 52.3654
19.661450960992624 52.4935
19.68404726164677 52.3871
19.706820878021247 52.31
19.729418731756834 52.4651
19.752017360452857 52.2095
19.77461676506804 52.3955
19.797393513540218 52.3363
19.819994478951667 52.5955
19.84259622316767 53.0014
19.8651987471481 53.4864
19.887978643247177 53.6999
19.91058273574792 53.9618
19.933187610901943 54.5248
19.955969879466828 55.593
19.97857632894404 57.0456
20.00118356396599 58.858000000000004
20.023791585494575 61.2528
20.046577028914875 64.16
20.069186632506966 66.3822
20.091797025500632 68.094
20.114408208858933 68.6843
20.137196842715273 68.2163
20.159809615886765 66.2615
20.18242318232135 63.6927
20.20503754298326 61.7705
20.227829382875154 60.6624
20.250445341109344 60.672
20.27306209647285 61.9696
20.29567964993108 63.2774
20.31847471147704 64.1034
20.34109387027612 65.014
20.363713830075454 64.4231
20.386334591841646 62.7785
20.409132890679302 60.1044
20.431755265564437 57.1484
20.454378445325528 54.1392
20.477002430930366 52.3581
20.499803982716553 51.2117
20.522429589228004 50.6354
20.54505600449589 50.1821
20.567683229489194 50.0378
20.590488049900088 49.593999999999994
20.61311690359731 49.1597
20.63574656993626 49.13399999999999
20.658553853717297 48.6758
20.681185154618298 48.4711
20.703817271080066 48.4719
20.72645020407368 48.1254
20.749260783967177 48.1091
20.771895359337133 47.9074
20.794530754161617 48.0218
20.817166969412938 47.7704
20.83998086114876 47.869
20.86261872660049 47.7447
20.885257415405402 47.6833
20.90789692853701 47.65
20.930714147864748 47.276
20.953355319030678 47.4953
20.97599731745334 47.5758
20.99864014410749 47.5744
21.021460706796564 47.5732
21.044105199328826 47.8184
21.06675052302631 47.9771
21.089396678865015 48.1474
21.112220600704806 48.37
21.134868430275347 48.6956
21.15751709492456 48.9159
21.180166595629693 49.4795
21.202993892429635 50.0332
21.22564507473034 50.3755
21.24829709602816 50.4852
21.27112693608965 50.5198
21.293780644891275 50.1917
21.316435195634053 49.497
21.339090589297417 48.8028
21.361923832041875 48.4657
21.384580921090404 47.9454
21.407238856007325 47.4458
21.429897637773326 47.3503
21.45273429906592 47.2613
21.475394784108598 47.369
21.498056118951983 47.3521
21.520718304578022 47.3835
21.543558400304388 47.5094
21.566222297108816 47.7823
21.58888704765135 47.7316
21.61155265291521 47.9681
21.63439619898156 48.331
21.657063523335786 48.5583
21.67973170537063 49.0245
21.7024007460706 49.5381
21.72524775840385 50.1915
21.747918526116475 51.1891
21.770590155457388 52.4387
21.79326264741238 53.7441
21.816113141960237 55.518
21.838787368860547 57.7319
21.861462461341976 59.7929
21.884315579735777 61.8317
21.90699241312273 63.2373
21.92967011506078 63.4597
21.95234868653799 62.9349
21.9752053151131 61.7805
21.997885635446785 59.7588
22.020566828293532 57.975
22.04324889464272 56.653
22.066109049404666 55.6165
22.088792872571794 55.0925
22.111477572219204 55.2378
22.1341631493376 55.2965
22.157026846313123 54.9846
22.179714188221507 54.0894
22.202402410582668 53.1064
22.22509151438863 51.6044
22.24795876962584 50.531000000000006
22.270649646204486 49.2898
22.293341407213727 48.6216
22.316034053646906 48.1976
22.338904883215342 48.0595
22.36159931041458 47.997
22.38429462602756 48.0866
22.40699083104897 48.0922
22.429865251039757 47.8582
22.452563244831367 47.9348
22.47526213102522 47.8962
22.49813925616515 47.7007
22.520839937143307 47.5003
22.543541513520587 47.6352
22.56624398629403 47.4745
22.589124730075895 47.3621
22.611829005656723 47.8092
22.63453418063466 47.5448
22.657240256008077 47.7094
22.680124634582935 47.6506
22.70283252079775 48.1463
22.725541310413075 48.3883
22.74825100442868 48.6119
22.771139033969575 48.7866
22.79385054687155 49.0611
22.81656296718292 49.797
22.83927629590484 50.5826
22.862167992606945 51.6849
22.88488314827121 52.9192
22.907599215359284 54.1525
22.93031619487366 55.5733
22.953211574954405 56.3605
22.975930389478226 56.9057
22.998650119445763 57.0283
23.02137076586092 56.3968
23.044269845560063 54.9359
23.06699233506288 53.3432
23.089715744034912 51.4909
23.112617610931565 49.9248
23.135342869061212 48.8967
23.158069049684816 48.2488
23.1807961538087 47.8657
23.20370174880544 47.7598
23.226430710184808 47.6588
23.249160598093425 47.7662
23.271891413539002 47.5586
23.294800752937697 47.576
23.31753343374794 47.7348
23.340267045128353 48.0023
23.36300158808808 48.1992
23.38591468821339 48.51
23.408651104658304 48.9909
23.431388455719986 49.4872
23.454126742409 50.3118
23.4770436196085 51.3676
23.499783787914662 52.7636
23.522524894889884 53.9112
23.54526694154616 55.3213
23.56818761219047 56.625
23.59093154860734 56.9323
23.613676427751283 57.1118
23.636422250635754 56.1071
23.659346731118656 54.2018
23.68209445191868 52.5812
23.704843119509587 50.433
23.72759273490623 48.6083
23.750521041644767 47.2742
23.77327256312355 46.2912
23.796025035462787 45.7407
23.818956224555475 45.2101
23.841710609113413 45.0645
23.86446594758979 44.8139
23.887222241002014 44.7027
23.910157285144578 44.42
23.932915498962537 44.254
23.955674670778713 44.2515
23.978434801611975 44.0305
24.001373717286125 43.7591
24.024135776723917 43.7775
24.046898798245582 43.6594
24.06966278287146 43.566
24.092605586582614 43.3813
24.115371508023642 43.3098
24.1381383956401 43.1454
24.16090625045381 43.165
24.183852958731244 43.1945
24.206622758582608 42.925
24.229393528706886 42.8572
24.252165270127392 42.9701
24.27511589952438 42.7516
24.297889594216997 42.486999999999995
24.32066426328598 42.4961
24.34343990775613 42.3959
24.36639447485003 42.3803
24.38917208083877 42.19
24.41195066531332 42.2224
24.43490819850244 42.3226
24.457688750692377 42.0746
24.48047028445616 42.1051
24.503252800821233 42.1828
24.526214300784112 42.2465
24.548998793132213 42.1398
24.57178427117417 42.0131
24.59457073593893 42.2324
24.617536219319863 42.1452
24.64032466834748 42.2051
24.663114107195035 42.1726
24.685904536893013 41.7417
24.708874020360852 41.6487
24.731666442613744 41.6579
24.754459858818787 41.6051
24.777254270007962 41.5534
24.80022777025625 41.327
24.82302418230472 41.3401
24.845821592443674 41.2477
24.86862000170663 41.3079
24.891597535453727 41.2453
24.914397953892728 41.3727
24.93719937456671 41.2197
24.96000179851076 41.3605
24.98298338249997 41.5145
25.00578782394922 41.7856
25.028593271784167 41.8568
25.05157790644186 42.2595
25.07438537804115 42.4408
25.097193859145293 42.691
25.120003350792075 42.8628
25.142992065061257 43.3223
25.165803588823465 43.3676
25.18861612625217 43.6033
25.211429678386736 43.7091
25.234422489079968 43.8251
25.257238081693636 43.9267
25.280054692141732 44.0953
25.3028723214652 44.0023
25.325869245420463 44.2078
25.348688923599397 44.3484
25.371509623787006 44.07
25.394331347025812 43.7331
25.41733240110666 43.3286
25.440156181590016 42.6464
25.46298098826268 42.0843
25.48580682216873 41.6541
25.50881202326435 41.0594
25.53163992281684 40.5613
25.55446885274561 40.4069
25.577298814096377 40.084
25.600308179121807 39.9709
25.623140214533745 40.0474
25.64597328451537 40.0297
25.66898578564376 39.7635
25.691820936010206 39.7992
25.714657124097695 39.7541
25.737494350954734 39.8126
25.760511045684957 39.6988
25.783350361364224 39.6931
25.806190718969255 39.6646
25.82903211955018 39.812
25.852053024868923 39.8354
25.874896522722523 39.7655
25.897741066713106 39.7715
25.920586657892454 39.9115
25.943611790812668 40.0131
25.966459487728237 40.0921
25.989308234998564 40.1433
26.01215803367705 40.4938
26.03518741123814 40.6703
26.05803932412957 40.8292
26.080892291600094 40.8125
26.10374631470478 40.8892
26.12677995397268 41.0951
26.14963609978026 40.9345
26.172493304397875 40.5716
26.19535156888223 40.379
26.218389486949604 40.0378
26.241249882640123 39.6297
26.26411134137826 39.4859
26.28715248187403 39.4104
26.31001607820869 39.341
26.3328807407756 39.1444
26.35574647063438 39.3028
26.37879191991473 39.2271
26.401659795896734 39.1815
26.424528742360263 39.3786
26.447398760366614 39.571999999999996
26.470448535598294 39.7336
26.49332070826805 39.8465
26.516193955675355 40.2607
26.53906827888316 40.467
26.562122397260108 40.7098
26.584998883685063 40.9682
26.607876449110325 41.1341
26.63075509460056 41.3484
26.65381357334404 41.3733
26.67669439061878 41.309
26.699576291163382 41.2213
26.722459276044212 41.1981
26.745522132402975 40.8581
26.768407297649354 40.6082
26.791293550442003 40.2817
26.814180891848974 39.9859
26.837248143099337 39.7522
26.860137673466657 39.6605
26.88302829566349 39.3182
26.90592001075963 39.2712
26.92899167420566 39.044000000000004
26.951885586870763 38.5944
26.974780595655517 38.5514
26.99785558178161 38.4063
27.020752794605112 38.2056
27.043651106772522 38.1928
27.06655051935668 38.1316
27.089629948036183 37.8824
27.112531573292053 37.8982
27.135434302194138 38.0228
27.158338135817015 37.7219
27.181422024430987 37.8095
27.204328079372566 37.7765
27.22723524226965 37.7269
27.250143514198573 37.7534
27.273231880156334 37.781
27.296142382065014 37.5769
27.319053996245536 37.5515
27.341966723775965 37.6822
27.365059584515222 37.7307
27.38797455070062 37.7448
27.410890633481237 37.565
27.433807833936918 37.7225
27.456905206923906 37.8136
27.47982465472398 37.6873
27.502745223449743 37.7304
27.525666914182825 37.9031
27.548768816912457 37.7502
27.571692763693633 37.692
27.59461783573812 37.6971
27.617723149491244 37.4993
27.640650484125285 37.4086
27.66357894728264 37.2934
27.686508540048052 37.273
27.709618414237887 37.201
27.732550278321757 37.025
27.755483275279115 36.9919
27.778417406196485 37.0065
27.801531858397514 37.1446
27.824468269376716 37.046
27.847405817586786 36.9129
27.870344504116094 37.0886
27.893463551932008 37.1829
27.916404527281053 37.4821
27.93934664422563 37.598
27.962289903855886 37.6607
27.98541356491974 37.7756
28.00835912214229 38.0116
28.03130582533231 38.2538
28.054253675581805 38.369
28.077381967556104 38.3939
28.100332124185126 38.2245
28.123283431160893 38.1514
28.146235889577238 38.0743
28.169368830154156 37.9502
28.192323603752033 37.7823
28.215279532083304 37.4745
28.238415973016764 37.2886
28.261374223145094 37.2737
28.284333631303806 36.961999999999996
28.307294198589954 36.7088
28.330435319167677 36.3878
28.353398217078915 36.2012
28.376362277420153 35.9503
28.39932750129032 35.7923
28.422473319286713 35.6012
28.44544088262495 35.6241
28.468409612800283 35.5472
28.491379510913497 35.3369
28.51453004413313 35.2429
28.53750229057244 35.2702
28.56047570826344 35.2898
28.583450298308804 35.2547
28.606605564586562 34.9395
28.629582511831156 34.9592
28.65256063474956 34.9351
28.675539934446338 35.0276
28.698699951647605 34.9041
28.72168161743193 34.8361
28.74466446331978 34.8779
28.767648490417624 34.7901
28.790813276438353 34.8681
28.813799678527303 34.7341
28.836787265157085 34.684
28.859955641890075 34.8272
28.882945610203045 34.765
28.905936766392035 34.6751
28.928929111566863 34.6926
28.952102288520145 34.58
28.975097024308607 34.4948
28.998092952423807 34.2123
29.021090073977508 34.1533
29.04426806913204 34.0903
29.067267590245258 33.9591
29.090268308143695 33.8701
29.11327022394099 33.8515
29.13645305530891 33.823
29.159457379627167 33.8013
29.18246290519685 33.7028
29.20546963313352 33.6681
29.22865731875826 33.6607
29.25166646419296 33.6713
29.27467681535305 33.5282
29.29768837335608 33.621
29.320880931312562 33.6415
29.34389491580634 33.669000000000004
29.366910110507334 33.5281
29.38992651653503 33.5965
29.41312396492981 33.625
29.436142806456754 33.5313
29.45916286268059 33.333
29.48236399319994 33.2059
29.50538649169417 33.0938
29.528410208259935 33.0549
29.55143514402014 32.8439
29.574641196749695 32.6864
29.597668583816574 32.6385
29.6206971934585 32.3961
29.64372702680042 32.4545
29.666938019934474 32.3618
29.689970313635285 32.2664
29.713003834422636 32.39
29.73603858342347 32.321
29.759254535188578 32.1286
29.78229175361658 32.2133
29.80533020365064 32.2352
29.82836988641968 32.2356
29.85159081507472 32.1766
29.874632976355343 32.0475
29.89767637376955 32.2524
29.920721008448314 32.141999999999996
29.9439469322847 31.9898
29.96699405457564 31.9096
29.9900424175358 31.9132
30.013092022298157 31.9994
30.03632295963995 31.8333
30.059375061131373 31.8123
30.08242840783577 31.8769
30.105483000888153 31.862
30.128718970092244 31.7552
30.151776069006917 31.7693
30.17483441768648 31.8411
30.198074175317235 31.8303
30.221135036724256 31.8278
30.24419715131772 31.7634
30.267260520236203 31.6947
30.290505341942243 31.6205
30.313571232750228 31.6708
30.336638381310948 31.6383
30.35970678876503 31.6309
30.38295669299435 31.5271
30.40602763151657 31.5344
30.429099832366074 31.4588
30.452173296685572 31.3733
30.47542830191959 31.4353
30.498504306502497 31.3769
30.521581577995562 31.5209
30.544660117543582 31.6216
30.56792024229725 31.4745
30.59100133132069 31.4329
30.614083691845494 31.5951
30.637167325018545 31.583000000000002
30.660432587840603 31.6107
30.683518779717886 31.5661
30.70660624769615 31.6696
30.729694992924372 31.6698
30.75296541239743 31.485
30.77605672557558 31.4583
30.799149319462742 31.4587
30.8224236211637 31.3526
30.845518789950724 31.2442
30.868615242910597 31.2659
30.891712981195973 30.9783
30.91499247215866 30.903000000000002
30.938092794619365 30.996
30.96119440587579 30.883000000000003
30.984297307082752 30.7416
31.00758200598383 30.6549
31.030687500658694 30.5964
31.053794288760695 30.5749
31.076902371446767 30.3741
31.100192296997445 30.4928
31.12330298246119 30.4476
31.14641496599209 30.3092
31.169528248749216 30.3281
31.19282341969534 30.273000000000003
31.215939314557186 30.3826
31.239056512134788 30.3357
31.262175013589378 30.3076
31.28547544871168 30.2168
31.30859657161541 30.1138
31.331719001892175 30.2757
31.35484274070538 30.3806
31.378148458819545 30.3169
31.401274828443725 30.2748
31.424402510106933 30.2998
31.447712205419993 30.3366
31.470842524931633 30.2049
31.493974159989783 30.2035
31.51710711176168 30.2075
31.54042212308802 30.2537
31.563557722100917 30.19
31.586694641341655 30.0347
31.609832881979628 29.8768
31.63315322823208 29.8997
31.656294125521327 29.7185
31.679436347728515 29.7064
31.70257989602529 29.713
31.725905596152327 29.6507
31.74905181052835 29.5454
31.772199354521323 29.5643
31.79534822930507 29.611
31.818679302290967 29.554000000000002
31.84183085259981 29.5844
31.864983737233473 29.605999999999998
31.88813795736804 29.5285
31.911474422233013 29.3565
31.934631327356435 29.5388
31.9577895715215 29.568
31.980949155906522 29.4834
32.004291031706956 29.3866
32.027453310562606 29.3735
32.05061693318573 29.2142
32.07396288236386 29.31
32.09712920658542 29.1908
32.12029687812702 28.9906
32.14346589817093 29.0214
32.166817291729984 29.0056
32.18998902288583 28.9128
32.21316210610336 28.799
32.23633654256711 28.6645
32.259693399663725 28.7197
32.282870556771144 28.5479
32.30604907069099 28.6012
32.329228942610065 28.5115
32.35259128243769 28.3971
32.375773884550505 28.3504
32.398957848235646 28.415
32.422143174682176 28.2708
32.445511016471215 28.2447
32.468699082679954 28.1894
32.49188851523011 28.1042
32.51507931531304 28.0774
32.538452678331 28.061
32.56164622776311 27.9104
32.58484114831493 27.8059
32.60803744118015 28.0324
32.631416344731896 27.9892
32.654615396551876 27.9899
32.67781582427913 27.9823
32.701198898634416 27.8622
32.72440209253756 27.6879
32.747606665947124 27.7227
32.77081262006088 27.6523
32.79420126883317 27.6019
32.81740999876112 27.6628
32.840620112999424 27.6023
32.86383161274818 27.5192
32.88722585534586 27.4196
32.91044014056596 27.5014
32.933655814909734 27.5112
32.95687287957963 27.4374
32.98027273544904 27.3104
33.00349259526636 27.3802
33.026713849030116 27.3747
33.04993649794511 27.2975
33.073341986570746 27.2192
33.09656744032826 27.3022
33.11979429286444 27.2765
33.14302254538647 27.2442
33.166433686291185 27.2124
33.18966475336992 27.121
33.212897224069096 27.0572
33.23613109959831 27.0838
33.259547912343415 27.0791
33.2827846121627 27.0649
33.306022720453775 26.9203
33.32926223842861 26.853
33.352684742614166 26.8962
33.37592709463173 26.784000000000002
33.399170859982064 26.7986
33.422597648419426 26.6605
33.44584425514446 26.6952
33.46909227885668 26.6361
33.4923417207723 26.4701
33.51577423505344 26.604
33.539026528130385 26.474
33.56228024307245 26.3518
33.585535381098246 26.2201
33.60897364093058 26.2082
33.63223163992385 26.2287
33.6554910656699 26.1125
33.678751919389796 26.1264
33.702195944520106 26.0752
33.72545966903325 26.0632
33.74872482519663 26.0177
33.771991414233746 25.9686
33.79544122444841 25.9994
33.81871069412428 25.9215
33.84198160035767 25.8364
33.86525394437455 25.8618
33.88870955949969 25.8467
33.911984794020626 25.8132
33.93526147001624 25.7325
33.958539588715006 25.7324
33.98200102861669 25.5819
34.0052820477047 25.5307
34.02856451319451 25.6028
34.05203033759056 25.4962
34.07531571090147 25.4431
34.09860253431845 25.4719
34.121890809074316 25.4647
34.145362493118924 25.4419
34.16865368561615 25.3302
34.191946333164054 25.2591
34.21524043699793 25.261
34.23871800066799 25.1788
34.26201503218366 25.1999
34.28531352370466 25.1989
34.30861347646881 25.0649
34.33209693978188 25.0447
34.3553998301885 25.0992
34.378704185565205 24.9762
34.402010007152356 24.8674
34.42549939016683 24.8971
34.44880815937748 24.8152
34.472118398533134 24.7815
34.49543010887669 24.7956
34.51892543169198 24.6762
34.54224009966052 24.6531
34.56555624255917 24.7089
34.58887386163339 24.6164
34.61237514439016 24.5814
34.6356957311114 24.5551
34.65901779775809 24.4741
34.68252356662995 24.3971
34.705848608458616 24.3827
34.72917513396849 24.3008
34.75250314440949 24.2816
34.77601490857862 24.2679
34.799345904259795 24.2285
34.82267838863559 24.2201
34.846012362958525 24.2522
34.869530142679984 24.2077
34.89286711232212 24.166
34.91620557568269 24.1246
34.93954553401677 24.0569
34.9630693495876 24.0069
34.986412313340814 24.0537
35.00975677584668 24.0527
35.033102738362956 24.0046
35.05663261012228 23.8874
35.0799815881786 23.929000000000002
35.10333207003229 23.7937
35.12668405694369 23.7824
35.150220005273056 23.7847
35.17357501786656 23.7466
35.19693153931268 23.7285
35.220289570874385 23.6871
35.24383161619786 23.6755
35.267192683604904 23.7255
35.290555264930376 23.6351
35.314101899412165 23.6651
35.33746752422433 23.5737
35.36083466676374 23.5481
35.38420332829803 23.4953
35.407756095629054 23.529
35.43112781085063 23.6011
35.45450104888391 23.5676
35.477875810999194 23.4586
35.50143473172161 23.3727
35.52481255774625 23.4581
35.54819191167777 23.3251
35.57157279478914 23.249000000000002
35.595137889488406 23.2644
35.61852184675279 23.2463
35.641907337029984 23.1904
35.665294361595684 23.1344
35.68886565090076 23.0361
35.7122557598848 23.1191
35.73564740699838 23.0378
35.759040593519934 22.9868
35.78261809810353 23.0125
35.80601437933051 22.9572
35.829412203814705 22.904
35.85281157283719 22.8385
35.876395313415884 22.835
35.8997977874528 22.8065
35.92320180988546 22.7633
35.946790244133936 22.7162
35.97019737933222 22.7042
35.993606066789866 22.6761
36.01701630779276 22.5865
36.04061101440684 22.5559
36.06402437852291 22.5381
36.08743930005611 22.5635
36.1108557802951 22.4703
36.13445678011326 22.4615
36.15787639383515 22.3614
36.18129757014299 22.3115
36.20472031032821 22.3495
36.22832762423364 22.2779
36.25175350829375 22.2667
36.275180960119776 22.1707
36.298609981005924 22.2289
36.32222362992669 22.2542
36.34565580510207 22.2118
36.36908955323448 22.125
36.39252487562093 21.9583
36.416144880530226 22.0798
36.43958336764275 22.0948
36.463023432914625 22.0311
36.486465077645676 21.8615
36.51009145956204 21.9665
36.53353627947859 22.0316
36.55698268276811 21.939
36.58043067073321 21.851
36.60406345072071 21.7079
36.62751462435344 21.7347
36.65096738658405 21.7799
36.67460498210655 21.7979
36.69806093788647 21.705
36.72151848619297 21.6075
36.744977628333636 21.6903
36.76862165890998 21.5365
36.79208400512205 21.5165
36.81554794910557 21.5827
36.83901349217101 21.473000000000003
36.862663978991606 21.4712
36.88613273667352 21.4086
36.90960309738324 21.3622
36.933075062434064 21.3534
36.95673202673572 21.329
36.98020721697122 21.2762
37.003684015502365 21.1411
37.027162423645365 21.1296
37.050825886711465 21.2108
37.07430753063053 21.1259
37.09779078812467 21.1168
37.121275660513014 21.0495
37.144945643673694 20.9894
37.16843376245278 20.9483
37.19192350009803 20.9566
37.215414857931435 20.9295
37.239091382563885 20.8885
37.262585997426164 20.8426
37.28608223645736 20.9005
37.309763684451696 20.8075
37.33326318851098 20.7739
37.356764320726555 20.7297
37.380267082425526 20.7545
37.40395510942588 20.7194
37.42746114683234 20.6223
37.45096881771841 20.6499
37.474478123414166 20.6179
37.49817275092816 20.5678
37.52168534303452 20.5649
37.54519957395567 20.4263
37.568715445024665 20.5085
37.592416694607714 20.4108
37.61593586281424 20.4074
37.63945667518264 20.4752
37.66297913304891 20.3311
37.68668702630454 20.3383
37.710212792059274 20.249000000000002
37.733740207334854 20.2234
37.757269273470364 20.1879
37.780983832050374 20.1597
37.80451621684926 20.1542
37.82805025654007 20.1143
37.851585952464795 20.0775
37.8753071980695 20.0271
37.89884622345676 19.9564
37.92238690911902 19.9252
37.94611318753442 19.8766
37.969657210779765 19.8952
37.99320289834801 19.8835
38.016750251586465 19.8491
38.04048325513017 19.8444
38.06403395679343 19.7922
38.087586328183946 19.7829
38.11114037065203 19.6769
38.13488012115898 19.7339
38.1584375229181 19.6663
38.181996599821 19.5513
38.205557353221124 19.5629
38.229303872575656 19.5096
38.2528679961576 19.525
38.27643380031219 19.4586
38.30000128639589 19.4309
38.32375459653193 19.4625
38.34732546371299 19.4552
38.37089801690786 19.398
38.39447225747609 19.3448
38.418232380377425 19.4028
38.441810012983396 19.3032
38.46538933705673 19.2502
38.488970353960084 19.274
38.51273731166058 19.1651
38.536321731567014 19.1392
38.55990784840681 19.1255
38.58367995004091 19.066
38.60726947812959 19.0321
38.63086070726198 19.0498
38.654453638806274 19.0616
38.678232613930824 18.9307
38.70182896773327 18.8614
38.72542702806741 18.9481
38.7490267963045 18.927
38.77281266709232 18.8329
38.79641586862214 18.8009
38.8200207821842 18.8108
38.843627409152944 18.8915
38.86742019782782 18.7475
38.891030269149255 18.6872
38.914642058016156 18.6751
38.938255565806124 18.6166
38.96205529464307 18.5902
38.98567225787121 18.6096
39.00929094417078 18.6101
39.03291135492255 18.5673
39.05671804624804 18.5439
39.080341923549106 18.4728
39.103967529460334 18.4018
39.127594865365744 18.3889
39.15140854155791 18.4067
39.17503935514948 18.3512
39.19867190290282 18.3389
39.22249083587951 18.308
39.24612686969409 18.2959
39.269764641845306 18.295
39.293404153722804 18.1978
39.317230110864074 18.1233
39.34087311998506 18.1347
39.36451787301696 18.1225
39.388164371352595 18.0445
39.41199737518003 18.0373
39.43564738196752 18.0451
39.45929913825317 18.0134
39.48295264543308 17.9628
39.506792718520884 17.8874
39.530449745387216 17.8884
39.55410852735203 17.915
39.57776906581474 17.8767
39.60161623079 17.8574
39.625280300200025 17.8087
39.64894613032202 17.7938
39.67261372255866 17.7698
39.6964680021016 17.7363
39.72013913657293 17.745
39.74381203738292 17.6991
39.76748670593756 17.7196
39.79134812278169 17.6484
39.81502634488497 17.5945
39.83870633896685 17.5604
39.862388106436654 17.5353
39.88625668336918 17.5705
39.90994201572829 17.5154
39.933629125719285 17.4638
39.957503091207826 17.4035
39.9811937746168 17.3785
40.00488623990914 17.4155
40.02858048850006 17.3281
40.05246165409549 17.2704
40.076159487492085 17.2014
40.099859108448875 17.2956
40.123560518384345 17.2164
40.1474489070226 17.2042
40.171153913178564 17.1339
40.194860712584955 17.1285
40.2185693066637 17.1161
40.242464941335314 17.0396
40.26617714307655 17.0458
40.289891143772046 17.0907
40.3136069448471 16.9963
40.33750984859743 17.0008
40.3612292688043 16.9413
40.3849504936829 16.9509
40.40867352466194 16.9643
40.43258372059144 16.8822
40.45631038219906 16.8669
40.48003885420956 16.794
40.503769138055105 16.8027
40.52768664931955 16.8027
40.55142057531802 16.7542
40.57515631746428 16.7451
40.599079334038514 16.6909
40.62281872700477 16.6584
40.64655994043941 16.6219
40.67030297578061 16.6412
40.69423334835778 16.5404
40.71798004609188 16.5665
40.74172857006355 16.5063
40.76547892171441 16.5061
40.7894166736039 16.4601
40.813170699248566 16.4302
40.83692655691388 16.4204
40.86068424804498 16.3896
40.884629402612525 16.3671
40.908390779366385 16.3788
40.932153993938 16.2813
40.95591904777605 16.3265
40.979871628443995 16.2974
41.003640379561936 16.2501
41.02741097430883 16.1789
41.05118341413683 16.2347
41.075143444384416 16.1968
41.098919593177826 16.2201
41.1226975914255 16.1634
41.14647744058318 16.1058
41.170444943946755 16.1033
41.19422851378379 16.0674
41.218013938914645 16.0025
41.24198706625173 15.9163
41.26577622087193 15.9336
41.289567235177785 15.9317
41.31336011063129 15.9243
41.337340752422875 15.9007
41.361137369129835 15.8408
41.38493585138705 15.8308
41.40873620066004 15.7713
41.43272438060107 15.7575
41.45652848292052 15.6665
41.48033445666918 15.6453
41.50414230331616 15.633
41.528138045159764 15.6662
41.551949656675205 15.6254
41.575763145513235 15.5972
41.59957851314666 15.5923
41.62358184070442 15.5523
41.64740098505737 15.5401
41.6712220126409 15.4887
41.69504492493139 15.5111
41.71905586207357 15.4462
41.74288256296395 15.4603
41.766711153007456 15.3715
41.79054163368412 15.3045
41.814560204340054 15.3306
41.838394485526365 15.3276
41.86223066180303 15.231
41.88625497706819 15.3024
41.910094962812 15.302999999999999
41.93393684811168 15.2368
41.95778063445365 15.1102
41.981812625263366 15.1807
42.00566023303407 15.1837
42.029509746323676 15.1408
42.05336116662236 15.1183
42.077400857069705 15.0878
42.10125611078846 15.1331
42.12511327600405 15.0239
42.14897235421036 14.9906
42.173019768448455 14.9977
42.19688269209613 14.9439
42.22074753323349 14.9241
42.24461429335818 14.9118
42.268669455600495 14.8528
42.292540073217886 14.8208
42.31641261433284 14.8421
42.34028708044675 14.8039
42.36435001496739 14.8002
42.38822835065557 14.8211
42.41210861586426 14.7906
42.4359908120986 14.7258
42.46006154323262 14.6499
42.48394762115317 14.6474
42.507835634632315 14.6874
42.531912233047436 14.6051
42.55580413732265 14.5616
42.579697981698 14.5364
42.60359376768525 14.5199
42.62767820545945 14.5253
42.65157789440821 14.4779
42.67547952952185 14.4917
42.699383112316 14.4716
42.72347541395347 14.3954
42.74738291190531 14.3741
42.771292362102166 14.3757
42.795203766063516 14.345999999999998
42.819303956130405 14.2821
42.843219287476536 14.2604
42.86713657716324 14.2705
42.89105582671383 14.1981
42.91516392983864 14.2161
42.939087119032166 14.1552
42.963012272677304 14.1324
42.98693939230129 14.1466
43.01105543317513 14.1334
43.034986504731386 14.075
43.05891954686589 14.0608
43.08285456110972 14.082
43.10697856448665 14.0472
43.130917542983475 13.9584
43.15485849820081 13.9562
43.17880143167367 13.8562
43.20293342237094 13.852
43.226880332449 13.8683
43.25082922540554 13.9099
43.27496722682525 13.8464
43.29892010567796 13.8303
43.32287497204102 13.8191
43.34683182745632 13.7597
43.370977859791836 13.7132
43.39493871351105 13.7144
43.41890156092628 13.7265
43.44286640358341 13.6813
43.46702049182749 13.6386
43.49098934522816 13.6154
43.51496019852649 13.6238
43.5389330532723 13.5954
43.56309522248204 13.5369
43.58707210044314 13.5307
43.61105098451946 13.5512
43.63503187626491 13.4738
43.659202151562134 13.475999999999999
43.68318707902681 13.4742
43.70717401884041 13.4338
43.731162972560874 13.3902
43.75534137913236 13.3603
43.779334381108384 13.3682
43.803329401683186 13.3299
43.82732644241872 13.2958
43.8515130055166 13.3068
43.87551410707659 13.2721
43.89951723350145 13.2579
43.923709934595614 13.2694
43.94771713129917 13.2037
43.97172635758096 13.2088
43.99573761501002 13.1733
44.0199385169922 13.1129
44.04395385732619 13.0998
44.067971233533086 13.0994
44.09199064718605 13.0631
44.11619977548961 13.0032
44.14022328470671 12.9502
44.16424883610785 12.9718
44.18827643127035 12.9309
44.21249381139513 12.9164
44.236525514814076 12.9175
44.26055926674478 12.8676
44.28459506876863 12.9204
44.3088207262813 12.8692
44.33286064928722 12.8837
44.35690262714919 12.8451
44.38094666145278 12.7495
44.4051806219871 12.8115
44.42922879003185 12.7088
44.45327901929361 12.681
44.477331311362136 12.7068
44.501573600619416 12.7077
44.525630039221795 12.6123
44.54968854541895 12.6549
44.573937102200176 12.6163
44.5979997645541 12.6406
44.622064499300315 12.6133
44.64613130803592 12.5402
44.67038823869318 12.5321
44.69445921643748 12.4839
44.718532272981385 12.5064
44.742607409926194 12.4391
44.76687274034801 12.4281
44.79095205918753 12.4132
44.81503346325094 12.386
44.839116954143876 12.3564
44.86339071028742 12.3987
44.88747839599524 12.3104
44.91156817336837 12.3143
44.93566004401666 12.3022
44.959942251908146 12.2987
44.984038330325966 12.2963
45.00813650686762 12.1786
45.03223678314731 12.2147
45.05652746888232 12.213
45.08063196592069 12.155999999999999
45.104738567558705 12.1155
45.128847275414856 12.1151
45.15314646515866 12.0405
45.17725940679741 12.0802
45.20137445952892 12.0284
45.22568004865265 12.0628
45.24979934496396 12.0529
45.27392075725247 12.0305
45.29804428714431 11.993
45.322358426247604 11.9554
45.346486212804315 11.9284
45.370616121861914 11.9283
45.39474815505086 11.876
45.41907087049246 11.8525
45.4432071734666 11.8622
45.46734560548283 11.8246
45.49148616817604 11.7765
45.51581748638564 11.8018
45.5399623320197 11.7399
45.56410931325473 11.7029
45.58825843173002 11.7222
45.61259837920865 11.7177
45.636751793816 11.715
45.66090735060093 11.6497
45.68506505120716 11.6184
45.7094136545275 11.5803
45.73357566449271 11.540999999999999
45.75773982322992 11.5696
45.78190613238733 11.515999999999998
45.806263418194064 11.512
45.83043404997326 11.5375
45.85460683713677 11.5128
45.87897065658495 11.4487
45.90314777634752 11.4166
45.92732705646868 11.4046
45.9515084986045 11.4017
45.97588104735473 11.3894
46.00006683541565 11.3381
46.02425479047904 11.3055
46.04844491420549 11.3152
46.0728262191024 11.3092
46.09702070211635 11.3128
46.12121735879483 11.2401
46.14541619080294 11.2388
46.169806278764455 11.2445
46.194009483459034 11.217
46.21821486849841 11.1865
46.24242243555223 11.1897
46.266821333570014 11.1291
46.29103328674601 11.1069
46.31524742696538 11.1207
46.33946375590237 11.095
46.36387149104216 11.0482
46.38809221957392 10.9872
46.41231514186606 11.0135
46.436540259597464 11.0056
46.460956858999374 10.9695
46.48518638983522 10.9522
46.509418121166966 10.942
46.533652054678114 10.9316
46.55807754555709 10.8568
46.58231590571962 10.9146
46.60655647313217 10.8568
46.630988654873654 10.8358
46.655233659129024 10.7698
46.67948087571551 10.7632
46.70373030632484 10.7788
46.72817142736393 10.7956
46.752425308428684 10.7389
46.77668140861147 10.7092
46.80093972960865 10.675999999999998
46.82538981736788 10.6787
46.849652602470904 10.6496
46.87391761349769 10.6071
46.8981848521493 10.6164
46.9226439341274 10.5989
46.946915650573224 10.5513
46.97118959976749 10.5602
46.99546578341598 10.5508
47.019933887188216 10.4949
47.04421456235744 10.4999
47.06849747711879 10.52
47.09278263318286 10.4498
47.11725978640143 10.4323
47.14154944775105 10.387
47.165841355555656 10.3646
47.1901355115306 10.35
47.214621741924994 10.3652
47.23892041698887 10.3618
47.26322134538975 10.3025
47.28771440635075 10.3003
47.31201986422527 10.3068
47.33632758061436 10.2631
47.360637557241866 10.2613
47.38513974410611 10.2354
47.40945426407847 10.243
47.43377104948137 10.1924
47.45809010204344 10.1461
47.48260144275502 10.1607
47.506925052572285 10.1434
47.53125093475548 10.1307
47.55557909103813 10.1216
47.58009961361992 10.0952
47.60443234110732 10.0524
47.62876734791564 10.0451
47.65310463578333 10.0562
47.6776343683373 9.9863
47.7019762413987 9.96998
47.72632040075572 9.97403
47.75066684815169 9.950280000000001
47.77520581885936 9.938830000000001
47.799556865477655 9.95755
47.823910205386 9.90982
47.84826584033272 9.874139999999999
47.87281407745551 9.82342
47.89717432569297 9.877410000000001
47.92153687423484 9.869439999999999
47.94609208429692 9.804030000000001
47.97045925671401 9.78895
47.99482873471275 9.77599
48.01920052005013 9.787180000000001
48.04376504619224 9.77678
48.068141469543484 9.74282
48.09252020552573 9.72817
48.11690125590099 9.70226
48.1414751266064 9.67173
48.16586082917454 9.66196
48.19024885144316 9.63172
48.2146391951793 9.5999
48.239222439012764 9.612960000000001
48.26361744916137 9.595369999999999
48.28801478610016 9.56656
48.31241445160131 9.550360000000001
48.337007097209366 9.520539999999999
48.36141144338331 9.5226
48.38581812345755 9.49698
48.41022713920929 9.48974
48.434829215320704 9.4807
48.45924292604658 9.44258
48.48365897780325 9.40708
48.50807737237308 9.39512
48.532688907799276 9.413789999999999
48.55711201168574 9.33951
48.581537463754074 9.33575
48.60615611725119 9.3337
48.63058628942721 9.3493
48.65501881516546 9.298119999999999
48.6794536962573 9.28222
48.70408185970339 9.256860000000001
48.72852147531801 9.232439999999999
48.75296345168211 9.221589999999999
48.77740779059232 9.21124
48.80204549302823 9.22765
48.82649458091802 9.19253
48.85094603676547 9.1456
48.87539986237231 9.11513
48.90004713292306 9.13669
48.92450572200832 9.12375
48.94896668628025 9.080689999999999
48.97343002754588 9.1028
48.99808689542115 9.08607
49.02255501470614 9.07788
49.04702551642794 9.03773
49.0714984023988 9.0139
49.096164896893235 9.02314
49.120642575466796 8.966289999999999
49.145122643748394 8.94462
49.16960510355558 8.96809
49.19428125404938 8.93375
49.2187685210852 8.906139999999999
49.243258185121555 8.90709
49.26794160167084 8.85392
49.2924360839405 8.8774
49.31693296869764 8.85387
49.34143225776915 8.8445
49.36612538195438 8.762789999999999
49.39062950396021 8.77782
49.41513603578346 8.78417
49.4396449792564 8.76149
49.46434784069503 8.751539999999999
49.488861631846454 8.70844
49.513377840166804 8.6806
49.537896467493745 8.6695
49.56260909589029 8.64345
49.587132585683285 8.637839999999999
49.611658500018365 8.63397
49.636186840738596 8.60028
49.66090926588511 8.66622
49.685442483902584 8.59678
49.70997813385706 8.55988
49.734516217597076 8.57554
49.75924846937352 8.545910000000001
49.7837914452858 8.51507
49.80833686055187 8.49656
49.83288471702571 8.486839999999999
49.85762682540054 8.50729
49.882179588965734 8.46167
49.9067347993235 8.42488
49.93129245833333 8.43856
49.95604445336378 8.401580000000001
49.98060703442832 8.39401
50.005172069746266 8.40833
50.02993150438364 8.37165
50.05450147301533 8.3418
50.07907390151433 8.33646
50.10364879174981 8.33415
50.12841816587289 8.30449
50.1529980044635 8.285739999999999
50.17758031042124 8.275160000000001
50.20216508562089 8.25484
50.22694442953363 8.19507
50.25153416817468 8.20084
50.27612638170508 8.20471
50.300721072005196 8.16008
50.325510416102105 8.15588
50.350110084975064 8.14606
50.37471223628208 8.153939999999999
50.39931687190919 8.1253
50.424116246675766 8.15623
50.44872587605249 8.10557
50.47333799543065 8.08244
50.49795260670191 8.05988
50.52276204271512 8.03422
50.54738166295838 8.04216
50.57200378079314 8.01844
50.596628398116835 7.99665
50.62144792604559 7.99949
50.646077567609396 7.9863
50.670709714377715 7.9623800000000005
50.69553683636198 7.95327
50.72017401885922 7.9431899999999995
50.7448137122895 7.94493
50.76945591856022 7.9054899999999995
50.79429318636823 7.87018
50.818940443716784 7.89675
50.84359021965163 7.849880000000001
50.868242516085964 7.84175
50.893089960641895 7.83506
50.917747323549435 7.81525
50.94240721271973 7.780410000000001
50.96706963007175 7.76686
50.99192728239342 7.76226
51.01659478166073 7.759410000000001
51.04126481489051 7.7447
51.06593738400761 7.718960000000001
51.090805275207074 7.66542
51.11548294172845 7.67669
51.14016314993547 7.64031
51.164845901758845 7.65464
51.18972406304274 7.6123899999999995
51.21441192780656 7.60923
51.23910234200271 7.59554
51.2637953075678 7.58939
51.288683770237945 7.54748
51.31338186432707 7.52778
51.33808251561888 7.5282100000000005
51.362978729967345 7.512910000000001
51.387684521509755 7.520760000000001
51.41239287610203 7.52101
51.437103795691165 7.49828
51.46201036644977 7.47922
51.486726441956634 7.4352100000000005
51.51144508832545 7.44247
51.536166307509156 7.42033
51.56108326624387 7.38888
51.58580965706056 7.4004199999999996
51.61053862657523 7.40667
51.635270176746864 7.37418
51.66019755512065 7.37516
51.68493429268881 7.31014
51.70967361681515 7.30178
51.73441552946465 7.287560000000001
51.759353359237934 7.291119999999999
51.7841004750961 7.29069
51.80885018539685 7.249910000000001
51.833602492111254 7.2392
51.8585508051424 7.20812
51.883308330926425 7.233230000000001
51.90806845906181 7.1891300000000005
51.932831191525715 7.1712
51.95779001977161 7.14192
51.98255798721516 7.12018
52.00732856494335 7.091060000000001
52.03229530577543 7.11702
52.057071130455945 7.08126
52.081849571391054 7.098380000000001
52.106630630568695 7.0831
52.13160794279417 7.03153
52.15639426492067 7.05125
52.18118321127822 7.075710000000001
52.205974783860896 7.00512
52.23096269971011 6.97726
52.255759551287994 6.9772300000000005
52.280559035098186 6.960960000000001
52.30536115314103 6.977689999999999
52.33035970494467 6.94055
52.35516711807904 6.9639999999999995
52.37997717147198 6.91317
52.40478986713005 6.8978600000000005
52.42979908731974 6.87706
52.454617094216 6.877910000000001
52.47943774942214 6.85769
52.50426105495102 6.852360000000001
52.529280976059844 6.8506
52.554109609024096 6.8322899999999995
52.57894089837482 6.860289999999999
52.60377484613117 6.819260000000001
52.62880550079408 6.816269999999999
52.65364479223379 6.77095
52.67848674816189 6.74166
52.70352547971946 6.7349
52.72837279155837 6.7400199999999995
52.753222773982785 6.721080000000001
52.778075429022984 6.7219
52.80312495150885 6.70737
52.827982978797436 6.692710000000001
52.85284368481815 6.6778699999999995
52.87770707160767 6.62475
52.90276741793998 6.56968
52.92763619336701 6.6233
52.952507655698504 6.590330000000001
52.977381806977576 6.58715
53.00245301017842 6.58535
53.02733256653592 6.57107
53.052214817996074 6.53515
53.077099766608484 6.49334
53.102181859804446 6.50716
53.127072229988265 6.48311
53.15196530349892 6.49218
53.17686108239249 6.50476
53.20195409881522 6.47031
53.22685531582556 6.4457699999999996
53.25175924441303 6.44294
53.27666588664027 6.40722
53.30176985962693 6.38553
53.3266819565689 6.41632
53.35159677336455 6.38834
53.376514312083096 6.35615
53.40162927507703 6.36736
53.42655228516116 6.33956
53.45147802340193 6.3064800000000005
53.47660125628886 6.3099099999999995
53.50153247842639 6.2935
53.52646643496923 6.31349
53.55140312799818 6.28636
53.576537409691696 6.25956
53.60147960336152 6.229769999999999
53.626424539786164 6.20096
53.65137222105307 6.20121
53.67651758529126 6.193919999999999
53.70147078399681 6.1770000000000005
53.72642673383343 6.15864
53.75138543689533 6.1453
53.776541917524526 6.17834
53.801506154876755 6.13296
53.826473151763246 6.09088
53.851442910284916 6.1033800000000005
53.87661054126026 6.08145
53.9015858509782 6.05576
53.92656392866066 6.04194
53.95154477641532 6.06024
53.976723591801296 6.0250900000000005
54.00171000771266 6.05414
54.02669920004598 6.03414
54.051691170915745 5.99873
54.076881204886796 6.0145599999999995
54.101878760928514 6.00858
54.12687910187696 6.00624
54.152077577768296 5.97949
54.1770835166946 5.96434
54.20209224691339 5.93295
54.22710377055121 5.92265
54.25231352511594 5.89904
54.27733066384342 5.832669999999999
54.30235060239643 5.8638
54.32737334290836 5.84002
54.35259441062629 5.7937199999999995
54.377622783395324 5.75645
54.40265396455061 5.80087
54.42768795623251 5.7880199999999995
54.45292037169559 5.7674900000000004
54.477960012857906 5.75663
54.50300247099511 5.73053
54.52804774825457 5.70145
54.55329154616743 5.6700800000000005
54.57834249018678 5.65337
54.6033962597977 5.5959699999999994
54.6284528571545 5.62597
54.653708072335164 5.6143
54.67877035378786 5.58934
54.70383546947698 5.61926
54.72890342156389 5.56224
54.7541700889442 5.47658
54.77924374251975 5.5157
54.8043202390049 5.4484699999999995
54.82959552413022 5.43907
54.8546777351945 5.44799
54.87976279569621 5.414680000000001
54.90485070780914 5.39447
54.930137506558005 5.36886
54.95523115074295 5.40465
54.98032765308844 5.35683
55.005427015775496 5.33809
55.03072536339621 5.33865
55.05583047570572 5.3270800000000005
55.080938454927676 5.29804
55.10604930325027 5.27059
55.131359235107396 5.30008
55.15647585066083 5.1988900000000005
55.181595341907496 5.18433
55.20671771104285 5.12355
55.232039262617704 5.13055
55.25716741665048 5.1258099999999995
55.28229845518636 5.08156
55.30743238042802 5.05164
55.33276558731939 5.03495
55.357905315183636 5.02877
55.383047936390035 5.00157
55.40819345314859 4.94244
55.433538351073295 4.96581
55.458689688238415 4.99892
55.483843927614096 4.93991
55.509197623043605 4.91792
55.53435769621134 4.8727
55.55952067826466 4.80209
55.5846865714265 4.84884
55.61005202069737 4.8224599999999995
55.63522376553902 4.81686
55.66039842818645 4.720940000000001
55.68557601087004 4.76041
55.7109532500271 4.6962
55.73613670233794 4.680619999999999
