TT I
1.2716486653135266 7.4455100000000005
1.2939594142134223 6.8212600000000005
1.3162702121660406 6.40259
1.3385810600174564 6.90828
1.3608919586137629 6.67733
1.383202908801069 6.16904
1.405513911425503 6.67305
1.4278249673332093 6.75448
1.4501343378461518 6.52723
1.4724455028545926 6.11796
1.4947567236847858 6.30716
1.517068001182951 5.8387199999999995
1.5393793361953272 6.14383
1.5616907295681737 6.16259
1.5840021821477681 5.701230000000001
1.60631369478041 5.37404
1.6286252683124185 4.97122
1.6509369035901333 5.1557900000000005
1.6732468618895553 5.6502300000000005
1.695558623192809 4.89365
1.7178704487808514 5.61376
1.7401823395001077 5.19752
1.7625012545597203 4.60217
1.7848028405262486 5.25976
1.8071218901122095 4.95822
1.8294236121921872 4.95582
1.8517427996910911 4.64608
1.8740620574440425 5.01386
1.8963639900671978 5.213509999999999
1.9186833908139995 4.99264
1.9409854680117449 5.47768
1.9633050151394713 5.4665300000000006
1.9856246367570705 4.58231
2.0079269371922672 5.14968
2.03024671027244 4.7079699999999995
2.0525491637446027 4.89308
2.074869091674931 4.73182
2.097171701569106 4.719040000000001
2.1194917877373847 5.0231699999999995
2.141811954326636 4.66634
2.164114805233074 4.70445
2.186435135143035 5.959230000000001
2.208738150935709 14.5788
2.231058647554722 31.0604
2.2533792288321184 23.9227
2.275682498336085 10.1988
2.298003251406138 5.95268
2.3203066942619714 5.843780000000001
2.3426276225136022 5.29791
2.3649486396617507 4.98019
2.387252348930071 5.04822
2.4095735463442893 5.18344
2.4318774374315884 5.67349
2.4541988185014043 5.8047
2.476502894794693 6.46977
2.498824462909887 6.51947
2.521146125856138 6.7717
2.5434504863470337 6.788710000000001
2.5657723414244717 6.750889999999999
2.588076895590662 7.44968
2.610398946189713 7.54166
2.6327210958598384 7.40844
2.6550259469304716 6.85279
2.6773482972090137 7.024589999999999
2.6996533504259 7.5535
2.7219759047039602 7.6178
2.744298562293959 7.59092
2.7666039251246595 7.22513
2.7889267918020164 7.98556
2.8112323652516555 8.2891
2.833555444408179 8.47922
2.8558786311183852 8.40488
2.8781845268938557 8.79537
2.9005079311721484 8.67338
2.9228140460410397 8.546660000000001
2.9451376712799635 9.03939
2.967444008632326 10.107000000000001
2.9897678582247247 10.1707
3.0120918213106695 10.3542
3.0343984987899373 11.161
3.0567226913198637 11.2665
3.079029599759726 11.5678
3.101354025127254 12.1724
3.123678568232338 12.4955
3.145985829517914 12.6598
3.16831061055229 13.5806
3.1906181112775593 14.3106
3.212943133635653 14.4896
3.2352682779763207 14.8088
3.2575761442691227 15.4782
3.2799015350264273 16.2325
3.302209649240067 16.334
3.3245352898092655 17.0273
3.3468436553365257 17.398
3.369169549113219 17.8199
3.3914955708171384 18.7603
3.413804319727358 19.5845
3.4361305997334863 19.6632
3.4584396084414553 19.8162
3.4807661501462652 20.2831
3.503092824025881 21.0459
3.5254022288463154 21.2531
3.5477291695206588 21.9416
3.5700388426251948 22.8328
3.5923660534916446 24.131999999999998
3.6146934007816114 40.2115
3.637003482731501 96.6127
3.6593311053109985 106.743
3.681641464033634 60.9152
3.7039693653009733 31.7634
3.726297407241705 26.783
3.7486081875460804 26.3856
3.7709365132734978 26.7157
3.793247578841633 27.0902
3.8155761917550093 26.975
3.8378875459837216 27.5944
3.8602164494827234 28.1853
3.882545499606844 28.7576
3.9048572932539183 29.4896
3.9271866390645718 29.8917
3.9494987298666713 30.5565
3.971828374764527 31.1927
3.9941581705403255 31.6963
4.016470713506008 32.2934
4.038800813471445 33.4635
4.061113662089144 33.1078
4.0834440696459176 34.4234
4.105774632334751 35.0403
4.128087945865126 35.5941
4.150418821249301 36.6507
4.172732448931298 38.126
4.195063640413578 39.7058
4.2173775856475215 44.1729
4.239709096631102 78.8805
4.262040768704612 258.949
4.284355196706267 349.051
4.306687193387355 224.891
4.329001947444346 86.4465
4.35133427213731 49.7183
4.373666762177566 45.486000000000004
4.395982011761091 45.5675
4.418314834921175 46.9606
4.44063041906622 55.1882
4.4629635787515625 67.458
4.4852969080429785 67.0381
4.5076130004776225 56.3471
4.529946671403969 52.8332
4.552263106909177 52.5013
4.574597122877047 52.6844
4.596931312711224 53.2547
4.619248269273446 54.2117
4.6415828092605835 55.3115
4.663900117405352 56.4975
4.686235010953232 58.3003
4.708552674085913 59.2512
4.730887924602802 61.0115
4.753223354952695 62.3938
4.775541557023902 63.8308
4.797877349456786 65.2055
4.820195915032126 67.20100000000001
4.842532072957498 68.318
4.864868414979744 70.9147
4.88718753227192 73.5097
4.909524244902505 74.6758
4.931843734218147 76.7135
4.954180820867835 79.6017
4.976518095879839 82.4891
4.998838149695359 85.7528
5.021175803844231 89.5465
5.043496238205739 93.8299
5.065834274903528 98.0959
5.088172504230693 103.789
5.1104935158799565 111.525
5.132832132875765 138.358
5.155153533596801 190.17700000000002
5.1774925416746225 233.96
5.199814334878411 451.815
5.2221537374521505 1253.41
5.244493338631803 3129.03
5.266815727034316 7091.5
5.289155727832427 11565.0
5.311478517248165 9085.59
5.333818921080011 3549.83
5.356159527788849 766.35
5.3784829252032536 224.391
5.400823940070432 161.266
5.423147747031976 138.909
5.445489173474152 126.115
5.467830807066149 119.98200000000001
5.490155234831516 114.98
5.512497285125229 110.505
5.534822130975162 108.415
5.557164601388673 105.546
5.579489868738879 102.45100000000001
5.601832762690846 101.963
5.6241758697774475 101.475
5.646501775867269 100.36399999999999
5.668845311622074 98.5041
5.691171647754637 97.6277
5.713515615597765 95.6939
5.735859800852677 95.1881
5.758186788542988 94.8379
5.780531411018185 95.6007
5.802858837297399 94.6246
5.825203900414495 94.6038
5.8475491852224 95.9019
5.869877275883075 96.0478
5.892223006467101 96.9011
5.914551544266608 98.8973
5.936897724049891 102.021
5.959244129804903 108.90899999999999
5.981573344815301 132.50799999999998
6.0039202049061 244.96
6.026249875609095 536.868
6.04859719346037 1090.89
6.070927323278297 2161.32
6.093275102315365 3997.23
6.115623113320588 4952.19
6.137953938319995 3489.09
6.160302415650845 1223.15
6.182633708324452 301.057
6.2049826554078376 130.615
6.227331838745022 100.975
6.249663839443684 90.8466
6.27201349767565 86.7017
6.294345974611799 93.6356
6.316696111167083 106.846
6.339046488263839 100.09899999999999
6.361379686074702 82.7691
6.383730546639482 74.2532
6.406064229255215 71.2882
6.428415576718203 71.1543
6.450749747566656 69.4119
6.47310158535871 68.0138
6.495453669698332 67.2738
6.517788579421056 66.7275
6.540141159237969 65.4572
6.562476565766648 64.94800000000001
6.5848296444934045 64.7577
6.607182974060425 64.10600000000001
6.6295191323281015 64.4199
6.651872965955752 67.9993
6.6742096296068985 96.833
6.6965639707294615 149.418
6.71891856698715 149.362
6.741255995248479 99.6975
6.763611104154477 70.4191
6.785949046381137 62.221000000000004
6.808304671371482 60.1104
6.8306605557940046 59.9509
6.852999275508618 59.0338
6.875355681171544 58.4039
6.897694923437771 58.2441
6.92005185377892 58.3223
6.9423916220322655 57.8746
6.964749080490181 56.9762
6.987106804399774 57.2811
7.009447368180821 57.596000000000004
7.031805625367033 57.1975
7.054146723727803 57.0636
7.076505517631004 57.1718
7.098864581288365 57.0363
7.121206488070854 56.5292
7.143566093607822 56.5924
7.165908543567245 56.5714
7.188268694426048 56.7513
7.2106291193438095 57.0798
7.232972390625943 58.5061
7.255333366030969 72.4135
7.277677189091925 133.738
7.300038718428332 187.55200000000002
7.322400526130865 156.963
7.344745183422596 94.4923
7.367107550224791 64.1103
7.389452767901992 57.9803
7.411815697249891 56.9594
7.434161478756298 56.2501
7.456524974096713 55.7333
7.478888753837185 55.6938
7.501235387657368 55.9536
7.523599738562711 55.9749
7.545946944825532 56.3746
7.568311870344528 56.7503
7.5906770845765665 57.1139
7.613025156078678 58.8245
7.635390950099687 59.953
7.657739602662809 59.097
7.680105979923558 57.5759
7.702472650212829 57.4943
7.724822180948224 57.2492
7.747189439655568 57.4482
7.769539560075357 57.5168
7.791907410653562 57.9228
7.81425812420825 57.6451
7.836626570110925 57.7143
7.858995315087906 58.8953
7.881346924933401 59.0849
7.903716270417482 59.8183
7.926068482028405 60.486999999999995
7.948438431475253 60.8052
7.9708086843180235 61.1728
7.993161805171116 61.8577
8.015532667162402 62.2418
8.037886398416653 63.5145
8.060257873014221 64.2189
8.082629655331942 64.6718
8.104984308787587 65.5478
8.127356708900503 69.1172
8.149711981398308 75.6002
8.172085002766314 78.3052
8.194458336181368 73.9431
8.216814543847752 71.0217
8.23918850371002 71.0885
8.26154533906492 71.8987
8.283919928836452 73.5814
8.306277395339652 74.3414
8.328652618483376 75.5764
8.351028159736202 77.915
8.373386579575245 80.2948
8.395762759396959 82.3713
8.418121819038275 87.9514
8.440498640894003 102.671
8.462875785192262 119.209
8.485235811156207 134.29
8.507613602688501 181.99200000000002
8.529974277114228 286.268
8.552352719347912 433.277
8.574731488360351 683.785
8.59709314210385 1132.34
8.619472567021075 1688.98
8.64183487789147 2155.2
8.664214962183097 1879.87
8.686577933647762 1162.3
8.708958680784317 481.85
8.731339760774953 199.553
8.753703729764451 122.663
8.77608547780821 104.79
8.798450116065078 99.4867
8.820832535634787 96.04799999999999
8.843215292401656 94.4002
8.865580941199045 92.5109
8.887964374703538 91.2786
8.910330701447199 92.5451
8.932714815164482 95.4143
8.955099270424924 94.2256
8.977466620733543 90.7973
8.999851761421976 87.382
9.022219798361645 85.7277
9.04460562795561 85.6377
9.066991803441677 85.164
9.089360876979615 84.74700000000001
9.111747746589993 84.574
9.13411751544971 84.0035
9.156505082664324 83.8534
9.178875550323522 83.773
9.20126381862328 84.0672
9.223652438908596 84.569
9.246023961427412 84.4996
9.26841328802173 83.7937
9.290785518039224 84.0851
9.313175554425882 84.9976
9.335565947154315 84.9788
9.357939245086508 84.9258
9.380330352834827 85.4299
9.40270436697103 85.2747
9.425096193225055 84.8594
9.447488380180165 86.1783
9.469863475295412 86.292
9.492256385987508 86.81299999999999
9.514632206018318 87.0314
9.537025843935714 87.601
9.559402392368193 88.4692
9.581796761000229 89.5836
9.604191496441521 90.7262
9.626569144158516 94.1541
9.648964615551032 99.3693
9.671343000390081 101.395
9.693739211225699 98.9394
9.716135793237463 96.2907
9.738515290448102 95.4088
9.760912617143402 96.2996
9.783292860202891 98.1651
9.805690935076182 98.8418
9.828089385495742 99.8993
9.850470754023561 102.56
9.872869957865444 111.345
9.89525208097539 128.143
9.917652041736662 142.248
9.940052382417589 142.278
9.962435644102392 150.936
9.984836746950979 192.169
10.007220771957746 267.974
10.029622640473708 380.44699999999995
10.052007432299963 551.644
10.074410069984072 800.555
10.096813093716005 1175.96
10.119199042482517 1595.79
10.141602840636468 1864.09
10.163989564971628 1720.9
10.186394141051062 1092.7
10.208799107559706 502.106
10.231187001965623 235.488
10.253592751657669 141.564
10.275981430388155 119.50200000000001
10.298387966769793 118.42399999999999
10.320794897965431 120.681
10.343184759907361 118.742
10.36559248305461 112.314
10.387983138083852 108.023
10.410391656691655 111.17399999999999
10.432800574501677 124.869
10.455192425893369 143.90200000000002
10.47760214443012 170.96400000000003
10.499994797678786 210.392
10.522405320453982 278.303
10.54479877906917 374.72900000000004
10.567210109595656 475.594
10.5896218454736 534.239
10.612016518879773 525.117
10.634429067781074 385.379
10.656824555333241 228.09599999999998
10.679237920773568 138.959
10.701651695961992 102.33200000000001
10.724048411481384 92.7828
10.746463008485165 89.2808
10.768860546937125 87.5416
10.791275969274796 85.5914
10.81369180576079 84.6728
10.836090585366925 83.529
10.858507252467449 81.7879
10.88090686379991 80.9622
10.903324365036394 80.64
10.925724811614439 80.6301
10.948143150509463 82.1731
10.970561909719066 81.22800000000001
10.992963615930844 79.4808
11.015383218085756 77.0076
11.037785768347074 75.2071
11.06020621697282 74.6767
11.082627090322113 74.3436
11.105030913430326 73.8587
11.12745263854165 74.4808
11.149857314510728 78.2734
11.172279894912576 85.1555
11.194702904450653 85.9668
11.217108866490921 81.1817
11.239532736615194 76.4011
11.26193956033512 74.2711
11.284364294577085 72.2242
11.306789462371718 70.1546
11.329197585398376 68.9369
11.351623622610898 68.5997
11.37403261614354 67.6179
11.396459526308487 67.6336
11.418869393879497 67.3455
11.441297180532617 66.8762
11.463725406927658 66.6035
11.486136592353875 66.4857
11.508565700543707 66.9745
11.530977768845315 69.1152
11.553407762368774 70.1372
11.575838200059769 69.8048
11.598251599479612 67.2016
11.620682927815501 65.5608
11.64309721895548 65.1052
11.665529441478206 64.916
11.687962112597958 64.4861
11.710377748130886 64.583
11.732811318753434 64.5173
11.755227854859067 64.7112
11.777662328529495 64.4022
11.800079768750786 64.3555
11.822515149015453 64.158
11.844950984084935 64.3677
11.867369787303163 64.1224
11.889806534289491 64.1577
11.912226250487029 64.7649
11.934663912939751 64.2302
11.9571020346363 64.0376
11.979523127133968 64.1908
12.001962169624331 65.2674
12.024384183972964 66.5324
12.046824150809913 70.2443
12.069264581333726 76.1379
12.091687985297767 83.1387
12.11412934550045 92.41799999999999
12.136553680195208 105.583
12.158995973632788 123.9
12.181438735204349 148.806
12.20386447284199 174.887
12.226308172985636 198.5
12.24873485024193 205.465
12.271179492516982 179.142
12.293607112949127 140.36700000000002
12.316052700916226 107.43
12.338498763250042 84.5284
12.360927805303868 73.4938
12.383374818673879 68.7654
12.405804812803074 66.3833
12.428252780773262 66.4024
12.45070122756722 66.2373
12.473132656675375 65.8775
12.49558206341869 66.0382
12.518014453510101 66.0648
12.540464823770117 66.184
12.562915677315177 66.221
12.58534951575545 67.2434
12.607801338171472 69.3559
12.630236146511358 75.6368
12.652688941369085 80.929
12.675124723177234 81.2335
12.697578494048786 76.6946
12.720032754458185 71.9424
12.742470003354093 69.829
12.764925245138771 69.5521
12.787363476431278 69.8307
12.809819703166806 70.0534
12.83227642391173 71.0715
12.854716135692716 71.7137
12.877173846755147 72.6268
12.899614549869717 72.6923
12.9220732548287 73.7331
12.94453245827299 73.9669
12.966974655289818 75.0302
12.989434858002571 75.7143
13.011878055298721 76.5871
13.034339260862497 77.5348
13.056800969391883 78.6434
13.079245674017244 81.0458
13.101708390774869 83.5359
13.12415410463411 91.384
13.146617833206086 104.31700000000001
13.169064559883248 118.37200000000001
13.191529303857127 134.328
13.213994557076367 155.757
13.236442809902437 187.925
13.258909083908291 234.203
13.28135835851934 287.856
13.30382565690295 347.58
13.326293469022952 406.404
13.348744283242008 427.087
13.371213125129904 384.74199999999996
13.39366497011003 296.813
13.416134845360597 202.455
13.438605238843131 138.762
13.46105863690397 113.616
13.483530069144786 111.13799999999999
13.505984506951902 117.288
13.528456981549432 127.8
13.550929978879088 142.27200000000002
13.573385983253365 162.876
13.595860028340867 194.493
13.618317081455832 237.43400000000003
13.64079217790333 285.1
13.663250283359057 328.92900000000003
13.685726434770173 361.39300000000003
13.708203115221277 348.936
13.730662806148091 287.756
13.75314054697177 211.187
13.775601299246777 145.936
13.798080104050406 106.323
13.820559442405358 89.98299999999999
13.843021793671388 84.6134
13.865502201420897 82.4646
13.887965623051947 81.9839
13.910447103807167 80.6126
13.932929122629764 79.1333
13.955394156785959 78.6613
13.977877254034569 77.7181
14.000343367582113 76.8715
14.022827546871707 76.0125
14.045294743423524 75.4647
14.06778000837062 75.0508
14.090265817715476 74.6939
14.112734645763819 74.5743
14.13522154619454 74.4667
14.157691466286913 74.5523
14.180179461423874 74.2194
14.202668005486178 73.4477
14.22513957064374 72.6327
14.247629214846473 72.2548
14.270101881097517 72.0223
14.29259262906496 72.2271
14.315083930490205 73.2519
14.337558255389705 73.512
14.360050666019726 73.3724
14.382526101071944 72.3201
14.405019624534942 70.9847
14.427513705993134 70.6102
14.449990813291825 70.408
14.47248601302899 70.5332
14.49496423954951 70.6899
14.517460561197822 70.3539
14.539939910570322 70.211
14.562437357763558 70.7463
14.58493536931253 71.9591
14.607416409993311 72.9128
14.62991555254159 73.8973
14.652397725157423 73.6914
14.674898002342799 73.0045
14.697398848433282 72.2962
14.719882725991326 72.9094
14.74238471217934 74.1259
14.764869730765593 77.6142
14.787372860692983 82.2424
14.809876564079925 87.1181
14.83236330125751 92.9772
14.854868153850365 101.62100000000001
14.877356041159485 113.48
14.899862046604186 129.461
14.922351087688757 149.969
14.944858249632887 174.162
14.967365991421232 197.206
14.989856770231246 216.028
15.012365673994204 219.28
15.03485761569738 199.153
15.05736768508665 163.516
15.07987833888692 128.72299999999998
15.102372032001655 99.8123
15.124883856909658 81.8101
15.14737872204565 75.1617
15.169891721717274 72.848
15.192405310371893 72.4634
15.214901940621196 73.0439
15.237416709527137 73.226
15.259914520936249 73.4406
15.282430473753607 72.4679
15.304947020131227 70.9023
15.327446610371178 70.0362
15.349964346154254 69.1411
15.372465126703139 68.6253
15.394984055556009 68.2056
15.417486030076159 67.9033
15.44000615566487 67.7445
15.462526881230803 67.8812
15.485030653812652 68.1137
15.507552581617434 68.1484
15.530057557334603 68.2188
15.55258069104857 67.9854
15.575104429329837 67.9885
15.597611216864632 67.5955
15.620136166564563 67.7556
15.6426441664095 68.5571
15.665170331202765 71.3933
15.687697105158826 74.8536
15.710206930593545 78.8654
15.732734925158933 83.4827
15.755245972089478 89.3863
15.77777519094324 97.4877
15.800287463046663 108.794
15.822817909869592 124.402
15.84534897229804 142.284
15.867863089299354 163.135
15.890395385222186 180.201
15.912910736597423 192.495
15.935444269699861 188.43
15.957978423016485 169.32
15.980495633101265 137.513
16.003031029129367 106.69
16.02554948280019 83.4925
16.048086125229432 71.8418
16.070623392487107 67.9983
16.09314371869582 66.5859
16.11568223789321 65.7157
16.13820381691126 64.7888
16.160743591742527 63.5166
16.183283996022084 62.238
16.205807461423195 61.2093
16.228349126881973 60.6064
16.25087385432698 60.6241
16.27341678466365 60.0127
16.29594277784926 59.9112
16.31848697676433 60.3271
16.341031811604868 60.7022
16.36355971058487 61.0744
16.3861058195587 60.7781
16.40863499352978 59.2517
16.431182380342005 58.3842
16.453730407713202 57.7625
16.476261501364792 57.2955
16.498810812136167 57.0627
16.52134319004079 57.0135
16.54389378792203 56.8683
16.566445031001553 56.6285
16.588979342490088 56.5195
16.61153187824822 56.6455
16.634067483263312 56.4285
16.656621315414416 56.2952
16.679175797408888 55.898
16.701713349928728 56.2249
16.72426913389191 56.4105
16.74680798922351 56.5122
16.76936507887444 56.5798
16.791905240734874 56.5152
16.814463639794468 56.1263
16.837022695210294 56.1341
16.859564824093756 56.7824
16.882125194503903 57.5657
16.904668639217885 58.5156
16.927230328348003 58.5081
16.949792678493612 58.5707
16.972338104193863 57.8315
16.994901778652235 57.067
17.017448529496576 57.1778
17.040013531998152 57.4553
17.06257920018044 57.942
17.0851279459922 58.6996
17.107694947817667 59.6412
17.130245028099072 60.5224
17.15281336730298 62.0004
17.17536478578733 63.42100000000001
17.19793446610687 65.3819
17.220504818648422 67.8311
17.243058251703697 70.4345
17.265629950971032 74.244
17.288184731571736 78.34899999999999
17.310757781306908 82.3056
17.33333150794385 84.4338
17.355888317140174 84.0943
17.37846339986244 80.2464
17.401021565958885 74.8086
17.42359800851343 69.0961
17.44617513265564 64.589
17.468735341390783 62.0675
17.491261035594565 60.8282
17.51396340099364 60.6592
17.536490463869136 60.6884
17.559018209820174 60.7765
17.58154663977963 60.7817
17.604251766089718 60.8417
17.626781572227713 61.1809
17.64931206518155 61.3079
17.671843245885103 62.045
17.69455114821572 62.2074
17.717083712612634 62.4863
17.739616967569667 62.6116
17.762150914021706 62.8382
17.78486160749854 62.7467
17.807396945166804 63.4247
17.829932977143503 64.4391
17.85246970436452 66.1594
17.875183204129467 68.2474
17.897721330097664 70.65100000000001
17.920260154126645 73.4614
17.942799677153296 76.5596
17.9655159983646 79.7151
17.988056927677544 84.4707
18.010598558807683 91.0619
18.033140892692916 99.3145
18.05586005052525 108.255
18.07840379824407 117.946
18.10094825154059 128.056
18.12366954819864 137.30200000000002
18.146215420998306 140.887
18.16876200220057 137.194
18.191309292745153 125.789
18.214033452627167 112.238
18.236582170236648 98.7235
18.259131600016456 90.7507
18.281681742907335 88.708
18.304408781233683 90.7282
18.32696035875955 94.5702
18.349512652227624 98.9025
18.372065662579683 103.555
18.394795594587553 106.15700000000001
18.41735004715306 105.337
18.43990521943684 100.47200000000001
18.46246111238171 92.1667
18.485193953325208 81.9822
18.507751296070428 73.7502
18.530309362314178 68.652
18.552868153000343 65.7483
18.57560391815056 63.9944
18.59816416623245 63.4698
18.620725141597372 63.0292
18.643286845190268 62.5323
18.666025549835414 62.0475
18.688588718427933 61.45
18.711152618092243 61.2779
18.73389353884365 60.9156
18.75645890921984 60.4874
18.77902501351406 59.9795
18.801591852673102 60.2065
18.824335739722738 59.5958
18.846904057212626 59.3667
18.8694731124168 59.2991
18.89204290628315 59.3509
18.914789774966803 59.1083
18.937361054791623 58.7761
18.959933076131318 58.7486
18.982505839934877 58.4749
19.00525570560582 58.6485
19.027829963004184 58.5249
19.05040496572238 58.5879
19.072980714710468 58.5317
19.095733592739563 58.6462
19.11831084296757 59.1511
19.140888842324735 59.7021
19.16346759176222 59.9133
19.18622349753803 60.3571
19.208803755869358 61.2273
19.231384767143577 62.1578
19.253966532312948 63.3992
19.276725481241822 65.0982
19.29930876296784 67.2941
19.3218928014549 69.5287
19.34465404436217 72.257
19.36723960516257 75.2444
19.389825925592426 77.0172
19.412413006605938 77.0119
19.43517731967805 74.6227
19.457765930683355 71.1033
19.48035530514408 66.166
19.50294544401556 62.333999999999996
19.525712842708348 59.1487
19.54830451925909 57.0385
19.570896963095727 55.7287
19.593490175174704 55.3179
19.616260674962184 55.2988
19.638855432416964 55.0325
19.661450960992624 55.2151
19.68404726164677 54.9174
19.706820878021247 54.7366
19.729418731756834 55.0502
19.752017360452857 54.7045
19.77461676506804 54.981
19.797393513540218 55.1125
19.819994478951667 55.2594
19.84259622316767 55.9574
19.8651987471481 56.3769
19.887978643247177 56.8167
19.91058273574792 57.1991
19.933187610901943 57.9864
19.955969879466828 58.7119
19.97857632894404 59.8402
20.00118356396599 61.1816
20.023791585494575 63.0454
20.046577028914875 65.4937
20.069186632506966 67.3414
20.091797025500632 69.2828
20.114408208858933 70.5253
20.137196842715273 71.3723
20.159809615886765 70.4974
20.18242318232135 68.3411
20.20503754298326 66.2742
20.227829382875154 64.5235
20.250445341109344 63.5621
20.27306209647285 63.5259
20.29567964993108 64.4249
20.31847471147704 65.1964
20.34109387027612 66.0513
20.363713830075454 66.6793
20.386334591841646 65.8083
20.409132890679302 63.8592
20.431755265564437 60.8425
20.454378445325528 58.0877
20.477002430930366 55.7892
20.499803982716553 54.3123
20.522429589228004 53.1843
20.54505600449589 52.4203
20.567683229489194 52.2485
20.590488049900088 52.048
20.61311690359731 51.7414
20.63574656993626 51.5603
20.658553853717297 50.8023
20.681185154618298 50.9296
20.703817271080066 50.8685
20.72645020407368 50.4664
20.749260783967177 50.5041
20.771895359337133 50.5129
20.794530754161617 50.2261
20.817166969412938 50.2286
20.83998086114876 50.2399
20.86261872660049 49.9754
20.885257415405402 49.9284
20.90789692853701 49.9972
20.930714147864748 49.7439
20.953355319030678 49.9529
20.97599731745334 50.06100000000001
20.99864014410749 49.9278
21.021460706796564 49.9038
21.044105199328826 50.1998
21.06675052302631 50.2531
21.089396678865015 50.545
21.112220600704806 50.6082
21.134868430275347 51.0543
21.15751709492456 51.2904
21.180166595629693 51.4445
21.202993892429635 51.7505
21.22564507473034 52.0301
21.24829709602816 52.3673
21.27112693608965 52.5459
21.293780644891275 52.847
21.316435195634053 52.38
21.339090589297417 51.6502
21.361923832041875 51.1901
21.384580921090404 50.3899
21.407238856007325 49.8616
21.429897637773326 49.8141
21.45273429906592 49.8094
21.475394784108598 49.7697
21.498056118951983 49.4809
21.520718304578022 49.6915
21.543558400304388 49.8336
21.566222297108816 49.9852
21.58888704765135 50.1648
21.61155265291521 50.6219
21.63439619898156 51.2386
21.657063523335786 51.3787
21.67973170537063 51.9207
21.7024007460706 52.4299
21.72524775840385 53.0513
21.747918526116475 53.9854
21.770590155457388 55.0227
21.79326264741238 56.4659
21.816113141960237 58.2244
21.838787368860547 59.5511
21.861462461341976 61.323
21.884315579735777 63.0431
21.90699241312273 64.4751
21.92967011506078 65.5488
21.95234868653799 65.9235
21.9752053151131 65.513
21.997885635446785 63.8689
22.020566828293532 62.0383
22.04324889464272 60.0633
22.066109049404666 58.238
22.088792872571794 57.3728
22.111477572219204 57.138999999999996
22.1341631493376 57.1552
22.157026846313123 56.9592
22.179714188221507 56.8654
22.202402410582668 56.0656
22.22509151438863 54.5548
22.24795876962584 53.3136
22.270649646204486 52.2411
22.293341407213727 51.4803
22.316034053646906 50.8513
22.338904883215342 50.5235
22.36159931041458 50.2666
22.38429462602756 50.3065
22.40699083104897 50.2035
22.429865251039757 50.1363
22.452563244831367 50.195
22.47526213102522 50.1669
22.49813925616515 49.9712
22.520839937143307 49.9522
22.543541513520587 50.0227
22.56624398629403 49.7483
22.589124730075895 49.6922
22.611829005656723 49.9229
22.63453418063466 50.0118
22.657240256008077 50.166000000000004
22.680124634582935 50.315
22.70283252079775 50.4949
22.725541310413075 50.858000000000004
22.74825100442868 51.0445
22.771139033969575 51.641000000000005
22.79385054687155 51.6104
22.81656296718292 52.247
22.83927629590484 53.0654
22.862167992606945 53.9161
22.88488314827121 54.958999999999996
22.907599215359284 55.7875
22.93031619487366 56.7385
22.953211574954405 57.5983
22.975930389478226 58.4589
22.998650119445763 59.2337
23.02137076586092 58.8361
23.044269845560063 58.1684
23.06699233506288 56.6976
23.089715744034912 54.7591
23.112617610931565 52.8511
23.135342869061212 51.6185
23.158069049684816 50.7663
23.1807961538087 50.163999999999994
23.20370174880544 50.1194
23.226430710184808 50.1345
23.249160598093425 50.066
23.271891413539002 50.1532
23.294800752937697 50.193000000000005
23.31753343374794 50.4835
23.340267045128353 50.4214
23.36300158808808 50.9574
23.38591468821339 51.1181
23.408651104658304 51.5963
23.431388455719986 52.1849
23.454126742409 52.6616
23.4770436196085 53.5317
23.499783787914662 54.7446
23.522524894889884 55.3129
23.54526694154616 56.3275
23.56818761219047 57.3643
23.59093154860734 58.0405
23.613676427751283 58.7552
23.636422250635754 58.3619
23.659346731118656 57.5547
23.68209445191868 55.8566
23.704843119509587 53.7528
23.72759273490623 51.8173
23.750521041644767 50.1227
23.77327256312355 48.7887
23.796025035462787 48.1143
23.818956224555475 47.385
23.841710609113413 47.3443
23.86446594758979 47.0677
23.887222241002014 46.7415
23.910157285144578 46.3715
23.932915498962537 46.4116
23.955674670778713 46.196000000000005
23.978434801611975 46.0496
24.001373717286125 45.8948
24.024135776723917 45.7972
24.046898798245582 45.7951
24.06966278287146 45.6112
24.092605586582614 45.4331
24.115371508023642 45.2046
24.1381383956401 45.3465
24.16090625045381 45.0833
24.183852958731244 45.0891
24.206622758582608 45.0428
24.229393528706886 44.8281
24.252165270127392 44.9397
24.27511589952438 44.9178
24.297889594216997 44.5778
24.32066426328598 44.4517
24.34343990775613 44.5495
24.36639447485003 44.3107
24.38917208083877 44.1838
24.41195066531332 44.1011
24.43490819850244 44.2479
24.457688750692377 44.0322
24.48047028445616 44.1207
24.503252800821233 44.0653
24.526214300784112 44.0458
24.548998793132213 44.0721
24.57178427117417 44.0477
24.59457073593893 43.9827
24.617536219319863 43.9161
24.64032466834748 44.0514
24.663114107195035 43.966
24.685904536893013 43.6467
24.708874020360852 43.6421
24.731666442613744 43.5689
24.754459858818787 43.6668
24.777254270007962 43.3489
24.80022777025625 43.4418
24.82302418230472 43.298
24.845821592443674 43.3306
24.86862000170663 43.3278
24.891597535453727 43.0422
24.914397953892728 43.2758
24.93719937456671 43.1836
24.96000179851076 43.3708
24.98298338249997 43.6402
25.00578782394922 43.7239
25.028593271784167 43.8932
25.05157790644186 44.1948
25.07438537804115 44.2648
25.097193859145293 44.6189
25.120003350792075 44.8543
25.142992065061257 45.1457
25.165803588823465 45.201
25.18861612625217 45.6345
25.211429678386736 45.7932
25.234422489079968 45.8173
25.257238081693636 45.8329
25.280054692141732 46.0103
25.3028723214652 45.7684
25.325869245420463 45.8332
25.348688923599397 45.9827
25.371509623787006 45.8583
25.394331347025812 45.6668
25.41733240110666 45.3275
25.440156181590016 44.8636
25.46298098826268 44.3602
25.48580682216873 43.8896
25.50881202326435 43.1233
25.53163992281684 42.84
25.55446885274561 42.3853
25.577298814096377 41.9934
25.600308179121807 41.7833
25.623140214533745 41.9654
25.64597328451537 41.8811
25.66898578564376 41.5351
25.691820936010206 41.5212
25.714657124097695 41.6633
25.737494350954734 41.6292
25.760511045684957 41.5416
25.783350361364224 41.673
25.806190718969255 41.6305
25.82903211955018 41.7492
25.852053024868923 41.8112
25.874896522722523 41.8164
25.897741066713106 41.6559
25.920586657892454 41.6361
25.943611790812668 41.8047
25.966459487728237 41.9696
25.989308234998564 41.945
26.01215803367705 42.2623
26.03518741123814 42.3767
26.05803932412957 42.4058
26.080892291600094 42.528999999999996
26.10374631470478 42.5792
26.12677995397268 42.7086
26.14963609978026 42.8398
26.172493304397875 42.4657
26.19535156888223 42.3459
26.218389486949604 42.0666
26.241249882640123 41.8226
26.26411134137826 41.4843
26.28715248187403 41.3591
26.31001607820869 41.1505
26.3328807407756 40.9859
26.35574647063438 41.2341
26.37879191991473 41.1577
26.401659795896734 41.1168
26.424528742360263 41.3823
26.447398760366614 41.4138
26.470448535598294 41.4368
26.49332070826805 41.7471
26.516193955675355 42.0775
26.53906827888316 42.0492
26.562122397260108 42.3064
26.584998883685063 42.6464
26.607876449110325 42.8369
26.63075509460056 42.868
26.65381357334404 43.1631
26.67669439061878 43.0393
26.699576291163382 43.0791
26.722459276044212 43.2663
26.745522132402975 42.9637
26.768407297649354 42.7098
26.791293550442003 42.184
26.814180891848974 41.945
26.837248143099337 41.6368
26.860137673466657 41.5516
26.88302829566349 41.3466
26.90592001075963 41.1094
26.92899167420566 40.9656
26.951885586870763 40.6262
26.974780595655517 40.4399
26.99785558178161 40.2689
27.020752794605112 40.2147
27.043651106772522 40.0874
27.06655051935668 39.8979
27.089629948036183 39.7718
27.112531573292053 39.6886
27.135434302194138 39.6999
27.158338135817015 39.524
27.181422024430987 39.623000000000005
27.204328079372566 39.4497
27.22723524226965 39.4867
27.250143514198573 39.5781
27.273231880156334 39.5414
27.296142382065014 39.3391
27.319053996245536 39.4357
27.341966723775965 39.4711
27.365059584515222 39.4978
27.38797455070062 39.5144
27.410890633481237 39.3656
27.433807833936918 39.3221
27.456905206923906 39.4021
27.47982465472398 39.3518
27.502745223449743 39.3484
27.525666914182825 39.7208
27.548768816912457 39.5518
27.571692763693633 39.4829
27.59461783573812 39.3696
27.617723149491244 39.2291
27.640650484125285 39.2097
27.66357894728264 39.085
27.686508540048052 39.0571
27.709618414237887 39.1206
27.732550278321757 38.8803
27.755483275279115 38.7575
27.778417406196485 38.8748
27.801531858397514 38.8101
27.824468269376716 38.7788
27.847405817586786 38.7744
27.870344504116094 38.914
27.893463551932008 39.0999
27.916404527281053 39.2782
27.93934664422563 39.2649
27.962289903855886 39.2798
27.98541356491974 39.5293
28.00835912214229 39.5342
28.03130582533231 39.8602
28.054253675581805 39.8904
28.077381967556104 39.98
28.100332124185126 39.8863
28.123283431160893 39.8909
28.146235889577238 39.7121
28.169368830154156 39.6169
28.192323603752033 39.4348
28.215279532083304 39.1618
28.238415973016764 39.053000000000004
28.261374223145094 38.8336
28.284333631303806 38.5505
28.307294198589954 38.3867
28.330435319167677 38.2521
28.353398217078915 38.0627
28.376362277420153 37.7843
28.39932750129032 37.5609
28.422473319286713 37.4395
28.44544088262495 37.3268
28.468409612800283 37.1909
28.491379510913497 37.0951
28.51453004413313 36.9335
28.53750229057244 36.8416
28.56047570826344 36.8274
28.583450298308804 36.8619
28.606605564586562 36.6695
28.629582511831156 36.595
28.65256063474956 36.489000000000004
28.675539934446338 36.55
28.698699951647605 36.4985
28.72168161743193 36.4048
28.74466446331978 36.4847
28.767648490417624 36.3735
28.790813276438353 36.3928
28.813799678527303 36.3243
28.836787265157085 36.2696
28.859955641890075 36.3468
28.882945610203045 36.3689
28.905936766392035 36.1891
28.928929111566863 36.1359
28.952102288520145 36.0526
28.975097024308607 36.1204
28.998092952423807 35.891999999999996
29.021090073977508 35.8579
29.04426806913204 35.7845
29.067267590245258 35.4765
29.090268308143695 35.541
29.11327022394099 35.4946
29.13645305530891 35.3991
29.159457379627167 35.3366
29.18246290519685 35.279
29.20546963313352 35.1866
29.22865731875826 35.2009
29.25166646419296 35.1954
29.27467681535305 35.0913
29.29768837335608 35.0742
29.320880931312562 35.1015
29.34389491580634 35.0552
29.366910110507334 35.0707
29.38992651653503 35.0792
29.41312396492981 35.0613
29.436142806456754 34.9157
29.45916286268059 34.9011
29.48236399319994 34.9117
29.50538649169417 34.6748
29.528410208259935 34.696999999999996
29.55143514402014 34.3632
29.574641196749695 34.3282
29.597668583816574 34.1913
29.6206971934585 34.0351
29.64372702680042 34.1511
29.666938019934474 33.9553
29.689970313635285 33.8968
29.713003834422636 33.8886
29.73603858342347 33.8703
29.759254535188578 33.7818
29.78229175361658 33.6671
29.80533020365064 33.762
29.82836988641968 33.769
29.85159081507472 33.7504
29.874632976355343 33.5517
29.89767637376955 33.6869
29.920721008448314 33.554
29.9439469322847 33.5123
29.96699405457564 33.4296
29.9900424175358 33.3591
30.013092022298157 33.3226
30.03632295963995 33.3422
30.059375061131373 33.3118
30.08242840783577 33.4081
30.105483000888153 33.3777
30.128718970092244 33.2515
30.151776069006917 33.2793
30.17483441768648 33.2403
30.198074175317235 33.2223
30.221135036724256 33.2324
30.24419715131772 33.1234
30.267260520236203 33.0553
30.290505341942243 33.2094
30.313571232750228 33.2047
30.336638381310948 33.0511
30.35970678876503 33.1431
30.38295669299435 33.0587
30.40602763151657 33.0499
30.429099832366074 33.0447
30.452173296685572 32.9196
30.47542830191959 32.8867
30.498504306502497 32.8833
30.521581577995562 32.9465
30.544660117543582 33.0313
30.56792024229725 32.9557
30.59100133132069 32.8611
30.614083691845494 32.8841
30.637167325018545 32.9341
30.660432587840603 33.0402
30.683518779717886 32.9732
30.70660624769615 33.066
30.729694992924372 33.0512
30.75296541239743 33.073
30.77605672557558 33.0305
30.799149319462742 32.8729
30.8224236211637 32.7684
30.845518789950724 32.7246
30.868615242910597 32.7757
30.891712981195973 32.4729
30.91499247215866 32.4204
30.938092794619365 32.5209
30.96119440587579 32.3699
30.984297307082752 32.2074
31.00758200598383 32.1132
31.030687500658694 32.0842
31.053794288760695 31.9165
31.076902371446767 31.9126
31.100192296997445 31.9436
31.12330298246119 31.8664
31.14641496599209 31.7107
31.169528248749216 31.7713
31.19282341969534 31.7094
31.215939314557186 31.7652
31.239056512134788 31.7624
31.262175013589378 31.6476
31.28547544871168 31.7132
31.30859657161541 31.5979
31.331719001892175 31.6431
31.35484274070538 31.7461
31.378148458819545 31.6956
31.401274828443725 31.6898
31.424402510106933 31.6775
31.447712205419993 31.625
31.470842524931633 31.5496
31.493974159989783 31.531999999999996
31.51710711176168 31.578000000000003
31.54042212308802 31.4926
31.563557722100917 31.4877
31.586694641341655 31.4675
31.609832881979628 31.3329
31.63315322823208 31.2997
31.656294125521327 31.1712
31.679436347728515 31.0977
31.70257989602529 31.0416
31.725905596152327 30.9736
31.74905181052835 30.9157
31.772199354521323 30.9124
31.79534822930507 30.8815
31.818679302290967 30.9391
31.84183085259981 30.8405
31.864983737233473 30.8436
31.88813795736804 30.9368
31.911474422233013 30.759
31.934631327356435 30.7901
31.9577895715215 30.7211
31.980949155906522 30.8557
32.004291031706956 30.7164
32.027453310562606 30.6035
32.05061693318573 30.5435
32.07396288236386 30.6609
32.09712920658542 30.4635
32.12029687812702 30.3418
32.14346589817093 30.3209
32.166817291729984 30.3252
32.18998902288583 30.2095
32.21316210610336 30.226999999999997
32.23633654256711 30.0688
32.259693399663725 29.9717
32.282870556771144 29.9136
32.30604907069099 29.8982
32.329228942610065 29.8435
32.35259128243769 29.7074
32.375773884550505 29.6976
32.398957848235646 29.6391
32.422143174682176 29.5654
32.445511016471215 29.5336
32.468699082679954 29.5059
32.49188851523011 29.4213
32.51507931531304 29.3456
32.538452678331 29.4661
32.56164622776311 29.3
32.58484114831493 29.1649
32.60803744118015 29.2382
32.631416344731896 29.2708
32.654615396551876 29.1864
32.67781582427913 29.0368
32.701198898634416 29.0352
32.72440209253756 28.9777
32.747606665947124 28.9919
32.77081262006088 28.8488
32.79420126883317 28.8462
32.81740999876112 28.877
32.840620112999424 28.7051
32.86383161274818 28.7851
32.88722585534586 28.7661
32.91044014056596 28.7896
32.933655814909734 28.7184
32.95687287957963 28.6538
32.98027273544904 28.6704
33.00349259526636 28.5999
33.026713849030116 28.6377
33.04993649794511 28.6098
33.073341986570746 28.5011
33.09656744032826 28.5642
33.11979429286444 28.5328
33.14302254538647 28.4394
33.166433686291185 28.2992
33.18966475336992 28.4161
33.212897224069096 28.3049
33.23613109959831 28.359
33.259547912343415 28.2789
33.2827846121627 28.2312
33.306022720453775 28.215
33.32926223842861 28.0935
33.352684742614166 28.0591
33.37592709463173 28.0642
33.399170859982064 27.9438
33.422597648419426 27.87
33.44584425514446 27.794
33.46909227885668 27.8097
33.4923417207723 27.6982
33.51577423505344 27.8449
33.539026528130385 27.65
33.56228024307245 27.6283
33.585535381098246 27.3898
33.60897364093058 27.4205
33.63223163992385 27.4147
33.6554910656699 27.2968
33.678751919389796 27.2579
33.702195944520106 27.2412
33.72545966903325 27.2544
33.74872482519663 27.0914
33.771991414233746 27.2289
33.79544122444841 27.0617
33.81871069412428 27.0467
33.84198160035767 27.0596
33.86525394437455 27.0147
33.88870955949969 26.9511
33.911984794020626 26.9627
33.93526147001624 26.953000000000003
33.958539588715006 26.8317
33.98200102861669 26.8373
34.0052820477047 26.755
34.02856451319451 26.6929
34.05203033759056 26.6581
34.07531571090147 26.6813
34.09860253431845 26.6651
34.121890809074316 26.5146
34.145362493118924 26.511999999999997
34.16865368561615 26.5089
34.191946333164054 26.4865
34.21524043699793 26.4808
34.23871800066799 26.3969
34.26201503218366 26.2809
34.28531352370466 26.3167
34.30861347646881 26.2066
34.33209693978188 26.1742
34.3553998301885 26.2
34.378704185565205 26.0961
34.402010007152356 26.0135
34.42549939016683 26.0199
34.44880815937748 25.9495
34.472118398533134 25.8592
34.49543010887669 25.8745
34.51892543169198 25.8057
34.54224009966052 25.8125
34.56555624255917 25.7979
34.58887386163339 25.6984
34.61237514439016 25.678
34.6356957311114 25.6354
34.65901779775809 25.5571
34.68252356662995 25.5813
34.705848608458616 25.5906
34.72917513396849 25.5352
34.75250314440949 25.4619
34.77601490857862 25.3741
34.799345904259795 25.3428
34.82267838863559 25.291999999999998
34.846012362958525 25.3306
34.869530142679984 25.2226
34.89286711232212 25.1587
34.91620557568269 25.2375
34.93954553401677 25.2135
34.9630693495876 25.116999999999997
34.986412313340814 25.1807
35.00975677584668 25.1555
35.033102738362956 25.0303
35.05663261012228 24.8839
35.0799815881786 25.0229
35.10333207003229 24.928
35.12668405694369 24.9254
35.150220005273056 24.8507
35.17357501786656 24.8951
35.19693153931268 24.8394
35.220289570874385 24.8034
35.24383161619786 24.8125
35.267192683604904 24.878
35.290555264930376 24.6724
35.314101899412165 24.6801
35.33746752422433 24.6263
35.36083466676374 24.629
35.38420332829803 24.5701
35.407756095629054 24.6456
35.43112781085063 24.5693
35.45450104888391 24.4951
35.477875810999194 24.5398
35.50143473172161 24.3918
35.52481255774625 24.4834
35.54819191167777 24.391
35.57157279478914 24.3299
35.595137889488406 24.4107
35.61852184675279 24.281999999999996
35.641907337029984 24.2185
35.665294361595684 24.1438
35.68886565090076 24.0583
35.7122557598848 24.0867
35.73564740699838 24.1873
35.759040593519934 24.083000000000002
35.78261809810353 24.0686
35.80601437933051 23.8954
35.829412203814705 23.8725
35.85281157283719 23.8452
35.876395313415884 23.86
35.8997977874528 23.773000000000003
35.92320180988546 23.7181
35.946790244133936 23.6952
35.97019737933222 23.6962
35.993606066789866 23.7119
36.01701630779276 23.5935
36.04061101440684 23.5628
36.06402437852291 23.5435
36.08743930005611 23.5444
36.1108557802951 23.5648
36.13445678011326 23.5178
36.15787639383515 23.3345
36.18129757014299 23.3773
36.20472031032821 23.2448
36.22832762423364 23.2651
36.25175350829375 23.3346
36.275180960119776 23.1809
36.298609981005924 23.2539
36.32222362992669 23.2159
36.34565580510207 23.155
36.36908955323448 23.0469
36.39252487562093 22.9651
36.416144880530226 23.0051
36.43958336764275 22.9366
36.463023432914625 22.9598
36.486465077645676 22.8457
36.51009145956204 23.0031
36.53353627947859 22.9655
36.55698268276811 22.9218
36.58043067073321 22.8436
36.60406345072071 22.7668
36.62751462435344 22.7883
36.65096738658405 22.7526
36.67460498210655 22.7025
36.69806093788647 22.6845
36.72151848619297 22.5521
36.744977628333636 22.546
36.76862165890998 22.5196
36.79208400512205 22.4566
36.81554794910557 22.5304
36.83901349217101 22.3739
36.862663978991606 22.3875
36.88613273667352 22.3168
36.90960309738324 22.3475
36.933075062434064 22.3149
36.95673202673572 22.3305
36.98020721697122 22.2194
37.003684015502365 22.1806
37.027162423645365 22.1294
37.050825886711465 22.1641
37.07430753063053 22.0496
37.09779078812467 22.0401
37.121275660513014 21.9862
37.144945643673694 21.9495
37.16843376245278 21.9059
37.19192350009803 21.941999999999997
37.215414857931435 21.909000000000002
37.239091382563885 21.785999999999998
37.262585997426164 21.818
37.28608223645736 21.8066
37.309763684451696 21.7262
37.33326318851098 21.6978
37.356764320726555 21.6467
37.380267082425526 21.6969
37.40395510942588 21.5722
37.42746114683234 21.5489
37.45096881771841 21.4914
37.474478123414166 21.4732
37.49817275092816 21.4439
37.52168534303452 21.4775
37.54519957395567 21.4212
37.568715445024665 21.4005
37.592416694607714 21.3323
37.61593586281424 21.3224
37.63945667518264 21.3516
37.66297913304891 21.2666
37.68668702630454 21.2696
37.710212792059274 21.1495
37.733740207334854 21.1547
37.757269273470364 21.107
37.780983832050374 21.017
37.80451621684926 21.0074
37.82805025654007 20.9806
37.851585952464795 20.9638
37.8753071980695 20.908
37.89884622345676 20.8537
37.92238690911902 20.7931
37.94611318753442 20.7808
37.969657210779765 20.8092
37.99320289834801 20.7499
38.016750251586465 20.7057
38.04048325513017 20.705
38.06403395679343 20.6463
38.087586328183946 20.607
38.11114037065203 20.6185
38.13488012115898 20.5773
38.1584375229181 20.5066
38.181996599821 20.5258
38.205557353221124 20.4903
38.229303872575656 20.521
38.2528679961576 20.3808
38.27643380031219 20.3512
38.30000128639589 20.4038
38.32375459653193 20.355
38.34732546371299 20.2762
38.37089801690786 20.2471
38.39447225747609 20.1928
38.418232380377425 20.108
38.441810012983396 20.197
38.46538933705673 20.0938
38.488970353960084 20.1046
38.51273731166058 20.1464
38.536321731567014 19.9562
38.55990784840681 19.9474
38.58367995004091 19.8326
38.60726947812959 19.8788
38.63086070726198 19.9953
38.654453638806274 19.9093
38.678232613930824 19.8077
38.70182896773327 19.7745
38.72542702806741 19.7747
38.7490267963045 19.7429
38.77281266709232 19.6827
38.79641586862214 19.6038
38.8200207821842 19.5964
38.843627409152944 19.6605
38.86742019782782 19.5792
38.891030269149255 19.5211
38.914642058016156 19.5019
38.938255565806124 19.455
38.96205529464307 19.4369
38.98567225787121 19.3944
39.00929094417078 19.3641
39.03291135492255 19.3502
39.05671804624804 19.3351
39.080341923549106 19.2605
39.103967529460334 19.2591
39.127594865365744 19.1905
39.15140854155791 19.112000000000002
39.17503935514948 19.1447
39.19867190290282 19.1021
39.22249083587951 19.1331
39.24612686969409 19.0669
39.269764641845306 19.0381
39.293404153722804 18.9952
39.317230110864074 19.0396
39.34087311998506 18.9547
39.36451787301696 18.9085
39.388164371352595 18.8523
39.41199737518003 18.8097
39.43564738196752 18.867
39.45929913825317 18.7997
39.48295264543308 18.7981
39.506792718520884 18.7746
39.530449745387216 18.6676
39.55410852735203 18.6501
39.57776906581474 18.697
39.60161623079 18.6213
39.625280300200025 18.6218
39.64894613032202 18.5871
39.67261372255866 18.509
39.6964680021016 18.5063
39.72013913657293 18.4428
39.74381203738292 18.4547
39.76748670593756 18.4337
39.79134812278169 18.4474
39.81502634488497 18.3918
39.83870633896685 18.3266
39.862388106436654 18.2626
39.88625668336918 18.2266
39.90994201572829 18.1955
39.933629125719285 18.1909
39.957503091207826 18.1862
39.9811937746168 18.1741
40.00488623990914 18.1097
40.02858048850006 18.1217
40.05246165409549 18.097
40.076159487492085 18.0086
40.099859108448875 18.0587
40.123560518384345 18.0288
40.1474489070226 17.9626
40.171153913178564 17.866
40.194860712584955 17.8618
40.2185693066637 17.8069
40.242464941335314 17.8103
40.26617714307655 17.7907
40.289891143772046 17.7825
40.3136069448471 17.7474
40.33750984859743 17.7633
40.3612292688043 17.6991
40.3849504936829 17.6864
40.40867352466194 17.6461
40.43258372059144 17.5879
40.45631038219906 17.5603
40.48003885420956 17.5308
40.503769138055105 17.6012
40.52768664931955 17.6174
40.55142057531802 17.5451
40.57515631746428 17.4423
40.599079334038514 17.3821
40.62281872700477 17.3378
40.64655994043941 17.373
40.67030297578061 17.3973
40.69423334835778 17.3256
40.71798004609188 17.2971
40.74172857006355 17.2699
40.76547892171441 17.258
40.7894166736039 17.1968
40.813170699248566 17.1987
40.83692655691388 17.114
40.86068424804498 17.1434
40.884629402612525 17.1246
40.908390779366385 17.127
40.932153993938 17.0502
40.95591904777605 16.9925
40.979871628443995 16.9988
41.003640379561936 17.0124
41.02741097430883 16.9696
41.05118341413683 16.9547
41.075143444384416 16.8942
41.098919593177826 16.9095
41.1226975914255 16.8913
41.14647744058318 16.8126
41.170444943946755 16.744
41.19422851378379 16.7811
41.218013938914645 16.6829
41.24198706625173 16.6614
41.26577622087193 16.6302
41.289567235177785 16.6204
41.31336011063129 16.6045
41.337340752422875 16.5692
41.361137369129835 16.5901
41.38493585138705 16.5523
41.40873620066004 16.4528
41.43272438060107 16.4046
41.45652848292052 16.3615
41.48033445666918 16.4033
41.50414230331616 16.4305
41.528138045159764 16.3536
41.551949656675205 16.2879
41.575763145513235 16.2486
41.59957851314666 16.2451
41.62358184070442 16.2232
41.64740098505737 16.1916
41.6712220126409 16.1463
41.69504492493139 16.1469
41.71905586207357 16.1674
41.74288256296395 16.0972
41.766711153007456 16.0378
41.79054163368412 16.0657
41.814560204340054 16.0361
41.838394485526365 16.0363
41.86223066180303 16.0046
41.88625497706819 15.8891
41.910094962812 15.8729
41.93393684811168 15.8613
41.95778063445365 15.7891
41.981812625263366 15.8202
42.00566023303407 15.8517
42.029509746323676 15.8212
42.05336116662236 15.7551
42.077400857069705 15.7362
42.10125611078846 15.7517
42.12511327600405 15.682
42.14897235421036 15.6315
42.173019768448455 15.625
42.19688269209613 15.6503
42.22074753323349 15.6137
42.24461429335818 15.5456
42.268669455600495 15.5086
42.292540073217886 15.4704
42.31641261433284 15.5026
42.34028708044675 15.4325
42.36435001496739 15.4616
42.38822835065557 15.3822
42.41210861586426 15.3502
42.4359908120986 15.3544
42.46006154323262 15.2995
42.48394762115317 15.2507
42.507835634632315 15.2514
42.531912233047436 15.2379
42.55580413732265 15.1699
42.579697981698 15.192
42.60359376768525 15.1701
42.62767820545945 15.0962
42.65157789440821 15.0912
42.67547952952185 15.0577
42.699383112316 15.0318
42.72347541395347 14.9638
42.74738291190531 15.0278
42.771292362102166 14.9944
42.795203766063516 14.977
42.819303956130405 14.9276
42.843219287476536 14.8787
42.86713657716324 14.8609
42.89105582671383 14.8827
42.91516392983864 14.8799
42.939087119032166 14.8299
42.963012272677304 14.7483
42.98693939230129 14.7307
43.01105543317513 14.7088
43.034986504731386 14.6909
43.05891954686589 14.6629
43.08285456110972 14.7161
43.10697856448665 14.6232
43.130917542983475 14.5883
43.15485849820081 14.5697
43.17880143167367 14.5319
43.20293342237094 14.4959
43.226880332449 14.4936
43.25082922540554 14.49
43.27496722682525 14.4979
43.29892010567796 14.4491
43.32287497204102 14.432
43.34683182745632 14.3963
43.370977859791836 14.331
43.39493871351105 14.3281
43.41890156092628 14.324000000000002
43.44286640358341 14.2812
43.46702049182749 14.26
43.49098934522816 14.1968
43.51496019852649 14.1931
43.5389330532723 14.2032
43.56309522248204 14.1413
43.58707210044314 14.1335
43.61105098451946 14.075999999999999
43.63503187626491 14.0877
43.659202151562134 14.025
43.68318707902681 14.0062
43.70717401884041 14.0415
43.731162972560874 13.9268
43.75534137913236 13.9163
43.779334381108384 13.9295
43.803329401683186 13.8724
43.82732644241872 13.8743
43.8515130055166 13.8576
43.87551410707659 13.8291
43.89951723350145 13.8075
43.923709934595614 13.7847
43.94771713129917 13.7599
43.97172635758096 13.7766
43.99573761501002 13.6871
44.0199385169922 13.658
44.04395385732619 13.6626
44.067971233533086 13.6506
44.09199064718605 13.6249
44.11619977548961 13.5856
44.14022328470671 13.5501
44.16424883610785 13.5783
44.18827643127035 13.5556
44.21249381139513 13.5322
44.236525514814076 13.4929
44.26055926674478 13.5025
44.28459506876863 13.4673
44.3088207262813 13.4103
44.33286064928722 13.3747
44.35690262714919 13.4187
44.38094666145278 13.3488
44.4051806219871 13.349
44.42922879003185 13.2916
44.45327901929361 13.2574
44.477331311362136 13.2516
44.501573600619416 13.2224
44.525630039221795 13.1792
44.54968854541895 13.2
44.573937102200176 13.1954
44.5979997645541 13.1391
44.622064499300315 13.105
44.64613130803592 13.0936
44.67038823869318 13.1046
44.69445921643748 13.0258
44.718532272981385 12.9852
44.742607409926194 13.0153
44.76687274034801 12.9732
44.79095205918753 12.9502
44.81503346325094 12.9384
44.839116954143876 12.8944
44.86339071028742 12.8795
44.88747839599524 12.8457
44.91156817336837 12.7631
44.93566004401666 12.7851
44.959942251908146 12.792
44.984038330325966 12.7621
45.00813650686762 12.6848
45.03223678314731 12.7147
45.05652746888232 12.6925
45.08063196592069 12.6312
45.104738567558705 12.6426
45.128847275414856 12.6173
45.15314646515866 12.6074
45.17725940679741 12.5916
45.20137445952892 12.5691
45.22568004865265 12.5711
45.24979934496396 12.4835
45.27392075725247 12.5331
45.29804428714431 12.5078
45.322358426247604 12.5214
45.346486212804315 12.4549
45.370616121861914 12.4031
45.39474815505086 12.3615
45.41907087049246 12.3642
45.4432071734666 12.3189
45.46734560548283 12.3313
45.49148616817604 12.3434
45.51581748638564 12.2988
45.5399623320197 12.2579
45.56410931325473 12.2827
45.58825843173002 12.2503
45.61259837920865 12.2043
45.636751793816 12.2266
45.66090735060093 12.1275
45.68506505120716 12.147
45.7094136545275 12.0996
45.73357566449271 12.0401
45.75773982322992 12.0413
45.78190613238733 12.0129
45.806263418194064 11.9671
45.83043404997326 12.0123
45.85460683713677 11.9857
45.87897065658495 11.9491
45.90314777634752 11.9338
45.92732705646868 11.912
45.9515084986045 11.9046
45.97588104735473 11.8442
46.00006683541565 11.8425
46.02425479047904 11.8334
46.04844491420549 11.8108
46.0728262191024 11.8023
46.09702070211635 11.7688
46.12121735879483 11.7399
46.14541619080294 11.7007
46.169806278764455 11.6892
46.194009483459034 11.6871
46.21821486849841 11.6441
46.24242243555223 11.6567
46.266821333570014 11.6431
46.29103328674601 11.6469
46.31524742696538 11.6027
46.33946375590237 11.5667
46.36387149104216 11.5205
46.38809221957392 11.5019
46.41231514186606 11.465
46.436540259597464 11.4581
46.460956858999374 11.4575
46.48518638983522 11.4331
46.509418121166966 11.4108
46.533652054678114 11.4009
46.55807754555709 11.3757
46.58231590571962 11.3554
46.60655647313217 11.3185
46.630988654873654 11.3249
46.655233659129024 11.2765
46.67948087571551 11.2814
46.70373030632484 11.2062
46.72817142736393 11.1919
46.752425308428684 11.1607
46.77668140861147 11.1712
46.80093972960865 11.1196
46.82538981736788 11.1282
46.849652602470904 11.1378
46.87391761349769 11.1044
46.8981848521493 11.0682
46.9226439341274 11.0473
46.946915650573224 11.0343
46.97118959976749 11.0422
46.99546578341598 11.0253
47.019933887188216 10.9881
47.04421456235744 10.9672
47.06849747711879 10.9346
47.09278263318286 10.8993
47.11725978640143 10.9057
47.14154944775105 10.8489
47.165841355555656 10.8344
47.1901355115306 10.8198
47.214621741924994 10.7802
47.23892041698887 10.8045
47.26322134538975 10.7616
47.28771440635075 10.7371
47.31201986422527 10.7357
47.33632758061436 10.7134
47.360637557241866 10.6981
47.38513974410611 10.665999999999999
47.40945426407847 10.6492
47.43377104948137 10.6216
47.45809010204344 10.616
47.48260144275502 10.6027
47.506925052572285 10.5722
47.53125093475548 10.5464
47.55557909103813 10.5315
47.58009961361992 10.5016
47.60443234110732 10.4606
47.62876734791564 10.4355
47.65310463578333 10.4618
47.6776343683373 10.4407
47.7019762413987 10.3918
47.72632040075572 10.3892
47.75066684815169 10.3696
47.77520581885936 10.3111
47.799556865477655 10.3568
47.823910205386 10.3364
47.84826584033272 10.2837
47.87281407745551 10.3006
47.89717432569297 10.2555
47.92153687423484 10.2502
47.94609208429692 10.2122
47.97045925671401 10.1762
47.99482873471275 10.1926
48.01920052005013 10.1527
48.04376504619224 10.1624
48.068141469543484 10.1477
48.09252020552573 10.1084
48.11690125590099 10.107000000000001
48.1414751266064 10.1372
48.16586082917454 10.0696
48.19024885144316 10.0457
48.2146391951793 10.0477
48.239222439012764 9.98537
48.26361744916137 9.96312
48.28801478610016 9.99635
48.31241445160131 9.988489999999999
48.337007097209366 9.97224
48.36141144338331 9.944519999999999
48.38581812345755 9.93882
48.41022713920929 9.84673
48.434829215320704 9.84765
48.45924292604658 9.8596
48.48365897780325 9.8624
48.50807737237308 9.834019999999999
48.532688907799276 9.81457
48.55711201168574 9.80822
48.581537463754074 9.76637
48.60615611725119 9.73489
48.63058628942721 9.78628
48.65501881516546 9.72489
48.6794536962573 9.65733
48.70408185970339 9.669080000000001
48.72852147531801 9.634830000000001
48.75296345168211 9.57472
48.77740779059232 9.603639999999999
48.80204549302823 9.61694
48.82649458091802 9.60621
48.85094603676547 9.59981
48.87539986237231 9.53684
48.90004713292306 9.53528
48.92450572200832 9.48828
48.94896668628025 9.50225
48.97343002754588 9.50615
48.99808689542115 9.498439999999999
49.02255501470614 9.43608
49.04702551642794 9.41341
49.0714984023988 9.38289
49.096164896893235 9.3627
49.120642575466796 9.378110000000001
49.145122643748394 9.3417
49.16960510355558 9.325460000000001
49.19428125404938 9.33671
49.2187685210852 9.31593
49.243258185121555 9.27098
49.26794160167084 9.253169999999999
49.2924360839405 9.23013
49.31693296869764 9.25077
49.34143225776915 9.266119999999999
49.36612538195438 9.161610000000001
49.39062950396021 9.17435
49.41513603578346 9.17948
49.4396449792564 9.16625
49.46434784069503 9.16981
49.488861631846454 9.09131
49.513377840166804 9.07885
49.537896467493745 9.05866
49.56260909589029 9.019739999999999
49.587132585683285 9.04143
49.611658500018365 9.02122
49.636186840738596 8.98617
49.66090926588511 8.965160000000001
49.685442483902584 8.96991
49.70997813385706 8.94425
49.734516217597076 8.951369999999999
49.75924846937352 8.9141
49.7837914452858 8.86514
49.80833686055187 8.8523
49.83288471702571 8.8237
49.85762682540054 8.85995
49.882179588965734 8.81247
49.9067347993235 8.817689999999999
49.93129245833333 8.774410000000001
49.95604445336378 8.79004
49.98060703442832 8.7587
50.005172069746266 8.7293
50.02993150438364 8.70997
50.05450147301533 8.71444
50.07907390151433 8.682160000000001
50.10364879174981 8.617460000000001
50.12841816587289 8.64691
50.1529980044635 8.64755
50.17758031042124 8.63437
50.20216508562089 8.63296
50.22694442953363 8.6001
50.25153416817468 8.556410000000001
50.27612638170508 8.5466
50.300721072005196 8.54462
50.325510416102105 8.540460000000001
50.350110084975064 8.52016
50.37471223628208 8.52158
50.39931687190919 8.46884
50.424116246675766 8.45617
50.44872587605249 8.450330000000001
50.47333799543065 8.41767
50.49795260670191 8.4022
50.52276204271512 8.38814
50.54738166295838 8.367980000000001
50.57200378079314 8.36931
50.596628398116835 8.36068
50.62144792604559 8.36378
50.646077567609396 8.30444
50.670709714377715 8.3207
50.69553683636198 8.30848
50.72017401885922 8.300839999999999
50.7448137122895 8.263539999999999
50.76945591856022 8.21658
50.79429318636823 8.21702
50.818940443716784 8.1991
50.84359021965163 8.202739999999999
50.868242516085964 8.19393
50.893089960641895 8.138919999999999
50.917747323549435 8.16282
50.94240721271973 8.13536
50.96706963007175 8.10454
50.99192728239342 8.1115
51.01659478166073 8.1087
51.04126481489051 8.07338
51.06593738400761 8.03477
51.090805275207074 8.01806
51.11548294172845 8.00163
51.14016314993547 8.00585
51.164845901758845 7.9638100000000005
51.18972406304274 7.9959
51.21441192780656 7.9445
51.23910234200271 7.94268
51.2637953075678 7.895860000000001
51.288683770237945 7.86676
51.31338186432707 7.87402
51.33808251561888 7.874630000000001
51.362978729967345 7.85655
51.387684521509755 7.87812
51.41239287610203 7.81465
51.437103795691165 7.80362
51.46201036644977 7.78367
51.486726441956634 7.7489300000000005
51.51144508832545 7.75115
51.536166307509156 7.75705
51.56108326624387 7.700260000000001
51.58580965706056 7.682919999999999
51.61053862657523 7.68733
51.635270176746864 7.665710000000001
51.66019755512065 7.6654
51.68493429268881 7.60763
51.70967361681515 7.61135
51.73441552946465 7.6178
51.759353359237934 7.63427
51.7841004750961 7.56066
51.80885018539685 7.54988
51.833602492111254 7.538139999999999
51.8585508051424 7.558339999999999
51.883308330926425 7.5178
51.90806845906181 7.47213
51.932831191525715 7.4691399999999994
51.95779001977161 7.450010000000001
51.98255798721516 7.4607600000000005
52.00732856494335 7.4374
52.03229530577543 7.459630000000001
52.057071130455945 7.41632
52.081849571391054 7.40055
52.106630630568695 7.39053
52.13160794279417 7.3266800000000005
52.15639426492067 7.3614
52.18118321127822 7.346139999999999
52.205974783860896 7.30266
52.23096269971011 7.3021899999999995
52.255759551287994 7.265619999999999
52.280559035098186 7.22668
52.30536115314103 7.2581
52.33035970494467 7.23458
52.35516711807904 7.22735
52.37997717147198 7.216260000000001
52.40478986713005 7.2016100000000005
52.42979908731974 7.155130000000001
52.454617094216 7.164910000000001
52.47943774942214 7.17611
52.50426105495102 7.11861
52.529280976059844 7.12021
52.554109609024096 7.116339999999999
52.57894089837482 7.07595
52.60377484613117 7.097060000000001
52.62880550079408 7.057989999999999
52.65364479223379 7.0423
52.67848674816189 6.99463
52.70352547971946 6.982819999999999
52.72837279155837 6.989260000000001
52.753222773982785 7.02418
52.778075429022984 7.00707
52.80312495150885 6.98373
52.827982978797436 6.940289999999999
52.85284368481815 6.99068
52.87770707160767 6.9297699999999995
52.90276741793998 6.92168
52.92763619336701 6.86804
52.952507655698504 6.88417
52.977381806977576 6.8634
53.00245301017842 6.82748
53.02733256653592 6.830210000000001
53.052214817996074 6.79533
53.077099766608484 6.823110000000001
53.102181859804446 6.7979
53.127072229988265 6.768489999999999
53.15196530349892 6.7622
53.17686108239249 6.73545
53.20195409881522 6.714119999999999
53.22685531582556 6.734439999999999
53.25175924441303 6.696330000000001
53.27666588664027 6.69307
53.30176985962693 6.683160000000001
53.3266819565689 6.70205
53.35159677336455 6.651669999999999
53.376514312083096 6.61745
53.40162927507703 6.6034
53.42655228516116 6.64335
53.45147802340193 6.574
53.47660125628886 6.549930000000001
53.50153247842639 6.54643
53.52646643496923 6.53597
53.55140312799818 6.52005
53.576537409691696 6.53598
53.60147960336152 6.5552399999999995
53.626424539786164 6.4995199999999995
53.65137222105307 6.4637
53.67651758529126 6.49191
53.70147078399681 6.424119999999999
53.72642673383343 6.4547
53.75138543689533 6.44506
53.776541917524526 6.41351
53.801506154876755 6.4394599999999995
53.826473151763246 6.39957
53.851442910284916 6.37911
53.87661054126026 6.37404
53.9015858509782 6.324409999999999
53.92656392866066 6.3392
53.95154477641532 6.29344
53.976723591801296 6.3057
54.00171000771266 6.31634
54.02669920004598 6.2445
54.051691170915745 6.241140000000001
54.076881204886796 6.24982
54.101878760928514 6.23615
54.12687910187696 6.2296
54.152077577768296 6.25862
54.1770835166946 6.192480000000001
54.20209224691339 6.15895
54.22710377055121 6.20899
54.25231352511594 6.1809400000000005
54.27733066384342 6.10752
54.30235060239643 6.0981
54.32737334290836 6.0885
54.35259441062629 6.06911
54.377622783395324 6.0616699999999994
54.40265396455061 6.07716
54.42768795623251 5.99196
54.45292037169559 5.99241
54.477960012857906 5.98126
54.50300247099511 5.96818
54.52804774825457 5.95219
54.55329154616743 5.94704
54.57834249018678 5.90803
54.6033962597977 5.8849599999999995
54.6284528571545 5.85141
54.653708072335164 5.77902
54.67877035378786 5.80439
54.70383546947698 5.7639
54.72890342156389 5.78225
54.7541700889442 5.75294
54.77924374251975 5.74193
54.8043202390049 5.7522400000000005
54.82959552413022 5.7005300000000005
54.8546777351945 5.705830000000001
54.87976279569621 5.63503
54.90485070780914 5.62357
54.930137506558005 5.58655
54.95523115074295 5.58001
54.98032765308844 5.59525
55.005427015775496 5.59199
55.03072536339621 5.6265
55.05583047570572 5.5385800000000005
55.080938454927676 5.5511800000000004
55.10604930325027 5.54176
55.131359235107396 5.52336
55.15647585066083 5.42399
55.181595341907496 5.43325
55.20671771104285 5.39463
55.232039262617704 5.41225
55.25716741665048 5.36676
55.28229845518636 5.3203
55.30743238042802 5.24887
55.33276558731939 5.27442
55.357905315183636 5.24317
55.383047936390035 5.21421
55.40819345314859 5.16125
55.433538351073295 5.13684
55.458689688238415 5.16363
55.483843927614096 5.10034
55.509197623043605 5.0813
55.53435769621134 5.076919999999999
55.55952067826466 5.0724800000000005
55.5846865714265 5.0416
55.61005202069737 5.04887
55.63522376553902 5.00539
55.66039842818645 5.00951
55.68557601087004 5.0071900000000005
55.7109532500271 4.93058
55.73613670233794 4.93541
