TT I
1.2716486653135266 7.54263
1.2939594142134223 7.921760000000001
1.3162702121660406 7.552239999999999
1.3385810600174564 6.97099
1.3608919586137629 7.197010000000001
1.383202908801069 7.01929
1.405513911425503 7.4952
1.4278249673332093 6.54434
1.4501343378461518 6.310569999999999
1.4724455028545926 6.56429
1.4947567236847858 6.55705
1.517068001182951 6.5116
1.5393793361953272 6.58982
1.5616907295681737 6.26319
1.5840021821477681 5.5586199999999995
1.60631369478041 5.9122
1.6286252683124185 6.37763
1.6509369035901333 6.12007
1.6732468618895553 6.26197
1.695558623192809 5.55731
1.7178704487808514 5.52652
1.7401823395001077 5.42508
1.7625012545597203 5.45454
1.7848028405262486 5.23808
1.8071218901122095 5.602869999999999
1.8294236121921872 5.42005
1.8517427996910911 5.18088
1.8740620574440425 5.24366
1.8963639900671978 5.26633
1.9186833908139995 4.66245
1.9409854680117449 5.2470300000000005
1.9633050151394713 5.61034
1.9856246367570705 5.0717099999999995
2.0079269371922672 5.027909999999999
2.03024671027244 4.65839
2.0525491637446027 4.8749199999999995
2.074869091674931 4.99653
2.097171701569106 5.162669999999999
2.1194917877373847 4.6910099999999995
2.141811954326636 4.9839199999999995
2.164114805233074 5.21134
2.186435135143035 4.34129
2.208738150935709 4.84112
2.231058647554722 4.633290000000001
2.2533792288321184 4.492
2.275682498336085 4.775440000000001
2.298003251406138 4.53791
2.3203066942619714 4.5183800000000005
2.3426276225136022 3.83638
2.3649486396617507 4.1739999999999995
2.387252348930071 4.35623
2.4095735463442893 4.50358
2.4318774374315884 4.54603
2.4541988185014043 4.44022
2.476502894794693 4.29356
2.498824462909887 4.371519999999999
2.521146125856138 5.08665
2.5434504863470337 5.17293
2.5657723414244717 5.31073
2.588076895590662 5.7484
2.610398946189713 5.34246
2.6327210958598384 5.310919999999999
2.6550259469304716 5.18262
2.6773482972090137 5.73921
2.6996533504259 5.91864
2.7219759047039602 6.579160000000001
2.744298562293959 6.30264
2.7666039251246595 6.331519999999999
2.7889267918020164 6.7792
2.8112323652516555 6.3476300000000005
2.833555444408179 6.80969
2.8558786311183852 7.057639999999999
2.8781845268938557 8.164539999999999
2.9005079311721484 9.01187
2.9228140460410397 8.594660000000001
2.9451376712799635 9.05461
2.967444008632326 9.77058
2.9897678582247247 10.0451
3.0120918213106695 10.2148
3.0343984987899373 10.8902
3.0567226913198637 10.7534
3.079029599759726 11.3926
3.101354025127254 12.2577
3.123678568232338 12.8635
3.145985829517914 13.1794
3.16831061055229 13.6537
3.1906181112775593 14.0311
3.212943133635653 14.7835
3.2352682779763207 15.2041
3.2575761442691227 15.8133
3.2799015350264273 15.8784
3.302209649240067 16.4865
3.3245352898092655 17.1381
3.3468436553365257 17.5751
3.369169549113219 17.9166
3.3914955708171384 18.992
3.413804319727358 19.1573
3.4361305997334863 19.2637
3.4584396084414553 19.9874
3.4807661501462652 20.4287
3.503092824025881 21.0505
3.5254022288463154 21.1693
3.5477291695206588 21.246
3.5700388426251948 21.9154
3.5923660534916446 22.2491
3.6146934007816114 22.8259
3.637003482731501 23.5498
3.6593311053109985 23.697
3.681641464033634 24.2098
3.7039693653009733 24.3652
3.726297407241705 25.3815
3.7486081875460804 25.2718
3.7709365132734978 25.816999999999997
3.793247578841633 26.0956
3.8155761917550093 26.4904
3.8378875459837216 27.1836
3.8602164494827234 27.9891
3.882545499606844 28.9979
3.9048572932539183 29.5751
3.9271866390645718 29.7508
3.9494987298666713 30.25
3.971828374764527 31.0469
3.9941581705403255 31.2178
4.016470713506008 31.8259
4.038800813471445 32.5941
4.061113662089144 32.9004
4.0834440696459176 33.9194
4.105774632334751 34.3123
4.128087945865126 35.0858
4.150418821249301 35.8011
4.172732448931298 36.4387
4.195063640413578 37.3909
4.2173775856475215 38.426
4.239709096631102 38.8419
4.262040768704612 39.4645
4.284355196706267 39.789
4.306687193387355 40.8068
4.329001947444346 41.9846
4.35133427213731 42.7935
4.373666762177566 43.6023
4.395982011761091 44.618
4.418314834921175 45.2891
4.44063041906622 46.7596
4.4629635787515625 47.7232
4.4852969080429785 48.6433
4.5076130004776225 50.269
4.529946671403969 51.0633
4.552263106909177 52.1377
4.574597122877047 53.7552
4.596931312711224 54.9274
4.619248269273446 56.1342
4.6415828092605835 57.3851
4.663900117405352 58.3419
4.686235010953232 59.8278
4.708552674085913 61.4117
4.730887924602802 62.6986
4.753223354952695 64.5822
4.775541557023902 66.8395
4.797877349456786 67.8309
4.820195915032126 70.4249
4.842532072957498 71.5668
4.864868414979744 73.9625
4.88718753227192 76.7116
4.909524244902505 78.8862
4.931843734218147 81.9243
4.954180820867835 85.1704
4.976518095879839 89.1994
4.998838149695359 92.9045
5.021175803844231 97.5816
5.043496238205739 101.969
5.065834274903528 108.59
5.088172504230693 116.805
5.1104935158799565 126.014
5.132832132875765 141.571
5.155153533596801 169.953
5.1774925416746225 274.55
5.199814334878411 874.659
5.2221537374521505 2276.32
5.244493338631803 3967.8
5.266815727034316 6521.87
5.289155727832427 10336.7
5.311478517248165 9806.58
5.333818921080011 4797.19
5.356159527788849 1172.87
5.3784829252032536 302.135
5.400823940070432 190.801
5.423147747031976 158.14700000000002
5.445489173474152 140.45
5.467830807066149 130.586
5.490155234831516 124.221
5.512497285125229 119.04700000000001
5.534822130975162 116.37100000000001
5.557164601388673 113.098
5.579489868738879 110.07700000000001
5.601832762690846 108.38799999999999
5.6241758697774475 106.399
5.646501775867269 105.37
5.668845311622074 104.726
5.691171647754637 103.666
5.713515615597765 102.615
5.735859800852677 101.72399999999999
5.758186788542988 101.07700000000001
5.780531411018185 101.777
5.802858837297399 101.441
5.825203900414495 101.802
5.8475491852224 103.12100000000001
5.869877275883075 104.675
5.892223006467101 108.085
5.914551544266608 112.116
5.936897724049891 119.634
5.959244129804903 135.64600000000002
5.981573344815301 192.37599999999998
6.0039202049061 434.724
6.026249875609095 918.618
6.04859719346037 1453.9
6.070927323278297 2149.33
6.093275102315365 3486.15
6.115623113320588 4584.5
6.137953938319995 3893.24
6.160302415650845 1564.77
6.182633708324452 416.912
6.2049826554078376 160.796
6.227331838745022 113.631
6.249663839443684 98.7685
6.27201349767565 90.6654
6.294345974611799 86.0892
6.316696111167083 82.3017
6.339046488263839 79.7192
6.361379686074702 76.6668
6.383730546639482 74.8371
6.406064229255215 72.6958
6.428415576718203 71.8432
6.450749747566656 70.9601
6.47310158535871 69.6321
6.495453669698332 68.7251
6.517788579421056 68.1592
6.540141159237969 66.9148
6.562476565766648 66.2679
6.5848296444934045 65.4372
6.607182974060425 64.7483
6.6295191323281015 64.4026
6.651872965955752 63.547
6.6742096296068985 62.9057
6.6965639707294615 62.1622
6.71891856698715 61.7537
6.741255995248479 61.1488
6.763611104154477 60.95399999999999
6.785949046381137 60.1892
6.808304671371482 59.9799
6.8306605557940046 59.6471
6.852999275508618 58.9189
6.875355681171544 58.7657
6.897694923437771 58.676
6.92005185377892 58.4123
6.9423916220322655 58.5952
6.964749080490181 57.5372
6.987106804399774 57.6611
7.009447368180821 57.6881
7.031805625367033 56.8833
7.054146723727803 57.4932
7.076505517631004 57.0958
7.098864581288365 56.6252
7.121206488070854 56.6924
7.143566093607822 56.0704
7.165908543567245 56.4128
7.188268694426048 56.4371
7.2106291193438095 56.0022
7.232972390625943 55.8532
7.255333366030969 55.9211
7.277677189091925 55.5495
7.300038718428332 55.8793
7.322400526130865 55.7629
7.344745183422596 56.1449
7.367107550224791 56.4254
7.389452767901992 56.3042
7.411815697249891 56.1934
7.434161478756298 55.6254
7.456524974096713 55.8199
7.478888753837185 55.4026
7.501235387657368 56.7573
7.523599738562711 58.3226
7.545946944825532 60.4026
7.568311870344528 60.7983
7.5906770845765665 59.0411
7.613025156078678 57.6987
7.635390950099687 57.4971
7.657739602662809 57.2509
7.680105979923558 57.5973
7.702472650212829 58.2683
7.724822180948224 58.0265
7.747189439655568 58.3188
7.769539560075357 58.4101
7.791907410653562 59.0692
7.81425812420825 59.193000000000005
7.836626570110925 59.851000000000006
7.858995315087906 60.4362
7.881346924933401 60.4215
7.903716270417482 61.1876
7.926068482028405 61.5102
7.948438431475253 62.2373
7.9708086843180235 63.0953
7.993161805171116 63.4852
8.015532667162402 63.9021
8.037886398416653 64.9287
8.060257873014221 65.4666
8.082629655331942 66.1922
8.104984308787587 66.5325
8.127356708900503 67.5873
8.149711981398308 68.7129
8.172085002766314 69.624
8.194458336181368 70.4506
8.216814543847752 71.8505
8.23918850371002 73.3515
8.26154533906492 74.6849
8.283919928836452 76.7173
8.306277395339652 77.5546
8.328652618483376 79.3669
8.351028159736202 81.8912
8.373386579575245 84.3876
8.395762759396959 86.8921
8.418121819038275 90.9825
8.440498640894003 97.0207
8.462875785192262 109.141
8.485235811156207 152.071
8.507613602688501 282.344
8.529974277114228 465.219
8.552352719347912 602.5509999999999
8.574731488360351 750.492
8.59709314210385 1014.78
8.619472567021075 1427.57
8.64183487789147 1892.84
8.664214962183097 1919.34
8.686577933647762 1289.29
8.708958680784317 585.977
8.731339760774953 239.174
8.753703729764451 136.89
8.77608547780821 113.041
8.798450116065078 106.117
8.820832535634787 101.301
8.843215292401656 98.4681
8.865580941199045 96.4674
8.887964374703538 94.5474
8.910330701447199 92.7955
8.932714815164482 92.0989
8.955099270424924 90.9715
8.977466620733543 90.434
8.999851761421976 89.5662
9.022219798361645 88.7992
9.04460562795561 88.6499
9.066991803441677 88.6801
9.089360876979615 88.3085
9.111747746589993 88.2153
9.13411751544971 87.2432
9.156505082664324 87.2329
9.178875550323522 87.1852
9.20126381862328 87.3922
9.223652438908596 90.4937
9.246023961427412 93.4767
9.26841328802173 92.8104
9.290785518039224 90.47
9.313175554425882 89.6654
9.335565947154315 88.1641
9.357939245086508 88.1747
9.380330352834827 88.2269
9.40270436697103 88.3664
9.425096193225055 88.2674
9.447488380180165 89.2012
9.469863475295412 89.3579
9.492256385987508 89.6402
9.514632206018318 90.5236
9.537025843935714 91.1705
9.559402392368193 91.9077
9.581796761000229 92.9019
9.604191496441521 93.2671
9.626569144158516 94.1639
9.648964615551032 94.6156
9.671343000390081 95.5498
9.693739211225699 97.3555
9.716135793237463 98.0476
9.738515290448102 99.0557
9.760912617143402 100.506
9.783292860202891 101.82799999999999
9.805690935076182 103.286
9.828089385495742 104.36200000000001
9.850470754023561 106.96799999999999
9.872869957865444 109.296
9.89525208097539 113.491
9.917652041736662 118.381
9.940052382417589 132.311
9.962435644102392 186.84099999999998
9.984836746950979 297.866
10.007220771957746 432.094
10.029622640473708 536.8009999999999
10.052007432299963 636.9019999999999
10.074410069984072 773.7410000000001
10.096813093716005 1017.16
10.119199042482517 1361.65
10.141602840636468 1745.04
10.163989564971628 1744.7
10.186394141051062 1239.78
10.208799107559706 640.786
10.231187001965623 297.627
10.253592751657669 159.792
10.275981430388155 127.19200000000001
10.298387966769793 119.479
10.320794897965431 116.26100000000001
10.343184759907361 114.176
10.36559248305461 112.117
10.387983138083852 114.081
10.410391656691655 127.477
10.432800574501677 157.959
10.455192425893369 191.955
10.47760214443012 217.87599999999998
10.499994797678786 238.725
10.522405320453982 274.666
10.54479877906917 335.76199999999994
10.567210109595656 421.712
10.5896218454736 514.195
10.612016518879773 534.221
10.634429067781074 435.392
10.656824555333241 276.454
10.679237920773568 162.925
10.701651695961992 112.969
10.724048411481384 98.4873
10.746463008485165 93.8
10.768860546937125 91.3579
10.791275969274796 88.8744
10.81369180576079 87.1814
10.836090585366925 85.5456
10.858507252467449 84.1779
10.88090686379991 83.2088
10.903324365036394 82.6185
10.925724811614439 81.1438
10.948143150509463 80.5244
10.970561909719066 79.7005
10.992963615930844 78.7194
11.015383218085756 77.6656
11.037785768347074 76.8211
11.06020621697282 76.4284
11.082627090322113 75.9486
11.105030913430326 75.21600000000001
11.12745263854165 74.3996
11.149857314510728 73.4447
11.172279894912576 73.6636
11.194702904450653 72.4705
11.217108866490921 71.8709
11.239532736615194 71.3856
11.26193956033512 71.4272
11.284364294577085 70.9516
11.306789462371718 70.7512
11.329197585398376 70.2131
11.351623622610898 70.0003
11.37403261614354 69.528
11.396459526308487 69.4885
11.418869393879497 68.9944
11.441297180532617 68.6416
11.463725406927658 68.2408
11.486136592353875 67.8843
11.508565700543707 67.6205
11.530977768845315 67.6212
11.553407762368774 67.206
11.575838200059769 67.1195
11.598251599479612 66.8775
11.620682927815501 66.5159
11.64309721895548 66.6995
11.665529441478206 66.232
11.687962112597958 66.3171
11.710377748130886 65.949
11.732811318753434 65.8399
11.755227854859067 65.8643
11.777662328529495 65.5925
11.800079768750786 65.3917
11.822515149015453 65.7156
11.844950984084935 66.0007
11.867369787303163 65.7196
11.889806534289491 65.7974
11.912226250487029 66.6034
11.934663912939751 67.61
11.9571020346363 68.0394
11.979523127133968 68.0564
12.001962169624331 69.0961
12.024384183972964 72.0646
12.046824150809913 79.4439
12.069264581333726 89.0821
12.091687985297767 96.3104
12.11412934550045 101.619
12.136553680195208 108.375
12.158995973632788 119.788
12.181438735204349 135.047
12.20386447284199 156.159
12.226308172985636 182.951
12.24873485024193 201.395
12.271179492516982 188.87099999999998
12.293607112949127 153.906
12.316052700916226 110.601
12.338498763250042 83.2406
12.360927805303868 71.7362
12.383374818673879 68.4353
12.405804812803074 67.6649
12.428252780773262 67.6928
12.45070122756722 67.6405
12.473132656675375 67.2987
12.49558206341869 67.4287
12.518014453510101 67.4718
12.540464823770117 67.6496
12.562915677315177 67.5954
12.58534951575545 67.6858
12.607801338171472 67.9614
12.630236146511358 68.4445
12.652688941369085 68.8642
12.675124723177234 69.102
12.697578494048786 69.6001
12.720032754458185 69.9902
12.742470003354093 70.5567
12.764925245138771 71.3022
12.787363476431278 71.4498
12.809819703166806 72.005
12.83227642391173 72.7943
12.854716135692716 73.2609
12.877173846755147 74.8507
12.899614549869717 75.0336
12.9220732548287 76.017
12.94453245827299 76.7645
12.966974655289818 77.84100000000001
12.989434858002571 78.9888
13.011878055298721 79.6743
13.034339260862497 81.0631
13.056800969391883 82.5908
13.079245674017244 86.0257
13.101708390774869 91.8437
13.12415410463411 108.072
13.146617833206086 131.88299999999998
13.169064559883248 151.535
13.191529303857127 165.065
13.213994557076367 177.3
13.236442809902437 194.40400000000002
13.258909083908291 222.252
13.28135835851934 256.592
13.30382565690295 303.472
13.326293469022952 364.204
13.348744283242008 408.048
13.371213125129904 397.785
13.39366497011003 323.436
13.416134845360597 227.65900000000002
13.438605238843131 157.433
13.46105863690397 130.67
13.483530069144786 134.691
13.505984506951902 146.79
13.528456981549432 157.796
13.550929978879088 164.74400000000003
13.573385983253365 174.567
13.595860028340867 192.32299999999998
13.618317081455832 218.304
13.64079217790333 253.604
13.663250283359057 297.98
13.685726434770173 343.995
13.708203115221277 358.551
13.730662806148091 317.425
13.75314054697177 243.25599999999997
13.775601299246777 168.55900000000003
13.798080104050406 117.205
13.820559442405358 95.2901
13.843021793671388 87.9007
13.865502201420897 85.4715
13.887965623051947 84.81299999999999
13.910447103807167 83.4328
13.932929122629764 81.8244
13.955394156785959 81.2366
13.977877254034569 80.4224
14.000343367582113 79.5326
14.022827546871707 78.9351
14.045294743423524 78.0804
14.06778000837062 77.2233
14.090265817715476 77.2776
14.112734645763819 77.0178
14.13522154619454 76.9416
14.157691466286913 76.7853
14.180179461423874 76.3421
14.202668005486178 75.559
14.22513957064374 75.0619
14.247629214846473 74.6692
14.270101881097517 74.1782
14.29259262906496 73.8085
14.315083930490205 73.8604
14.337558255389705 73.6167
14.360050666019726 73.34100000000001
14.382526101071944 73.0854
14.405019624534942 72.8749
14.427513705993134 72.7147
14.449990813291825 72.6001
14.47248601302899 72.4945
14.49496423954951 72.7315
14.517460561197822 72.8665
14.539939910570322 72.7034
14.562437357763558 72.8613
14.58493536931253 72.9805
14.607416409993311 73.2044
14.62991555254159 73.5642
14.652397725157423 73.9107
14.674898002342799 74.219
14.697398848433282 74.7659
14.719882725991326 76.4924
14.74238471217934 79.7283
14.764869730765593 87.5575
14.787372860692983 95.9108
14.809876564079925 103.696
14.83236330125751 109.18700000000001
14.854868153850365 113.072
14.877356041159485 119.25399999999999
14.899862046604186 128.55700000000002
14.922351087688757 141.093
14.944858249632887 157.378
14.967365991421232 178.24200000000002
14.989856770231246 201.399
15.012365673994204 217.12400000000002
15.03485761569738 210.667
15.05736768508665 180.372
15.07987833888692 141.306
15.102372032001655 107.905
15.124883856909658 86.6799
15.14737872204565 78.3
15.169891721717274 74.9996
15.192405310371893 74.3007
15.214901940621196 73.5043
15.237416709527137 73.0546
15.259914520936249 72.6122
15.282430473753607 71.9576
15.304947020131227 71.0965
15.327446610371178 70.8667
15.349964346154254 70.6566
15.372465126703139 70.4052
15.394984055556009 70.1759
15.417486030076159 70.1125
15.44000615566487 69.9415
15.462526881230803 69.8789
15.485030653812652 69.6797
15.507552581617434 69.4207
15.530057557334603 69.4641
15.55258069104857 69.6381
15.575104429329837 70.1268
15.597611216864632 70.1707
15.620136166564563 70.8954
15.6426441664095 73.8403
15.665170331202765 80.125
15.687697105158826 86.9713
15.710206930593545 93.0212
15.732734925158933 97.1039
15.755245972089478 99.7888
15.77777519094324 103.802
15.800287463046663 110.26899999999999
15.822817909869592 119.522
15.84534897229804 130.813
15.867863089299354 146.506
15.890395385222186 163.93099999999998
15.912910736597423 181.878
15.935444269699861 189.453
15.957978423016485 178.59
15.980495633101265 150.821
16.003031029129367 118.978
16.02554948280019 91.0591
16.048086125229432 75.4425
16.070623392487107 69.1366
16.09314371869582 66.8975
16.11568223789321 65.0726
16.13820381691126 64.4066
16.160743591742527 63.9313
16.183283996022084 63.5118
16.205807461423195 62.5534
16.228349126881973 61.8633
16.25087385432698 62.0008
16.27341678466365 61.2859
16.29594277784926 60.9332
16.31848697676433 60.4643
16.341031811604868 59.9951
16.36355971058487 59.8946
16.3861058195587 59.5286
16.40863499352978 59.1515
16.431182380342005 58.9146
16.453730407713202 58.6754
16.476261501364792 58.6358
16.498810812136167 58.1717
16.52134319004079 58.4452
16.54389378792203 58.4336
16.566445031001553 58.0214
16.588979342490088 57.9173
16.61153187824822 57.887
16.634067483263312 57.6808
16.656621315414416 57.5611
16.679175797408888 57.3182
16.701713349928728 57.3262
16.72426913389191 57.4087
16.74680798922351 57.4156
16.76936507887444 57.3612
16.791905240734874 57.4698
16.814463639794468 57.2229
16.837022695210294 57.4545
16.859564824093756 57.6218
16.882125194503903 57.6149
16.904668639217885 57.9381
16.927230328348003 57.797
16.949792678493612 58.0837
16.972338104193863 58.2495
16.994901778652235 58.1648
17.017448529496576 58.4474
17.040013531998152 59.1836
17.06257920018044 60.278999999999996
17.0851279459922 62.2511
17.107694947817667 63.4544
17.130245028099072 64.4116
17.15281336730298 65.2517
17.17536478578733 65.9816
17.19793446610687 66.9573
17.220504818648422 68.8368
17.243058251703697 70.3973
17.265629950971032 73.0999
17.288184731571736 76.4521
17.310757781306908 80.6253
17.33333150794385 83.6183
17.355888317140174 84.7545
17.37846339986244 83.8727
17.401021565958885 79.0507
17.42359800851343 73.0196
17.44617513265564 67.7412
17.468735341390783 64.7097
17.491261035594565 62.998999999999995
17.51396340099364 62.3535
17.536490463869136 62.4117
17.559018209820174 62.3888
17.58154663977963 62.483000000000004
17.604251766089718 62.6285
17.626781572227713 62.9589
17.64931206518155 63.1145
17.671843245885103 63.5129
17.69455114821572 63.5946
17.717083712612634 64.0064
17.739616967569667 64.4605
17.762150914021706 65.1129
17.78486160749854 65.1967
17.807396945166804 66.3438
17.829932977143503 68.344
17.85246970436452 71.9598
17.875183204129467 75.7993
17.897721330097664 79.1241
17.920260154126645 81.9799
17.942799677153296 84.023
17.9655159983646 85.2565
17.988056927677544 87.7994
18.010598558807683 92.0361
18.033140892692916 97.57
18.05586005052525 103.691
18.07840379824407 111.759
18.10094825154059 122.70200000000001
18.12366954819864 135.033
18.146215420998306 144.58700000000002
18.16876200220057 145.6
18.191309292745153 137.52700000000002
18.214033452627167 123.316
18.236582170236648 107.116
18.259131600016456 95.8418
18.281681742907335 90.3111
18.304408781233683 89.9021
18.32696035875955 91.6986
18.349512652227624 95.4131
18.372065662579683 100.69
18.394795594587553 105.432
18.41735004715306 106.98100000000001
18.43990521943684 103.485
18.46246111238171 96.2202
18.485193953325208 86.4378
18.507751296070428 77.4616
18.530309362314178 71.2949
18.552868153000343 67.9951
18.57560391815056 66.1575
18.59816416623245 65.3444
18.620725141597372 64.7508
18.643286845190268 64.1625
18.666025549835414 63.9745
18.688588718427933 63.1688
18.711152618092243 63.0549
18.73389353884365 62.5028
18.75645890921984 62.2181
18.77902501351406 61.9117
18.801591852673102 62.055
18.824335739722738 61.3045
18.846904057212626 61.2103
18.8694731124168 60.9207
18.89204290628315 60.8707
18.914789774966803 60.5656
18.937361054791623 60.3361
18.959933076131318 60.089
18.982505839934877 60.0461
19.00525570560582 60.1808
19.027829963004184 59.8083
19.05040496572238 60.1001
19.072980714710468 60.4143
19.095733592739563 61.0735
19.11831084296757 61.9457
19.140888842324735 62.4836
19.16346759176222 62.732
19.18622349753803 62.8586
19.208803755869358 63.2051
19.231384767143577 63.8157
19.253966532312948 64.5847
19.276725481241822 65.8752
19.29930876296784 66.9656
19.3218928014549 68.6057
19.34465404436217 70.5903
19.36723960516257 73.0489
19.389825925592426 75.4671
19.412413006605938 77.1097
19.43517731967805 76.3065
19.457765930683355 73.6818
19.48035530514408 69.473
19.50294544401556 65.14399999999999
19.525712842708348 61.3329
19.54830451925909 59.1484
19.570896963095727 57.387
19.593490175174704 56.7482
19.616260674962184 56.7145
19.638855432416964 56.3711
19.661450960992624 56.6096
19.68404726164677 56.6223
19.706820878021247 56.2878
19.729418731756834 56.4103
19.752017360452857 56.2626
19.77461676506804 56.5864
19.797393513540218 57.1112
19.819994478951667 57.7678
19.84259622316767 58.6566
19.8651987471481 59.0382
19.887978643247177 59.1153
19.91058273574792 59.3686
19.933187610901943 59.8597
19.955969879466828 60.5207
19.97857632894404 61.1463
20.00118356396599 62.1203
20.023791585494575 63.6166
20.046577028914875 65.8682
20.069186632506966 68.107
20.091797025500632 70.0942
20.114408208858933 72.1559
20.137196842715273 73.4432
20.159809615886765 73.5938
20.18242318232135 71.3304
20.20503754298326 68.8217
20.227829382875154 66.2434
20.250445341109344 64.6256
20.27306209647285 63.7659
20.29567964993108 64.1428
20.31847471147704 65.0842
20.34109387027612 66.3169
20.363713830075454 67.4478
20.386334591841646 67.6374
20.409132890679302 66.0398
20.431755265564437 63.4538
20.454378445325528 60.2383
20.477002430930366 57.4612
20.499803982716553 55.4344
20.522429589228004 54.0204
20.54505600449589 53.3392
20.567683229489194 53.207
20.590488049900088 52.898999999999994
20.61311690359731 52.7884
20.63574656993626 52.5255
20.658553853717297 52.3262
20.681185154618298 52.2408
20.703817271080066 52.1783
20.72645020407368 51.7883
20.749260783967177 51.6456
20.771895359337133 51.6717
20.794530754161617 51.5549
20.817166969412938 51.4944
20.83998086114876 51.4711
20.86261872660049 51.4243
20.885257415405402 51.2365
20.90789692853701 51.1675
20.930714147864748 51.2322
20.953355319030678 51.3872
20.97599731745334 51.5896
20.99864014410749 51.6136
21.021460706796564 51.507
21.044105199328826 51.6504
21.06675052302631 51.6654
21.089396678865015 51.766999999999996
21.112220600704806 51.8206
21.134868430275347 52.0329
21.15751709492456 52.1026
21.180166595629693 52.2448
21.202993892429635 52.6716
21.22564507473034 53.1256
21.24829709602816 53.435
21.27112693608965 53.7088
21.293780644891275 54.0043
21.316435195634053 53.6404
21.339090589297417 53.3032
21.361923832041875 52.7313
21.384580921090404 51.8024
21.407238856007325 51.3108
21.429897637773326 51.2507
21.45273429906592 51.1387
21.475394784108598 51.1635
21.498056118951983 50.9084
21.520718304578022 51.1829
21.543558400304388 51.4866
21.566222297108816 51.7871
21.58888704765135 52.2541
21.61155265291521 52.8747
21.63439619898156 53.6413
21.657063523335786 53.7695
21.67973170537063 54.3033
21.7024007460706 54.5617
21.72524775840385 54.9625
21.747918526116475 55.6701
21.770590155457388 56.3802
21.79326264741238 57.3513
21.816113141960237 58.4497
21.838787368860547 59.8099
21.861462461341976 61.1146
21.884315579735777 62.79
21.90699241312273 64.6406
21.92967011506078 66.2547
21.95234868653799 67.2604
21.9752053151131 67.3145
21.997885635446785 66.0648
22.020566828293532 64.0445
22.04324889464272 61.5044
22.066109049404666 59.3103
22.088792872571794 58.0299
22.111477572219204 57.8502
22.1341631493376 57.8125
22.157026846313123 58.1151
22.179714188221507 58.1187
22.202402410582668 57.7872
22.22509151438863 56.5662
22.24795876962584 55.1713
22.270649646204486 53.9609
22.293341407213727 52.8565
22.316034053646906 52.0599
22.338904883215342 51.6854
22.36159931041458 51.5021
22.38429462602756 51.2959
22.40699083104897 51.0676
22.429865251039757 51.0322
22.452563244831367 51.1182
22.47526213102522 51.00899999999999
22.49813925616515 51.0259
22.520839937143307 51.1852
22.543541513520587 51.1929
22.56624398629403 51.1088
22.589124730075895 51.0872
22.611829005656723 51.4105
22.63453418063466 51.6124
22.657240256008077 52.135
22.680124634582935 52.438
22.70283252079775 52.7247
22.725541310413075 53.0908
22.74825100442868 52.961000000000006
22.771139033969575 53.3008
22.79385054687155 53.2344
22.81656296718292 53.5338
22.83927629590484 54.2284
22.862167992606945 54.721000000000004
22.88488314827121 55.3135
22.907599215359284 55.888000000000005
22.93031619487366 56.6894
22.953211574954405 57.5473
22.975930389478226 58.7371
22.998650119445763 59.6725
23.02137076586092 59.9103
23.044269845560063 59.7161
23.06699233506288 58.653999999999996
23.089715744034912 56.8503
23.112617610931565 55.0356
23.135342869061212 53.5647
23.158069049684816 52.4615
23.1807961538087 51.6692
23.20370174880544 51.5656
23.226430710184808 51.7159
23.249160598093425 52.0337
23.271891413539002 52.1554
23.294800752937697 52.3425
23.31753343374794 52.6756
23.340267045128353 52.7175
23.36300158808808 52.9276
23.38591468821339 52.8781
23.408651104658304 53.016000000000005
23.431388455719986 53.2358
23.454126742409 53.7533
23.4770436196085 54.113
23.499783787914662 55.0612
23.522524894889884 55.2607
23.54526694154616 55.9117
23.56818761219047 57.1269
23.59093154860734 58.1662
23.613676427751283 59.4032
23.636422250635754 59.7785
23.659346731118656 59.1361
23.68209445191868 57.9033
23.704843119509587 55.9944
23.72759273490623 53.8512
23.750521041644767 51.8182
23.77327256312355 50.218
23.796025035462787 49.2826
23.818956224555475 48.6665
23.841710609113413 48.4848
23.86446594758979 48.2469
23.887222241002014 48.013000000000005
23.910157285144578 47.6511
23.932915498962537 47.6196
23.955674670778713 47.4238
23.978434801611975 47.3115
24.001373717286125 47.0847
24.024135776723917 46.9553
24.046898798245582 46.8419
24.06966278287146 46.7049
24.092605586582614 46.5499
24.115371508023642 46.3696
24.1381383956401 46.1492
24.16090625045381 46.232
24.183852958731244 46.3153
24.206622758582608 46.0437
24.229393528706886 45.7554
24.252165270127392 46.012
24.27511589952438 46.0008
24.297889594216997 45.6223
24.32066426328598 45.5655
24.34343990775613 45.5323
24.36639447485003 45.2458
24.38917208083877 45.3284
24.41195066531332 45.2809
24.43490819850244 45.3714
24.457688750692377 45.3541
24.48047028445616 45.1625
24.503252800821233 45.1439
24.526214300784112 45.1865
24.548998793132213 45.0793
24.57178427117417 45.1243
24.59457073593893 45.1575
24.617536219319863 45.0531
24.64032466834748 45.1441
24.663114107195035 45.001000000000005
24.685904536893013 44.8406
24.708874020360852 44.8012
24.731666442613744 44.6597
24.754459858818787 44.5601
24.777254270007962 44.5531
24.80022777025625 44.5632
24.82302418230472 44.4969
24.845821592443674 44.5572
24.86862000170663 44.6188
24.891597535453727 44.287
24.914397953892728 44.7388
24.93719937456671 44.5429
24.96000179851076 44.5983
24.98298338249997 44.9065
25.00578782394922 45.2019
25.028593271784167 45.2525
25.05157790644186 45.3873
25.07438537804115 45.5162
25.097193859145293 45.6959
25.120003350792075 45.7069
25.142992065061257 46.0328
25.165803588823465 46.2526
25.18861612625217 46.496
25.211429678386736 46.7014
25.234422489079968 46.7455
25.257238081693636 46.6916
25.280054692141732 46.6974
25.3028723214652 46.3459
25.325869245420463 46.4873
25.348688923599397 46.558
25.371509623787006 46.713
25.394331347025812 46.7525
25.41733240110666 46.6013
25.440156181590016 46.1383
25.46298098826268 45.7663
25.48580682216873 45.1717
25.50881202326435 44.4755
25.53163992281684 43.8256
25.55446885274561 43.4737
25.577298814096377 43.1604
25.600308179121807 43.0035
25.623140214533745 42.9113
25.64597328451537 42.93899999999999
25.66898578564376 42.6587
25.691820936010206 42.6675
25.714657124097695 42.6794
25.737494350954734 42.724
25.760511045684957 42.551
25.783350361364224 42.7157
25.806190718969255 42.5844
25.82903211955018 42.72
25.852053024868923 42.7137
25.874896522722523 42.7969
25.897741066713106 42.588
25.920586657892454 42.7075
25.943611790812668 42.7476
25.966459487728237 42.8915
25.989308234998564 42.6933
26.01215803367705 43.088
26.03518741123814 43.2963
26.05803932412957 43.2066
26.080892291600094 43.2761
26.10374631470478 43.34
26.12677995397268 43.5857
26.14963609978026 43.7207
26.172493304397875 43.508
26.19535156888223 43.5384
26.218389486949604 43.0926
26.241249882640123 42.9217
26.26411134137826 42.7049
26.28715248187403 42.7301
26.31001607820869 42.388000000000005
26.3328807407756 42.2022
26.35574647063438 42.4381
26.37879191991473 42.1309
26.401659795896734 42.2663
26.424528742360263 42.3242
26.447398760366614 42.4813
26.470448535598294 42.5014
26.49332070826805 42.7317
26.516193955675355 42.8732
26.53906827888316 42.9545
26.562122397260108 42.9294
26.584998883685063 43.1776
26.607876449110325 43.316
26.63075509460056 43.6393
26.65381357334404 43.8871
26.67669439061878 44.0665
26.699576291163382 44.0131
26.722459276044212 43.9784
26.745522132402975 43.8166
26.768407297649354 43.7786
26.791293550442003 43.2005
26.814180891848974 43.0045
26.837248143099337 42.6587
26.860137673466657 42.4494
26.88302829566349 42.2064
26.90592001075963 42.2767
26.92899167420566 42.0263
26.951885586870763 41.6889
26.974780595655517 41.4771
26.99785558178161 41.2587
27.020752794605112 40.9943
27.043651106772522 40.9226
27.06655051935668 40.9684
27.089629948036183 40.7012
27.112531573292053 40.7319
27.135434302194138 40.8161
27.158338135817015 40.5344
27.181422024430987 40.5857
27.204328079372566 40.5649
27.22723524226965 40.5264
27.250143514198573 40.6191
27.273231880156334 40.5594
27.296142382065014 40.448
27.319053996245536 40.3237
27.341966723775965 40.3943
27.365059584515222 40.4653
27.38797455070062 40.4454
27.410890633481237 40.359
27.433807833936918 40.3127
27.456905206923906 40.2297
27.47982465472398 40.2788
27.502745223449743 40.3772
27.525666914182825 40.4426
27.548768816912457 40.4776
27.571692763693633 40.4597
27.59461783573812 40.4368
27.617723149491244 40.2417
27.640650484125285 40.1478
27.66357894728264 40.2546
27.686508540048052 40.1934
27.709618414237887 40.1021
27.732550278321757 39.8585
27.755483275279115 39.8697
27.778417406196485 40.0189
27.801531858397514 39.9571
27.824468269376716 39.8301
27.847405817586786 39.7503
27.870344504116094 39.8279
27.893463551932008 39.8269
27.916404527281053 40.0183
27.93934664422563 40.0068
27.962289903855886 40.0401
27.98541356491974 40.2737
28.00835912214229 40.2822
28.03130582533231 40.4157
28.054253675581805 40.5721
28.077381967556104 40.6771
28.100332124185126 40.6935
28.123283431160893 40.7583
28.146235889577238 40.5605
28.169368830154156 40.3527
28.192323603752033 40.2531
28.215279532083304 40.1106
28.238415973016764 39.9139
28.261374223145094 39.7543
28.284333631303806 39.5921
28.307294198589954 39.4011
28.330435319167677 39.1793
28.353398217078915 38.9524
28.376362277420153 38.6582
28.39932750129032 38.5708
28.422473319286713 38.2928
28.44544088262495 38.3561
28.468409612800283 38.1153
28.491379510913497 37.8523
28.51453004413313 37.7778
28.53750229057244 37.8119
28.56047570826344 37.6052
28.583450298308804 37.6427
28.606605564586562 37.503
28.629582511831156 37.4346
28.65256063474956 37.4157
28.675539934446338 37.3967
28.698699951647605 37.3537
28.72168161743193 37.2428
28.74466446331978 37.1478
28.767648490417624 37.1779
28.790813276438353 37.0607
28.813799678527303 37.1539
28.836787265157085 37.0813
28.859955641890075 37.0804
28.882945610203045 37.1096
28.905936766392035 36.9718
28.928929111566863 36.9831
28.952102288520145 36.9302
28.975097024308607 36.9286
28.998092952423807 36.8105
29.021090073977508 36.8146
29.04426806913204 36.6384
29.067267590245258 36.4555
29.090268308143695 36.3791
29.11327022394099 36.3845
29.13645305530891 36.2409
29.159457379627167 36.1818
29.18246290519685 35.9808
29.20546963313352 35.9632
29.22865731875826 36.0022
29.25166646419296 35.92
29.27467681535305 35.8375
29.29768837335608 35.9008
29.320880931312562 35.8393
29.34389491580634 35.8768
29.366910110507334 35.8166
29.38992651653503 35.845
29.41312396492981 35.7979
29.436142806456754 35.7349
29.45916286268059 35.5631
29.48236399319994 35.6759
29.50538649169417 35.5013
29.528410208259935 35.4485
29.55143514402014 35.2873
29.574641196749695 35.0558
29.597668583816574 35.1026
29.6206971934585 34.7837
29.64372702680042 34.8582
29.666938019934474 34.8062
29.689970313635285 34.5793
29.713003834422636 34.5781
29.73603858342347 34.559
29.759254535188578 34.4342
29.78229175361658 34.427
29.80533020365064 34.4952
29.82836988641968 34.509
29.85159081507472 34.4464
29.874632976355343 34.2064
29.89767637376955 34.4191
29.920721008448314 34.2386
29.9439469322847 34.282
29.96699405457564 34.1768
29.9900424175358 34.1766
30.013092022298157 34.0357
30.03632295963995 34.0638
30.059375061131373 34.0979
30.08242840783577 34.1405
30.105483000888153 34.1128
30.128718970092244 33.9981
30.151776069006917 33.931
30.17483441768648 33.9105
30.198074175317235 33.9718
30.221135036724256 34.0231
30.24419715131772 33.9201
30.267260520236203 33.8869
30.290505341942243 34.0263
30.313571232750228 34.036
30.336638381310948 33.9651
30.35970678876503 33.8751
30.38295669299435 33.7708
30.40602763151657 33.783
30.429099832366074 33.7336
30.452173296685572 33.6891
30.47542830191959 33.5557
30.498504306502497 33.5439
30.521581577995562 33.649
30.544660117543582 33.6373
30.56792024229725 33.621
30.59100133132069 33.5721
30.614083691845494 33.5772
30.637167325018545 33.6868
30.660432587840603 33.7145
30.683518779717886 33.626999999999995
30.70660624769615 33.775
30.729694992924372 33.6714
30.75296541239743 33.7435
30.77605672557558 33.8044
30.799149319462742 33.6934
30.8224236211637 33.546
30.845518789950724 33.4772
30.868615242910597 33.5473
30.891712981195973 33.2518
30.91499247215866 33.1238
30.938092794619365 33.2207
30.96119440587579 33.1592
30.984297307082752 32.9896
31.00758200598383 32.8933
31.030687500658694 32.7682
31.053794288760695 32.8058
31.076902371446767 32.6404
31.100192296997445 32.8533
31.12330298246119 32.71
31.14641496599209 32.4903
31.169528248749216 32.5169
31.19282341969534 32.463
31.215939314557186 32.5512
31.239056512134788 32.4944
31.262175013589378 32.5005
31.28547544871168 32.4133
31.30859657161541 32.3738
31.331719001892175 32.3298
31.35484274070538 32.4542
31.378148458819545 32.3515
31.401274828443725 32.42
31.424402510106933 32.3201
31.447712205419993 32.3025
31.470842524931633 32.2183
31.493974159989783 32.2272
31.51710711176168 32.204
31.54042212308802 32.336999999999996
31.563557722100917 32.2197
31.586694641341655 32.1718
31.609832881979628 32.0247
31.63315322823208 31.9592
31.656294125521327 31.9054
31.679436347728515 31.8948
31.70257989602529 31.807
31.725905596152327 31.8359
31.74905181052835 31.6064
31.772199354521323 31.7029
31.79534822930507 31.6179
31.818679302290967 31.6107
31.84183085259981 31.5537
31.864983737233473 31.5899
31.88813795736804 31.5624
31.911474422233013 31.3973
31.934631327356435 31.4434
31.9577895715215 31.4168
31.980949155906522 31.3745
32.004291031706956 31.4528
32.027453310562606 31.4228
32.05061693318573 31.2573
32.07396288236386 31.2718
32.09712920658542 31.2362
32.12029687812702 31.1177
32.14346589817093 30.9892
32.166817291729984 31.0996
32.18998902288583 30.9828
32.21316210610336 30.8475
32.23633654256711 30.6711
32.259693399663725 30.7592
32.282870556771144 30.6763
32.30604907069099 30.5686
32.329228942610065 30.4923
32.35259128243769 30.3737
32.375773884550505 30.366999999999997
32.398957848235646 30.331
32.422143174682176 30.2705
32.445511016471215 30.2404
32.468699082679954 30.1945
32.49188851523011 30.1246
32.51507931531304 29.9973
32.538452678331 30.0086
32.56164622776311 29.9252
32.58484114831493 29.881999999999998
32.60803744118015 29.9384
32.631416344731896 29.9556
32.654615396551876 29.7992
32.67781582427913 29.8835
32.701198898634416 29.7731
32.72440209253756 29.7895
32.747606665947124 29.6743
32.77081262006088 29.579
32.79420126883317 29.5897
32.81740999876112 29.548000000000002
32.840620112999424 29.5228
32.86383161274818 29.4139
32.88722585534586 29.375
32.91044014056596 29.4448
32.933655814909734 29.3945
32.95687287957963 29.37
32.98027273544904 29.3459
33.00349259526636 29.3098
33.026713849030116 29.2046
33.04993649794511 29.179000000000002
33.073341986570746 29.0941
33.09656744032826 29.0778
33.11979429286444 29.1165
33.14302254538647 29.1431
33.166433686291185 29.0608
33.18966475336992 28.9907
33.212897224069096 28.961
33.23613109959831 28.9341
33.259547912343415 28.965
33.2827846121627 28.8731
33.306022720453775 28.7691
33.32926223842861 28.7522
33.352684742614166 28.7747
33.37592709463173 28.7951
33.399170859982064 28.7449
33.422597648419426 28.7473
33.44584425514446 28.4765
33.46909227885668 28.4212
33.4923417207723 28.3452
33.51577423505344 28.4112
33.539026528130385 28.2122
33.56228024307245 28.2386
33.585535381098246 28.0923
33.60897364093058 28.0661
33.63223163992385 28.107
33.6554910656699 27.905
33.678751919389796 27.9719
33.702195944520106 27.8846
33.72545966903325 27.7742
33.74872482519663 27.8055
33.771991414233746 27.8685
33.79544122444841 27.8367
33.81871069412428 27.6824
33.84198160035767 27.5959
33.86525394437455 27.6594
33.88870955949969 27.6655
33.911984794020626 27.5949
33.93526147001624 27.504
33.958539588715006 27.4696
33.98200102861669 27.4804
34.0052820477047 27.3459
34.02856451319451 27.274
34.05203033759056 27.1997
34.07531571090147 27.3283
34.09860253431845 27.2347
34.121890809074316 27.1609
34.145362493118924 27.1267
34.16865368561615 27.1536
34.191946333164054 27.0717
34.21524043699793 27.0388
34.23871800066799 26.9701
34.26201503218366 26.9351
34.28531352370466 26.8683
34.30861347646881 26.7933
34.33209693978188 26.7138
34.3553998301885 26.712
34.378704185565205 26.6554
34.402010007152356 26.6557
34.42549939016683 26.6635
34.44880815937748 26.5188
34.472118398533134 26.4699
34.49543010887669 26.5125
34.51892543169198 26.3159
34.54224009966052 26.3675
34.56555624255917 26.3315
34.58887386163339 26.2411
34.61237514439016 26.2112
34.6356957311114 26.1869
34.65901779775809 26.1441
34.68252356662995 26.1398
34.705848608458616 26.0411
34.72917513396849 25.98
34.75250314440949 25.9635
34.77601490857862 25.9065
34.799345904259795 25.8658
34.82267838863559 25.8363
34.846012362958525 25.8248
34.869530142679984 25.8771
34.89286711232212 25.8275
34.91620557568269 25.7626
34.93954553401677 25.7769
34.9630693495876 25.6962
34.986412313340814 25.6693
35.00975677584668 25.6674
35.033102738362956 25.6553
35.05663261012228 25.5311
35.0799815881786 25.6137
35.10333207003229 25.5013
35.12668405694369 25.4504
35.150220005273056 25.5741
35.17357501786656 25.4923
35.19693153931268 25.3251
35.220289570874385 25.289
35.24383161619786 25.3075
35.267192683604904 25.3149
35.290555264930376 25.2579
35.314101899412165 25.2741
35.33746752422433 25.2204
35.36083466676374 25.2311
35.38420332829803 25.1051
35.407756095629054 25.1429
35.43112781085063 25.1061
35.45450104888391 25.0761
35.477875810999194 25.0693
35.50143473172161 25.0137
35.52481255774625 25.069000000000003
35.54819191167777 25.0271
35.57157279478914 24.9746
35.595137889488406 24.9049
35.61852184675279 24.8072
35.641907337029984 24.7612
35.665294361595684 24.7221
35.68886565090076 24.6883
35.7122557598848 24.6168
35.73564740699838 24.6018
35.759040593519934 24.5797
35.78261809810353 24.5101
35.80601437933051 24.445
35.829412203814705 24.4062
35.85281157283719 24.3154
35.876395313415884 24.391
35.8997977874528 24.3818
35.92320180988546 24.2817
35.946790244133936 24.2089
35.97019737933222 24.1714
35.993606066789866 24.1976
36.01701630779276 24.2417
36.04061101440684 24.0955
36.06402437852291 24.1391
36.08743930005611 24.0681
36.1108557802951 23.9416
36.13445678011326 24.0005
36.15787639383515 23.991
36.18129757014299 23.9312
36.20472031032821 23.8775
36.22832762423364 23.8469
36.25175350829375 23.809
36.275180960119776 23.7101
36.298609981005924 23.8269
36.32222362992669 23.7941
36.34565580510207 23.74
36.36908955323448 23.6537
36.39252487562093 23.537
36.416144880530226 23.535999999999998
36.43958336764275 23.4936
36.463023432914625 23.5167
36.486465077645676 23.3856
36.51009145956204 23.5046
36.53353627947859 23.4795
36.55698268276811 23.4671
36.58043067073321 23.3703
36.60406345072071 23.2894
36.62751462435344 23.2623
36.65096738658405 23.2479
36.67460498210655 23.2496
36.69806093788647 23.2578
36.72151848619297 23.1253
36.744977628333636 23.1649
36.76862165890998 23.0082
36.79208400512205 23.0706
36.81554794910557 23.0024
36.83901349217101 22.9052
36.862663978991606 22.8321
36.88613273667352 22.8303
36.90960309738324 22.7785
36.933075062434064 22.7551
36.95673202673572 22.8288
36.98020721697122 22.755
37.003684015502365 22.6431
37.027162423645365 22.6221
37.050825886711465 22.5817
37.07430753063053 22.5662
37.09779078812467 22.5651
37.121275660513014 22.5247
37.144945643673694 22.453000000000003
37.16843376245278 22.4241
37.19192350009803 22.5422
37.215414857931435 22.3782
37.239091382563885 22.246
37.262585997426164 22.2579
37.28608223645736 22.2896
37.309763684451696 22.238000000000003
37.33326318851098 22.0814
37.356764320726555 22.1151
37.380267082425526 22.1933
37.40395510942588 22.1749
37.42746114683234 21.9924
37.45096881771841 22.004
37.474478123414166 21.9451
37.49817275092816 21.9013
37.52168534303452 21.9133
37.54519957395567 21.8585
37.568715445024665 21.8298
37.592416694607714 21.7427
37.61593586281424 21.8125
37.63945667518264 21.7845
37.66297913304891 21.7075
37.68668702630454 21.7402
37.710212792059274 21.612
37.733740207334854 21.5598
37.757269273470364 21.524
37.780983832050374 21.5869
37.80451621684926 21.5218
37.82805025654007 21.484
37.851585952464795 21.4189
37.8753071980695 21.3656
37.89884622345676 21.3672
37.92238690911902 21.3424
37.94611318753442 21.3093
37.969657210779765 21.1885
37.99320289834801 21.224
38.016750251586465 21.1557
38.04048325513017 21.1041
38.06403395679343 21.0626
38.087586328183946 21.0585
38.11114037065203 21.0399
38.13488012115898 20.9767
38.1584375229181 20.9151
38.181996599821 20.908
38.205557353221124 20.8922
38.229303872575656 20.8178
38.2528679961576 20.8175
38.27643380031219 20.7824
38.30000128639589 20.7449
38.32375459653193 20.7006
38.34732546371299 20.7316
38.37089801690786 20.6783
38.39447225747609 20.6405
38.418232380377425 20.6058
38.441810012983396 20.5543
38.46538933705673 20.534000000000002
38.488970353960084 20.5414
38.51273731166058 20.5277
38.536321731567014 20.4636
38.55990784840681 20.4698
38.58367995004091 20.4287
38.60726947812959 20.3311
38.63086070726198 20.3179
38.654453638806274 20.3654
38.678232613930824 20.1972
38.70182896773327 20.1763
38.72542702806741 20.1904
38.7490267963045 20.1348
38.77281266709232 20.1158
38.79641586862214 20.0736
38.8200207821842 20.0373
38.843627409152944 20.057000000000002
38.86742019782782 19.9961
38.891030269149255 19.9174
38.914642058016156 19.9574
38.938255565806124 19.8867
38.96205529464307 19.8433
38.98567225787121 19.8819
39.00929094417078 19.8186
39.03291135492255 19.8106
39.05671804624804 19.7423
39.080341923549106 19.7292
39.103967529460334 19.7341
39.127594865365744 19.6336
39.15140854155791 19.596
39.17503935514948 19.5713
39.19867190290282 19.5213
39.22249083587951 19.5312
39.24612686969409 19.5245
39.269764641845306 19.4876
39.293404153722804 19.4462
39.317230110864074 19.3686
39.34087311998506 19.3582
39.36451787301696 19.3182
39.388164371352595 19.1955
39.41199737518003 19.2017
39.43564738196752 19.2378
39.45929913825317 19.2089
39.48295264543308 19.1693
39.506792718520884 19.2105
39.530449745387216 19.1833
39.55410852735203 19.0768
39.57776906581474 19.0618
39.60161623079 19.0288
39.625280300200025 19.039
39.64894613032202 18.8985
39.67261372255866 18.9567
39.6964680021016 18.9305
39.72013913657293 18.9255
39.74381203738292 18.8535
39.76748670593756 18.8538
39.79134812278169 18.7559
39.81502634488497 18.7391
39.83870633896685 18.6801
39.862388106436654 18.6752
39.88625668336918 18.6862
39.90994201572829 18.7324
39.933629125719285 18.6083
39.957503091207826 18.5937
39.9811937746168 18.6493
40.00488623990914 18.5979
40.02858048850006 18.4466
40.05246165409549 18.4566
40.076159487492085 18.4276
40.099859108448875 18.4562
40.123560518384345 18.397000000000002
40.1474489070226 18.3794
40.171153913178564 18.3014
40.194860712584955 18.3056
40.2185693066637 18.2744
40.242464941335314 18.1968
40.26617714307655 18.1689
40.289891143772046 18.2174
40.3136069448471 18.1907
40.33750984859743 18.1248
40.3612292688043 18.1307
40.3849504936829 18.1088
40.40867352466194 18.055999999999997
40.43258372059144 17.9583
40.45631038219906 18.0014
40.48003885420956 17.9499
40.503769138055105 17.9838
40.52768664931955 17.9519
40.55142057531802 17.9424
40.57515631746428 17.8735
40.599079334038514 17.7873
40.62281872700477 17.7209
40.64655994043941 17.7421
40.67030297578061 17.7701
40.69423334835778 17.7334
40.71798004609188 17.7242
40.74172857006355 17.6243
40.76547892171441 17.5992
40.7894166736039 17.6113
40.813170699248566 17.5281
40.83692655691388 17.5064
40.86068424804498 17.5253
40.884629402612525 17.51
40.908390779366385 17.5165
40.932153993938 17.4814
40.95591904777605 17.3755
40.979871628443995 17.4122
41.003640379561936 17.4219
41.02741097430883 17.297
41.05118341413683 17.2998
41.075143444384416 17.2665
41.098919593177826 17.313
41.1226975914255 17.2305
41.14647744058318 17.1698
41.170444943946755 17.1479
41.19422851378379 17.1337
41.218013938914645 17.0428
41.24198706625173 17.037
41.26577622087193 17.0033
41.289567235177785 16.9678
41.31336011063129 16.9482
41.337340752422875 16.8948
41.361137369129835 16.9047
41.38493585138705 16.8934
41.40873620066004 16.8598
41.43272438060107 16.7953
41.45652848292052 16.753
41.48033445666918 16.7379
41.50414230331616 16.7405
41.528138045159764 16.7351
41.551949656675205 16.629
41.575763145513235 16.6593
41.59957851314666 16.6012
41.62358184070442 16.5198
41.64740098505737 16.5321
41.6712220126409 16.5204
41.69504492493139 16.4652
41.71905586207357 16.4708
41.74288256296395 16.4513
41.766711153007456 16.413
41.79054163368412 16.3817
41.814560204340054 16.3387
41.838394485526365 16.3577
41.86223066180303 16.3264
41.88625497706819 16.3039
41.910094962812 16.264
41.93393684811168 16.2222
41.95778063445365 16.1888
41.981812625263366 16.1387
42.00566023303407 16.1535
42.029509746323676 16.1198
42.05336116662236 16.0731
42.077400857069705 16.0363
42.10125611078846 15.9965
42.12511327600405 16.0021
42.14897235421036 15.9535
42.173019768448455 15.9385
42.19688269209613 15.9016
42.22074753323349 15.8629
42.24461429335818 15.8738
42.268669455600495 15.8693
42.292540073217886 15.8253
42.31641261433284 15.7965
42.34028708044675 15.7624
42.36435001496739 15.7584
42.38822835065557 15.6984
42.41210861586426 15.7014
42.4359908120986 15.6944
42.46006154323262 15.6408
42.48394762115317 15.6136
42.507835634632315 15.5991
42.531912233047436 15.575999999999999
42.55580413732265 15.607000000000001
42.579697981698 15.530999999999999
42.60359376768525 15.4832
42.62767820545945 15.4753
42.65157789440821 15.4238
42.67547952952185 15.4123
42.699383112316 15.3407
42.72347541395347 15.308
42.74738291190531 15.3228
42.771292362102166 15.3378
42.795203766063516 15.2319
42.819303956130405 15.1715
42.843219287476536 15.1941
42.86713657716324 15.2157
42.89105582671383 15.1813
42.91516392983864 15.1659
42.939087119032166 15.118
42.963012272677304 15.104000000000001
42.98693939230129 15.0623
43.01105543317513 14.9906
43.034986504731386 14.9954
43.05891954686589 14.9704
43.08285456110972 14.9649
43.10697856448665 14.9602
43.130917542983475 14.9023
43.15485849820081 14.8478
43.17880143167367 14.8486
43.20293342237094 14.8388
43.226880332449 14.8445
43.25082922540554 14.8032
43.27496722682525 14.7121
43.29892010567796 14.7105
43.32287497204102 14.7048
43.34683182745632 14.6612
43.370977859791836 14.6641
43.39493871351105 14.6391
43.41890156092628 14.6673
43.44286640358341 14.5894
43.46702049182749 14.5446
43.49098934522816 14.5226
43.51496019852649 14.5173
43.5389330532723 14.4817
43.56309522248204 14.4749
43.58707210044314 14.4466
43.61105098451946 14.3669
43.63503187626491 14.3385
43.659202151562134 14.3063
43.68318707902681 14.3101
43.70717401884041 14.2582
43.731162972560874 14.2404
43.75534137913236 14.2846
43.779334381108384 14.210999999999999
43.803329401683186 14.2212
43.82732644241872 14.1888
43.8515130055166 14.2115
43.87551410707659 14.1067
43.89951723350145 14.1528
43.923709934595614 14.0959
43.94771713129917 14.0548
43.97172635758096 14.104000000000001
43.99573761501002 14.0647
44.0199385169922 14.01
44.04395385732619 13.9759
44.067971233533086 13.967
44.09199064718605 13.9343
44.11619977548961 13.9094
44.14022328470671 13.8504
44.16424883610785 13.8508
44.18827643127035 13.8457
44.21249381139513 13.799000000000001
44.236525514814076 13.7858
44.26055926674478 13.7654
44.28459506876863 13.7787
44.3088207262813 13.7051
44.33286064928722 13.6217
44.35690262714919 13.609000000000002
44.38094666145278 13.6058
44.4051806219871 13.6
44.42922879003185 13.5897
44.45327901929361 13.5312
44.477331311362136 13.5226
44.501573600619416 13.4757
44.525630039221795 13.4975
44.54968854541895 13.4542
44.573937102200176 13.4803
44.5979997645541 13.4419
44.622064499300315 13.3879
44.64613130803592 13.3285
44.67038823869318 13.369000000000002
44.69445921643748 13.3053
44.718532272981385 13.2558
44.742607409926194 13.2586
44.76687274034801 13.2427
44.79095205918753 13.1772
44.81503346325094 13.1809
44.839116954143876 13.1964
44.86339071028742 13.1918
44.88747839599524 13.162
44.91156817336837 13.0903
44.93566004401666 13.0946
44.959942251908146 13.0694
44.984038330325966 13.0288
45.00813650686762 13.0044
45.03223678314731 12.9587
45.05652746888232 12.918
45.08063196592069 12.9027
45.104738567558705 12.9045
45.128847275414856 12.8567
45.15314646515866 12.8402
45.17725940679741 12.870999999999999
45.20137445952892 12.8324
45.22568004865265 12.8173
45.24979934496396 12.7995
45.27392075725247 12.7909
45.29804428714431 12.7732
45.322358426247604 12.7407
45.346486212804315 12.6813
45.370616121861914 12.6948
45.39474815505086 12.6183
45.41907087049246 12.5981
45.4432071734666 12.5736
45.46734560548283 12.6131
45.49148616817604 12.5838
45.51581748638564 12.5248
45.5399623320197 12.5116
45.56410931325473 12.4824
45.58825843173002 12.4869
45.61259837920865 12.4996
45.636751793816 12.4765
45.66090735060093 12.4238
45.68506505120716 12.3592
45.7094136545275 12.3643
45.73357566449271 12.3758
45.75773982322992 12.3555
45.78190613238733 12.2869
45.806263418194064 12.2142
45.83043404997326 12.2649
45.85460683713677 12.2352
45.87897065658495 12.1919
45.90314777634752 12.2145
45.92732705646868 12.1566
45.9515084986045 12.1561
45.97588104735473 12.0855
46.00006683541565 12.127
46.02425479047904 12.1162
46.04844491420549 12.0722
46.0728262191024 12.0718
46.09702070211635 12.027000000000001
46.12121735879483 12.0478
46.14541619080294 11.9835
46.169806278764455 11.9995
46.194009483459034 11.9435
46.21821486849841 11.9006
46.24242243555223 11.8924
46.266821333570014 11.8663
46.29103328674601 11.8377
46.31524742696538 11.8237
46.33946375590237 11.776
46.36387149104216 11.7498
46.38809221957392 11.7242
46.41231514186606 11.7465
46.436540259597464 11.7213
46.460956858999374 11.6777
46.48518638983522 11.6781
46.509418121166966 11.652999999999999
46.533652054678114 11.6377
46.55807754555709 11.5918
46.58231590571962 11.599
46.60655647313217 11.5608
46.630988654873654 11.5255
46.655233659129024 11.4983
46.67948087571551 11.4945
46.70373030632484 11.4488
46.72817142736393 11.4745
46.752425308428684 11.4355
46.77668140861147 11.422
46.80093972960865 11.3755
46.82538981736788 11.3377
46.849652602470904 11.3403
46.87391761349769 11.3385
46.8981848521493 11.2903
46.9226439341274 11.2828
46.946915650573224 11.2793
46.97118959976749 11.2184
46.99546578341598 11.1967
47.019933887188216 11.2216
47.04421456235744 11.2096
47.06849747711879 11.1701
47.09278263318286 11.1124
47.11725978640143 11.1026
47.14154944775105 11.0834
47.165841355555656 11.0858
47.1901355115306 11.0387
47.214621741924994 11.0338
47.23892041698887 11.0432
47.26322134538975 10.9716
47.28771440635075 10.9329
47.31201986422527 10.9341
47.33632758061436 10.8869
47.360637557241866 10.8961
47.38513974410611 10.8529
47.40945426407847 10.8577
47.43377104948137 10.8105
47.45809010204344 10.8487
47.48260144275502 10.8523
47.506925052572285 10.8001
47.53125093475548 10.7594
47.55557909103813 10.7579
47.58009961361992 10.7102
47.60443234110732 10.7328
47.62876734791564 10.6693
47.65310463578333 10.6818
47.6776343683373 10.6775
47.7019762413987 10.6179
47.72632040075572 10.5663
47.75066684815169 10.5793
47.77520581885936 10.5659
47.799556865477655 10.5492
47.823910205386 10.5571
47.84826584033272 10.5407
47.87281407745551 10.4694
47.89717432569297 10.4637
47.92153687423484 10.4682
47.94609208429692 10.4552
47.97045925671401 10.4417
47.99482873471275 10.3825
48.01920052005013 10.370999999999999
48.04376504619224 10.3304
48.068141469543484 10.3597
48.09252020552573 10.3716
48.11690125590099 10.3075
48.1414751266064 10.305
48.16586082917454 10.3156
48.19024885144316 10.2781
48.2146391951793 10.2326
48.239222439012764 10.228
48.26361744916137 10.1938
48.28801478610016 10.2014
48.31241445160131 10.1782
48.337007097209366 10.1383
48.36141144338331 10.12
48.38581812345755 10.141
48.41022713920929 10.0817
48.434829215320704 10.0939
48.45924292604658 10.066
48.48365897780325 10.0531
48.50807737237308 10.0389
48.532688907799276 10.0393
48.55711201168574 9.998460000000001
48.581537463754074 9.970410000000001
48.60615611725119 9.976239999999999
48.63058628942721 9.926960000000001
48.65501881516546 9.92415
48.6794536962573 9.9234
48.70408185970339 9.87899
48.72852147531801 9.87369
48.75296345168211 9.85575
48.77740779059232 9.81807
48.80204549302823 9.8352
48.82649458091802 9.81812
48.85094603676547 9.755560000000001
48.87539986237231 9.74425
48.90004713292306 9.7134
48.92450572200832 9.722439999999999
48.94896668628025 9.67752
48.97343002754588 9.687510000000001
48.99808689542115 9.662239999999999
49.02255501470614 9.62173
49.04702551642794 9.632439999999999
49.0714984023988 9.63487
49.096164896893235 9.615680000000001
49.120642575466796 9.60713
49.145122643748394 9.54901
49.16960510355558 9.519810000000001
49.19428125404938 9.53753
49.2187685210852 9.51948
49.243258185121555 9.46241
49.26794160167084 9.43792
49.2924360839405 9.42828
49.31693296869764 9.40751
49.34143225776915 9.426630000000001
49.36612538195438 9.37577
49.39062950396021 9.36302
49.41513603578346 9.388110000000001
49.4396449792564 9.32129
49.46434784069503 9.32054
49.488861631846454 9.30822
49.513377840166804 9.305710000000001
49.537896467493745 9.283489999999999
49.56260909589029 9.241539999999999
49.587132585683285 9.250680000000001
49.611658500018365 9.19179
49.636186840738596 9.20117
49.66090926588511 9.166139999999999
49.685442483902584 9.14523
49.70997813385706 9.0822
49.734516217597076 9.106869999999999
49.75924846937352 9.08746
49.7837914452858 9.054910000000001
49.80833686055187 9.05665
49.83288471702571 9.07868
49.85762682540054 9.06146
49.882179588965734 8.99864
49.9067347993235 8.99032
49.93129245833333 8.98782
49.95604445336378 8.99381
49.98060703442832 8.95048
50.005172069746266 8.94137
50.02993150438364 8.89455
50.05450147301533 8.8881
50.07907390151433 8.86322
50.10364879174981 8.840710000000001
50.12841816587289 8.80508
50.1529980044635 8.82291
50.17758031042124 8.80768
50.20216508562089 8.804739999999999
50.22694442953363 8.767380000000001
50.25153416817468 8.73755
50.27612638170508 8.722430000000001
50.300721072005196 8.70331
50.325510416102105 8.68067
50.350110084975064 8.698830000000001
50.37471223628208 8.674489999999999
50.39931687190919 8.62013
50.424116246675766 8.63611
50.44872587605249 8.60591
50.47333799543065 8.63021
50.49795260670191 8.5923
50.52276204271512 8.547839999999999
50.54738166295838 8.54037
50.57200378079314 8.50941
50.596628398116835 8.50329
50.62144792604559 8.53381
50.646077567609396 8.53978
50.670709714377715 8.48005
50.69553683636198 8.4552
50.72017401885922 8.414710000000001
50.7448137122895 8.423
50.76945591856022 8.35769
50.79429318636823 8.39443
50.818940443716784 8.37486
50.84359021965163 8.370230000000001
50.868242516085964 8.322289999999999
50.893089960641895 8.31519
50.917747323549435 8.29154
50.94240721271973 8.31605
50.96706963007175 8.284139999999999
50.99192728239342 8.2782
51.01659478166073 8.24714
51.04126481489051 8.2705
51.06593738400761 8.241660000000001
51.090805275207074 8.196660000000001
51.11548294172845 8.1891
51.14016314993547 8.14078
51.164845901758845 8.12315
51.18972406304274 8.14419
51.21441192780656 8.09687
51.23910234200271 8.09597
51.2637953075678 8.11128
51.288683770237945 8.07405
51.31338186432707 8.01517
51.33808251561888 8.01477
51.362978729967345 7.99402
51.387684521509755 7.99587
51.41239287610203 7.97911
51.437103795691165 7.9523399999999995
51.46201036644977 7.89675
51.486726441956634 7.8799600000000005
51.51144508832545 7.8898399999999995
51.536166307509156 7.88045
51.56108326624387 7.89571
51.58580965706056 7.85273
51.61053862657523 7.8447
51.635270176746864 7.814189999999999
51.66019755512065 7.835780000000001
51.68493429268881 7.7956199999999995
51.70967361681515 7.81331
51.73441552946465 7.7671
51.759353359237934 7.76072
51.7841004750961 7.734939999999999
51.80885018539685 7.74815
51.833602492111254 7.70874
51.8585508051424 7.661460000000001
51.883308330926425 7.6721699999999995
51.90806845906181 7.66875
51.932831191525715 7.6147100000000005
51.95779001977161 7.583010000000001
51.98255798721516 7.58707
52.00732856494335 7.575710000000001
52.03229530577543 7.553719999999999
52.057071130455945 7.53636
52.081849571391054 7.485010000000001
52.106630630568695 7.51275
52.13160794279417 7.513780000000001
52.15639426492067 7.5299
52.18118321127822 7.51197
52.205974783860896 7.48716
52.23096269971011 7.433089999999999
52.255759551287994 7.409610000000001
52.280559035098186 7.3889
52.30536115314103 7.4041
52.33035970494467 7.37593
52.35516711807904 7.40298
52.37997717147198 7.35675
52.40478986713005 7.37397
52.42979908731974 7.30513
52.454617094216 7.30244
52.47943774942214 7.269139999999999
52.50426105495102 7.285889999999999
52.529280976059844 7.28719
52.554109609024096 7.223489999999999
52.57894089837482 7.215669999999999
52.60377484613117 7.22244
52.62880550079408 7.197769999999999
52.65364479223379 7.1895
52.67848674816189 7.148339999999999
52.70352547971946 7.183330000000001
52.72837279155837 7.1522
52.753222773982785 7.151039999999999
52.778075429022984 7.11569
52.80312495150885 7.1443
52.827982978797436 7.0863
52.85284368481815 7.06018
52.87770707160767 7.06553
52.90276741793998 7.02987
52.92763619336701 7.001530000000001
52.952507655698504 7.013489999999999
52.977381806977576 7.03935
53.00245301017842 6.99245
53.02733256653592 6.96745
53.052214817996074 6.957560000000001
53.077099766608484 6.950089999999999
53.102181859804446 6.94285
53.127072229988265 6.94955
53.15196530349892 6.92749
53.17686108239249 6.89422
53.20195409881522 6.87621
53.22685531582556 6.847510000000001
53.25175924441303 6.803839999999999
53.27666588664027 6.82113
53.30176985962693 6.77866
53.3266819565689 6.81553
53.35159677336455 6.80503
53.376514312083096 6.768660000000001
53.40162927507703 6.754569999999999
53.42655228516116 6.74016
53.45147802340193 6.687069999999999
53.47660125628886 6.703810000000001
53.50153247842639 6.71073
53.52646643496923 6.66118
53.55140312799818 6.65084
53.576537409691696 6.65152
53.60147960336152 6.64423
53.626424539786164 6.60182
53.65137222105307 6.60615
53.67651758529126 6.6211899999999995
53.70147078399681 6.59673
53.72642673383343 6.6140300000000005
53.75138543689533 6.59295
53.776541917524526 6.555280000000001
53.801506154876755 6.519
53.826473151763246 6.534590000000001
53.851442910284916 6.50924
53.87661054126026 6.47544
53.9015858509782 6.4566300000000005
53.92656392866066 6.43553
53.95154477641532 6.47086
53.976723591801296 6.43006
54.00171000771266 6.41781
54.02669920004598 6.39174
54.051691170915745 6.36379
54.076881204886796 6.3493699999999995
54.101878760928514 6.32875
54.12687910187696 6.3057099999999995
54.152077577768296 6.33322
54.1770835166946 6.30817
54.20209224691339 6.29404
54.22710377055121 6.29195
54.25231352511594 6.218319999999999
54.27733066384342 6.21204
54.30235060239643 6.18941
54.32737334290836 6.152340000000001
54.35259441062629 6.15005
54.377622783395324 6.12869
54.40265396455061 6.14786
54.42768795623251 6.0878
54.45292037169559 6.0622300000000005
54.477960012857906 6.08167
54.50300247099511 6.07063
54.52804774825457 6.03594
54.55329154616743 5.99958
54.57834249018678 5.99494
54.6033962597977 5.926130000000001
54.6284528571545 5.91106
54.653708072335164 5.87795
54.67877035378786 5.89291
54.70383546947698 5.869280000000001
54.72890342156389 5.8573900000000005
54.7541700889442 5.87119
54.77924374251975 5.83114
54.8043202390049 5.77656
54.82959552413022 5.76535
54.8546777351945 5.71623
54.87976279569621 5.67876
54.90485070780914 5.7027
54.930137506558005 5.68533
54.95523115074295 5.7206
54.98032765308844 5.6837
55.005427015775496 5.6547
55.03072536339621 5.6452599999999995
55.05583047570572 5.57075
55.080938454927676 5.58129
55.10604930325027 5.527
55.131359235107396 5.55624
55.15647585066083 5.44484
55.181595341907496 5.41625
55.20671771104285 5.43562
55.232039262617704 5.40465
55.25716741665048 5.35585
55.28229845518636 5.36461
55.30743238042802 5.32867
55.33276558731939 5.2560400000000005
55.357905315183636 5.2794300000000005
55.383047936390035 5.24509
55.40819345314859 5.2180800000000005
55.433538351073295 5.20945
55.458689688238415 5.19822
55.483843927614096 5.1279900000000005
55.509197623043605 5.14623
55.53435769621134 5.0981
55.55952067826466 5.1039699999999995
55.5846865714265 5.0885
55.61005202069737 5.08779
55.63522376553902 5.035419999999999
55.66039842818645 5.03711
55.68557601087004 5.03046
55.7109532500271 4.97963
55.73613670233794 4.96396
