TT I
1.2716486653135266 6.8575800000000005
1.2939594142134223 7.24729
1.3162702121660406 6.707510000000001
1.3385810600174564 6.721080000000001
1.3608919586137629 6.4301
1.383202908801069 6.2042
1.405513911425503 5.9208099999999995
1.4278249673332093 6.24619
1.4501343378461518 5.7997
1.4724455028545926 6.068309999999999
1.4947567236847858 6.0394
1.517068001182951 6.3897900000000005
1.5393793361953272 6.21064
1.5616907295681737 5.9862400000000004
1.5840021821477681 5.35418
1.60631369478041 5.45352
1.6286252683124185 5.60239
1.6509369035901333 5.00856
1.6732468618895553 5.0467900000000006
1.695558623192809 5.01894
1.7178704487808514 4.65925
1.7401823395001077 4.81825
1.7625012545597203 4.95211
1.7848028405262486 5.319459999999999
1.8071218901122095 4.59922
1.8294236121921872 4.50186
1.8517427996910911 4.58444
1.8740620574440425 4.59739
1.8963639900671978 4.88569
1.9186833908139995 4.92643
1.9409854680117449 4.87098
1.9633050151394713 4.85701
1.9856246367570705 4.92218
2.0079269371922672 4.5087
2.03024671027244 3.9923300000000004
2.0525491637446027 4.53448
2.074869091674931 4.4002099999999995
2.097171701569106 4.29016
2.1194917877373847 4.73594
2.141811954326636 4.65634
2.164114805233074 4.44589
2.186435135143035 5.67855
2.208738150935709 10.6827
2.231058647554722 20.7678
2.2533792288321184 16.3714
2.275682498336085 8.45289
2.298003251406138 6.19608
2.3203066942619714 5.64686
2.3426276225136022 5.7571900000000005
2.3649486396617507 6.11776
2.387252348930071 6.848260000000001
2.4095735463442893 6.0425
2.4318774374315884 6.3054
2.4541988185014043 7.35509
2.476502894794693 7.722339999999999
2.498824462909887 7.5047
2.521146125856138 7.48366
2.5434504863470337 7.78983
2.5657723414244717 7.95638
2.588076895590662 8.14742
2.610398946189713 7.875489999999999
2.6327210958598384 8.32118
2.6550259469304716 8.33647
2.6773482972090137 8.56226
2.6996533504259 8.79383
2.7219759047039602 9.64977
2.744298562293959 8.80076
2.7666039251246595 8.62155
2.7889267918020164 8.69588
2.8112323652516555 8.57554
2.833555444408179 8.07612
2.8558786311183852 8.50019
2.8781845268938557 9.03327
2.9005079311721484 8.97609
2.9228140460410397 9.1487
2.9451376712799635 9.65092
2.967444008632326 9.75756
2.9897678582247247 10.2356
3.0120918213106695 10.7384
3.0343984987899373 11.1349
3.0567226913198637 11.4518
3.079029599759726 11.6701
3.101354025127254 12.1619
3.123678568232338 13.0896
3.145985829517914 13.1261
3.16831061055229 13.7724
3.1906181112775593 14.5102
3.212943133635653 14.8037
3.2352682779763207 15.4779
3.2575761442691227 15.5258
3.2799015350264273 15.7097
3.302209649240067 16.2351
3.3245352898092655 16.7496
3.3468436553365257 17.3738
3.369169549113219 17.6393
3.3914955708171384 18.4982
3.413804319727358 18.7889
3.4361305997334863 19.0703
3.4584396084414553 19.7308
3.4807661501462652 19.9623
3.503092824025881 20.8501
3.5254022288463154 20.976999999999997
3.5477291695206588 21.2625
3.5700388426251948 22.3811
3.5923660534916446 23.6462
3.6146934007816114 34.6051
3.637003482731501 68.6858
3.6593311053109985 74.3586
3.681641464033634 46.3986
3.7039693653009733 28.6056
3.726297407241705 25.9323
3.7486081875460804 25.6176
3.7709365132734978 26.0962
3.793247578841633 26.3866
3.8155761917550093 26.62
3.8378875459837216 26.6242
3.8602164494827234 27.4105
3.882545499606844 28.4069
3.9048572932539183 28.6133
3.9271866390645718 29.0262
3.9494987298666713 29.7325
3.971828374764527 30.0767
3.9941581705403255 30.808000000000003
4.016470713506008 31.3242
4.038800813471445 31.8254
4.061113662089144 32.6146
4.0834440696459176 33.7375
4.105774632334751 33.4643
4.128087945865126 34.1328
4.150418821249301 34.7376
4.172732448931298 36.1286
4.195063640413578 38.0168
4.2173775856475215 40.9355
4.239709096631102 65.5307
4.262040768704612 177.386
4.284355196706267 232.02900000000002
4.306687193387355 152.735
4.329001947444346 68.4161
4.35133427213731 46.8363
4.373666762177566 43.8479
4.395982011761091 43.8481
4.418314834921175 44.9622
4.44063041906622 50.9052
4.4629635787515625 59.1059
4.4852969080429785 58.408
4.5076130004776225 52.2604
4.529946671403969 52.1372
4.552263106909177 53.5769
4.574597122877047 52.8569
4.596931312711224 52.6376
4.619248269273446 53.0002
4.6415828092605835 54.1854
4.663900117405352 54.9604
4.686235010953232 56.2412
4.708552674085913 57.3805
4.730887924602802 58.8224
4.753223354952695 60.5101
4.775541557023902 62.3652
4.797877349456786 65.0933
4.820195915032126 66.2641
4.842532072957498 66.5518
4.864868414979744 68.8135
4.88718753227192 72.2129
4.909524244902505 73.8732
4.931843734218147 74.6961
4.954180820867835 76.7189
4.976518095879839 79.406
4.998838149695359 81.7041
5.021175803844231 85.4222
5.043496238205739 89.1486
5.065834274903528 93.1088
5.088172504230693 97.005
5.1104935158799565 102.43799999999999
5.132832132875765 121.736
5.155153533596801 156.675
5.1774925416746225 182.204
5.199814334878411 300.637
5.2221537374521505 829.065
5.244493338631803 2603.51
5.266815727034316 7840.05
5.289155727832427 13411.1
5.311478517248165 8963.51
5.333818921080011 2766.67
5.356159527788849 512.307
5.3784829252032536 180.207
5.400823940070432 143.45600000000002
5.423147747031976 125.86399999999999
5.445489173474152 116.53399999999999
5.467830807066149 113.43299999999999
5.490155234831516 111.65100000000001
5.512497285125229 106.62899999999999
5.534822130975162 103.494
5.557164601388673 100.663
5.579489868738879 98.0098
5.601832762690846 96.4705
5.6241758697774475 95.7444
5.646501775867269 94.6933
5.668845311622074 93.4306
5.691171647754637 92.4976
5.713515615597765 91.5716
5.735859800852677 91.2383
5.758186788542988 90.9889
5.780531411018185 92.1802
5.802858837297399 92.103
5.825203900414495 92.001
5.8475491852224 92.82700000000001
5.869877275883075 93.7238
5.892223006467101 92.6878
5.914551544266608 92.0739
5.936897724049891 93.8243
5.959244129804903 98.1956
5.981573344815301 112.874
6.0039202049061 187.61700000000002
6.026249875609095 397.288
6.04859719346037 863.955
6.070927323278297 2179.14
6.093275102315365 4527.74
6.115623113320588 5174.66
6.137953938319995 3051.0
6.160302415650845 888.145
6.182633708324452 213.46099999999998
6.2049826554078376 106.78299999999999
6.227331838745022 88.6249
6.249663839443684 82.2952
6.27201349767565 79.72399999999999
6.294345974611799 83.8045
6.316696111167083 90.8362
6.339046488263839 86.5874
6.361379686074702 75.9785
6.383730546639482 70.4143
6.406064229255215 68.3796
6.428415576718203 68.5321
6.450749747566656 67.6533
6.47310158535871 65.5917
6.495453669698332 64.3479
6.517788579421056 63.6762
6.540141159237969 62.6382
6.562476565766648 62.413000000000004
6.5848296444934045 62.0052
6.607182974060425 61.82899999999999
6.6295191323281015 62.1798
6.651872965955752 64.2992
6.6742096296068985 83.088
6.6965639707294615 113.331
6.71891856698715 111.624
6.741255995248479 82.161
6.763611104154477 64.1441
6.785949046381137 59.2331
6.808304671371482 58.0016
6.8306605557940046 58.6312
6.852999275508618 57.7964
6.875355681171544 56.684
6.897694923437771 56.1454
6.92005185377892 55.6465
6.9423916220322655 55.6639
6.964749080490181 54.5846
6.987106804399774 54.8533
7.009447368180821 55.358000000000004
7.031805625367033 54.652
7.054146723727803 54.4401
7.076505517631004 54.0909
7.098864581288365 54.4335
7.121206488070854 54.3472
7.143566093607822 54.6962
7.165908543567245 55.1464
7.188268694426048 55.1201
7.2106291193438095 54.5086
7.232972390625943 55.6587
7.255333366030969 65.517
7.277677189091925 103.211
7.300038718428332 133.78
7.322400526130865 113.345
7.344745183422596 77.0491
7.367107550224791 59.0226
7.389452767901992 55.4972
7.411815697249891 54.5654
7.434161478756298 53.5786
7.456524974096713 53.5717
7.478888753837185 53.3956
7.501235387657368 53.3256
7.523599738562711 53.5071
7.545946944825532 54.1171
7.568311870344528 54.5382
7.5906770845765665 54.5207
7.613025156078678 55.6551
7.635390950099687 56.2684
7.657739602662809 55.6319
7.680105979923558 55.2184
7.702472650212829 55.9561
7.724822180948224 55.724
7.747189439655568 55.5676
7.769539560075357 55.3598
7.791907410653562 55.9159
7.81425812420825 55.8182
7.836626570110925 55.8387
7.858995315087906 56.9028
7.881346924933401 56.865
7.903716270417482 57.6743
7.926068482028405 57.8265
7.948438431475253 58.4321
7.9708086843180235 58.5846
7.993161805171116 59.7703
8.015532667162402 59.9719
8.037886398416653 60.75899999999999
8.060257873014221 61.4727
8.082629655331942 62.0736
8.104984308787587 62.8279
8.127356708900503 66.0043
8.149711981398308 70.8825
8.172085002766314 72.60300000000001
8.194458336181368 70.3961
8.216814543847752 68.1694
8.23918850371002 68.4486
8.26154533906492 69.1368
8.283919928836452 70.7107
8.306277395339652 71.5714
8.328652618483376 73.1672
8.351028159736202 75.0076
8.373386579575245 76.9891
8.395762759396959 78.6943
8.418121819038275 82.8186
8.440498640894003 92.4657
8.462875785192262 103.499
8.485235811156207 114.60600000000001
8.507613602688501 149.898
8.529974277114228 226.45
8.552352719347912 353.9
8.574731488360351 609.94
8.59709314210385 1181.38
8.619472567021075 1900.22
8.64183487789147 2198.1
8.664214962183097 1761.96
8.686577933647762 917.4060000000001
8.708958680784317 340.76
8.731339760774953 154.668
8.753703729764451 107.53399999999999
8.77608547780821 96.5592
8.798450116065078 93.6242
8.820832535634787 90.9326
8.843215292401656 89.8914
8.865580941199045 89.1315
8.887964374703538 88.7018
8.910330701447199 89.4885
8.932714815164482 90.3823
8.955099270424924 88.7723
8.977466620733543 85.9257
8.999851761421976 84.0387
9.022219798361645 83.0944
9.04460562795561 82.4984
9.066991803441677 82.1138
9.089360876979615 82.1587
9.111747746589993 81.7594
9.13411751544971 81.4434
9.156505082664324 80.7641
9.178875550323522 81.1467
9.20126381862328 80.6396
9.223652438908596 81.0653
9.246023961427412 81.1975
9.26841328802173 80.8396
9.290785518039224 80.7949
9.313175554425882 81.8667
9.335565947154315 82.695
9.357939245086508 82.9729
9.380330352834827 82.95200000000001
9.40270436697103 83.0043
9.425096193225055 82.9654
9.447488380180165 83.3891
9.469863475295412 83.4946
9.492256385987508 83.7004
9.514632206018318 84.0337
9.537025843935714 84.3818
9.559402392368193 85.3032
9.581796761000229 86.6745
9.604191496441521 88.3926
9.626569144158516 91.5133
9.648964615551032 94.4193
9.671343000390081 94.9367
9.693739211225699 93.4193
9.716135793237463 91.60700000000001
9.738515290448102 91.5174
9.760912617143402 92.7217
9.783292860202891 94.509
9.805690935076182 95.7215
9.828089385495742 96.6117
9.850470754023561 99.0884
9.872869957865444 104.42299999999999
9.89525208097539 115.462
9.917652041736662 123.648
9.940052382417589 124.411
9.962435644102392 133.025
9.984836746950979 164.545
10.007220771957746 221.607
10.029622640473708 317.51099999999997
10.052007432299963 501.50199999999995
10.074410069984072 805.607
10.096813093716005 1283.21
10.119199042482517 1771.94
10.141602840636468 1938.59
10.163989564971628 1528.75
10.186394141051062 833.316
10.208799107559706 362.963
10.231187001965623 176.609
10.253592751657669 122.12100000000001
10.275981430388155 110.07700000000001
10.298387966769793 108.945
10.320794897965431 110.59899999999999
10.343184759907361 108.929
10.36559248305461 104.667
10.387983138083852 101.771
10.410391656691655 104.274
10.432800574501677 113.931
10.455192425893369 128.256
10.47760214443012 153.43200000000002
10.499994797678786 199.2
10.522405320453982 281.45099999999996
10.54479877906917 407.37800000000004
10.567210109595656 528.769
10.5896218454736 572.5269999999999
10.612016518879773 490.939
10.634429067781074 330.316
10.656824555333241 189.46
10.679237920773568 118.01700000000001
10.701651695961992 93.7788
10.724048411481384 87.4523
10.746463008485165 84.7932
10.768860546937125 83.155
10.791275969274796 81.6642
10.81369180576079 80.7116
10.836090585366925 79.5025
10.858507252467449 78.9514
10.88090686379991 77.8335
10.903324365036394 77.2523
10.925724811614439 77.0057
10.948143150509463 77.6431
10.970561909719066 76.6525
10.992963615930844 75.9593
11.015383218085756 73.8744
11.037785768347074 72.5045
11.06020621697282 71.6389
11.082627090322113 71.2522
11.105030913430326 70.53699999999999
11.12745263854165 70.6398
11.149857314510728 72.9747
11.172279894912576 76.9106
11.194702904450653 77.1037
11.217108866490921 73.9045
11.239532736615194 71.1684
11.26193956033512 69.5264
11.284364294577085 68.2901
11.306789462371718 67.0851
11.329197585398376 65.8823
11.351623622610898 65.825
11.37403261614354 64.9542
11.396459526308487 64.9198
11.418869393879497 64.8148
11.441297180532617 64.2754
11.463725406927658 63.8549
11.486136592353875 63.7445
11.508565700543707 64.1607
11.530977768845315 65.4912
11.553407762368774 65.8328
11.575838200059769 65.4062
11.598251599479612 63.8138
11.620682927815501 62.7349
11.64309721895548 62.4909
11.665529441478206 62.0162
11.687962112597958 61.6549
11.710377748130886 61.9546
11.732811318753434 61.7327
11.755227854859067 61.744
11.777662328529495 61.7905
11.800079768750786 61.4537
11.822515149015453 61.4768
11.844950984084935 61.6551
11.867369787303163 61.6039
11.889806534289491 61.1922
11.912226250487029 61.6371
11.934663912939751 61.7438
11.9571020346363 62.0191
11.979523127133968 61.9491
12.001962169624331 62.5961
12.024384183972964 63.4151
12.046824150809913 66.0079
12.069264581333726 70.8679
12.091687985297767 76.3413
12.11412934550045 85.7727
12.136553680195208 100.98
12.158995973632788 126.962
12.181438735204349 156.741
12.20386447284199 186.23
12.226308172985636 203.545
12.24873485024193 194.243
12.271179492516982 157.57
12.293607112949127 119.344
12.316052700916226 91.9122
12.338498763250042 74.4063
12.360927805303868 67.4276
12.383374818673879 64.3863
12.405804812803074 63.1655
12.428252780773262 63.1692
12.45070122756722 63.3396
12.473132656675375 63.3771
12.49558206341869 63.3858
12.518014453510101 63.5202
12.540464823770117 63.7232
12.562915677315177 63.6885
12.58534951575545 64.4677
12.607801338171472 65.8398
12.630236146511358 69.6464
12.652688941369085 72.9101
12.675124723177234 72.8097
12.697578494048786 70.3651
12.720032754458185 67.6088
12.742470003354093 66.678
12.764925245138771 66.6169
12.787363476431278 66.8681
12.809819703166806 67.1798
12.83227642391173 67.9672
12.854716135692716 68.773
12.877173846755147 69.7551
12.899614549869717 69.8387
12.9220732548287 70.7033
12.94453245827299 71.0648
12.966974655289818 72.0945
12.989434858002571 72.9034
13.011878055298721 73.5401
13.034339260862497 74.5844
13.056800969391883 75.6938
13.079245674017244 77.7761
13.101708390774869 79.6804
13.12415410463411 85.9645
13.146617833206086 95.8097
13.169064559883248 106.26700000000001
13.191529303857127 121.191
13.213994557076367 143.65200000000002
13.236442809902437 182.25400000000002
13.258909083908291 240.957
13.28135835851934 310.86400000000003
13.30382565690295 383.74800000000005
13.326293469022952 428.50199999999995
13.348744283242008 418.61199999999997
13.371213125129904 348.33099999999996
13.39366497011003 245.463
13.416134845360597 164.56400000000002
13.438605238843131 118.601
13.46105863690397 102.195
13.483530069144786 101.494
13.505984506951902 106.08200000000001
13.528456981549432 115.556
13.550929978879088 130.826
13.573385983253365 154.548
13.595860028340867 197.861
13.618317081455832 255.418
13.64079217790333 314.062
13.663250283359057 361.13599999999997
13.685726434770173 372.851
13.708203115221277 323.432
13.730662806148091 248.41
13.75314054697177 176.766
13.775601299246777 123.165
13.798080104050406 94.7842
13.820559442405358 83.9293
13.843021793671388 80.1169
13.865502201420897 78.6707
13.887965623051947 78.1121
13.910447103807167 77.2466
13.932929122629764 75.9859
13.955394156785959 75.5056
13.977877254034569 74.8269
14.000343367582113 73.8386
14.022827546871707 73.0608
14.045294743423524 72.3394
14.06778000837062 71.6355
14.090265817715476 71.6673
14.112734645763819 71.5259
14.13522154619454 71.0694
14.157691466286913 70.9441
14.180179461423874 70.8376
14.202668005486178 69.9649
14.22513957064374 69.4136
14.247629214846473 69.1835
14.270101881097517 69.0511
14.29259262906496 69.1444
14.315083930490205 69.5699
14.337558255389705 69.571
14.360050666019726 69.5847
14.382526101071944 68.9491
14.405019624534942 68.0258
14.427513705993134 67.6052
14.449990813291825 67.66
14.47248601302899 67.5014
14.49496423954951 67.7492
14.517460561197822 67.5547
14.539939910570322 67.4866
14.562437357763558 67.8554
14.58493536931253 68.6809
14.607416409993311 69.2736
14.62991555254159 69.8974
14.652397725157423 69.7632
14.674898002342799 69.4189
14.697398848433282 69.1721
14.719882725991326 69.8005
14.74238471217934 70.6968
14.764869730765593 73.2354
14.787372860692983 76.4965
14.809876564079925 80.734
14.83236330125751 86.0729
14.854868153850365 94.4687
14.877356041159485 108.992
14.899862046604186 129.099
14.922351087688757 156.874
14.944858249632887 189.146
14.967365991421232 214.05700000000002
14.989856770231246 224.732
15.012365673994204 214.65400000000002
15.03485761569738 180.917
15.05736768508665 143.791
15.07987833888692 109.538
15.102372032001655 87.2387
15.124883856909658 75.1594
15.14737872204565 70.8456
15.169891721717274 69.1629
15.192405310371893 69.1063
15.214901940621196 69.2108
15.237416709527137 69.1008
15.259914520936249 69.0236
15.282430473753607 68.2994
15.304947020131227 67.161
15.327446610371178 66.4212
15.349964346154254 65.7255
15.372465126703139 65.7675
15.394984055556009 65.47
15.417486030076159 65.236
15.44000615566487 64.8514
15.462526881230803 64.6831
15.485030653812652 64.8536
15.507552581617434 64.888
15.530057557334603 64.8506
15.55258069104857 64.7463
15.575104429329837 64.8012
15.597611216864632 64.5178
15.620136166564563 64.5731
15.6426441664095 65.3064
15.665170331202765 67.4106
15.687697105158826 70.0524
15.710206930593545 73.1516
15.732734925158933 77.3632
15.755245972089478 83.4873
15.77777519094324 93.0823
15.800287463046663 107.27799999999999
15.822817909869592 127.36200000000001
15.84534897229804 150.953
15.867863089299354 174.926
15.890395385222186 190.96
15.912910736597423 192.78
15.935444269699861 178.94400000000002
15.957978423016485 149.17
15.980495633101265 117.76
16.003031029129367 92.2003
16.02554948280019 74.8605
16.048086125229432 66.1682
16.070623392487107 63.801
16.09314371869582 62.7447
16.11568223789321 61.7791
16.13820381691126 60.8478
16.160743591742527 60.0301
16.183283996022084 59.1667
16.205807461423195 58.4706
16.228349126881973 57.9051
16.25087385432698 57.5922
16.27341678466365 57.148
16.29594277784926 57.1129
16.31848697676433 57.3453
16.341031811604868 57.452
16.36355971058487 57.5538
16.3861058195587 57.0201
16.40863499352978 56.2784
16.431182380342005 55.4198
16.453730407713202 55.1724
16.476261501364792 54.8699
16.498810812136167 54.418
16.52134319004079 54.5521
16.54389378792203 54.5967
16.566445031001553 54.2044
16.588979342490088 54.1861
16.61153187824822 54.2251
16.634067483263312 54.0952
16.656621315414416 53.8988
16.679175797408888 53.6204
16.701713349928728 53.5392
16.72426913389191 53.6066
16.74680798922351 53.7637
16.76936507887444 53.6774
16.791905240734874 53.7489
16.814463639794468 53.7552
16.837022695210294 53.8728
16.859564824093756 54.1769
16.882125194503903 54.6268
16.904668639217885 55.1344
16.927230328348003 55.3085
16.949792678493612 55.1202
16.972338104193863 54.809
16.994901778652235 54.4151
17.017448529496576 54.4268
17.040013531998152 54.6765
17.06257920018044 55.2377
17.0851279459922 55.8963
17.107694947817667 56.7697
17.130245028099072 57.3311
17.15281336730298 58.7638
17.17536478578733 60.2534
17.19793446610687 62.556000000000004
17.220504818648422 65.8347
17.243058251703697 69.5497
17.265629950971032 74.8779
17.288184731571736 78.7817
17.310757781306908 82.8956
17.33333150794385 82.1522
17.355888317140174 79.7094
17.37846339986244 74.432
17.401021565958885 68.7794
17.42359800851343 63.8816
17.44617513265564 60.7545
17.468735341390783 58.9178
17.491261035594565 58.1414
17.51396340099364 57.7631
17.536490463869136 58.0287
17.559018209820174 58.0531
17.58154663977963 57.9947
17.604251766089718 58.2445
17.626781572227713 58.4504
17.64931206518155 58.6498
17.671843245885103 59.0622
17.69455114821572 59.4498
17.717083712612634 59.5848
17.739616967569667 59.7428
17.762150914021706 60.099
17.78486160749854 60.0992
17.807396945166804 60.7959
17.829932977143503 61.5516
17.85246970436452 62.7667
17.875183204129467 64.429
17.897721330097664 66.69
17.920260154126645 68.7052
17.942799677153296 71.5293
17.9655159983646 75.6084
17.988056927677544 81.2223
18.010598558807683 89.1141
18.033140892692916 99.7531
18.05586005052525 112.07600000000001
18.07840379824407 123.436
18.10094825154059 131.47799999999998
18.12366954819864 136.431
18.146215420998306 133.594
18.16876200220057 125.29899999999999
18.191309292745153 112.48
18.214033452627167 99.8333
18.236582170236648 89.5601
18.259131600016456 85.1711
18.281681742907335 85.7127
18.304408781233683 90.5742
18.32696035875955 96.0286
18.349512652227624 100.77
18.372065662579683 104.42
18.394795594587553 104.369
18.41735004715306 99.1371
18.43990521943684 92.6751
18.46246111238171 83.3021
18.485193953325208 74.7531
18.507751296070428 68.3161
18.530309362314178 64.3601
18.552868153000343 62.2916
18.57560391815056 61.0126
18.59816416623245 60.7361
18.620725141597372 60.2161
18.643286845190268 59.6281
18.666025549835414 59.3111
18.688588718427933 58.6246
18.711152618092243 58.4751
18.73389353884365 58.2668
18.75645890921984 57.9131
18.77902501351406 57.7101
18.801591852673102 57.6182
18.824335739722738 57.0218
18.846904057212626 56.977
18.8694731124168 56.4768
18.89204290628315 56.5522
18.914789774966803 56.3436
18.937361054791623 56.193000000000005
18.959933076131318 55.9059
18.982505839934877 55.9931
19.00525570560582 55.7117
19.027829963004184 55.7161
19.05040496572238 55.9718
19.072980714710468 55.812
19.095733592739563 55.9809
19.11831084296757 56.0864
19.140888842324735 56.6278
19.16346759176222 56.7639
19.18622349753803 57.4259
19.208803755869358 58.1976
19.231384767143577 59.4781
19.253966532312948 61.0347
19.276725481241822 63.0498
19.29930876296784 65.9205
19.3218928014549 68.9287
19.34465404436217 71.5818
19.36723960516257 73.813
19.389825925592426 74.2443
19.412413006605938 73.0945
19.43517731967805 69.5174
19.457765930683355 65.5083
19.48035530514408 61.3114
19.50294544401556 58.0205
19.525712842708348 55.5052
19.54830451925909 54.2079
19.570896963095727 53.2545
19.593490175174704 52.9918
19.616260674962184 52.8225
19.638855432416964 52.5426
19.661450960992624 52.7651
19.68404726164677 52.7693
19.706820878021247 52.2681
19.729418731756834 52.641000000000005
19.752017360452857 52.1004
19.77461676506804 52.3828
19.797393513540218 52.6451
19.819994478951667 52.8163
19.84259622316767 53.3934
19.8651987471481 53.8038
19.887978643247177 53.8615
19.91058273574792 54.3408
19.933187610901943 55.0853
19.955969879466828 56.3441
19.97857632894404 57.9064
20.00118356396599 59.7197
20.023791585494575 62.0707
20.046577028914875 64.6898
20.069186632506966 66.6193
20.091797025500632 68.0746
20.114408208858933 68.59899999999999
20.137196842715273 67.794
20.159809615886765 66.3884
20.18242318232135 64.0187
20.20503754298326 62.239
20.227829382875154 61.4317
20.250445341109344 61.6252
20.27306209647285 62.3222
20.29567964993108 63.8449
20.31847471147704 64.3222
20.34109387027612 64.88
20.363713830075454 64.15899999999999
20.386334591841646 62.3139
20.409132890679302 59.8045
20.431755265564437 57.1222
20.454378445325528 54.5567
20.477002430930366 52.6178
20.499803982716553 51.4983
20.522429589228004 50.5003
20.54505600449589 50.1055
20.567683229489194 49.8358
20.590488049900088 49.4999
20.61311690359731 49.4127
20.63574656993626 49.1864
20.658553853717297 48.6427
20.681185154618298 48.6319
20.703817271080066 48.6482
20.72645020407368 48.379
20.749260783967177 48.175
20.771895359337133 48.1551
20.794530754161617 48.068999999999996
20.817166969412938 47.998000000000005
20.83998086114876 47.882
20.86261872660049 47.8691
20.885257415405402 47.7531
20.90789692853701 47.6912
20.930714147864748 47.5394
20.953355319030678 47.7081
20.97599731745334 47.7573
20.99864014410749 47.7624
21.021460706796564 47.8544
21.044105199328826 48.1672
21.06675052302631 48.07899999999999
21.089396678865015 48.4068
21.112220600704806 48.482
21.134868430275347 49.0714
21.15751709492456 49.4747
21.180166595629693 49.6788
21.202993892429635 50.1278
21.22564507473034 50.5984
21.24829709602816 50.76
21.27112693608965 50.6444
21.293780644891275 50.5151
21.316435195634053 49.8279
21.339090589297417 49.1134
21.361923832041875 48.6158
21.384580921090404 47.9781
21.407238856007325 47.7665
21.429897637773326 47.5947
21.45273429906592 47.5371
21.475394784108598 47.4165
21.498056118951983 47.2964
21.520718304578022 47.6814
21.543558400304388 47.8867
21.566222297108816 47.9324
21.58888704765135 48.0342
21.61155265291521 48.2749
21.63439619898156 48.7901
21.657063523335786 48.9665
21.67973170537063 49.4894
21.7024007460706 49.9326
21.72524775840385 50.6143
21.747918526116475 51.5989
21.770590155457388 52.945
21.79326264741238 54.7081
21.816113141960237 56.5615
21.838787368860547 58.718
21.861462461341976 60.5356
21.884315579735777 62.1584
21.90699241312273 63.2006
21.92967011506078 63.3529
21.95234868653799 62.8847
21.9752053151131 61.7307
21.997885635446785 59.7414
22.020566828293532 58.207
22.04324889464272 56.8203
22.066109049404666 55.711000000000006
22.088792872571794 55.3901
22.111477572219204 55.2576
22.1341631493376 55.1242
22.157026846313123 54.7781
22.179714188221507 53.8425
22.202402410582668 52.9492
22.22509151438863 51.4903
22.24795876962584 50.4156
22.270649646204486 49.5513
22.293341407213727 48.7207
22.316034053646906 48.3682
22.338904883215342 48.1906
22.36159931041458 48.0459
22.38429462602756 48.1115
22.40699083104897 47.8483
22.429865251039757 47.8906
22.452563244831367 47.8796
22.47526213102522 47.9976
22.49813925616515 48.0139
22.520839937143307 47.6929
22.543541513520587 47.7105
22.56624398629403 47.5734
22.589124730075895 47.5586
22.611829005656723 47.7003
22.63453418063466 47.74
22.657240256008077 47.9284
22.680124634582935 48.1976
22.70283252079775 48.3125
22.725541310413075 48.6115
22.74825100442868 48.7628
22.771139033969575 49.2023
22.79385054687155 49.3476
22.81656296718292 50.1752
22.83927629590484 51.0436
22.862167992606945 52.1796
22.88488314827121 53.3335
22.907599215359284 54.5669
22.93031619487366 55.5954
22.953211574954405 56.2188
22.975930389478226 56.8908
22.998650119445763 56.7981
23.02137076586092 56.0958
23.044269845560063 54.6993
23.06699233506288 53.0162
23.089715744034912 51.4984
23.112617610931565 50.2538
23.135342869061212 49.0992
23.158069049684816 48.2022
23.1807961538087 47.9384
23.20370174880544 48.0573
23.226430710184808 47.9521
23.249160598093425 48.0327
23.271891413539002 48.0319
23.294800752937697 47.9921
23.31753343374794 48.0403
23.340267045128353 48.2268
23.36300158808808 48.5904
23.38591468821339 48.7553
23.408651104658304 49.3453
23.431388455719986 50.1446
23.454126742409 51.0345
23.4770436196085 52.0542
23.499783787914662 53.3473
23.522524894889884 54.4983
23.54526694154616 55.5831
23.56818761219047 56.3195
23.59093154860734 56.7845
23.613676427751283 56.8582
23.636422250635754 55.9463
23.659346731118656 54.2611
23.68209445191868 52.3852
23.704843119509587 50.1744
23.72759273490623 48.5362
23.750521041644767 47.3827
23.77327256312355 46.3564
23.796025035462787 45.8159
23.818956224555475 45.2524
23.841710609113413 45.2832
23.86446594758979 44.9731
23.887222241002014 44.5666
23.910157285144578 44.3158
23.932915498962537 44.541000000000004
23.955674670778713 44.2795
23.978434801611975 44.2405
24.001373717286125 44.005
24.024135776723917 43.9363
24.046898798245582 43.7834
24.06966278287146 43.7528
24.092605586582614 43.4896
24.115371508023642 43.5322
24.1381383956401 43.2328
24.16090625045381 43.207
24.183852958731244 43.1426
24.206622758582608 43.0582
24.229393528706886 42.869
24.252165270127392 42.8143
24.27511589952438 42.9386
24.297889594216997 42.74100000000001
24.32066426328598 42.6255
24.34343990775613 42.6166
24.36639447485003 42.4644
24.38917208083877 42.4836
24.41195066531332 42.4295
24.43490819850244 42.3657
24.457688750692377 42.2791
24.48047028445616 42.1966
24.503252800821233 42.3106
24.526214300784112 42.4231
24.548998793132213 42.3922
24.57178427117417 42.1509
24.59457073593893 42.2456
24.617536219319863 42.1607
24.64032466834748 42.2419
24.663114107195035 41.9611
24.685904536893013 41.7747
24.708874020360852 41.8228
24.731666442613744 41.8092
24.754459858818787 41.6138
24.777254270007962 41.4706
24.80022777025625 41.4244
24.82302418230472 41.5001
24.845821592443674 41.4286
24.86862000170663 41.3358
24.891597535453727 41.4282
24.914397953892728 41.5255
24.93719937456671 41.4766
24.96000179851076 41.7541
24.98298338249997 41.8492
25.00578782394922 41.9441
25.028593271784167 42.0695
25.05157790644186 42.4133
25.07438537804115 42.516999999999996
25.097193859145293 42.9243
25.120003350792075 43.1523
25.142992065061257 43.43600000000001
25.165803588823465 43.5121
25.18861612625217 43.8286
25.211429678386736 43.9508
25.234422489079968 44.0085
25.257238081693636 44.0788
25.280054692141732 44.1491
25.3028723214652 44.0951
25.325869245420463 44.2333
25.348688923599397 44.1939
25.371509623787006 44.0158
25.394331347025812 43.7909
25.41733240110666 43.3369
25.440156181590016 42.6076
25.46298098826268 42.059
25.48580682216873 41.7209
25.50881202326435 41.1728
25.53163992281684 40.8696
25.55446885274561 40.4745
25.577298814096377 40.1498
25.600308179121807 40.1972
25.623140214533745 40.1646
25.64597328451537 40.0313
25.66898578564376 39.8282
25.691820936010206 39.995
25.714657124097695 39.959
25.737494350954734 39.7676
25.760511045684957 39.6914
25.783350361364224 39.9246
25.806190718969255 39.8259
25.82903211955018 39.900999999999996
25.852053024868923 40.0082
25.874896522722523 39.9434
25.897741066713106 39.8195
25.920586657892454 40.0105
25.943611790812668 40.0192
25.966459487728237 40.2381
25.989308234998564 40.2721
26.01215803367705 40.6622
26.03518741123814 40.9166
26.05803932412957 41.0269
26.080892291600094 41.0275
26.10374631470478 40.9557
26.12677995397268 40.859
26.14963609978026 40.7802
26.172493304397875 40.6586
26.19535156888223 40.3077
26.218389486949604 39.9533
26.241249882640123 39.6845
26.26411134137826 39.617
26.28715248187403 39.5103
26.31001607820869 39.368
26.3328807407756 39.259
26.35574647063438 39.4092
26.37879191991473 39.3647
26.401659795896734 39.4216
26.424528742360263 39.5868
26.447398760366614 39.6895
26.470448535598294 39.8171
26.49332070826805 39.9766
26.516193955675355 40.3862
26.53906827888316 40.6556
26.562122397260108 40.6191
26.584998883685063 40.9671
26.607876449110325 41.2713
26.63075509460056 41.4294
26.65381357334404 41.5251
26.67669439061878 41.4517
26.699576291163382 41.4093
26.722459276044212 41.3022
26.745522132402975 40.9671
26.768407297649354 40.7959
26.791293550442003 40.4469
26.814180891848974 40.1287
26.837248143099337 39.7847
26.860137673466657 39.6796
26.88302829566349 39.4456
26.90592001075963 39.2572
26.92899167420566 39.1603
26.951885586870763 38.657
26.974780595655517 38.5543
26.99785558178161 38.4347
27.020752794605112 38.3913
27.043651106772522 38.2367
27.06655051935668 38.1377
27.089629948036183 38.0479
27.112531573292053 37.9272
27.135434302194138 38.0788
27.158338135817015 37.9702
27.181422024430987 38.0602
27.204328079372566 37.8724
27.22723524226965 37.8626
27.250143514198573 38.0138
27.273231880156334 37.8618
27.296142382065014 37.764
27.319053996245536 37.8319
27.341966723775965 37.8553
27.365059584515222 37.7818
27.38797455070062 37.8516
27.410890633481237 37.7465
27.433807833936918 37.8718
27.456905206923906 37.9431
27.47982465472398 37.9312
27.502745223449743 37.8706
27.525666914182825 38.043
27.548768816912457 38.010999999999996
27.571692763693633 37.8673
27.59461783573812 37.6928
27.617723149491244 37.5607
27.640650484125285 37.5515
27.66357894728264 37.4087
27.686508540048052 37.3709
27.709618414237887 37.3048
27.732550278321757 37.2392
27.755483275279115 37.2085
27.778417406196485 37.2844
27.801531858397514 37.2978
27.824468269376716 37.1797
27.847405817586786 37.1548
27.870344504116094 37.3492
27.893463551932008 37.3894
27.916404527281053 37.6014
27.93934664422563 37.7297
27.962289903855886 37.7866
27.98541356491974 38.0141
28.00835912214229 38.1152
28.03130582533231 38.3436
28.054253675581805 38.5081
28.077381967556104 38.2525
28.100332124185126 38.2721
28.123283431160893 38.135999999999996
28.146235889577238 38.2164
28.169368830154156 37.9538
28.192323603752033 37.9149
28.215279532083304 37.5541
28.238415973016764 37.3728
28.261374223145094 37.2044
28.284333631303806 36.9993
28.307294198589954 36.8748
28.330435319167677 36.48
28.353398217078915 36.1791
28.376362277420153 36.1496
28.39932750129032 36.0351
28.422473319286713 35.8823
28.44544088262495 35.7758
28.468409612800283 35.6498
28.491379510913497 35.3751
28.51453004413313 35.2565
28.53750229057244 35.3341
28.56047570826344 35.2319
28.583450298308804 35.2627
28.606605564586562 35.0842
28.629582511831156 35.007
28.65256063474956 34.9303
28.675539934446338 35.1467
28.698699951647605 35.0446
28.72168161743193 34.9497
28.74466446331978 34.9625
28.767648490417624 34.9453
28.790813276438353 34.7942
28.813799678527303 34.7846
28.836787265157085 34.8663
28.859955641890075 34.9517
28.882945610203045 34.7866
28.905936766392035 34.7391
28.928929111566863 34.7588
28.952102288520145 34.6272
28.975097024308607 34.5874
28.998092952423807 34.5008
29.021090073977508 34.3876
29.04426806913204 34.2417
29.067267590245258 34.1693
29.090268308143695 34.1089
29.11327022394099 33.9434
29.13645305530891 33.847
29.159457379627167 33.9033
29.18246290519685 33.8539
29.20546963313352 33.8913
29.22865731875826 33.7808
29.25166646419296 33.7699
29.27467681535305 33.5331
29.29768837335608 33.8132
29.320880931312562 33.7759
29.34389491580634 33.6553
29.366910110507334 33.5934
29.38992651653503 33.669000000000004
29.41312396492981 33.6901
29.436142806456754 33.5618
29.45916286268059 33.3112
29.48236399319994 33.4597
29.50538649169417 33.2769
29.528410208259935 33.2274
29.55143514402014 32.9431
29.574641196749695 32.8599
29.597668583816574 32.9132
29.6206971934585 32.5835
29.64372702680042 32.5944
29.666938019934474 32.4564
29.689970313635285 32.5305
29.713003834422636 32.493
29.73603858342347 32.2942
29.759254535188578 32.1821
29.78229175361658 32.2129
29.80533020365064 32.242
29.82836988641968 32.3633
29.85159081507472 32.2333
29.874632976355343 32.2569
29.89767637376955 32.2268
29.920721008448314 32.0614
29.9439469322847 32.0365
29.96699405457564 31.9731
29.9900424175358 32.0785
30.013092022298157 31.9704
30.03632295963995 31.9626
30.059375061131373 31.9886
30.08242840783577 31.9879
30.105483000888153 32.037
30.128718970092244 31.9714
30.151776069006917 31.8947
30.17483441768648 31.9369
30.198074175317235 31.8884
30.221135036724256 31.8478
30.24419715131772 31.7257
30.267260520236203 31.7693
30.290505341942243 31.8247
30.313571232750228 31.8798
30.336638381310948 31.8464
30.35970678876503 31.8436
30.38295669299435 31.6176
30.40602763151657 31.6201
30.429099832366074 31.648000000000003
30.452173296685572 31.5817
30.47542830191959 31.576
30.498504306502497 31.4441
30.521581577995562 31.6068
30.544660117543582 31.648000000000003
30.56792024229725 31.6842
30.59100133132069 31.6333
30.614083691845494 31.6637
30.637167325018545 31.6774
30.660432587840603 31.6074
30.683518779717886 31.6356
30.70660624769615 31.6709
30.729694992924372 31.6874
30.75296541239743 31.6803
30.77605672557558 31.6981
30.799149319462742 31.5552
30.8224236211637 31.4341
30.845518789950724 31.3653
30.868615242910597 31.3129
30.891712981195973 31.2349
30.91499247215866 31.0421
30.938092794619365 31.0578
30.96119440587579 30.9892
30.984297307082752 31.064
31.00758200598383 30.906999999999996
31.030687500658694 30.6836
31.053794288760695 30.6738
31.076902371446767 30.5645
31.100192296997445 30.5565
31.12330298246119 30.5599
31.14641496599209 30.4201
31.169528248749216 30.4902
31.19282341969534 30.3151
31.215939314557186 30.4123
31.239056512134788 30.4872
31.262175013589378 30.2566
31.28547544871168 30.369
31.30859657161541 30.3787
31.331719001892175 30.43
31.35484274070538 30.4447
31.378148458819545 30.3284
31.401274828443725 30.415
31.424402510106933 30.4143
31.447712205419993 30.4306
31.470842524931633 30.3422
31.493974159989783 30.3303
31.51710711176168 30.3568
31.54042212308802 30.3437
31.563557722100917 30.2183
31.586694641341655 30.0996
31.609832881979628 29.8828
31.63315322823208 29.8922
31.656294125521327 29.9122
31.679436347728515 29.8072
31.70257989602529 29.7231
31.725905596152327 29.7357
31.74905181052835 29.6425
31.772199354521323 29.6982
31.79534822930507 29.711
31.818679302290967 29.7683
31.84183085259981 29.6517
31.864983737233473 29.6266
31.88813795736804 29.6575
31.911474422233013 29.5475
31.934631327356435 29.6401
31.9577895715215 29.6053
31.980949155906522 29.5128
32.004291031706956 29.4638
32.027453310562606 29.4235
32.05061693318573 29.3162
32.07396288236386 29.284000000000002
32.09712920658542 29.2597
32.12029687812702 29.1514
32.14346589817093 29.06
32.166817291729984 29.0372
32.18998902288583 28.9303
32.21316210610336 28.843000000000004
32.23633654256711 28.785
32.259693399663725 28.7747
32.282870556771144 28.6524
32.30604907069099 28.6933
32.329228942610065 28.6839
32.35259128243769 28.4773
32.375773884550505 28.4492
32.398957848235646 28.4836
32.422143174682176 28.3722
32.445511016471215 28.2612
32.468699082679954 28.2691
32.49188851523011 28.2258
32.51507931531304 28.1181
32.538452678331 28.0833
32.56164622776311 28.0457
32.58484114831493 28.0026
32.60803744118015 27.9476
32.631416344731896 27.9961
32.654615396551876 27.9964
32.67781582427913 27.9735
32.701198898634416 27.8689
32.72440209253756 27.8021
32.747606665947124 27.7519
32.77081262006088 27.6517
32.79420126883317 27.718000000000004
32.81740999876112 27.668000000000003
32.840620112999424 27.5625
32.86383161274818 27.5067
32.88722585534586 27.4917
32.91044014056596 27.5365
32.933655814909734 27.5556
32.95687287957963 27.6175
32.98027273544904 27.4847
33.00349259526636 27.441999999999997
33.026713849030116 27.4422
33.04993649794511 27.421
33.073341986570746 27.3411
33.09656744032826 27.4125
33.11979429286444 27.3662
33.14302254538647 27.3258
33.166433686291185 27.2343
33.18966475336992 27.2409
33.212897224069096 27.1346
33.23613109959831 27.1612
33.259547912343415 27.1134
33.2827846121627 27.1554
33.306022720453775 27.0247
33.32926223842861 26.9534
33.352684742614166 27.0062
33.37592709463173 26.9765
33.399170859982064 26.8913
33.422597648419426 26.819000000000003
33.44584425514446 26.6804
33.46909227885668 26.5679
33.4923417207723 26.4738
33.51577423505344 26.6025
33.539026528130385 26.5115
33.56228024307245 26.548000000000002
33.585535381098246 26.2913
33.60897364093058 26.2976
33.63223163992385 26.2562
33.6554910656699 26.2519
33.678751919389796 26.1999
33.702195944520106 26.2251
33.72545966903325 26.1776
33.74872482519663 26.1224
33.771991414233746 26.1252
33.79544122444841 25.9812
33.81871069412428 25.9056
33.84198160035767 25.9938
33.86525394437455 25.9284
33.88870955949969 25.8274
33.911984794020626 25.8645
33.93526147001624 25.831999999999997
33.958539588715006 25.7478
33.98200102861669 25.6917
34.0052820477047 25.659000000000002
34.02856451319451 25.6485
34.05203033759056 25.614
34.07531571090147 25.6483
34.09860253431845 25.6297
34.121890809074316 25.4715
34.145362493118924 25.4619
34.16865368561615 25.305999999999997
34.191946333164054 25.3141
34.21524043699793 25.3009
34.23871800066799 25.305
34.26201503218366 25.2015
34.28531352370466 25.2241
34.30861347646881 25.1326
34.33209693978188 25.0693
34.3553998301885 25.1128
34.378704185565205 24.9758
34.402010007152356 24.9015
34.42549939016683 24.9463
34.44880815937748 24.9456
34.472118398533134 24.8959
34.49543010887669 24.855999999999998
34.51892543169198 24.7643
34.54224009966052 24.7792
34.56555624255917 24.7228
34.58887386163339 24.6977
34.61237514439016 24.6031
34.6356957311114 24.5554
34.65901779775809 24.5618
34.68252356662995 24.4762
34.705848608458616 24.4606
34.72917513396849 24.3708
34.75250314440949 24.3564
34.77601490857862 24.276
34.799345904259795 24.3158
34.82267838863559 24.2778
34.846012362958525 24.2404
34.869530142679984 24.2499
34.89286711232212 24.2268
34.91620557568269 24.2658
34.93954553401677 24.1873
34.9630693495876 24.0744
34.986412313340814 24.0542
35.00975677584668 24.1261
35.033102738362956 24.0302
35.05663261012228 23.9665
35.0799815881786 23.9595
35.10333207003229 23.9154
35.12668405694369 23.8921
35.150220005273056 23.8667
35.17357501786656 23.8538
35.19693153931268 23.8531
35.220289570874385 23.7493
35.24383161619786 23.7702
35.267192683604904 23.7293
35.290555264930376 23.689
35.314101899412165 23.6899
35.33746752422433 23.695999999999998
35.36083466676374 23.6648
35.38420332829803 23.6243
35.407756095629054 23.6289
35.43112781085063 23.5742
35.45450104888391 23.538
35.477875810999194 23.5482
35.50143473172161 23.4939
35.52481255774625 23.4346
35.54819191167777 23.3724
35.57157279478914 23.3861
35.595137889488406 23.3765
35.61852184675279 23.2781
35.641907337029984 23.2301
35.665294361595684 23.2097
35.68886565090076 23.1281
35.7122557598848 23.0959
35.73564740699838 23.2159
35.759040593519934 23.1251
35.78261809810353 22.9807
35.80601437933051 22.9732
35.829412203814705 22.9451
35.85281157283719 22.8383
35.876395313415884 22.9111
35.8997977874528 22.8035
35.92320180988546 22.8037
35.946790244133936 22.709
35.97019737933222 22.8287
35.993606066789866 22.7342
36.01701630779276 22.7579
36.04061101440684 22.6845
36.06402437852291 22.6343
36.08743930005611 22.6004
36.1108557802951 22.4646
36.13445678011326 22.4694
36.15787639383515 22.3823
36.18129757014299 22.406999999999996
36.20472031032821 22.3847
36.22832762423364 22.2919
36.25175350829375 22.3315
36.275180960119776 22.3053
36.298609981005924 22.2733
36.32222362992669 22.2301
36.34565580510207 22.2388
36.36908955323448 22.1538
36.39252487562093 22.0636
36.416144880530226 22.0727
36.43958336764275 22.0661
36.463023432914625 22.0939
36.486465077645676 22.026999999999997
36.51009145956204 22.0316
36.53353627947859 22.0616
36.55698268276811 21.9913
36.58043067073321 21.8266
36.60406345072071 21.8044
36.62751462435344 21.8223
36.65096738658405 21.8784
36.67460498210655 21.7069
36.69806093788647 21.7405
36.72151848619297 21.7497
36.744977628333636 21.6664
36.76862165890998 21.5753
36.79208400512205 21.6264
36.81554794910557 21.576999999999998
36.83901349217101 21.4618
36.862663978991606 21.4861
36.88613273667352 21.4037
36.90960309738324 21.384
36.933075062434064 21.4129
36.95673202673572 21.3473
36.98020721697122 21.305
37.003684015502365 21.284000000000002
37.027162423645365 21.2936
37.050825886711465 21.3055
37.07430753063053 21.191
37.09779078812467 21.1433
37.121275660513014 21.0895
37.144945643673694 21.0485
37.16843376245278 21.0355
37.19192350009803 21.0084
37.215414857931435 20.9766
37.239091382563885 20.8792
37.262585997426164 20.8867
37.28608223645736 20.8832
37.309763684451696 20.8128
37.33326318851098 20.7486
37.356764320726555 20.8238
37.380267082425526 20.8124
37.40395510942588 20.7439
37.42746114683234 20.7192
37.45096881771841 20.614
37.474478123414166 20.5869
37.49817275092816 20.5483
37.52168534303452 20.544
37.54519957395567 20.519000000000002
37.568715445024665 20.5093
37.592416694607714 20.472
37.61593586281424 20.515
37.63945667518264 20.4784
37.66297913304891 20.4209
37.68668702630454 20.3772
37.710212792059274 20.2701
37.733740207334854 20.2666
37.757269273470364 20.2486
37.780983832050374 20.2037
37.80451621684926 20.1964
37.82805025654007 20.0905
37.851585952464795 20.1003
37.8753071980695 20.0843
37.89884622345676 20.0156
37.92238690911902 20.0244
37.94611318753442 19.9318
37.969657210779765 19.9272
37.99320289834801 19.9684
38.016750251586465 19.9151
38.04048325513017 19.8398
38.06403395679343 19.813
38.087586328183946 19.7057
38.11114037065203 19.7925
38.13488012115898 19.8542
38.1584375229181 19.7153
38.181996599821 19.6503
38.205557353221124 19.6065
38.229303872575656 19.5825
38.2528679961576 19.5793
38.27643380031219 19.4736
38.30000128639589 19.4346
38.32375459653193 19.4461
38.34732546371299 19.4566
38.37089801690786 19.3805
38.39447225747609 19.2999
38.418232380377425 19.3664
38.441810012983396 19.314
38.46538933705673 19.3537
38.488970353960084 19.3293
38.51273731166058 19.2291
38.536321731567014 19.2107
38.55990784840681 19.0699
38.58367995004091 19.1525
38.60726947812959 19.0499
38.63086070726198 19.0993
38.654453638806274 19.0843
38.678232613930824 18.9897
38.70182896773327 19.0063
38.72542702806741 18.9471
38.7490267963045 18.9208
38.77281266709232 18.9135
38.79641586862214 18.8894
38.8200207821842 18.7748
38.843627409152944 18.8815
38.86742019782782 18.8549
38.891030269149255 18.6929
38.914642058016156 18.6367
38.938255565806124 18.6457
38.96205529464307 18.6647
38.98567225787121 18.6755
39.00929094417078 18.5418
39.03291135492255 18.576
39.05671804624804 18.6271
39.080341923549106 18.5007
39.103967529460334 18.4696
39.127594865365744 18.3756
39.15140854155791 18.3559
39.17503935514948 18.3729
39.19867190290282 18.3611
39.22249083587951 18.3433
39.24612686969409 18.3267
39.269764641845306 18.3084
39.293404153722804 18.2994
39.317230110864074 18.223
39.34087311998506 18.2395
39.36451787301696 18.1731
39.388164371352595 18.0401
39.41199737518003 18.0788
39.43564738196752 17.9972
39.45929913825317 17.9802
39.48295264543308 17.9805
39.506792718520884 17.9981
39.530449745387216 17.9922
39.55410852735203 17.9526
39.57776906581474 17.9256
39.60161623079 17.8707
39.625280300200025 17.8585
39.64894613032202 17.8414
39.67261372255866 17.7684
39.6964680021016 17.7745
39.72013913657293 17.7801
39.74381203738292 17.6679
39.76748670593756 17.6656
39.79134812278169 17.6791
39.81502634488497 17.6587
39.83870633896685 17.6002
39.862388106436654 17.5309
39.88625668336918 17.5271
39.90994201572829 17.5472
39.933629125719285 17.5007
39.957503091207826 17.5147
39.9811937746168 17.4763
40.00488623990914 17.4306
40.02858048850006 17.3799
40.05246165409549 17.3243
40.076159487492085 17.2232
40.099859108448875 17.2477
40.123560518384345 17.276
40.1474489070226 17.27
40.171153913178564 17.2395
40.194860712584955 17.192999999999998
40.2185693066637 17.1569
40.242464941335314 17.1072
40.26617714307655 17.0892
40.289891143772046 17.0647
40.3136069448471 17.0302
40.33750984859743 16.9979
40.3612292688043 16.953
40.3849504936829 16.8951
40.40867352466194 17.007
40.43258372059144 16.8958
40.45631038219906 16.8404
40.48003885420956 16.7989
40.503769138055105 16.8338
40.52768664931955 16.8711
40.55142057531802 16.8106
40.57515631746428 16.7681
40.599079334038514 16.724
40.62281872700477 16.6278
40.64655994043941 16.6806
40.67030297578061 16.6337
40.69423334835778 16.6202
40.71798004609188 16.6104
40.74172857006355 16.5831
40.76547892171441 16.5661
40.7894166736039 16.5194
40.813170699248566 16.4605
40.83692655691388 16.4728
40.86068424804498 16.455
40.884629402612525 16.3937
40.908390779366385 16.3813
40.932153993938 16.3906
40.95591904777605 16.2783
40.979871628443995 16.3192
41.003640379561936 16.2869
41.02741097430883 16.2575
41.05118341413683 16.2005
41.075143444384416 16.2145
41.098919593177826 16.1661
41.1226975914255 16.1497
41.14647744058318 16.1456
41.170444943946755 16.1302
41.19422851378379 16.0663
41.218013938914645 16.0626
41.24198706625173 16.0097
41.26577622087193 15.982999999999999
41.289567235177785 15.9454
41.31336011063129 15.8994
41.337340752422875 15.8598
41.361137369129835 15.850999999999999
41.38493585138705 15.8783
41.40873620066004 15.8353
41.43272438060107 15.7823
41.45652848292052 15.7956
41.48033445666918 15.6848
41.50414230331616 15.6638
41.528138045159764 15.7196
41.551949656675205 15.6772
41.575763145513235 15.639000000000001
41.59957851314666 15.6441
41.62358184070442 15.5745
41.64740098505737 15.501
41.6712220126409 15.5406
41.69504492493139 15.4917
41.71905586207357 15.4835
41.74288256296395 15.4719
41.766711153007456 15.4148
41.79054163368412 15.3681
41.814560204340054 15.3239
41.838394485526365 15.3827
41.86223066180303 15.3289
41.88625497706819 15.2922
41.910094962812 15.2665
41.93393684811168 15.3019
41.95778063445365 15.196
41.981812625263366 15.1439
42.00566023303407 15.1155
42.029509746323676 15.0966
42.05336116662236 15.1121
42.077400857069705 15.0972
42.10125611078846 15.0698
42.12511327600405 15.0601
42.14897235421036 15.0068
42.173019768448455 14.9529
42.19688269209613 14.9682
42.22074753323349 14.9691
42.24461429335818 14.9652
42.268669455600495 14.9287
42.292540073217886 14.8924
42.31641261433284 14.823
42.34028708044675 14.7796
42.36435001496739 14.7881
42.38822835065557 14.7999
42.41210861586426 14.7841
42.4359908120986 14.789000000000001
42.46006154323262 14.732000000000001
42.48394762115317 14.6974
42.507835634632315 14.682
42.531912233047436 14.6382
42.55580413732265 14.6419
42.579697981698 14.6016
42.60359376768525 14.5539
42.62767820545945 14.4989
42.65157789440821 14.4672
42.67547952952185 14.4944
42.699383112316 14.5456
42.72347541395347 14.3947
42.74738291190531 14.3714
42.771292362102166 14.432
42.795203766063516 14.3508
42.819303956130405 14.3693
42.843219287476536 14.3131
42.86713657716324 14.2831
42.89105582671383 14.2338
42.91516392983864 14.2881
42.939087119032166 14.2051
42.963012272677304 14.1326
42.98693939230129 14.1472
43.01105543317513 14.1308
43.034986504731386 14.1197
43.05891954686589 14.093
43.08285456110972 14.119000000000002
43.10697856448665 14.0468
43.130917542983475 14.0254
43.15485849820081 13.9923
43.17880143167367 13.9346
43.20293342237094 13.943
43.226880332449 13.8931
43.25082922540554 13.9032
43.27496722682525 13.8919
43.29892010567796 13.8608
43.32287497204102 13.8684
43.34683182745632 13.7992
43.370977859791836 13.7758
43.39493871351105 13.7648
43.41890156092628 13.770999999999999
43.44286640358341 13.7607
43.46702049182749 13.690999999999999
43.49098934522816 13.6149
43.51496019852649 13.6574
43.5389330532723 13.6458
43.56309522248204 13.5799
43.58707210044314 13.5651
43.61105098451946 13.5108
43.63503187626491 13.5014
43.659202151562134 13.4547
43.68318707902681 13.4512
43.70717401884041 13.475999999999999
43.731162972560874 13.4393
43.75534137913236 13.4018
43.779334381108384 13.3521
43.803329401683186 13.3419
43.82732644241872 13.2776
43.8515130055166 13.3071
43.87551410707659 13.2728
43.89951723350145 13.2776
43.923709934595614 13.2387
43.94771713129917 13.2372
43.97172635758096 13.1538
43.99573761501002 13.2059
44.0199385169922 13.1446
44.04395385732619 13.1366
44.067971233533086 13.132
44.09199064718605 13.0727
44.11619977548961 13.0147
44.14022328470671 13.029000000000002
44.16424883610785 13.0397
44.18827643127035 12.9687
44.21249381139513 13.0139
44.236525514814076 12.9287
44.26055926674478 12.8873
44.28459506876863 12.8987
44.3088207262813 12.8695
44.33286064928722 12.845
44.35690262714919 12.8306
44.38094666145278 12.8407
44.4051806219871 12.8039
44.42922879003185 12.7432
44.45327901929361 12.7753
44.477331311362136 12.7142
44.501573600619416 12.6373
44.525630039221795 12.6241
44.54968854541895 12.6623
44.573937102200176 12.594000000000001
44.5979997645541 12.6265
44.622064499300315 12.6142
44.64613130803592 12.5701
44.67038823869318 12.5439
44.69445921643748 12.4937
44.718532272981385 12.4312
44.742607409926194 12.4755
44.76687274034801 12.4229
44.79095205918753 12.3866
44.81503346325094 12.4481
44.839116954143876 12.4257
44.86339071028742 12.405999999999999
44.88747839599524 12.3135
44.91156817336837 12.3039
44.93566004401666 12.2747
44.959942251908146 12.2904
44.984038330325966 12.248
45.00813650686762 12.225999999999999
45.03223678314731 12.2303
45.05652746888232 12.2363
45.08063196592069 12.1625
45.104738567558705 12.1656
45.128847275414856 12.1137
45.15314646515866 12.0813
45.17725940679741 12.1204
45.20137445952892 12.0775
45.22568004865265 12.0256
45.24979934496396 12.0081
45.27392075725247 11.9876
45.29804428714431 11.9964
45.322358426247604 11.954
45.346486212804315 11.9113
45.370616121861914 11.9559
45.39474815505086 11.9214
45.41907087049246 11.8838
45.4432071734666 11.8683
45.46734560548283 11.8436
45.49148616817604 11.7735
45.51581748638564 11.7811
45.5399623320197 11.7344
45.56410931325473 11.7387
45.58825843173002 11.787
45.61259837920865 11.7196
45.636751793816 11.6904
45.66090735060093 11.6443
45.68506505120716 11.6479
45.7094136545275 11.5898
45.73357566449271 11.5495
45.75773982322992 11.5722
45.78190613238733 11.5631
45.806263418194064 11.495999999999999
45.83043404997326 11.5237
45.85460683713677 11.5133
45.87897065658495 11.5075
45.90314777634752 11.469000000000001
45.92732705646868 11.4288
45.9515084986045 11.398
45.97588104735473 11.4672
46.00006683541565 11.3617
46.02425479047904 11.3252
46.04844491420549 11.3611
46.0728262191024 11.3462
46.09702070211635 11.2767
46.12121735879483 11.2704
46.14541619080294 11.2521
46.169806278764455 11.2772
46.194009483459034 11.2219
46.21821486849841 11.1992
46.24242243555223 11.1447
46.266821333570014 11.1151
46.29103328674601 11.0948
46.31524742696538 11.105
46.33946375590237 11.128
46.36387149104216 11.0839
46.38809221957392 11.0621
46.41231514186606 11.0397
46.436540259597464 10.979000000000001
46.460956858999374 10.9782
46.48518638983522 10.9386
46.509418121166966 10.9112
46.533652054678114 10.9068
46.55807754555709 10.9142
46.58231590571962 10.9156
46.60655647313217 10.8604
46.630988654873654 10.8471
46.655233659129024 10.8421
46.67948087571551 10.8449
46.70373030632484 10.7997
46.72817142736393 10.8074
46.752425308428684 10.7489
46.77668140861147 10.7469
46.80093972960865 10.7219
46.82538981736788 10.6891
46.849652602470904 10.6569
46.87391761349769 10.6695
46.8981848521493 10.6371
46.9226439341274 10.6241
46.946915650573224 10.610999999999999
46.97118959976749 10.5782
46.99546578341598 10.5458
47.019933887188216 10.5166
47.04421456235744 10.51
47.06849747711879 10.5074
47.09278263318286 10.4692
47.11725978640143 10.4676
47.14154944775105 10.4144
47.165841355555656 10.4192
47.1901355115306 10.3737
47.214621741924994 10.4093
47.23892041698887 10.3998
47.26322134538975 10.3592
47.28771440635075 10.3089
47.31201986422527 10.3499
47.33632758061436 10.2455
47.360637557241866 10.236
47.38513974410611 10.2557
47.40945426407847 10.2161
47.43377104948137 10.2123
47.45809010204344 10.1958
47.48260144275502 10.1394
47.506925052572285 10.1291
47.53125093475548 10.1664
47.55557909103813 10.1248
47.58009961361992 10.0834
47.60443234110732 10.0951
47.62876734791564 10.0644
47.65310463578333 10.0686
47.6776343683373 10.062999999999999
47.7019762413987 9.99186
47.72632040075572 9.98505
47.75066684815169 9.98719
47.77520581885936 9.94496
47.799556865477655 9.95083
47.823910205386 9.92999
47.84826584033272 9.906989999999999
47.87281407745551 9.86282
47.89717432569297 9.864980000000001
47.92153687423484 9.85271
47.94609208429692 9.82255
47.97045925671401 9.79503
47.99482873471275 9.79867
48.01920052005013 9.77463
48.04376504619224 9.76267
48.068141469543484 9.75158
48.09252020552573 9.74624
48.11690125590099 9.73409
48.1414751266064 9.7049
48.16586082917454 9.69482
48.19024885144316 9.63195
48.2146391951793 9.64599
48.239222439012764 9.61219
48.26361744916137 9.59858
48.28801478610016 9.57174
48.31241445160131 9.56322
48.337007097209366 9.56719
48.36141144338331 9.555010000000001
48.38581812345755 9.52467
48.41022713920929 9.50328
48.434829215320704 9.48265
48.45924292604658 9.47514
48.48365897780325 9.48453
48.50807737237308 9.44488
48.532688907799276 9.41812
48.55711201168574 9.402660000000001
48.581537463754074 9.37693
48.60615611725119 9.3789
48.63058628942721 9.370510000000001
48.65501881516546 9.31858
48.6794536962573 9.29637
48.70408185970339 9.28583
48.72852147531801 9.2702
48.75296345168211 9.23596
48.77740779059232 9.21815
48.80204549302823 9.21369
48.82649458091802 9.2012
48.85094603676547 9.193439999999999
48.87539986237231 9.192
48.90004713292306 9.16809
48.92450572200832 9.1539
48.94896668628025 9.09785
48.97343002754588 9.08164
48.99808689542115 9.07103
49.02255501470614 9.06935
49.04702551642794 9.0611
49.0714984023988 9.055439999999999
49.096164896893235 9.00085
49.120642575466796 8.994639999999999
49.145122643748394 8.99287
49.16960510355558 8.95327
49.19428125404938 8.97003
49.2187685210852 8.9308
49.243258185121555 8.9127
49.26794160167084 8.900830000000001
49.2924360839405 8.87086
49.31693296869764 8.88602
49.34143225776915 8.87371
49.36612538195438 8.8243
49.39062950396021 8.826189999999999
49.41513603578346 8.78523
49.4396449792564 8.77789
49.46434784069503 8.78737
49.488861631846454 8.727739999999999
49.513377840166804 8.72471
49.537896467493745 8.707230000000001
49.56260909589029 8.67218
49.587132585683285 8.68195
49.611658500018365 8.66125
49.636186840738596 8.64507
49.66090926588511 8.60473
49.685442483902584 8.63391
49.70997813385706 8.61258
49.734516217597076 8.577
49.75924846937352 8.56274
49.7837914452858 8.53048
49.80833686055187 8.48888
49.83288471702571 8.52708
49.85762682540054 8.484910000000001
49.882179588965734 8.469669999999999
49.9067347993235 8.46904
49.93129245833333 8.433869999999999
49.95604445336378 8.41508
49.98060703442832 8.42348
50.005172069746266 8.35486
50.02993150438364 8.34515
50.05450147301533 8.35721
50.07907390151433 8.36385
50.10364879174981 8.33526
50.12841816587289 8.30034
50.1529980044635 8.26975
50.17758031042124 8.256039999999999
50.20216508562089 8.25918
50.22694442953363 8.24574
50.25153416817468 8.20831
50.27612638170508 8.21924
50.300721072005196 8.17709
50.325510416102105 8.16977
50.350110084975064 8.15235
50.37471223628208 8.15877
50.39931687190919 8.11261
50.424116246675766 8.11797
50.44872587605249 8.07197
50.47333799543065 8.06072
50.49795260670191 8.083089999999999
50.52276204271512 8.045010000000001
50.54738166295838 8.02308
50.57200378079314 8.036589999999999
50.596628398116835 8.0113
50.62144792604559 7.972460000000001
50.646077567609396 7.95804
50.670709714377715 7.990419999999999
50.69553683636198 7.99643
50.72017401885922 7.94658
50.7448137122895 7.914789999999999
50.76945591856022 7.934660000000001
50.79429318636823 7.900980000000001
50.818940443716784 7.89878
50.84359021965163 7.85049
50.868242516085964 7.84363
50.893089960641895 7.813689999999999
50.917747323549435 7.80859
50.94240721271973 7.80852
50.96706963007175 7.77262
50.99192728239342 7.73417
51.01659478166073 7.76863
51.04126481489051 7.74177
51.06593738400761 7.763610000000001
51.090805275207074 7.72567
51.11548294172845 7.6985600000000005
51.14016314993547 7.7044
51.164845901758845 7.6977899999999995
51.18972406304274 7.66057
51.21441192780656 7.629639999999999
51.23910234200271 7.604
51.2637953075678 7.560969999999999
51.288683770237945 7.58212
51.31338186432707 7.53072
51.33808251561888 7.5563199999999995
51.362978729967345 7.5462
51.387684521509755 7.544510000000001
51.41239287610203 7.54798
51.437103795691165 7.49222
51.46201036644977 7.437
51.486726441956634 7.45639
51.51144508832545 7.448289999999999
51.536166307509156 7.46824
51.56108326624387 7.383430000000001
51.58580965706056 7.38157
51.61053862657523 7.388730000000001
51.635270176746864 7.362
51.66019755512065 7.368460000000001
51.68493429268881 7.30427
51.70967361681515 7.28627
51.73441552946465 7.27792
51.759353359237934 7.2835399999999995
51.7841004750961 7.279910000000001
51.80885018539685 7.269019999999999
51.833602492111254 7.26045
51.8585508051424 7.2236899999999995
51.883308330926425 7.2203800000000005
51.90806845906181 7.200830000000001
51.932831191525715 7.17255
51.95779001977161 7.1405899999999995
51.98255798721516 7.11207
52.00732856494335 7.139069999999999
52.03229530577543 7.1654800000000005
52.057071130455945 7.1063
52.081849571391054 7.124230000000001
52.106630630568695 7.12372
52.13160794279417 7.057910000000001
52.15639426492067 7.0598399999999994
52.18118321127822 7.0369600000000005
52.205974783860896 7.04493
52.23096269971011 6.9651
52.255759551287994 6.99268
52.280559035098186 6.94705
52.30536115314103 6.933089999999999
52.33035970494467 6.94154
52.35516711807904 6.93819
52.37997717147198 6.934989999999999
52.40478986713005 6.93279
52.42979908731974 6.8754100000000005
52.454617094216 6.872260000000001
52.47943774942214 6.889289999999999
52.50426105495102 6.897469999999999
52.529280976059844 6.83022
52.554109609024096 6.8344
52.57894089837482 6.82516
52.60377484613117 6.81055
52.62880550079408 6.83666
52.65364479223379 6.7480899999999995
52.67848674816189 6.7620000000000005
52.70352547971946 6.74967
52.72837279155837 6.743189999999999
52.753222773982785 6.674580000000001
52.778075429022984 6.713539999999999
52.80312495150885 6.7015
52.827982978797436 6.644010000000001
52.85284368481815 6.65216
52.87770707160767 6.67848
52.90276741793998 6.65905
52.92763619336701 6.61412
52.952507655698504 6.57534
52.977381806977576 6.585610000000001
53.00245301017842 6.58908
53.02733256653592 6.59037
53.052214817996074 6.56312
53.077099766608484 6.55739
53.102181859804446 6.50098
53.127072229988265 6.5163199999999994
53.15196530349892 6.48982
53.17686108239249 6.47005
53.20195409881522 6.47731
53.22685531582556 6.4383
53.25175924441303 6.3992
53.27666588664027 6.43962
53.30176985962693 6.40873
53.3266819565689 6.3853599999999995
53.35159677336455 6.42035
53.376514312083096 6.355569999999999
53.40162927507703 6.35689
53.42655228516116 6.31412
53.45147802340193 6.33579
53.47660125628886 6.3017900000000004
53.50153247842639 6.32351
53.52646643496923 6.28901
53.55140312799818 6.26385
53.576537409691696 6.26936
53.60147960336152 6.22383
53.626424539786164 6.22295
53.65137222105307 6.19031
53.67651758529126 6.18693
53.70147078399681 6.17969
53.72642673383343 6.1546199999999995
53.75138543689533 6.1456599999999995
53.776541917524526 6.16369
53.801506154876755 6.1342300000000005
53.826473151763246 6.10048
53.851442910284916 6.11521
53.87661054126026 6.10922
53.9015858509782 6.0772
53.92656392866066 6.08326
53.95154477641532 6.07908
53.976723591801296 6.05358
54.00171000771266 6.0246900000000005
54.02669920004598 6.02902
54.051691170915745 6.00001
54.076881204886796 6.0018400000000005
54.101878760928514 5.96547
54.12687910187696 5.96965
54.152077577768296 5.96359
54.1770835166946 5.8929800000000006
54.20209224691339 5.89804
54.22710377055121 5.9196800000000005
54.25231352511594 5.92698
54.27733066384342 5.84501
54.30235060239643 5.85225
54.32737334290836 5.853219999999999
54.35259441062629 5.80276
54.377622783395324 5.83716
54.40265396455061 5.83244
54.42768795623251 5.73821
54.45292037169559 5.78351
54.477960012857906 5.67863
54.50300247099511 5.71375
54.52804774825457 5.68245
54.55329154616743 5.72244
54.57834249018678 5.639130000000001
54.6033962597977 5.60232
54.6284528571545 5.605919999999999
54.653708072335164 5.57532
54.67877035378786 5.58676
54.70383546947698 5.59417
54.72890342156389 5.6058900000000005
54.7541700889442 5.55577
54.77924374251975 5.53721
54.8043202390049 5.50296
54.82959552413022 5.46237
54.8546777351945 5.47117
54.87976279569621 5.42534
54.90485070780914 5.42108
54.930137506558005 5.359030000000001
54.95523115074295 5.34237
54.98032765308844 5.30048
55.005427015775496 5.33226
55.03072536339621 5.329
55.05583047570572 5.2836300000000005
55.080938454927676 5.2641800000000005
55.10604930325027 5.28733
55.131359235107396 5.28217
55.15647585066083 5.269419999999999
55.181595341907496 5.22055
55.20671771104285 5.19719
55.232039262617704 5.18233
55.25716741665048 5.12266
55.28229845518636 5.1351
55.30743238042802 5.06616
55.33276558731939 5.08306
55.357905315183636 5.10324
55.383047936390035 5.04534
55.40819345314859 4.96916
55.433538351073295 4.91885
55.458689688238415 4.9395
55.483843927614096 4.93842
55.509197623043605 4.92173
55.53435769621134 4.88236
55.55952067826466 4.83625
55.5846865714265 4.8417
55.61005202069737 4.855230000000001
55.63522376553902 4.86822
55.66039842818645 4.78014
55.68557601087004 4.786230000000001
55.7109532500271 4.73819
55.73613670233794 4.72035
