TT I
1.2716486653135266 7.20445
1.2939594142134223 6.9629
1.3162702121660406 6.94884
1.3385810600174564 6.607139999999999
1.3608919586137629 6.613360000000001
1.383202908801069 6.04472
1.405513911425503 5.87047
1.4278249673332093 5.94064
1.4501343378461518 6.149380000000001
1.4724455028545926 5.71253
1.4947567236847858 6.03026
1.517068001182951 6.64774
1.5393793361953272 5.821969999999999
1.5616907295681737 5.19836
1.5840021821477681 4.93459
1.60631369478041 4.99768
1.6286252683124185 4.737509999999999
1.6509369035901333 3.89555
1.6732468618895553 4.91465
1.695558623192809 4.44931
1.7178704487808514 4.71134
1.7401823395001077 4.53153
1.7625012545597203 4.76323
1.7848028405262486 4.760669999999999
1.8071218901122095 4.56504
1.8294236121921872 4.5149
1.8517427996910911 4.908580000000001
1.8740620574440425 4.7340599999999995
1.8963639900671978 4.67617
1.9186833908139995 4.6544
1.9409854680117449 5.12554
1.9633050151394713 5.26846
1.9856246367570705 4.37172
2.0079269371922672 4.65305
2.03024671027244 3.53531
2.0525491637446027 4.0594
2.074869091674931 4.80973
2.097171701569106 5.23211
2.1194917877373847 5.13406
2.141811954326636 4.7060699999999995
2.164114805233074 5.25025
2.186435135143035 6.0848
2.208738150935709 14.2946
2.231058647554722 30.4807
2.2533792288321184 24.3424
2.275682498336085 10.4461
2.298003251406138 6.02187
2.3203066942619714 5.75875
2.3426276225136022 5.86705
2.3649486396617507 6.08631
2.387252348930071 6.522819999999999
2.4095735463442893 6.54866
2.4318774374315884 6.75817
2.4541988185014043 7.36137
2.476502894794693 7.54945
2.498824462909887 6.979760000000001
2.521146125856138 6.86075
2.5434504863470337 8.20547
2.5657723414244717 8.74117
2.588076895590662 8.98933
2.610398946189713 8.75513
2.6327210958598384 8.74987
2.6550259469304716 8.47949
2.6773482972090137 8.663310000000001
2.6996533504259 8.67868
2.7219759047039602 8.298119999999999
2.744298562293959 8.15811
2.7666039251246595 9.042910000000001
2.7889267918020164 8.64392
2.8112323652516555 8.91124
2.833555444408179 9.203339999999999
2.8558786311183852 8.4794
2.8781845268938557 8.68919
2.9005079311721484 9.14552
2.9228140460410397 9.095260000000001
2.9451376712799635 9.345889999999999
2.967444008632326 9.70279
2.9897678582247247 10.0235
3.0120918213106695 10.4351
3.0343984987899373 10.5506
3.0567226913198637 10.9681
3.079029599759726 11.918
3.101354025127254 12.2943
3.123678568232338 13.4792
3.145985829517914 13.4883
3.16831061055229 13.927
3.1906181112775593 14.4125
3.212943133635653 15.1872
3.2352682779763207 15.5163
3.2575761442691227 15.7018
3.2799015350264273 16.0066
3.302209649240067 16.4562
3.3245352898092655 16.9012
3.3468436553365257 17.2066
3.369169549113219 17.7986
3.3914955708171384 18.7348
3.413804319727358 18.8241
3.4361305997334863 18.9858
3.4584396084414553 19.9134
3.4807661501462652 20.1497
3.503092824025881 20.8783
3.5254022288463154 20.8312
3.5477291695206588 21.6089
3.5700388426251948 22.1869
3.5923660534916446 24.0327
3.6146934007816114 39.6788
3.637003482731501 91.40700000000001
3.6593311053109985 103.26700000000001
3.681641464033634 59.1525
3.7039693653009733 30.7568
3.726297407241705 26.3025
3.7486081875460804 25.5096
3.7709365132734978 26.314
3.793247578841633 26.8003
3.8155761917550093 26.9196
3.8378875459837216 26.7041
3.8602164494827234 27.3493
3.882545499606844 28.3254
3.9048572932539183 28.8869
3.9271866390645718 29.0091
3.9494987298666713 29.7825
3.971828374764527 30.2248
3.9941581705403255 30.6617
4.016470713506008 30.9843
4.038800813471445 31.743000000000002
4.061113662089144 32.543
4.0834440696459176 33.2706
4.105774632334751 33.5288
4.128087945865126 34.7481
4.150418821249301 35.6332
4.172732448931298 36.8776
4.195063640413578 38.7771
4.2173775856475215 42.801
4.239709096631102 76.1209
4.262040768704612 251.135
4.284355196706267 338.593
4.306687193387355 221.292
4.329001947444346 84.0443
4.35133427213731 47.871
4.373666762177566 44.4056
4.395982011761091 44.2173
4.418314834921175 45.6717
4.44063041906622 53.4835
4.4629635787515625 65.6663
4.4852969080429785 64.9502
4.5076130004776225 53.8964
4.529946671403969 49.4737
4.552263106909177 49.4079
4.574597122877047 50.4887
4.596931312711224 51.3248
4.619248269273446 52.5508
4.6415828092605835 53.531000000000006
4.663900117405352 54.4934
4.686235010953232 56.3461
4.708552674085913 57.284
4.730887924602802 58.7307
4.753223354952695 60.0792
4.775541557023902 61.111999999999995
4.797877349456786 62.623000000000005
4.820195915032126 64.7999
4.842532072957498 66.1691
4.864868414979744 67.5254
4.88718753227192 69.8089
4.909524244902505 71.7087
4.931843734218147 73.4655
4.954180820867835 75.3995
4.976518095879839 78.4072
4.998838149695359 81.4984
5.021175803844231 84.5912
5.043496238205739 87.3163
5.065834274903528 91.4878
5.088172504230693 96.0072
5.1104935158799565 100.92
5.132832132875765 121.715
5.155153533596801 163.732
5.1774925416746225 191.547
5.199814334878411 274.99
5.2221537374521505 730.5189999999999
5.244493338631803 2324.0
5.266815727034316 7479.65
5.289155727832427 13353.8
5.311478517248165 9001.42
5.333818921080011 2785.61
5.356159527788849 512.615
5.3784829252032536 172.372
5.400823940070432 137.306
5.423147747031976 123.501
5.445489173474152 115.083
5.467830807066149 110.287
5.490155234831516 106.694
5.512497285125229 103.4
5.534822130975162 101.839
5.557164601388673 99.40100000000001
5.579489868738879 96.9849
5.601832762690846 96.3102
5.6241758697774475 95.8235
5.646501775867269 94.3994
5.668845311622074 93.2223
5.691171647754637 91.969
5.713515615597765 90.7611
5.735859800852677 90.1591
5.758186788542988 89.0653
5.780531411018185 89.0841
5.802858837297399 89.0437
5.825203900414495 88.6825
5.8475491852224 88.7616
5.869877275883075 89.2038
5.892223006467101 89.7556
5.914551544266608 90.2967
5.936897724049891 92.329
5.959244129804903 96.1839
5.981573344815301 107.654
6.0039202049061 168.06900000000002
6.026249875609095 353.785
6.04859719346037 793.595
6.070927323278297 2082.43
6.093275102315365 4572.95
6.115623113320588 5342.83
6.137953938319995 3182.74
6.160302415650845 922.748
6.182633708324452 214.987
6.2049826554078376 107.874
6.227331838745022 88.9665
6.249663839443684 82.8298
6.27201349767565 81.3415
6.294345974611799 88.1755
6.316696111167083 100.491
6.339046488263839 94.8964
6.361379686074702 79.2334
6.383730546639482 70.6544
6.406064229255215 67.9479
6.428415576718203 67.2634
6.450749747566656 66.0173
6.47310158535871 65.1766
6.495453669698332 64.3439
6.517788579421056 63.5949
6.540141159237969 62.726000000000006
6.562476565766648 62.3364
6.5848296444934045 62.1066
6.607182974060425 61.455
6.6295191323281015 61.9151
6.651872965955752 65.94
6.6742096296068985 93.5802
6.6965639707294615 143.435
6.71891856698715 143.679
6.741255995248479 96.6151
6.763611104154477 68.0455
6.785949046381137 59.8342
6.808304671371482 57.7845
6.8306605557940046 57.2727
6.852999275508618 56.3808
6.875355681171544 56.193000000000005
6.897694923437771 56.1168
6.92005185377892 56.0427
6.9423916220322655 55.6253
6.964749080490181 55.1565
6.987106804399774 55.0428
7.009447368180821 55.0487
7.031805625367033 54.943999999999996
7.054146723727803 54.6301
7.076505517631004 54.5571
7.098864581288365 54.6353
7.121206488070854 54.3067
7.143566093607822 54.5302
7.165908543567245 54.7808
7.188268694426048 54.711999999999996
7.2106291193438095 54.8855
7.232972390625943 56.57
7.255333366030969 70.5143
7.277677189091925 128.528
7.300038718428332 179.215
7.322400526130865 149.265
7.344745183422596 91.0561
7.367107550224791 61.9576
7.389452767901992 55.9375
7.411815697249891 54.424
7.434161478756298 53.7109
7.456524974096713 53.648999999999994
7.478888753837185 53.7544
7.501235387657368 53.8087
7.523599738562711 53.9575
7.545946944825532 54.457
7.568311870344528 54.2513
7.5906770845765665 54.7853
7.613025156078678 56.1346
7.635390950099687 57.3985
7.657739602662809 56.8002
7.680105979923558 55.3262
7.702472650212829 55.4486
7.724822180948224 55.1553
7.747189439655568 55.3368
7.769539560075357 55.1732
7.791907410653562 55.5001
7.81425812420825 55.543
7.836626570110925 56.0276
7.858995315087906 56.6774
7.881346924933401 56.6355
7.903716270417482 57.5097
7.926068482028405 57.888999999999996
7.948438431475253 58.1396
7.9708086843180235 58.8185
7.993161805171116 59.3186
8.015532667162402 59.8307
8.037886398416653 60.9536
8.060257873014221 61.2462
8.082629655331942 61.943999999999996
8.104984308787587 62.7903
8.127356708900503 66.1352
8.149711981398308 72.0316
8.172085002766314 74.5141
8.194458336181368 70.8433
8.216814543847752 68.3851
8.23918850371002 68.2048
8.26154533906492 68.9714
8.283919928836452 70.3484
8.306277395339652 71.2398
8.328652618483376 72.2233
8.351028159736202 74.1949
8.373386579575245 76.3915
8.395762759396959 78.0893
8.418121819038275 83.3824
8.440498640894003 96.4075
8.462875785192262 110.32600000000001
8.485235811156207 116.647
8.507613602688501 141.494
8.529974277114228 210.729
8.552352719347912 325.231
8.574731488360351 568.756
8.59709314210385 1123.27
8.619472567021075 1916.7
8.64183487789147 2284.81
8.664214962183097 1825.65
8.686577933647762 918.83
8.708958680784317 348.811
8.731339760774953 158.458
8.753703729764451 107.75399999999999
8.77608547780821 96.7667
8.798450116065078 93.3548
8.820832535634787 90.6029
8.843215292401656 89.1493
8.865580941199045 87.7939
8.887964374703538 86.8828
8.910330701447199 88.1426
8.932714815164482 91.1136
8.955099270424924 90.4877
8.977466620733543 86.84200000000001
8.999851761421976 83.5631
9.022219798361645 82.3672
9.04460562795561 82.1963
9.066991803441677 81.0093
9.089360876979615 81.1936
9.111747746589993 81.0809
9.13411751544971 80.5997
9.156505082664324 80.3122
9.178875550323522 80.5153
9.20126381862328 81.0207
9.223652438908596 81.482
9.246023961427412 80.9573
9.26841328802173 80.3699
9.290785518039224 80.1523
9.313175554425882 80.9085
9.335565947154315 80.9861
9.357939245086508 81.1249
9.380330352834827 81.3246
9.40270436697103 81.2706
9.425096193225055 81.2665
9.447488380180165 82.3243
9.469863475295412 82.7183
9.492256385987508 83.1085
9.514632206018318 83.3913
9.537025843935714 83.9902
9.559402392368193 84.8132
9.581796761000229 85.8356
9.604191496441521 86.6211
9.626569144158516 90.546
9.648964615551032 95.2993
9.671343000390081 96.9017
9.693739211225699 94.52799999999999
9.716135793237463 91.6559
9.738515290448102 91.5061
9.760912617143402 92.029
9.783292860202891 92.9958
9.805690935076182 94.2277
9.828089385495742 95.236
9.850470754023561 97.976
9.872869957865444 105.978
9.89525208097539 121.495
9.917652041736662 133.607
9.940052382417589 131.535
9.962435644102392 131.766
9.984836746950979 154.623
10.007220771957746 206.085
10.029622640473708 295.317
10.052007432299963 466.62300000000005
10.074410069984072 760.3710000000001
10.096813093716005 1260.63
10.119199042482517 1778.15
10.141602840636468 2007.63
10.163989564971628 1533.25
10.186394141051062 839.4939999999999
10.208799107559706 361.061
10.231187001965623 176.53599999999997
10.253592751657669 122.087
10.275981430388155 110.02799999999999
10.298387966769793 110.69200000000001
10.320794897965431 113.84299999999999
10.343184759907361 112.31200000000001
10.36559248305461 106.664
10.387983138083852 101.95299999999999
10.410391656691655 102.27600000000001
10.432800574501677 109.70100000000001
10.455192425893369 122.55799999999999
10.47760214443012 145.942
10.499994797678786 189.02200000000002
10.522405320453982 269.247
10.54479877906917 402.347
10.567210109595656 525.202
10.5896218454736 586.757
10.612016518879773 500.221
10.634429067781074 343.276
10.656824555333241 195.166
10.679237920773568 120.51100000000001
10.701651695961992 94.2517
10.724048411481384 87.5437
10.746463008485165 84.774
10.768860546937125 83.18
10.791275969274796 81.4616
10.81369180576079 80.4237
10.836090585366925 79.4808
10.858507252467449 78.3454
10.88090686379991 77.5765
10.903324365036394 77.0049
10.925724811614439 76.9277
10.948143150509463 78.2549
10.970561909719066 77.4829
10.992963615930844 75.6763
11.015383218085756 73.6017
11.037785768347074 72.0908
11.06020621697282 71.5816
11.082627090322113 71.0224
11.105030913430326 70.4508
11.12745263854165 71.2118
11.149857314510728 75.3614
11.172279894912576 81.5364
11.194702904450653 81.9868
11.217108866490921 77.6567
11.239532736615194 73.1402
11.26193956033512 70.9467
11.284364294577085 69.4019
11.306789462371718 67.5754
11.329197585398376 66.1927
11.351623622610898 65.6318
11.37403261614354 64.89699999999999
11.396459526308487 64.7751
11.418869393879497 64.2842
11.441297180532617 64.0025
11.463725406927658 63.7856
11.486136592353875 63.7044
11.508565700543707 64.3257
11.530977768845315 66.29
11.553407762368774 67.1822
11.575838200059769 66.4003
11.598251599479612 64.7173
11.620682927815501 63.1264
11.64309721895548 62.6759
11.665529441478206 61.9761
11.687962112597958 61.6057
11.710377748130886 61.9784
11.732811318753434 61.8045
11.755227854859067 61.7563
11.777662328529495 62.06
11.800079768750786 61.6941
11.822515149015453 61.2667
11.844950984084935 61.5743
11.867369787303163 61.3781
11.889806534289491 61.2861
11.912226250487029 61.4906
11.934663912939751 61.7495
11.9571020346363 61.6272
11.979523127133968 61.5027
12.001962169624331 61.9225
12.024384183972964 62.4877
12.046824150809913 64.8901
12.069264581333726 69.0314
12.091687985297767 74.6919
12.11412934550045 83.2462
12.136553680195208 97.7297
12.158995973632788 121.95200000000001
12.181438735204349 154.22799999999998
12.20386447284199 187.995
12.226308172985636 208.28
12.24873485024193 200.35
12.271179492516982 163.22299999999998
12.293607112949127 123.304
12.316052700916226 95.1274
12.338498763250042 77.4366
12.360927805303868 69.2647
12.383374818673879 65.3053
12.405804812803074 63.4466
12.428252780773262 63.2917
12.45070122756722 62.8936
12.473132656675375 62.8979
12.49558206341869 62.9975
12.518014453510101 63.097
12.540464823770117 63.4117
12.562915677315177 63.5676
12.58534951575545 64.4643
12.607801338171472 66.6558
12.630236146511358 72.0812
12.652688941369085 77.1084
12.675124723177234 77.4038
12.697578494048786 73.4113
12.720032754458185 68.6822
12.742470003354093 66.7821
12.764925245138771 66.7052
12.787363476431278 66.6154
12.809819703166806 66.7986
12.83227642391173 67.5929
12.854716135692716 68.2882
12.877173846755147 69.3829
12.899614549869717 69.4462
12.9220732548287 70.3393
12.94453245827299 70.7489
12.966974655289818 71.5763
12.989434858002571 72.3872
13.011878055298721 73.2529
13.034339260862497 74.0136
13.056800969391883 75.2314
13.079245674017244 76.765
13.101708390774869 78.2866
13.12415410463411 83.3592
13.146617833206086 93.0921
13.169064559883248 103.27799999999999
13.191529303857127 116.556
13.213994557076367 137.566
13.236442809902437 173.75900000000001
13.258909083908291 232.428
13.28135835851934 305.08299999999997
13.30382565690295 380.727
13.326293469022952 435.52099999999996
13.348744283242008 427.99199999999996
13.371213125129904 347.001
13.39366497011003 246.187
13.416134845360597 166.576
13.438605238843131 119.32600000000001
13.46105863690397 101.126
13.483530069144786 99.6234
13.505984506951902 103.40100000000001
13.528456981549432 112.02
13.550929978879088 125.927
13.573385983253365 148.417
13.595860028340867 188.537
13.618317081455832 245.679
13.64079217790333 310.444
13.663250283359057 359.54400000000004
13.685726434770173 374.537
13.708203115221277 329.84
13.730662806148091 250.815
13.75314054697177 176.18900000000002
13.775601299246777 123.311
13.798080104050406 94.37299999999999
13.820559442405358 83.5327
13.843021793671388 80.1248
13.865502201420897 78.555
13.887965623051947 78.0397
13.910447103807167 76.798
13.932929122629764 75.4776
13.955394156785959 75.1513
13.977877254034569 74.3781
14.000343367582113 73.4437
14.022827546871707 72.8049
14.045294743423524 72.2213
14.06778000837062 71.4532
14.090265817715476 71.3423
14.112734645763819 70.9092
14.13522154619454 70.9293
14.157691466286913 70.9002
14.180179461423874 70.8409
14.202668005486178 70.345
14.22513957064374 69.456
14.247629214846473 69.0984
14.270101881097517 68.9188
14.29259262906496 69.2178
14.315083930490205 70.2152
14.337558255389705 70.3582
14.360050666019726 70.0085
14.382526101071944 68.8613
14.405019624534942 67.952
14.427513705993134 67.2445
14.449990813291825 67.3255
14.47248601302899 67.173
14.49496423954951 67.3377
14.517460561197822 67.4859
14.539939910570322 67.0145
14.562437357763558 67.7225
14.58493536931253 68.8852
14.607416409993311 69.6781
14.62991555254159 70.553
14.652397725157423 70.2521
14.674898002342799 69.5342
14.697398848433282 68.7528
14.719882725991326 69.2403
14.74238471217934 69.7275
14.764869730765593 71.8813
14.787372860692983 74.7085
14.809876564079925 78.6937
14.83236330125751 83.7545
14.854868153850365 91.8261
14.877356041159485 105.089
14.899862046604186 124.025
14.922351087688757 151.481
14.944858249632887 184.00799999999998
14.967365991421232 212.865
14.989856770231246 227.817
15.012365673994204 216.65200000000002
15.03485761569738 184.72
15.05736768508665 145.738
15.07987833888692 111.19
15.102372032001655 87.7812
15.124883856909658 75.1377
15.14737872204565 70.8891
15.169891721717274 69.2687
15.192405310371893 68.982
15.214901940621196 69.525
15.237416709527137 69.8439
15.259914520936249 69.8635
15.282430473753607 68.8206
15.304947020131227 67.6461
15.327446610371178 66.8846
15.349964346154254 65.9657
15.372465126703139 65.4918
15.394984055556009 65.1993
15.417486030076159 64.8535
15.44000615566487 64.5023
15.462526881230803 64.76899999999999
15.485030653812652 64.8908
15.507552581617434 64.9167
15.530057557334603 64.8993
15.55258069104857 64.6605
15.575104429329837 64.736
15.597611216864632 64.3384
15.620136166564563 64.4892
15.6426441664095 64.9172
15.665170331202765 66.2163
15.687697105158826 68.872
15.710206930593545 71.9633
15.732734925158933 75.6085
15.755245972089478 81.2352
15.77777519094324 89.9186
15.800287463046663 103.052
15.822817909869592 123.501
15.84534897229804 147.455
15.867863089299354 174.453
15.890395385222186 192.454
15.912910736597423 198.361
15.935444269699861 180.87900000000002
15.957978423016485 150.855
15.980495633101265 119.37
16.003031029129367 93.5298
16.02554948280019 75.8935
16.048086125229432 66.8964
16.070623392487107 64.22800000000001
16.09314371869582 63.4348
16.11568223789321 62.3175
16.13820381691126 61.4381
16.160743591742527 60.3213
16.183283996022084 59.3026
16.205807461423195 58.266999999999996
16.228349126881973 57.8145
16.25087385432698 57.7607
16.27341678466365 57.42100000000001
16.29594277784926 57.1118
16.31848697676433 57.6387
16.341031811604868 57.9311
16.36355971058487 58.2946
16.3861058195587 57.8585
16.40863499352978 56.854
16.431182380342005 55.8144
16.453730407713202 54.9953
16.476261501364792 54.5944
16.498810812136167 54.4568
16.52134319004079 54.7253
16.54389378792203 54.3804
16.566445031001553 54.1971
16.588979342490088 54.1612
16.61153187824822 53.945
16.634067483263312 53.7701
16.656621315414416 53.815
16.679175797408888 53.4109
16.701713349928728 53.5342
16.72426913389191 53.7485
16.74680798922351 53.9287
16.76936507887444 53.9159
16.791905240734874 53.8834
16.814463639794468 53.7785
16.837022695210294 53.6924
16.859564824093756 54.0024
16.882125194503903 54.9711
16.904668639217885 55.6762
16.927230328348003 55.8243
16.949792678493612 55.9037
16.972338104193863 55.0943
16.994901778652235 54.6157
17.017448529496576 54.5286
17.040013531998152 54.6674
17.06257920018044 54.9473
17.0851279459922 55.4225
17.107694947817667 56.1474
17.130245028099072 56.9874
17.15281336730298 58.2982
17.17536478578733 59.858999999999995
17.19793446610687 61.9912
17.220504818648422 64.7879
17.243058251703697 68.4092
17.265629950971032 73.4234
17.288184731571736 78.3634
17.310757781306908 82.2735
17.33333150794385 82.807
17.355888317140174 80.5353
17.37846339986244 74.4749
17.401021565958885 68.5342
17.42359800851343 63.8542
17.44617513265564 60.3836
17.468735341390783 58.6723
17.491261035594565 57.9344
17.51396340099364 57.6991
17.536490463869136 57.8493
17.559018209820174 57.9844
17.58154663977963 58.1436
17.604251766089718 58.0632
17.626781572227713 58.583
17.64931206518155 58.5082
17.671843245885103 59.1381
17.69455114821572 59.2074
17.717083712612634 59.6978
17.739616967569667 59.8485
17.762150914021706 60.0499
17.78486160749854 59.7532
17.807396945166804 60.4051
17.829932977143503 61.1115
17.85246970436452 61.9746
17.875183204129467 63.4986
17.897721330097664 65.4183
17.920260154126645 67.6783
17.942799677153296 70.4893
17.9655159983646 74.1089
17.988056927677544 79.2764
18.010598558807683 86.87
18.033140892692916 97.6302
18.05586005052525 109.943
18.07840379824407 122.305
18.10094825154059 132.239
18.12366954819864 138.97899999999998
18.146215420998306 135.908
18.16876200220057 125.03
18.191309292745153 111.729
18.214033452627167 99.0836
18.236582170236648 88.1458
18.259131600016456 83.3155
18.281681742907335 84.0928
18.304408781233683 89.2147
18.32696035875955 94.8889
18.349512652227624 100.369
18.372065662579683 104.728
18.394795594587553 106.01700000000001
18.41735004715306 101.23299999999999
18.43990521943684 94.3304
18.46246111238171 84.7296
18.485193953325208 75.5108
18.507751296070428 68.5211
18.530309362314178 64.4204
18.552868153000343 62.2383
18.57560391815056 60.9501
18.59816416623245 60.5893
18.620725141597372 60.0931
18.643286845190268 59.358000000000004
18.666025549835414 59.1132
18.688588718427933 58.7023
18.711152618092243 58.5521
18.73389353884365 58.2126
18.75645890921984 57.7863
18.77902501351406 57.3886
18.801591852673102 57.4107
18.824335739722738 56.8917
18.846904057212626 56.8259
18.8694731124168 56.4817
18.89204290628315 56.5245
18.914789774966803 56.4068
18.937361054791623 55.8894
18.959933076131318 55.638000000000005
18.982505839934877 55.8277
19.00525570560582 55.8949
19.027829963004184 55.7744
19.05040496572238 55.7633
19.072980714710468 55.9538
19.095733592739563 55.9499
19.11831084296757 55.9955
19.140888842324735 56.6138
19.16346759176222 56.778
19.18622349753803 56.9849
19.208803755869358 57.8953
19.231384767143577 58.9094
19.253966532312948 60.5342
19.276725481241822 62.6383
19.29930876296784 65.4143
19.3218928014549 68.8085
19.34465404436217 71.9108
19.36723960516257 75.0163
19.389825925592426 75.1068
19.412413006605938 73.8593
19.43517731967805 70.0086
19.457765930683355 65.7445
19.48035530514408 61.3627
19.50294544401556 57.7608
19.525712842708348 55.3855
19.54830451925909 53.988
19.570896963095727 53.0575
19.593490175174704 52.6223
19.616260674962184 52.8359
19.638855432416964 52.2701
19.661450960992624 52.4266
19.68404726164677 52.3418
19.706820878021247 52.32899999999999
19.729418731756834 52.4182
19.752017360452857 52.1271
19.77461676506804 52.2744
19.797393513540218 52.3968
19.819994478951667 52.6327
19.84259622316767 53.0657
19.8651987471481 53.6542
19.887978643247177 53.6746
19.91058273574792 54.0295
19.933187610901943 54.7738
19.955969879466828 55.8346
19.97857632894404 57.2722
20.00118356396599 58.9726
20.023791585494575 61.3958
20.046577028914875 64.24
20.069186632506966 66.5449
20.091797025500632 68.4536
20.114408208858933 68.7604
20.137196842715273 68.21600000000001
20.159809615886765 66.1685
20.18242318232135 63.6381
20.20503754298326 61.8892
20.227829382875154 60.9159
20.250445341109344 60.9968
20.27306209647285 62.1089
20.29567964993108 63.336999999999996
20.31847471147704 63.9711
20.34109387027612 64.9081
20.363713830075454 64.3409
20.386334591841646 62.586000000000006
20.409132890679302 59.6062
20.431755265564437 56.766999999999996
20.454378445325528 53.9732
20.477002430930366 52.2537
20.499803982716553 51.2038
20.522429589228004 50.5534
20.54505600449589 50.1219
20.567683229489194 49.9775
20.590488049900088 49.5718
20.61311690359731 49.1964
20.63574656993626 49.1713
20.658553853717297 48.7522
20.681185154618298 48.6516
20.703817271080066 48.6544
20.72645020407368 48.2778
20.749260783967177 48.1871
20.771895359337133 47.956
20.794530754161617 48.0611
20.817166969412938 48.2164
20.83998086114876 47.9709
20.86261872660049 47.6077
20.885257415405402 47.7451
20.90789692853701 47.6267
20.930714147864748 47.5965
20.953355319030678 47.5495
20.97599731745334 47.7909
20.99864014410749 47.4849
21.021460706796564 47.5485
21.044105199328826 47.7388
21.06675052302631 48.0603
21.089396678865015 48.2955
21.112220600704806 48.4609
21.134868430275347 48.7784
21.15751709492456 49.1303
21.180166595629693 49.4681
21.202993892429635 50.098
21.22564507473034 50.4468
21.24829709602816 50.6121
21.27112693608965 50.3923
21.293780644891275 50.3659
21.316435195634053 49.6758
21.339090589297417 49.0112
21.361923832041875 48.4517
21.384580921090404 47.9713
21.407238856007325 47.4917
21.429897637773326 47.453
21.45273429906592 47.2788
21.475394784108598 47.51
21.498056118951983 47.3401
21.520718304578022 47.4196
21.543558400304388 47.5976
21.566222297108816 47.6364
21.58888704765135 47.6563
21.61155265291521 47.8574
21.63439619898156 48.2649
21.657063523335786 48.5
21.67973170537063 48.9065
21.7024007460706 49.6833
21.72524775840385 50.2423
21.747918526116475 51.2447
21.770590155457388 52.3135
21.79326264741238 54.0722
21.816113141960237 56.019
21.838787368860547 58.021
21.861462461341976 60.1474
21.884315579735777 62.2217
21.90699241312273 63.5339
21.92967011506078 63.5018
21.95234868653799 62.8543
21.9752053151131 61.7706
21.997885635446785 59.5025
22.020566828293532 58.0769
22.04324889464272 56.6002
22.066109049404666 55.4604
22.088792872571794 55.1403
22.111477572219204 55.1861
22.1341631493376 55.1348
22.157026846313123 54.9013
22.179714188221507 54.1622
22.202402410582668 53.0277
22.22509151438863 51.7547
22.24795876962584 50.3971
22.270649646204486 49.4468
22.293341407213727 48.7091
22.316034053646906 48.3053
22.338904883215342 48.2235
22.36159931041458 48.1056
22.38429462602756 48.1437
22.40699083104897 48.0171
22.429865251039757 47.9898
22.452563244831367 47.9885
22.47526213102522 47.9295
22.49813925616515 47.7884
22.520839937143307 47.4614
22.543541513520587 47.6295
22.56624398629403 47.5702
22.589124730075895 47.4569
22.611829005656723 47.6571
22.63453418063466 47.5209
22.657240256008077 47.701
22.680124634582935 47.8086
22.70283252079775 48.1065
22.725541310413075 48.3568
22.74825100442868 48.4315
22.771139033969575 48.926
22.79385054687155 49.235
22.81656296718292 49.891000000000005
22.83927629590484 50.6571
22.862167992606945 51.7253
22.88488314827121 53.0903
22.907599215359284 54.2682
22.93031619487366 55.358000000000004
22.953211574954405 56.2742
22.975930389478226 56.9347
22.998650119445763 56.9814
23.02137076586092 56.2228
23.044269845560063 54.8576
23.06699233506288 53.128
23.089715744034912 51.3357
23.112617610931565 49.8434
23.135342869061212 49.0136
23.158069049684816 48.3546
23.1807961538087 47.7764
23.20370174880544 47.7073
23.226430710184808 47.7654
23.249160598093425 47.8144
23.271891413539002 47.6907
23.294800752937697 47.8094
23.31753343374794 47.9298
23.340267045128353 47.973
23.36300158808808 48.4129
23.38591468821339 48.5559
23.408651104658304 48.8982
23.431388455719986 49.5438
23.454126742409 50.4595
23.4770436196085 51.4749
23.499783787914662 52.8715
23.522524894889884 54.0852
23.54526694154616 55.2807
23.56818761219047 56.4732
23.59093154860734 56.8616
23.613676427751283 57.0163
23.636422250635754 56.0251
23.659346731118656 54.3295
23.68209445191868 52.4302
23.704843119509587 50.336999999999996
23.72759273490623 48.6358
23.750521041644767 47.2647
23.77327256312355 46.2679
23.796025035462787 45.7436
23.818956224555475 45.309
23.841710609113413 45.1154
23.86446594758979 44.8998
23.887222241002014 44.6789
23.910157285144578 44.4039
23.932915498962537 44.4039
23.955674670778713 44.2288
23.978434801611975 44.1528
24.001373717286125 43.8755
24.024135776723917 43.7162
24.046898798245582 43.5486
24.06966278287146 43.6194
24.092605586582614 43.4487
24.115371508023642 43.277
24.1381383956401 43.0989
24.16090625045381 43.1237
24.183852958731244 43.0596
24.206622758582608 42.9136
24.229393528706886 42.871
24.252165270127392 42.8366
24.27511589952438 42.8255
24.297889594216997 42.6156
24.32066426328598 42.4873
24.34343990775613 42.4867
24.36639447485003 42.3457
24.38917208083877 42.2444
24.41195066531332 42.2397
24.43490819850244 42.4036
24.457688750692377 42.2022
24.48047028445616 42.1435
24.503252800821233 42.2943
24.526214300784112 42.185
24.548998793132213 42.3681
24.57178427117417 42.345
24.59457073593893 42.1918
24.617536219319863 42.04
24.64032466834748 42.115
24.663114107195035 41.856
24.685904536893013 41.7733
24.708874020360852 41.7244
24.731666442613744 41.5438
24.754459858818787 41.5081
24.777254270007962 41.5046
24.80022777025625 41.4987
24.82302418230472 41.4422
24.845821592443674 41.3069
24.86862000170663 41.3825
24.891597535453727 41.2354
24.914397953892728 41.5491
24.93719937456671 41.3543
24.96000179851076 41.3998
24.98298338249997 41.6346
25.00578782394922 41.8891
25.028593271784167 42.1188
25.05157790644186 42.3611
25.07438537804115 42.4468
25.097193859145293 42.7673
25.120003350792075 43.0007
25.142992065061257 43.248000000000005
25.165803588823465 43.3152
25.18861612625217 43.7652
25.211429678386736 43.6963
25.234422489079968 43.8692
25.257238081693636 43.9319
25.280054692141732 44.1542
25.3028723214652 44.2775
25.325869245420463 44.376000000000005
25.348688923599397 44.3042
25.371509623787006 44.1554
25.394331347025812 43.8063
25.41733240110666 43.2179
25.440156181590016 42.5495
25.46298098826268 41.9912
25.48580682216873 41.4898
25.50881202326435 40.9505
25.53163992281684 40.6012
25.55446885274561 40.2503
25.577298814096377 40.096
25.600308179121807 39.9395
25.623140214533745 40.005
25.64597328451537 39.9527
25.66898578564376 39.7024
25.691820936010206 39.766999999999996
25.714657124097695 39.6526
25.737494350954734 39.7629
25.760511045684957 39.6818
25.783350361364224 39.6681
25.806190718969255 39.649
25.82903211955018 39.7675
25.852053024868923 39.8334
25.874896522722523 39.678000000000004
25.897741066713106 39.6962
25.920586657892454 39.9526
25.943611790812668 40.0564
25.966459487728237 40.0816
25.989308234998564 40.2253
26.01215803367705 40.443000000000005
26.03518741123814 40.6316
26.05803932412957 40.87
26.080892291600094 40.7892
26.10374631470478 40.8884
26.12677995397268 40.8691
26.14963609978026 40.7012
26.172493304397875 40.5379
26.19535156888223 40.2779
26.218389486949604 39.9379
26.241249882640123 39.7149
26.26411134137826 39.4418
26.28715248187403 39.4401
26.31001607820869 39.2484
26.3328807407756 39.2016
26.35574647063438 39.336
26.37879191991473 39.2562
26.401659795896734 39.2682
26.424528742360263 39.4444
26.447398760366614 39.6448
26.470448535598294 39.6269
26.49332070826805 39.867
26.516193955675355 40.2348
26.53906827888316 40.4985
26.562122397260108 40.6849
26.584998883685063 41.0576
26.607876449110325 41.1873
26.63075509460056 41.3552
26.65381357334404 41.4086
26.67669439061878 41.3475
26.699576291163382 41.2494
26.722459276044212 41.1961
26.745522132402975 40.8253
26.768407297649354 40.5748
26.791293550442003 40.3695
26.814180891848974 40.0787
26.837248143099337 39.7349
26.860137673466657 39.6149
26.88302829566349 39.3504
26.90592001075963 39.1995
26.92899167420566 38.9939
26.951885586870763 38.7066
26.974780595655517 38.4912
26.99785558178161 38.3865
27.020752794605112 38.303000000000004
27.043651106772522 38.1631
27.06655051935668 38.1765
27.089629948036183 37.9766
27.112531573292053 37.8548
27.135434302194138 38.0562
27.158338135817015 37.8233
27.181422024430987 37.9527
27.204328079372566 37.7225
27.22723524226965 37.7884
27.250143514198573 37.9173
27.273231880156334 37.8093
27.296142382065014 37.6931
27.319053996245536 37.6189
27.341966723775965 37.6578
27.365059584515222 37.7113
27.38797455070062 37.745
27.410890633481237 37.6253
27.433807833936918 37.7639
27.456905206923906 37.7411
27.47982465472398 37.8315
27.502745223449743 37.8136
27.525666914182825 37.9768
27.548768816912457 37.89
27.571692763693633 37.7533
27.59461783573812 37.5853
27.617723149491244 37.4429
27.640650484125285 37.3599
27.66357894728264 37.3208
27.686508540048052 37.3353
27.709618414237887 37.2746
27.732550278321757 36.9344
27.755483275279115 37.0846
27.778417406196485 37.1753
27.801531858397514 37.1266
27.824468269376716 37.0978
27.847405817586786 37.1158
27.870344504116094 37.2764
27.893463551932008 37.4245
27.916404527281053 37.5274
27.93934664422563 37.583
27.962289903855886 37.6899
27.98541356491974 37.9421
28.00835912214229 37.9502
28.03130582533231 38.1974
28.054253675581805 38.4231
28.077381967556104 38.4223
28.100332124185126 38.3086
28.123283431160893 38.2878
28.146235889577238 38.0432
28.169368830154156 37.7322
28.192323603752033 37.7198
28.215279532083304 37.4509
28.238415973016764 37.2133
28.261374223145094 37.0064
28.284333631303806 36.9669
28.307294198589954 36.8718
28.330435319167677 36.391
28.353398217078915 36.1627
28.376362277420153 35.9786
28.39932750129032 35.8397
28.422473319286713 35.7719
28.44544088262495 35.6028
28.468409612800283 35.4675
28.491379510913497 35.2591
28.51453004413313 35.3017
28.53750229057244 35.1927
28.56047570826344 35.2505
28.583450298308804 35.2406
28.606605564586562 34.9956
28.629582511831156 35.1516
28.65256063474956 35.0281
28.675539934446338 34.9408
28.698699951647605 34.9189
28.72168161743193 34.8116
28.74466446331978 34.856
28.767648490417624 34.7981
28.790813276438353 34.78
28.813799678527303 34.8895
28.836787265157085 34.771
28.859955641890075 34.7261
28.882945610203045 34.8023
28.905936766392035 34.6238
28.928929111566863 34.6849
28.952102288520145 34.5988
28.975097024308607 34.4538
28.998092952423807 34.379
29.021090073977508 34.1749
29.04426806913204 34.1109
29.067267590245258 34.0518
29.090268308143695 33.9111
29.11327022394099 33.8203
29.13645305530891 33.7928
29.159457379627167 33.7384
29.18246290519685 33.6773
29.20546963313352 33.527
29.22865731875826 33.6906
29.25166646419296 33.6534
29.27467681535305 33.5844
29.29768837335608 33.6045
29.320880931312562 33.655
29.34389491580634 33.5986
29.366910110507334 33.5799
29.38992651653503 33.5599
29.41312396492981 33.6323
29.436142806456754 33.5278
29.45916286268059 33.35
29.48236399319994 33.389
29.50538649169417 33.1973
29.528410208259935 33.0069
29.55143514402014 32.8617
29.574641196749695 32.7634
29.597668583816574 32.6165
29.6206971934585 32.5349
29.64372702680042 32.6164
29.666938019934474 32.484
29.689970313635285 32.4046
29.713003834422636 32.3394
29.73603858342347 32.3525
29.759254535188578 32.2642
29.78229175361658 32.2876
29.80533020365064 32.2383
29.82836988641968 32.2181
29.85159081507472 32.2826
29.874632976355343 32.1849
29.89767637376955 32.2501
29.920721008448314 32.0288
29.9439469322847 31.8579
29.96699405457564 31.8238
29.9900424175358 31.9339
30.013092022298157 31.8473
30.03632295963995 31.8381
30.059375061131373 31.9019
30.08242840783577 31.9144
30.105483000888153 32.001
30.128718970092244 31.775
30.151776069006917 31.7454
30.17483441768648 31.8801
30.198074175317235 31.8833
30.221135036724256 31.8354
30.24419715131772 31.7354
30.267260520236203 31.7099
30.290505341942243 31.726999999999997
30.313571232750228 31.6883
30.336638381310948 31.6872
30.35970678876503 31.6845
30.38295669299435 31.6162
30.40602763151657 31.6415
30.429099832366074 31.5308
30.452173296685572 31.4734
30.47542830191959 31.4408
30.498504306502497 31.4345
30.521581577995562 31.4547
30.544660117543582 31.4972
30.56792024229725 31.568
30.59100133132069 31.5212
30.614083691845494 31.6235
30.637167325018545 31.5967
30.660432587840603 31.6835
30.683518779717886 31.5645
30.70660624769615 31.6347
30.729694992924372 31.6289
30.75296541239743 31.6056
30.77605672557558 31.5722
30.799149319462742 31.4632
30.8224236211637 31.4566
30.845518789950724 31.2516
30.868615242910597 31.2237
30.891712981195973 30.9971
30.91499247215866 30.9251
30.938092794619365 30.9937
30.96119440587579 30.9038
30.984297307082752 30.8146
31.00758200598383 30.7412
31.030687500658694 30.6093
31.053794288760695 30.6112
31.076902371446767 30.4624
31.100192296997445 30.5879
31.12330298246119 30.3919
31.14641496599209 30.3754
31.169528248749216 30.4346
31.19282341969534 30.3492
31.215939314557186 30.4032
31.239056512134788 30.3999
31.262175013589378 30.3609
31.28547544871168 30.2676
31.30859657161541 30.2721
31.331719001892175 30.2646
31.35484274070538 30.3723
31.378148458819545 30.3182
31.401274828443725 30.3505
31.424402510106933 30.3838
31.447712205419993 30.358
31.470842524931633 30.3185
31.493974159989783 30.1801
31.51710711176168 30.2462
31.54042212308802 30.2784
31.563557722100917 30.2218
31.586694641341655 29.9784
31.609832881979628 29.8961
31.63315322823208 29.9665
31.656294125521327 29.755
31.679436347728515 29.7268
31.70257989602529 29.6843
31.725905596152327 29.7146
31.74905181052835 29.5244
31.772199354521323 29.5824
31.79534822930507 29.5806
31.818679302290967 29.5144
31.84183085259981 29.4715
31.864983737233473 29.5845
31.88813795736804 29.5935
31.911474422233013 29.4851
31.934631327356435 29.541999999999998
31.9577895715215 29.4271
31.980949155906522 29.4622
32.004291031706956 29.4542
32.027453310562606 29.2669
32.05061693318573 29.1318
32.07396288236386 29.2207
32.09712920658542 29.1654
32.12029687812702 29.0611
32.14346589817093 28.9711
32.166817291729984 28.9435
32.18998902288583 28.8819
32.21316210610336 28.7528
32.23633654256711 28.7349
32.259693399663725 28.7688
32.282870556771144 28.6683
32.30604907069099 28.6864
32.329228942610065 28.5301
32.35259128243769 28.369
32.375773884550505 28.3786
32.398957848235646 28.4189
32.422143174682176 28.401
32.445511016471215 28.2646
32.468699082679954 28.1626
32.49188851523011 28.1484
32.51507931531304 28.1203
32.538452678331 28.1478
32.56164622776311 28.0159
32.58484114831493 27.9959
32.60803744118015 28.0406
32.631416344731896 28.0227
32.654615396551876 27.9953
32.67781582427913 27.9307
32.701198898634416 27.7877
32.72440209253756 27.7567
32.747606665947124 27.7678
32.77081262006088 27.6402
32.79420126883317 27.5682
32.81740999876112 27.6141
32.840620112999424 27.5413
32.86383161274818 27.4644
32.88722585534586 27.4869
32.91044014056596 27.5109
32.933655814909734 27.3822
32.95687287957963 27.4912
32.98027273544904 27.4324
33.00349259526636 27.3001
33.026713849030116 27.3246
33.04993649794511 27.2407
33.073341986570746 27.2693
33.09656744032826 27.2812
33.11979429286444 27.2448
33.14302254538647 27.2373
33.166433686291185 27.1489
33.18966475336992 27.1575
33.212897224069096 27.0951
33.23613109959831 27.1238
33.259547912343415 27.0448
33.2827846121627 27.039
33.306022720453775 27.0952
33.32926223842861 26.8603
33.352684742614166 26.9169
33.37592709463173 26.9282
33.399170859982064 26.7768
33.422597648419426 26.7075
33.44584425514446 26.5671
33.46909227885668 26.5683
33.4923417207723 26.5914
33.51577423505344 26.5777
33.539026528130385 26.3772
33.56228024307245 26.3837
33.585535381098246 26.2346
33.60897364093058 26.241
33.63223163992385 26.1244
33.6554910656699 26.1833
33.678751919389796 26.118000000000002
33.702195944520106 26.0462
33.72545966903325 26.0586
33.74872482519663 26.0008
33.771991414233746 25.984
33.79544122444841 26.0253
33.81871069412428 25.944000000000003
33.84198160035767 25.8671
33.86525394437455 25.9591
33.88870955949969 25.8448
33.911984794020626 25.8504
33.93526147001624 25.7433
33.958539588715006 25.663
33.98200102861669 25.6326
34.0052820477047 25.5831
34.02856451319451 25.4985
34.05203033759056 25.4993
34.07531571090147 25.4848
34.09860253431845 25.4679
34.121890809074316 25.4082
34.145362493118924 25.3493
34.16865368561615 25.3384
34.191946333164054 25.3157
34.21524043699793 25.3547
34.23871800066799 25.2293
34.26201503218366 25.1276
34.28531352370466 25.1642
34.30861347646881 25.0998
34.33209693978188 25.1104
34.3553998301885 25.037
34.378704185565205 24.9523
34.402010007152356 24.909000000000002
34.42549939016683 24.9004
34.44880815937748 24.7434
34.472118398533134 24.7865
34.49543010887669 24.7853
34.51892543169198 24.6923
34.54224009966052 24.7361
34.56555624255917 24.7301
34.58887386163339 24.6386
34.61237514439016 24.5287
34.6356957311114 24.5222
34.65901779775809 24.4418
34.68252356662995 24.3786
34.705848608458616 24.4583
34.72917513396849 24.3319
34.75250314440949 24.2759
34.77601490857862 24.3416
34.799345904259795 24.1987
34.82267838863559 24.2048
34.846012362958525 24.2333
34.869530142679984 24.1468
34.89286711232212 24.1947
34.91620557568269 24.141
34.93954553401677 24.0933
34.9630693495876 24.0141
34.986412313340814 24.0556
35.00975677584668 24.0315
35.033102738362956 23.9861
35.05663261012228 23.9219
35.0799815881786 23.9531
35.10333207003229 23.8841
35.12668405694369 23.8393
35.150220005273056 23.8574
35.17357501786656 23.7848
35.19693153931268 23.7432
35.220289570874385 23.7245
35.24383161619786 23.7012
35.267192683604904 23.6492
35.290555264930376 23.6839
35.314101899412165 23.6872
35.33746752422433 23.6533
35.36083466676374 23.5824
35.38420332829803 23.5227
35.407756095629054 23.5133
35.43112781085063 23.558000000000003
35.45450104888391 23.5194
35.477875810999194 23.5057
35.50143473172161 23.4168
35.52481255774625 23.3997
35.54819191167777 23.4425
35.57157279478914 23.3626
35.595137889488406 23.2977
35.61852184675279 23.3203
35.641907337029984 23.1701
35.665294361595684 23.2598
35.68886565090076 23.1801
35.7122557598848 23.1293
35.73564740699838 23.1074
35.759040593519934 22.9969
35.78261809810353 23.0104
35.80601437933051 22.9035
35.829412203814705 22.9306
35.85281157283719 22.8933
35.876395313415884 22.8754
35.8997977874528 22.8296
35.92320180988546 22.7674
35.946790244133936 22.6804
35.97019737933222 22.7667
35.993606066789866 22.7607
36.01701630779276 22.6556
36.04061101440684 22.6184
36.06402437852291 22.6075
36.08743930005611 22.5631
36.1108557802951 22.4575
36.13445678011326 22.4881
36.15787639383515 22.4347
36.18129757014299 22.39
36.20472031032821 22.4285
36.22832762423364 22.3048
36.25175350829375 22.2728
36.275180960119776 22.2716
36.298609981005924 22.2527
36.32222362992669 22.1923
36.34565580510207 22.2096
36.36908955323448 22.1351
36.39252487562093 22.035
36.416144880530226 22.0301
36.43958336764275 22.0444
36.463023432914625 21.9979
36.486465077645676 21.9426
36.51009145956204 21.9912
36.53353627947859 21.9663
36.55698268276811 21.9682
36.58043067073321 21.9019
36.60406345072071 21.8725
36.62751462435344 21.8316
36.65096738658405 21.7607
36.67460498210655 21.6777
36.69806093788647 21.7124
36.72151848619297 21.63
36.744977628333636 21.6504
36.76862165890998 21.5708
36.79208400512205 21.4896
36.81554794910557 21.546999999999997
36.83901349217101 21.4887
36.862663978991606 21.453000000000003
36.88613273667352 21.4515
36.90960309738324 21.4337
36.933075062434064 21.3584
36.95673202673572 21.3155
36.98020721697122 21.2978
37.003684015502365 21.1972
37.027162423645365 21.1733
37.050825886711465 21.1987
37.07430753063053 21.1104
37.09779078812467 21.0859
37.121275660513014 21.0873
37.144945643673694 21.0445
37.16843376245278 21.0559
37.19192350009803 21.0307
37.215414857931435 20.9447
37.239091382563885 20.868000000000002
37.262585997426164 20.9126
37.28608223645736 20.8498
37.309763684451696 20.868000000000002
37.33326318851098 20.726
37.356764320726555 20.7621
37.380267082425526 20.7524
37.40395510942588 20.7389
37.42746114683234 20.6931
37.45096881771841 20.6359
37.474478123414166 20.5967
37.49817275092816 20.5896
37.52168534303452 20.5799
37.54519957395567 20.4539
37.568715445024665 20.4253
37.592416694607714 20.4362
37.61593586281424 20.4737
37.63945667518264 20.4727
37.66297913304891 20.3721
37.68668702630454 20.2947
37.710212792059274 20.1984
37.733740207334854 20.3034
37.757269273470364 20.2266
37.780983832050374 20.188
37.80451621684926 20.1202
37.82805025654007 20.1001
37.851585952464795 20.0899
37.8753071980695 20.0285
37.89884622345676 19.9284
37.92238690911902 19.9295
37.94611318753442 19.9594
37.969657210779765 19.9407
37.99320289834801 19.8759
38.016750251586465 19.8184
38.04048325513017 19.7994
38.06403395679343 19.7483
38.087586328183946 19.7146
38.11114037065203 19.7743
38.13488012115898 19.6793
38.1584375229181 19.6269
38.181996599821 19.5801
38.205557353221124 19.5722
38.229303872575656 19.528
38.2528679961576 19.5196
38.27643380031219 19.5181
38.30000128639589 19.5117
38.32375459653193 19.4584
38.34732546371299 19.4693
38.37089801690786 19.3478
38.39447225747609 19.3378
38.418232380377425 19.3616
38.441810012983396 19.32
38.46538933705673 19.2838
38.488970353960084 19.3016
38.51273731166058 19.1534
38.536321731567014 19.0854
38.55990784840681 19.1162
38.58367995004091 19.0873
38.60726947812959 18.9955
38.63086070726198 19.0543
38.654453638806274 19.0587
38.678232613930824 18.9545
38.70182896773327 18.9384
38.72542702806741 18.916
38.7490267963045 18.9101
38.77281266709232 18.8036
38.79641586862214 18.7715
38.8200207821842 18.7346
38.843627409152944 18.7769
38.86742019782782 18.7339
38.891030269149255 18.7411
38.914642058016156 18.6873
38.938255565806124 18.6339
38.96205529464307 18.6118
38.98567225787121 18.6081
39.00929094417078 18.6016
39.03291135492255 18.5898
39.05671804624804 18.5799
39.080341923549106 18.4976
39.103967529460334 18.4604
39.127594865365744 18.4754
39.15140854155791 18.3523
39.17503935514948 18.3299
39.19867190290282 18.3299
39.22249083587951 18.3046
39.24612686969409 18.2582
39.269764641845306 18.2613
39.293404153722804 18.1878
39.317230110864074 18.1824
39.34087311998506 18.1576
39.36451787301696 18.1334
39.388164371352595 18.0321
39.41199737518003 18.0063
39.43564738196752 18.0008
39.45929913825317 18.0021
39.48295264543308 17.9992
39.506792718520884 17.9616
39.530449745387216 17.96
39.55410852735203 17.874000000000002
39.57776906581474 17.8952
39.60161623079 17.8523
39.625280300200025 17.8171
39.64894613032202 17.7695
39.67261372255866 17.7365
39.6964680021016 17.7206
39.72013913657293 17.7092
39.74381203738292 17.698
39.76748670593756 17.6908
39.79134812278169 17.633
39.81502634488497 17.5977
39.83870633896685 17.5775
39.862388106436654 17.4952
39.88625668336918 17.4758
39.90994201572829 17.4497
39.933629125719285 17.404
39.957503091207826 17.4367
39.9811937746168 17.4809
40.00488623990914 17.3013
40.02858048850006 17.3679
40.05246165409549 17.3389
40.076159487492085 17.2623
40.099859108448875 17.27
40.123560518384345 17.2324
40.1474489070226 17.1981
40.171153913178564 17.0808
40.194860712584955 17.1401
40.2185693066637 17.1514
40.242464941335314 17.0525
40.26617714307655 17.0087
40.289891143772046 17.0383
40.3136069448471 17.004
40.33750984859743 16.9992
40.3612292688043 16.9463
40.3849504936829 16.9195
40.40867352466194 16.9166
40.43258372059144 16.8634
40.45631038219906 16.95
40.48003885420956 16.9163
40.503769138055105 16.8
40.52768664931955 16.7923
40.55142057531802 16.7745
40.57515631746428 16.7134
40.599079334038514 16.6964
40.62281872700477 16.6389
40.64655994043941 16.6329
40.67030297578061 16.6118
40.69423334835778 16.5878
40.71798004609188 16.5354
40.74172857006355 16.5291
40.76547892171441 16.5032
40.7894166736039 16.5
40.813170699248566 16.4272
40.83692655691388 16.3548
40.86068424804498 16.4518
40.884629402612525 16.3621
40.908390779366385 16.2795
40.932153993938 16.3359
40.95591904777605 16.3155
40.979871628443995 16.2595
41.003640379561936 16.3004
41.02741097430883 16.2788
41.05118341413683 16.1985
41.075143444384416 16.1929
41.098919593177826 16.1988
41.1226975914255 16.1663
41.14647744058318 16.1268
41.170444943946755 16.0725
41.19422851378379 16.0466
41.218013938914645 16.0062
41.24198706625173 15.9787
41.26577622087193 15.9674
41.289567235177785 15.9542
41.31336011063129 15.9091
41.337340752422875 15.9059
41.361137369129835 15.8513
41.38493585138705 15.864
41.40873620066004 15.8217
41.43272438060107 15.7849
41.45652848292052 15.696
41.48033445666918 15.7292
41.50414230331616 15.6346
41.528138045159764 15.6988
41.551949656675205 15.6004
41.575763145513235 15.6274
41.59957851314666 15.597000000000001
41.62358184070442 15.5194
41.64740098505737 15.4966
41.6712220126409 15.5038
41.69504492493139 15.5025
41.71905586207357 15.4517
41.74288256296395 15.4065
41.766711153007456 15.3953
41.79054163368412 15.3347
41.814560204340054 15.3784
41.838394485526365 15.3845
41.86223066180303 15.3431
41.88625497706819 15.2646
41.910094962812 15.2846
41.93393684811168 15.2423
41.95778063445365 15.1093
41.981812625263366 15.1442
42.00566023303407 15.1763
42.029509746323676 15.1096
42.05336116662236 15.0677
42.077400857069705 15.1071
42.10125611078846 15.0928
42.12511327600405 15.0283
42.14897235421036 14.9845
42.173019768448455 14.9153
42.19688269209613 14.9341
42.22074753323349 14.8882
42.24461429335818 14.8551
42.268669455600495 14.8669
42.292540073217886 14.8653
42.31641261433284 14.8264
42.34028708044675 14.772
42.36435001496739 14.7977
42.38822835065557 14.7727
42.41210861586426 14.7829
42.4359908120986 14.7316
42.46006154323262 14.6776
42.48394762115317 14.6224
42.507835634632315 14.6604
42.531912233047436 14.5629
42.55580413732265 14.5827
42.579697981698 14.5358
42.60359376768525 14.5231
42.62767820545945 14.4778
42.65157789440821 14.4904
42.67547952952185 14.437999999999999
42.699383112316 14.4855
42.72347541395347 14.4397
42.74738291190531 14.3656
42.771292362102166 14.3575
42.795203766063516 14.3442
42.819303956130405 14.3147
42.843219287476536 14.2607
42.86713657716324 14.2345
42.89105582671383 14.2514
42.91516392983864 14.2264
42.939087119032166 14.1871
42.963012272677304 14.1493
42.98693939230129 14.1187
43.01105543317513 14.0849
43.034986504731386 14.0607
43.05891954686589 14.0467
43.08285456110972 14.0229
43.10697856448665 14.0111
43.130917542983475 13.9371
43.15485849820081 13.9536
43.17880143167367 13.9445
43.20293342237094 13.9115
43.226880332449 13.9102
43.25082922540554 13.9122
43.27496722682525 13.8555
43.29892010567796 13.7894
43.32287497204102 13.8117
43.34683182745632 13.7494
43.370977859791836 13.7195
43.39493871351105 13.7482
43.41890156092628 13.6966
43.44286640358341 13.6809
43.46702049182749 13.6813
43.49098934522816 13.6447
43.51496019852649 13.6033
43.5389330532723 13.6079
43.56309522248204 13.5396
43.58707210044314 13.5806
43.61105098451946 13.4568
43.63503187626491 13.4332
43.659202151562134 13.4591
43.68318707902681 13.4445
43.70717401884041 13.4282
43.731162972560874 13.3475
43.75534137913236 13.339
43.779334381108384 13.33
43.803329401683186 13.3344
43.82732644241872 13.3057
43.8515130055166 13.3001
43.87551410707659 13.2331
43.89951723350145 13.2498
43.923709934595614 13.2141
43.94771713129917 13.2012
43.97172635758096 13.1797
43.99573761501002 13.1601
44.0199385169922 13.1476
44.04395385732619 13.1318
44.067971233533086 13.1149
44.09199064718605 13.0977
44.11619977548961 13.0636
44.14022328470671 12.970999999999998
44.16424883610785 13.0177
44.18827643127035 13.0164
44.21249381139513 12.9857
44.236525514814076 12.9509
44.26055926674478 12.9409
44.28459506876863 12.9092
44.3088207262813 12.8593
44.33286064928722 12.857999999999999
44.35690262714919 12.8161
44.38094666145278 12.7612
44.4051806219871 12.7706
44.42922879003185 12.7252
44.45327901929361 12.7265
44.477331311362136 12.7171
44.501573600619416 12.6556
44.525630039221795 12.6259
44.54968854541895 12.6644
44.573937102200176 12.6379
44.5979997645541 12.6429
44.622064499300315 12.6236
44.64613130803592 12.5629
44.67038823869318 12.5366
44.69445921643748 12.5254
44.718532272981385 12.4598
44.742607409926194 12.4691
44.76687274034801 12.4123
44.79095205918753 12.4429
44.81503346325094 12.395999999999999
44.839116954143876 12.3551
44.86339071028742 12.3438
44.88747839599524 12.3191
44.91156817336837 12.2906
44.93566004401666 12.2911
44.959942251908146 12.2646
44.984038330325966 12.255
45.00813650686762 12.202
45.03223678314731 12.1409
45.05652746888232 12.1388
45.08063196592069 12.0708
45.104738567558705 12.0829
45.128847275414856 12.0752
45.15314646515866 12.0748
45.17725940679741 12.0627
45.20137445952892 12.054
45.22568004865265 12.0822
45.24979934496396 11.9939
45.27392075725247 11.9753
45.29804428714431 12.0054
45.322358426247604 11.9567
45.346486212804315 11.9481
45.370616121861914 11.9112
45.39474815505086 11.8966
45.41907087049246 11.8239
45.4432071734666 11.8246
45.46734560548283 11.8319
45.49148616817604 11.8196
45.51581748638564 11.7607
45.5399623320197 11.7382
45.56410931325473 11.6779
45.58825843173002 11.7096
45.61259837920865 11.6922
45.636751793816 11.6565
45.66090735060093 11.637
45.68506505120716 11.6492
45.7094136545275 11.5841
45.73357566449271 11.6039
45.75773982322992 11.5672
45.78190613238733 11.5442
45.806263418194064 11.5001
45.83043404997326 11.5379
45.85460683713677 11.5551
45.87897065658495 11.4598
45.90314777634752 11.4111
45.92732705646868 11.3574
45.9515084986045 11.4348
45.97588104735473 11.3835
46.00006683541565 11.367
46.02425479047904 11.3208
46.04844491420549 11.3329
46.0728262191024 11.3785
46.09702070211635 11.3046
46.12121735879483 11.2682
46.14541619080294 11.2169
46.169806278764455 11.2114
46.194009483459034 11.2037
46.21821486849841 11.1518
46.24242243555223 11.1253
46.266821333570014 11.1464
46.29103328674601 11.1266
46.31524742696538 11.0875
46.33946375590237 11.0622
46.36387149104216 11.0534
46.38809221957392 11.0301
46.41231514186606 11.036
46.436540259597464 11.0092
46.460956858999374 10.9996
46.48518638983522 10.9543
46.509418121166966 10.9312
46.533652054678114 10.9364
46.55807754555709 10.895
46.58231590571962 10.8813
46.60655647313217 10.8732
46.630988654873654 10.8458
46.655233659129024 10.78
46.67948087571551 10.8368
46.70373030632484 10.7867
46.72817142736393 10.7987
46.752425308428684 10.8159
46.77668140861147 10.73
46.80093972960865 10.6925
46.82538981736788 10.6393
46.849652602470904 10.6319
46.87391761349769 10.6531
46.8981848521493 10.6433
46.9226439341274 10.6038
46.946915650573224 10.5682
46.97118959976749 10.5237
46.99546578341598 10.5288
47.019933887188216 10.481
47.04421456235744 10.5342
47.06849747711879 10.4628
47.09278263318286 10.4559
47.11725978640143 10.4418
47.14154944775105 10.42
47.165841355555656 10.415999999999999
47.1901355115306 10.3935
47.214621741924994 10.3943
47.23892041698887 10.3358
47.26322134538975 10.3202
47.28771440635075 10.3243
47.31201986422527 10.3187
47.33632758061436 10.2332
47.360637557241866 10.2536
47.38513974410611 10.2471
47.40945426407847 10.1931
47.43377104948137 10.1955
47.45809010204344 10.1806
47.48260144275502 10.1544
47.506925052572285 10.1232
47.53125093475548 10.0548
47.55557909103813 10.0745
47.58009961361992 10.0655
47.60443234110732 10.0482
47.62876734791564 10.0341
47.65310463578333 10.0187
47.6776343683373 10.0381
47.7019762413987 9.99505
47.72632040075572 9.94576
47.75066684815169 9.95462
47.77520581885936 9.93317
47.799556865477655 9.92123
47.823910205386 9.8996
47.84826584033272 9.87327
47.87281407745551 9.86112
47.89717432569297 9.87699
47.92153687423484 9.85539
47.94609208429692 9.81502
47.97045925671401 9.79175
47.99482873471275 9.74881
48.01920052005013 9.754380000000001
48.04376504619224 9.727780000000001
48.068141469543484 9.73669
48.09252020552573 9.71261
48.11690125590099 9.72374
48.1414751266064 9.66193
48.16586082917454 9.658389999999999
48.19024885144316 9.63521
48.2146391951793 9.65294
48.239222439012764 9.67901
48.26361744916137 9.609110000000001
48.28801478610016 9.5814
48.31241445160131 9.58044
48.337007097209366 9.558589999999999
48.36141144338331 9.54231
48.38581812345755 9.48504
48.41022713920929 9.47032
48.434829215320704 9.48452
48.45924292604658 9.463339999999999
48.48365897780325 9.44698
48.50807737237308 9.41415
48.532688907799276 9.41281
48.55711201168574 9.39211
48.581537463754074 9.37345
48.60615611725119 9.359760000000001
48.63058628942721 9.35205
48.65501881516546 9.32483
48.6794536962573 9.30366
48.70408185970339 9.268410000000001
48.72852147531801 9.22402
48.75296345168211 9.24155
48.77740779059232 9.221160000000001
48.80204549302823 9.22045
48.82649458091802 9.17857
48.85094603676547 9.1704
48.87539986237231 9.13032
48.90004713292306 9.13936
48.92450572200832 9.098289999999999
48.94896668628025 9.1069
48.97343002754588 9.0972
48.99808689542115 9.09256
49.02255501470614 9.079089999999999
49.04702551642794 9.02723
49.0714984023988 8.98236
49.096164896893235 8.9779
49.120642575466796 8.98569
49.145122643748394 9.019060000000001
49.16960510355558 8.93754
49.19428125404938 8.93024
49.2187685210852 8.900739999999999
49.243258185121555 8.89985
49.26794160167084 8.87154
49.2924360839405 8.83942
49.31693296869764 8.851239999999999
49.34143225776915 8.832939999999999
49.36612538195438 8.802810000000001
49.39062950396021 8.81382
49.41513603578346 8.771989999999999
49.4396449792564 8.73322
49.46434784069503 8.76473
49.488861631846454 8.74577
49.513377840166804 8.72798
49.537896467493745 8.705639999999999
49.56260909589029 8.67113
49.587132585683285 8.64752
49.611658500018365 8.63219
49.636186840738596 8.59331
49.66090926588511 8.61858
49.685442483902584 8.61886
49.70997813385706 8.588980000000001
49.734516217597076 8.53892
49.75924846937352 8.51302
49.7837914452858 8.529
49.80833686055187 8.50104
49.83288471702571 8.50895
49.85762682540054 8.49403
49.882179588965734 8.47637
49.9067347993235 8.48028
49.93129245833333 8.44023
49.95604445336378 8.40346
49.98060703442832 8.37473
50.005172069746266 8.35267
50.02993150438364 8.36839
50.05450147301533 8.3652
50.07907390151433 8.32509
50.10364879174981 8.27587
50.12841816587289 8.29107
50.1529980044635 8.31865
50.17758031042124 8.27192
50.20216508562089 8.29844
50.22694442953363 8.234210000000001
50.25153416817468 8.24439
50.27612638170508 8.22356
50.300721072005196 8.148639999999999
50.325510416102105 8.15602
50.350110084975064 8.13417
50.37471223628208 8.17877
50.39931687190919 8.13148
50.424116246675766 8.12203
50.44872587605249 8.08332
50.47333799543065 8.084430000000001
50.49795260670191 8.04923
50.52276204271512 8.02389
50.54738166295838 8.0283
50.57200378079314 8.02872
50.596628398116835 8.00582
50.62144792604559 8.02539
50.646077567609396 7.974660000000001
50.670709714377715 7.980339999999999
50.69553683636198 7.99195
50.72017401885922 7.92888
50.7448137122895 7.90408
50.76945591856022 7.919560000000001
50.79429318636823 7.87055
50.818940443716784 7.8860399999999995
50.84359021965163 7.87719
50.868242516085964 7.8219
50.893089960641895 7.81845
50.917747323549435 7.81951
50.94240721271973 7.784669999999999
50.96706963007175 7.77802
50.99192728239342 7.761639999999999
51.01659478166073 7.77963
51.04126481489051 7.731489999999999
51.06593738400761 7.725110000000001
51.090805275207074 7.70148
51.11548294172845 7.699380000000001
51.14016314993547 7.6982800000000005
51.164845901758845 7.68756
51.18972406304274 7.652810000000001
51.21441192780656 7.62715
51.23910234200271 7.60975
51.2637953075678 7.606389999999999
51.288683770237945 7.5929899999999995
51.31338186432707 7.565239999999999
51.33808251561888 7.54007
51.362978729967345 7.51929
51.387684521509755 7.5218
51.41239287610203 7.532189999999999
51.437103795691165 7.4663
51.46201036644977 7.43451
51.486726441956634 7.449089999999999
51.51144508832545 7.446860000000001
51.536166307509156 7.417039999999999
51.56108326624387 7.43385
51.58580965706056 7.407589999999999
51.61053862657523 7.3875
51.635270176746864 7.3307199999999995
51.66019755512065 7.34243
51.68493429268881 7.33132
51.70967361681515 7.340339999999999
51.73441552946465 7.31232
51.759353359237934 7.28039
51.7841004750961 7.25793
51.80885018539685 7.279439999999999
51.833602492111254 7.27535
51.8585508051424 7.2426699999999995
51.883308330926425 7.1996
51.90806845906181 7.192089999999999
51.932831191525715 7.161410000000001
51.95779001977161 7.147689999999999
51.98255798721516 7.13342
52.00732856494335 7.13048
52.03229530577543 7.12374
52.057071130455945 7.08731
52.081849571391054 7.115
52.106630630568695 7.0724
52.13160794279417 7.06643
52.15639426492067 7.05043
52.18118321127822 7.05425
52.205974783860896 7.016039999999999
52.23096269971011 6.99723
52.255759551287994 6.98234
52.280559035098186 6.95865
52.30536115314103 6.97594
52.33035970494467 6.94053
52.35516711807904 6.9207600000000005
52.37997717147198 6.95028
52.40478986713005 6.907089999999999
52.42979908731974 6.90725
52.454617094216 6.89583
52.47943774942214 6.8567800000000005
52.50426105495102 6.86875
52.529280976059844 6.85641
52.554109609024096 6.8219
52.57894089837482 6.81733
52.60377484613117 6.812880000000001
52.62880550079408 6.77194
52.65364479223379 6.74522
52.67848674816189 6.740889999999999
52.70352547971946 6.75121
52.72837279155837 6.746910000000001
52.753222773982785 6.67278
52.778075429022984 6.66408
52.80312495150885 6.689839999999999
52.827982978797436 6.65578
52.85284368481815 6.65803
52.87770707160767 6.64503
52.90276741793998 6.61365
52.92763619336701 6.611039999999999
52.952507655698504 6.61563
52.977381806977576 6.59628
53.00245301017842 6.54896
53.02733256653592 6.558269999999999
53.052214817996074 6.52931
53.077099766608484 6.54009
53.102181859804446 6.51799
53.127072229988265 6.51128
53.15196530349892 6.49967
53.17686108239249 6.451919999999999
53.20195409881522 6.4437
53.22685531582556 6.48042
53.25175924441303 6.44665
53.27666588664027 6.39617
53.30176985962693 6.42404
53.3266819565689 6.4231300000000005
53.35159677336455 6.39919
53.376514312083096 6.37751
53.40162927507703 6.34591
53.42655228516116 6.32815
53.45147802340193 6.30724
53.47660125628886 6.34563
53.50153247842639 6.28183
53.52646643496923 6.27652
53.55140312799818 6.26545
53.576537409691696 6.2638300000000005
53.60147960336152 6.2336800000000006
53.626424539786164 6.23966
53.65137222105307 6.24028
53.67651758529126 6.20603
53.70147078399681 6.1791
53.72642673383343 6.18644
53.75138543689533 6.18506
53.776541917524526 6.137519999999999
53.801506154876755 6.11988
53.826473151763246 6.13425
53.851442910284916 6.08076
53.87661054126026 6.09096
53.9015858509782 6.0564800000000005
53.92656392866066 6.07715
53.95154477641532 6.06925
53.976723591801296 6.04269
54.00171000771266 6.04748
54.02669920004598 6.01039
54.051691170915745 5.995080000000001
54.076881204886796 6.01013
54.101878760928514 5.96137
54.12687910187696 5.95376
54.152077577768296 5.9509099999999995
54.1770835166946 5.92574
54.20209224691339 5.926830000000001
54.22710377055121 5.90188
54.25231352511594 5.866219999999999
54.27733066384342 5.87718
54.30235060239643 5.83964
54.32737334290836 5.8322
54.35259441062629 5.7769
54.377622783395324 5.77875
54.40265396455061 5.7973300000000005
54.42768795623251 5.76331
54.45292037169559 5.775580000000001
54.477960012857906 5.7201
54.50300247099511 5.6819
54.52804774825457 5.69254
54.55329154616743 5.67225
54.57834249018678 5.67598
54.6033962597977 5.66211
54.6284528571545 5.63594
54.653708072335164 5.57327
54.67877035378786 5.55846
54.70383546947698 5.55595
54.72890342156389 5.58418
54.7541700889442 5.5288699999999995
54.77924374251975 5.5321
54.8043202390049 5.52797
54.82959552413022 5.43733
54.8546777351945 5.386480000000001
54.87976279569621 5.4198900000000005
54.90485070780914 5.38921
54.930137506558005 5.41788
54.95523115074295 5.38436
54.98032765308844 5.3298
55.005427015775496 5.3186
55.03072536339621 5.30958
55.05583047570572 5.25844
55.080938454927676 5.28875
55.10604930325027 5.25557
55.131359235107396 5.25207
55.15647585066083 5.18569
55.181595341907496 5.17101
55.20671771104285 5.17373
55.232039262617704 5.19083
55.25716741665048 5.13145
55.28229845518636 5.1045300000000005
55.30743238042802 5.06741
55.33276558731939 5.05005
55.357905315183636 5.05767
55.383047936390035 5.0031
55.40819345314859 5.00865
55.433538351073295 4.97179
55.458689688238415 4.9855599999999995
55.483843927614096 4.9485
55.509197623043605 4.89884
55.53435769621134 4.88778
55.55952067826466 4.80505
55.5846865714265 4.8203
55.61005202069737 4.793019999999999
55.63522376553902 4.79301
55.66039842818645 4.834569999999999
55.68557601087004 4.81607
55.7109532500271 4.7279599999999995
55.73613670233794 4.72891
