TT I
1.2716486653135266 7.44498
1.2939594142134223 7.01278
1.3162702121660406 6.3560300000000005
1.3385810600174564 7.24193
1.3608919586137629 6.636760000000001
1.383202908801069 6.43613
1.405513911425503 5.8639
1.4278249673332093 6.31735
1.4501343378461518 5.54775
1.4724455028545926 5.87143
1.4947567236847858 5.94549
1.517068001182951 6.32172
1.5393793361953272 5.9006099999999995
1.5616907295681737 5.17171
1.5840021821477681 4.9486099999999995
1.60631369478041 5.35806
1.6286252683124185 5.7868
1.6509369035901333 5.2134599999999995
1.6732468618895553 5.30797
1.695558623192809 5.31235
1.7178704487808514 5.41021
1.7401823395001077 5.40249
1.7625012545597203 4.88227
1.7848028405262486 4.32869
1.8071218901122095 5.04661
1.8294236121921872 4.98754
1.8517427996910911 4.77299
1.8740620574440425 4.83609
1.8963639900671978 5.11575
1.9186833908139995 5.162669999999999
1.9409854680117449 5.0929400000000005
1.9633050151394713 5.1474
1.9856246367570705 4.77301
2.0079269371922672 5.18387
2.03024671027244 4.52194
2.0525491637446027 4.70815
2.074869091674931 5.2300699999999996
2.097171701569106 4.77916
2.1194917877373847 4.9416
2.141811954326636 5.43135
2.164114805233074 4.6832
2.186435135143035 5.4244900000000005
2.208738150935709 15.5542
2.231058647554722 33.8843
2.2533792288321184 26.0567
2.275682498336085 11.8577
2.298003251406138 6.08931
2.3203066942619714 5.14575
2.3426276225136022 4.98046
2.3649486396617507 4.72725
2.387252348930071 5.38059
2.4095735463442893 5.28362
2.4318774374315884 4.95696
2.4541988185014043 5.6446
2.476502894794693 6.67655
2.498824462909887 5.88388
2.521146125856138 6.067769999999999
2.5434504863470337 6.608619999999999
2.5657723414244717 7.56265
2.588076895590662 7.5681
2.610398946189713 7.251119999999999
2.6327210958598384 7.312360000000001
2.6550259469304716 7.0658
2.6773482972090137 7.29073
2.6996533504259 7.028460000000001
2.7219759047039602 6.83815
2.744298562293959 7.635280000000001
2.7666039251246595 7.60497
2.7889267918020164 7.555339999999999
2.8112323652516555 7.495989999999999
2.833555444408179 7.88352
2.8558786311183852 7.83139
2.8781845268938557 8.44822
2.9005079311721484 9.038310000000001
2.9228140460410397 9.0234
2.9451376712799635 9.39557
2.967444008632326 9.45584
2.9897678582247247 10.2905
3.0120918213106695 10.4792
3.0343984987899373 11.1926
3.0567226913198637 10.8307
3.079029599759726 11.3013
3.101354025127254 12.2307
3.123678568232338 12.913
3.145985829517914 12.7037
3.16831061055229 13.3825
3.1906181112775593 14.3081
3.212943133635653 14.4701
3.2352682779763207 14.7846
3.2575761442691227 15.5571
3.2799015350264273 15.9845
3.302209649240067 16.5208
3.3245352898092655 16.9682
3.3468436553365257 17.3973
3.369169549113219 17.9445
3.3914955708171384 19.0217
3.413804319727358 19.1328
3.4361305997334863 19.4372
3.4584396084414553 19.8853
3.4807661501462652 20.5387
3.503092824025881 21.572
3.5254022288463154 21.4359
3.5477291695206588 22.4344
3.5700388426251948 22.9102
3.5923660534916446 24.758000000000003
3.6146934007816114 41.9397
3.637003482731501 105.78
3.6593311053109985 118.319
3.681641464033634 66.2121
3.7039693653009733 32.9943
3.726297407241705 27.0971
3.7486081875460804 26.5039
3.7709365132734978 26.801
3.793247578841633 27.2639
3.8155761917550093 27.0924
3.8378875459837216 27.4423
3.8602164494827234 27.9869
3.882545499606844 28.7983
3.9048572932539183 29.5229
3.9271866390645718 29.6256
3.9494987298666713 30.1391
3.971828374764527 30.8514
3.9941581705403255 31.4819
4.016470713506008 32.2165
4.038800813471445 33.2097
4.061113662089144 33.3919
4.0834440696459176 34.5083
4.105774632334751 34.8863
4.128087945865126 35.4121
4.150418821249301 37.0826
4.172732448931298 38.3298
4.195063640413578 40.150999999999996
4.2173775856475215 45.1044
4.239709096631102 82.0478
4.262040768704612 281.039
4.284355196706267 390.651
4.306687193387355 249.672
4.329001947444346 92.1952
4.35133427213731 51.1316
4.373666762177566 45.8497
4.395982011761091 45.6673
4.418314834921175 47.2176
4.44063041906622 55.8693
4.4629635787515625 70.2224
4.4852969080429785 69.6124
4.5076130004776225 56.5146
4.529946671403969 52.3136
4.552263106909177 51.7965
4.574597122877047 52.4136
4.596931312711224 53.3195
4.619248269273446 54.483000000000004
4.6415828092605835 55.2354
4.663900117405352 56.4808
4.686235010953232 58.2227
4.708552674085913 59.2664
4.730887924602802 60.5691
4.753223354952695 62.369
4.775541557023902 63.9532
4.797877349456786 65.1113
4.820195915032126 66.829
4.842532072957498 68.4494
4.864868414979744 70.6695
4.88718753227192 73.2687
4.909524244902505 74.6807
4.931843734218147 76.163
4.954180820867835 79.2948
4.976518095879839 81.9103
4.998838149695359 85.3497
5.021175803844231 88.8083
5.043496238205739 92.6551
5.065834274903528 97.22
5.088172504230693 102.68
5.1104935158799565 110.53
5.132832132875765 138.35299999999998
5.155153533596801 194.301
5.1774925416746225 237.882
5.199814334878411 435.455
5.2221537374521505 1200.45
5.244493338631803 3023.8
5.266815727034316 7019.33
5.289155727832427 11645.5
5.311478517248165 9281.36
5.333818921080011 3613.33
5.356159527788849 773.182
5.3784829252032536 224.415
5.400823940070432 161.298
5.423147747031976 138.665
5.445489173474152 126.971
5.467830807066149 119.97200000000001
5.490155234831516 114.833
5.512497285125229 109.963
5.534822130975162 107.584
5.557164601388673 105.09700000000001
5.579489868738879 102.15299999999999
5.601832762690846 101.51700000000001
5.6241758697774475 100.889
5.646501775867269 99.6011
5.668845311622074 97.5573
5.691171647754637 96.9291
5.713515615597765 95.4503
5.735859800852677 94.5269
5.758186788542988 94.4598
5.780531411018185 94.6954
5.802858837297399 94.0114
5.825203900414495 94.3381
5.8475491852224 95.2293
5.869877275883075 95.3612
5.892223006467101 96.7082
5.914551544266608 98.20100000000001
5.936897724049891 101.036
5.959244129804903 107.32799999999999
5.981573344815301 130.195
6.0039202049061 234.27700000000002
6.026249875609095 514.753
6.04859719346037 1041.17
6.070927323278297 2095.3
6.093275102315365 3937.31
6.115623113320588 4970.97
6.137953938319995 3497.85
6.160302415650845 1248.35
6.182633708324452 309.291
6.2049826554078376 130.793
6.227331838745022 100.665
6.249663839443684 90.5293
6.27201349767565 86.70700000000001
6.294345974611799 94.2489
6.316696111167083 109.352
6.339046488263839 102.48100000000001
6.361379686074702 84.2055
6.383730546639482 74.3021
6.406064229255215 71.1946
6.428415576718203 70.5094
6.450749747566656 69.1588
6.47310158535871 67.97800000000001
6.495453669698332 67.4098
6.517788579421056 66.6037
6.540141159237969 65.4614
6.562476565766648 64.6849
6.5848296444934045 64.5349
6.607182974060425 64.2449
6.6295191323281015 64.4556
6.651872965955752 68.6361
6.6742096296068985 100.271
6.6965639707294615 159.44899999999998
6.71891856698715 161.079
6.741255995248479 105.98299999999999
6.763611104154477 72.0108
6.785949046381137 62.3421
6.808304671371482 60.6243
6.8306605557940046 59.82
6.852999275508618 58.8762
6.875355681171544 58.5075
6.897694923437771 58.4323
6.92005185377892 58.3099
6.9423916220322655 57.9818
6.964749080490181 57.5666
6.987106804399774 57.4083
7.009447368180821 57.1521
7.031805625367033 56.9306
7.054146723727803 57.1295
7.076505517631004 56.8052
7.098864581288365 56.8191
7.121206488070854 56.199
7.143566093607822 56.3822
7.165908543567245 57.3111
7.188268694426048 57.3831
7.2106291193438095 56.9982
7.232972390625943 58.6262
7.255333366030969 73.9893
7.277677189091925 141.697
7.300038718428332 204.94400000000002
7.322400526130865 171.357
7.344745183422596 100.46700000000001
7.367107550224791 65.3769
7.389452767901992 58.1057
7.411815697249891 56.5938
7.434161478756298 56.0408
7.456524974096713 55.8288
7.478888753837185 55.6779
7.501235387657368 55.8184
7.523599738562711 56.028
7.545946944825532 56.2777
7.568311870344528 56.5234
7.5906770845765665 57.1694
7.613025156078678 58.6677
7.635390950099687 60.0526
7.657739602662809 58.8861
7.680105979923558 57.4061
7.702472650212829 57.3763
7.724822180948224 57.3919
7.747189439655568 57.8009
7.769539560075357 57.4729
7.791907410653562 57.8877
7.81425812420825 57.6065
7.836626570110925 58.0555
7.858995315087906 59.0104
7.881346924933401 58.6895
7.903716270417482 59.3507
7.926068482028405 59.8625
7.948438431475253 60.7588
7.9708086843180235 61.3752
7.993161805171116 62.0134
8.015532667162402 62.1945
8.037886398416653 63.1674
8.060257873014221 63.6595
8.082629655331942 64.2641
8.104984308787587 65.2379
8.127356708900503 69.4118
8.149711981398308 76.3384
8.172085002766314 79.1577
8.194458336181368 74.9641
8.216814543847752 71.5756
8.23918850371002 71.1715
8.26154533906492 71.7754
8.283919928836452 73.3046
8.306277395339652 74.2823
8.328652618483376 75.7442
8.351028159736202 77.7607
8.373386579575245 79.9126
8.395762759396959 82.2016
8.418121819038275 88.0922
8.440498640894003 103.82799999999999
8.462875785192262 121.294
8.485235811156207 134.898
8.507613602688501 178.495
8.529974277114228 278.73400000000004
8.552352719347912 418.555
8.574731488360351 661.1489999999999
8.59709314210385 1102.88
8.619472567021075 1668.2
8.64183487789147 2101.74
8.664214962183097 1908.02
8.686577933647762 1128.26
8.708958680784317 481.05
8.731339760774953 203.141
8.753703729764451 122.46600000000001
8.77608547780821 104.845
8.798450116065078 99.7232
8.820832535634787 95.78299999999999
8.843215292401656 94.0243
8.865580941199045 92.1769
8.887964374703538 91.2379
8.910330701447199 92.7358
8.932714815164482 95.38799999999999
8.955099270424924 94.4579
8.977466620733543 90.9537
8.999851761421976 87.7852
9.022219798361645 86.024
9.04460562795561 85.3026
9.066991803441677 84.8771
9.089360876979615 84.8086
9.111747746589993 84.2303
9.13411751544971 83.6862
9.156505082664324 83.583
9.178875550323522 83.6963
9.20126381862328 84.0897
9.223652438908596 84.7712
9.246023961427412 84.4548
9.26841328802173 83.7804
9.290785518039224 83.9105
9.313175554425882 84.8853
9.335565947154315 84.552
9.357939245086508 84.66
9.380330352834827 84.8225
9.40270436697103 84.8824
9.425096193225055 84.4609
9.447488380180165 85.8817
9.469863475295412 86.0974
9.492256385987508 86.26700000000001
9.514632206018318 86.8695
9.537025843935714 86.948
9.559402392368193 88.1356
9.581796761000229 89.4229
9.604191496441521 90.6663
9.626569144158516 94.475
9.648964615551032 99.9789
9.671343000390081 102.086
9.693739211225699 99.089
9.716135793237463 96.2645
9.738515290448102 95.2459
9.760912617143402 95.8435
9.783292860202891 97.2579
9.805690935076182 98.6374
9.828089385495742 99.7045
9.850470754023561 102.12200000000001
9.872869957865444 111.25399999999999
9.89525208097539 130.058
9.917652041736662 145.734
9.940052382417589 145.036
9.962435644102392 149.856
9.984836746950979 188.425
10.007220771957746 260.344
10.029622640473708 367.80800000000005
10.052007432299963 534.24
10.074410069984072 775.187
10.096813093716005 1157.91
10.119199042482517 1592.96
10.141602840636468 1885.67
10.163989564971628 1742.09
10.186394141051062 1119.38
10.208799107559706 506.82199999999995
10.231187001965623 237.875
10.253592751657669 142.263
10.275981430388155 119.648
10.298387966769793 118.598
10.320794897965431 121.601
10.343184759907361 120.37700000000001
10.36559248305461 113.255
10.387983138083852 108.259
10.410391656691655 110.52799999999999
10.432800574501677 123.189
10.455192425893369 142.009
10.47760214443012 167.80900000000003
10.499994797678786 205.793
10.522405320453982 271.997
10.54479877906917 368.3
10.567210109595656 479.32599999999996
10.5896218454736 540.883
10.612016518879773 535.114
10.634429067781074 390.63
10.656824555333241 231.375
10.679237920773568 140.981
10.701651695961992 102.584
10.724048411481384 92.6393
10.746463008485165 89.1838
10.768860546937125 87.31299999999999
10.791275969274796 85.6378
10.81369180576079 84.2332
10.836090585366925 82.8983
10.858507252467449 81.7799
10.88090686379991 80.9723
10.903324365036394 80.4091
10.925724811614439 80.7175
10.948143150509463 82.2638
10.970561909719066 81.5927
10.992963615930844 79.0786
11.015383218085756 76.6564
11.037785768347074 74.9688
11.06020621697282 74.476
11.082627090322113 74.1029
11.105030913430326 73.571
11.12745263854165 74.2949
11.149857314510728 78.8171
11.172279894912576 86.4697
11.194702904450653 87.944
11.217108866490921 82.7039
11.239532736615194 77.3464
11.26193956033512 74.5597
11.284364294577085 72.6865
11.306789462371718 70.0933
11.329197585398376 68.7587
11.351623622610898 68.5001
11.37403261614354 67.5598
11.396459526308487 67.4184
11.418869393879497 66.9941
11.441297180532617 66.69800000000001
11.463725406927658 66.46600000000001
11.486136592353875 66.4445
11.508565700543707 67.1259
11.530977768845315 69.6515
11.553407762368774 70.5721
11.575838200059769 70.015
11.598251599479612 67.4614
11.620682927815501 65.8268
11.64309721895548 65.2572
11.665529441478206 64.5743
11.687962112597958 64.4092
11.710377748130886 64.355
11.732811318753434 64.6814
11.755227854859067 64.3207
11.777662328529495 64.2877
11.800079768750786 63.9653
11.822515149015453 63.7902
11.844950984084935 64.0972
11.867369787303163 63.7695
11.889806534289491 63.8255
11.912226250487029 64.3275
11.934663912939751 64.3898
11.9571020346363 64.5125
11.979523127133968 64.5388
12.001962169624331 65.1088
12.024384183972964 66.1996
12.046824150809913 69.6224
12.069264581333726 75.1926
12.091687985297767 82.2419
12.11412934550045 90.9525
12.136553680195208 103.941
12.158995973632788 122.079
12.181438735204349 146.72799999999998
12.20386447284199 174.06099999999998
12.226308172985636 197.78099999999998
12.24873485024193 210.278
12.271179492516982 182.389
12.293607112949127 141.148
12.316052700916226 107.675
12.338498763250042 85.333
12.360927805303868 74.1288
12.383374818673879 68.9623
12.405804812803074 66.6876
12.428252780773262 66.0085
12.45070122756722 65.9525
12.473132656675375 65.6895
12.49558206341869 65.7988
12.518014453510101 65.8351
12.540464823770117 65.9311
12.562915677315177 66.2815
12.58534951575545 67.2553
12.607801338171472 69.6016
12.630236146511358 76.2962
12.652688941369085 82.4701
12.675124723177234 82.7593
12.697578494048786 78.1315
12.720032754458185 72.3039
12.742470003354093 69.7967
12.764925245138771 69.4978
12.787363476431278 69.748
12.809819703166806 70.0819
12.83227642391173 70.7896
12.854716135692716 71.2321
12.877173846755147 72.3091
12.899614549869717 72.4801
12.9220732548287 73.4449
12.94453245827299 73.8621
12.966974655289818 74.6408
12.989434858002571 75.5889
13.011878055298721 76.3936
13.034339260862497 77.3735
13.056800969391883 78.4164
13.079245674017244 80.7712
13.101708390774869 83.1493
13.12415410463411 90.8936
13.146617833206086 103.87299999999999
13.169064559883248 117.641
13.191529303857127 132.461
13.213994557076367 153.39
13.236442809902437 183.757
13.258909083908291 229.09599999999998
13.28135835851934 282.461
13.30382565690295 343.20599999999996
13.326293469022952 403.811
13.348744283242008 426.814
13.371213125129904 383.981
13.39366497011003 297.645
13.416134845360597 200.824
13.438605238843131 138.469
13.46105863690397 112.823
13.483530069144786 110.103
13.505984506951902 115.709
13.528456981549432 126.029
13.550929978879088 139.61
13.573385983253365 159.615
13.595860028340867 189.895
13.618317081455832 232.47799999999998
13.64079217790333 282.572
13.663250283359057 327.269
13.685726434770173 362.909
13.708203115221277 352.82
13.730662806148091 292.48400000000004
13.75314054697177 215.093
13.775601299246777 146.70600000000002
13.798080104050406 106.714
13.820559442405358 89.7022
13.843021793671388 84.5318
13.865502201420897 82.2418
13.887965623051947 81.5626
13.910447103807167 80.4767
13.932929122629764 78.8043
13.955394156785959 78.4502
13.977877254034569 77.7307
14.000343367582113 76.6363
14.022827546871707 76.1307
14.045294743423524 75.3079
14.06778000837062 74.5697
14.090265817715476 74.3023
14.112734645763819 74.3658
14.13522154619454 74.45
14.157691466286913 74.3648
14.180179461423874 73.8405
14.202668005486178 73.5246
14.22513957064374 72.6459
14.247629214846473 71.9644
14.270101881097517 71.9985
14.29259262906496 72.4712
14.315083930490205 73.2961
14.337558255389705 73.5938
14.360050666019726 73.2503
14.382526101071944 72.2391
14.405019624534942 71.1859
14.427513705993134 70.3349
14.449990813291825 70.2394
14.47248601302899 70.3305
14.49496423954951 70.4493
14.517460561197822 70.2565
14.539939910570322 70.1782
14.562437357763558 70.9541
14.58493536931253 72.1085
14.607416409993311 73.3835
14.62991555254159 74.1237
14.652397725157423 73.9414
14.674898002342799 72.7282
14.697398848433282 71.919
14.719882725991326 72.7556
14.74238471217934 73.5713
14.764869730765593 77.0208
14.787372860692983 81.2049
14.809876564079925 86.2902
14.83236330125751 92.2821
14.854868153850365 100.296
14.877356041159485 111.675
14.899862046604186 127.109
14.922351087688757 147.28
14.944858249632887 171.106
14.967365991421232 196.373
14.989856770231246 216.62099999999998
15.012365673994204 220.058
15.03485761569738 200.97
15.05736768508665 165.55200000000002
15.07987833888692 129.705
15.102372032001655 101.191
15.124883856909658 82.5048
15.14737872204565 75.1454
15.169891721717274 72.5491
15.192405310371893 72.435
15.214901940621196 72.9828
15.237416709527137 73.4452
15.259914520936249 73.6285
15.282430473753607 72.4811
15.304947020131227 70.94800000000001
15.327446610371178 69.9884
15.349964346154254 68.9518
15.372465126703139 68.2273
15.394984055556009 68.0836
15.417486030076159 67.89
15.44000615566487 67.5237
15.462526881230803 67.76100000000001
15.485030653812652 67.8833
15.507552581617434 68.0091
15.530057557334603 68.1588
15.55258069104857 67.789
15.575104429329837 67.95
15.597611216864632 67.415
15.620136166564563 67.3036
15.6426441664095 68.2944
15.665170331202765 70.9226
15.687697105158826 74.1631
15.710206930593545 78.1967
15.732734925158933 82.8699
15.755245972089478 88.7383
15.77777519094324 96.3646
15.800287463046663 107.148
15.822817909869592 122.41
15.84534897229804 140.233
15.867863089299354 161.911
15.890395385222186 180.24599999999998
15.912910736597423 193.47799999999998
15.935444269699861 189.847
15.957978423016485 172.187
15.980495633101265 139.892
16.003031029129367 108.823
16.02554948280019 84.1934
16.048086125229432 72.3286
16.070623392487107 68.21600000000001
16.09314371869582 66.9048
16.11568223789321 66.2236
16.13820381691126 64.6897
16.160743591742527 63.4076
16.183283996022084 62.1528
16.205807461423195 61.0656
16.228349126881973 60.5606
16.25087385432698 60.4975
16.27341678466365 59.8843
16.29594277784926 59.74100000000001
16.31848697676433 60.3813
16.341031811604868 61.0132
16.36355971058487 61.1158
16.3861058195587 61.0789
16.40863499352978 59.7347
16.431182380342005 58.5622
16.453730407713202 57.6499
16.476261501364792 57.2374
16.498810812136167 56.6755
16.52134319004079 57.042
16.54389378792203 56.8198
16.566445031001553 56.8084
16.588979342490088 56.4131
16.61153187824822 56.2976
16.634067483263312 56.0611
16.656621315414416 56.1344
16.679175797408888 55.821999999999996
16.701713349928728 56.0261
16.72426913389191 56.3093
16.74680798922351 56.2999
16.76936507887444 56.3822
16.791905240734874 56.3236
16.814463639794468 56.1122
16.837022695210294 56.0938
16.859564824093756 56.5966
16.882125194503903 57.5601
16.904668639217885 58.3802
16.927230328348003 58.6922
16.949792678493612 58.7404
16.972338104193863 57.7321
16.994901778652235 57.1121
17.017448529496576 57.0653
17.040013531998152 57.0852
17.06257920018044 57.705
17.0851279459922 58.5767
17.107694947817667 59.4567
17.130245028099072 60.3699
17.15281336730298 61.7176
17.17536478578733 63.3485
17.19793446610687 65.1368
17.220504818648422 67.4079
17.243058251703697 69.8908
17.265629950971032 73.7635
17.288184731571736 78.2811
17.310757781306908 82.2281
17.33333150794385 84.7396
17.355888317140174 83.8767
17.37846339986244 80.2933
17.401021565958885 74.6985
17.42359800851343 69.0465
17.44617513265564 64.6368
17.468735341390783 61.8828
17.491261035594565 60.6235
17.51396340099364 60.2975
17.536490463869136 60.6511
17.559018209820174 60.5188
17.58154663977963 60.6804
17.604251766089718 60.5945
17.626781572227713 60.8423
17.64931206518155 61.2646
17.671843245885103 61.8591
17.69455114821572 62.1875
17.717083712612634 62.4393
17.739616967569667 62.533
17.762150914021706 62.7285
17.78486160749854 62.6595
17.807396945166804 63.1527
17.829932977143503 64.2297
17.85246970436452 65.7803
17.875183204129467 67.8195
17.897721330097664 70.3768
17.920260154126645 73.0391
17.942799677153296 75.7076
17.9655159983646 79.0933
17.988056927677544 83.6444
18.010598558807683 89.9422
18.033140892692916 98.0876
18.05586005052525 106.47
18.07840379824407 117.163
18.10094825154059 127.699
18.12366954819864 137.457
18.146215420998306 141.974
18.16876200220057 138.355
18.191309292745153 126.305
18.214033452627167 112.579
18.236582170236648 98.6424
18.259131600016456 90.2793
18.281681742907335 87.9006
18.304408781233683 90.1268
18.32696035875955 93.9025
18.349512652227624 98.4958
18.372065662579683 103.916
18.394795594587553 106.79
18.41735004715306 105.921
18.43990521943684 101.196
18.46246111238171 92.8811
18.485193953325208 82.6343
18.507751296070428 74.1772
18.530309362314178 68.8201
18.552868153000343 65.6546
18.57560391815056 63.9657
18.59816416623245 63.4685
18.620725141597372 62.9696
18.643286845190268 62.4881
18.666025549835414 62.1005
18.688588718427933 61.3754
18.711152618092243 61.0195
18.73389353884365 60.7739
18.75645890921984 60.3502
18.77902501351406 60.1681
18.801591852673102 60.0202
18.824335739722738 59.4988
18.846904057212626 59.3409
18.8694731124168 59.1019
18.89204290628315 59.1723
18.914789774966803 59.0131
18.937361054791623 58.5885
18.959933076131318 58.3753
18.982505839934877 58.4392
19.00525570560582 58.4872
19.027829963004184 58.31100000000001
19.05040496572238 58.617
19.072980714710468 58.4544
19.095733592739563 58.5469
19.11831084296757 58.986999999999995
19.140888842324735 59.5887
19.16346759176222 60.0537
19.18622349753803 60.4355
19.208803755869358 61.2502
19.231384767143577 62.191
19.253966532312948 63.354
19.276725481241822 64.8356
19.29930876296784 66.6592
19.3218928014549 69.2516
19.34465404436217 72.4007
19.36723960516257 75.4973
19.389825925592426 77.5598
19.412413006605938 77.7563
19.43517731967805 75.0691
19.457765930683355 71.327
19.48035530514408 66.6897
19.50294544401556 62.6381
19.525712842708348 59.1321
19.54830451925909 57.143
19.570896963095727 55.7775
19.593490175174704 55.3361
19.616260674962184 55.3261
19.638855432416964 54.9109
19.661450960992624 54.9603
19.68404726164677 54.7712
19.706820878021247 54.6084
19.729418731756834 54.8328
19.752017360452857 54.6355
19.77461676506804 54.63
19.797393513540218 54.9543
19.819994478951667 55.4064
19.84259622316767 56.0591
19.8651987471481 56.4476
19.887978643247177 56.6011
19.91058273574792 57.1209
19.933187610901943 57.8563
19.955969879466828 58.5028
19.97857632894404 59.5271
20.00118356396599 61.052
20.023791585494575 62.8828
20.046577028914875 64.9797
20.069186632506966 67.0054
20.091797025500632 68.9305
20.114408208858933 70.5843
20.137196842715273 71.4131
20.159809615886765 70.2788
20.18242318232135 68.0978
20.20503754298326 65.8629
20.227829382875154 64.1089
20.250445341109344 63.1519
20.27306209647285 63.3503
20.29567964993108 63.9527
20.31847471147704 65.2352
20.34109387027612 66.1279
20.363713830075454 66.6487
20.386334591841646 66.0601
20.409132890679302 64.2001
20.431755265564437 61.2591
20.454378445325528 58.4201
20.477002430930366 55.9949
20.499803982716553 54.3189
20.522429589228004 53.2931
20.54505600449589 52.5436
20.567683229489194 52.4415
20.590488049900088 52.0153
20.61311690359731 51.5495
20.63574656993626 51.2623
20.658553853717297 51.0568
20.681185154618298 51.0339
20.703817271080066 50.7187
20.72645020407368 50.4631
20.749260783967177 50.2634
20.771895359337133 50.3254
20.794530754161617 50.2767
20.817166969412938 50.1317
20.83998086114876 50.0338
20.86261872660049 49.9777
20.885257415405402 49.9272
20.90789692853701 49.9327
20.930714147864748 49.714
20.953355319030678 49.6637
20.97599731745334 49.8329
20.99864014410749 49.8085
21.021460706796564 49.9235
21.044105199328826 50.0406
21.06675052302631 50.3096
21.089396678865015 50.3321
21.112220600704806 50.6896
21.134868430275347 50.9998
21.15751709492456 51.2034
21.180166595629693 51.4495
21.202993892429635 51.8143
21.22564507473034 52.3701
21.24829709602816 52.4541
21.27112693608965 52.5778
21.293780644891275 53.0165
21.316435195634053 52.2754
21.339090589297417 51.5376
21.361923832041875 51.1396
21.384580921090404 50.2794
21.407238856007325 49.7967
21.429897637773326 49.6934
21.45273429906592 49.6682
21.475394784108598 49.5367
21.498056118951983 49.4816
21.520718304578022 49.7504
21.543558400304388 49.8004
21.566222297108816 50.1246
21.58888704765135 50.0412
21.61155265291521 50.3768
21.63439619898156 50.861000000000004
21.657063523335786 51.2359
21.67973170537063 51.6916
21.7024007460706 52.0194
21.72524775840385 52.6326
21.747918526116475 53.6414
21.770590155457388 54.8545
21.79326264741238 56.2167
21.816113141960237 57.6118
21.838787368860547 59.2716
21.861462461341976 60.9758
21.884315579735777 62.7464
21.90699241312273 64.4102
21.92967011506078 65.6872
21.95234868653799 66.2877
21.9752053151131 65.7107
21.997885635446785 64.1355
22.020566828293532 62.2521
22.04324889464272 60.0085
22.066109049404666 58.137
22.088792872571794 57.21
22.111477572219204 57.0981
22.1341631493376 57.2671
22.157026846313123 57.2017
22.179714188221507 56.9107
22.202402410582668 56.1484
22.22509151438863 54.6271
22.24795876962584 53.2376
22.270649646204486 52.353
22.293341407213727 51.3998
22.316034053646906 50.881
22.338904883215342 50.5543
22.36159931041458 50.3771
22.38429462602756 50.3098
22.40699083104897 50.1541
22.429865251039757 50.1597
22.452563244831367 50.2499
22.47526213102522 50.0619
22.49813925616515 49.9074
22.520839937143307 49.8107
22.543541513520587 49.7563
22.56624398629403 49.706
22.589124730075895 49.4742
22.611829005656723 49.8098
22.63453418063466 49.9232
22.657240256008077 50.045
22.680124634582935 50.2808
22.70283252079775 50.5706
22.725541310413075 50.8912
22.74825100442868 51.0537
22.771139033969575 51.5999
22.79385054687155 51.7834
22.81656296718292 52.2894
22.83927629590484 52.8476
22.862167992606945 53.812
22.88488314827121 54.6882
22.907599215359284 55.394
22.93031619487366 56.4319
22.953211574954405 57.2656
22.975930389478226 58.4964
22.998650119445763 59.3611
23.02137076586092 58.8055
23.044269845560063 58.1163
23.06699233506288 56.6768
23.089715744034912 54.8328
23.112617610931565 53.0419
23.135342869061212 51.7817
23.158069049684816 50.6478
23.1807961538087 50.1959
23.20370174880544 50.0334
23.226430710184808 50.0647
23.249160598093425 50.0207
23.271891413539002 50.1512
23.294800752937697 50.1083
23.31753343374794 50.3355
23.340267045128353 50.5318
23.36300158808808 50.6944
23.38591468821339 50.9534
23.408651104658304 51.3171
23.431388455719986 51.8668
23.454126742409 52.5421
23.4770436196085 53.3455
23.499783787914662 54.3891
23.522524894889884 55.1505
23.54526694154616 56.048
23.56818761219047 57.2935
23.59093154860734 58.0751
23.613676427751283 59.0604
23.636422250635754 58.7737
23.659346731118656 57.6224
23.68209445191868 56.1222
23.704843119509587 53.9591
23.72759273490623 51.8548
23.750521041644767 49.9586
23.77327256312355 48.8368
23.796025035462787 47.9553
23.818956224555475 47.4052
23.841710609113413 47.3207
23.86446594758979 47.0575
23.887222241002014 46.7318
23.910157285144578 46.442
23.932915498962537 46.5034
23.955674670778713 46.3569
23.978434801611975 46.1121
24.001373717286125 46.0242
24.024135776723917 46.0113
24.046898798245582 45.5763
24.06966278287146 45.6297
24.092605586582614 45.2382
24.115371508023642 45.18899999999999
24.1381383956401 45.1046
24.16090625045381 45.2497
24.183852958731244 45.0468
24.206622758582608 44.9519
24.229393528706886 44.8999
24.252165270127392 44.8542
24.27511589952438 44.7181
24.297889594216997 44.6765
24.32066426328598 44.4464
24.34343990775613 44.5143
24.36639447485003 44.3426
24.38917208083877 44.2118
24.41195066531332 44.1302
24.43490819850244 44.2775
24.457688750692377 43.9296
24.48047028445616 43.8755
24.503252800821233 44.0061
24.526214300784112 44.1457
24.548998793132213 44.1611
24.57178427117417 43.9328
24.59457073593893 44.1887
24.617536219319863 44.0259
24.64032466834748 44.0721
24.663114107195035 43.7836
24.685904536893013 43.6985
24.708874020360852 43.6663
24.731666442613744 43.6628
24.754459858818787 43.449
24.777254270007962 43.3011
24.80022777025625 43.2932
24.82302418230472 43.3916
24.845821592443674 43.4506
24.86862000170663 43.3154
24.891597535453727 43.2278
24.914397953892728 43.397
24.93719937456671 43.2366
24.96000179851076 43.4546
24.98298338249997 43.5506
25.00578782394922 43.8004
25.028593271784167 43.7068
25.05157790644186 44.1489
25.07438537804115 44.1832
25.097193859145293 44.4346
25.120003350792075 44.628
25.142992065061257 45.0036
25.165803588823465 45.3224
25.18861612625217 45.5654
25.211429678386736 45.6599
25.234422489079968 45.623999999999995
25.257238081693636 45.7444
25.280054692141732 45.9482
25.3028723214652 45.906000000000006
25.325869245420463 45.8656
25.348688923599397 45.9234
25.371509623787006 45.8107
25.394331347025812 45.7495
25.41733240110666 45.4608
25.440156181590016 44.8097
25.46298098826268 44.494
25.48580682216873 43.8744
25.50881202326435 43.2114
25.53163992281684 42.6609
25.55446885274561 42.3203
25.577298814096377 42.0349
25.600308179121807 41.8249
25.623140214533745 41.9762
25.64597328451537 41.7488
25.66898578564376 41.467
25.691820936010206 41.6267
25.714657124097695 41.4207
25.737494350954734 41.4933
25.760511045684957 41.4419
25.783350361364224 41.5601
25.806190718969255 41.457
25.82903211955018 41.5999
25.852053024868923 41.5933
25.874896522722523 41.7321
25.897741066713106 41.5451
25.920586657892454 41.6624
25.943611790812668 41.8186
25.966459487728237 41.9085
25.989308234998564 41.9242
26.01215803367705 42.2393
26.03518741123814 42.4289
26.05803932412957 42.5246
26.080892291600094 42.3336
26.10374631470478 42.449
26.12677995397268 42.6676
26.14963609978026 42.7643
26.172493304397875 42.4637
26.19535156888223 42.2746
26.218389486949604 41.9167
26.241249882640123 41.7858
26.26411134137826 41.4445
26.28715248187403 41.4826
26.31001607820869 41.231
26.3328807407756 41.0742
26.35574647063438 41.1709
26.37879191991473 41.0881
26.401659795896734 41.0834
26.424528742360263 41.222
26.447398760366614 41.3999
26.470448535598294 41.573
26.49332070826805 41.7597
26.516193955675355 42.0141
26.53906827888316 41.9923
26.562122397260108 42.1589
26.584998883685063 42.61
26.607876449110325 42.6562
26.63075509460056 42.861999999999995
26.65381357334404 43.1674
26.67669439061878 43.1499
26.699576291163382 43.0858
26.722459276044212 43.0667
26.745522132402975 42.8161
26.768407297649354 42.662
26.791293550442003 42.1803
26.814180891848974 41.8921
26.837248143099337 41.4969
26.860137673466657 41.4555
26.88302829566349 41.2256
26.90592001075963 41.1415
26.92899167420566 41.1227
26.951885586870763 40.6058
26.974780595655517 40.3262
26.99785558178161 40.2881
27.020752794605112 40.1293
27.043651106772522 39.9587
27.06655051935668 39.6862
27.089629948036183 39.6402
27.112531573292053 39.6606
27.135434302194138 39.6949
27.158338135817015 39.6415
27.181422024430987 39.7141
27.204328079372566 39.5385
27.22723524226965 39.5088
27.250143514198573 39.6114
27.273231880156334 39.4314
27.296142382065014 39.2834
27.319053996245536 39.2609
27.341966723775965 39.3326
27.365059584515222 39.3523
27.38797455070062 39.4674
27.410890633481237 39.292
27.433807833936918 39.2307
27.456905206923906 39.3203
27.47982465472398 39.4176
27.502745223449743 39.4141
27.525666914182825 39.6052
27.548768816912457 39.5152
27.571692763693633 39.3535
27.59461783573812 39.291
27.617723149491244 39.1451
27.640650484125285 39.0467
27.66357894728264 39.0654
27.686508540048052 39.0489
27.709618414237887 38.9449
27.732550278321757 38.8867
27.755483275279115 38.914
27.778417406196485 38.7965
27.801531858397514 38.7602
27.824468269376716 38.6982
27.847405817586786 38.7341
27.870344504116094 39.0185
27.893463551932008 38.9674
27.916404527281053 39.2237
27.93934664422563 39.0907
27.962289903855886 39.1132
27.98541356491974 39.4047
28.00835912214229 39.522
28.03130582533231 39.804
28.054253675581805 40.0701
28.077381967556104 39.9455
28.100332124185126 40.0247
28.123283431160893 39.9318
28.146235889577238 39.884
28.169368830154156 39.6466
28.192323603752033 39.4097
28.215279532083304 39.1663
28.238415973016764 38.830999999999996
28.261374223145094 38.8521
28.284333631303806 38.6019
28.307294198589954 38.4905
28.330435319167677 38.2686
28.353398217078915 37.8678
28.376362277420153 37.7155
28.39932750129032 37.4541
28.422473319286713 37.3586
28.44544088262495 37.3553
28.468409612800283 37.1745
28.491379510913497 37.036
28.51453004413313 36.8416
28.53750229057244 36.8814
28.56047570826344 36.9068
28.583450298308804 36.7902
28.606605564586562 36.6
28.629582511831156 36.6354
28.65256063474956 36.4982
28.675539934446338 36.5692
28.698699951647605 36.5844
28.72168161743193 36.3134
28.74466446331978 36.3557
28.767648490417624 36.3451
28.790813276438353 36.316
28.813799678527303 36.2736
28.836787265157085 36.2402
28.859955641890075 36.334
28.882945610203045 36.2765
28.905936766392035 36.2206
28.928929111566863 36.2706
28.952102288520145 36.2845
28.975097024308607 36.0688
28.998092952423807 35.8992
29.021090073977508 35.8027
29.04426806913204 35.7044
29.067267590245258 35.5966
29.090268308143695 35.5903
29.11327022394099 35.4848
29.13645305530891 35.3693
29.159457379627167 35.2654
29.18246290519685 35.2565
29.20546963313352 35.1698
29.22865731875826 35.2277
29.25166646419296 35.3099
29.27467681535305 34.9348
29.29768837335608 35.0202
29.320880931312562 35.1709
29.34389491580634 35.1464
29.366910110507334 35.0406
29.38992651653503 35.1208
29.41312396492981 35.0925
29.436142806456754 35.0048
29.45916286268059 34.8587
29.48236399319994 34.7702
29.50538649169417 34.7379
29.528410208259935 34.6761
29.55143514402014 34.4547
29.574641196749695 34.4192
29.597668583816574 34.2833
29.6206971934585 34.0345
29.64372702680042 34.1019
29.666938019934474 34.0469
29.689970313635285 33.9269
29.713003834422636 33.8658
29.73603858342347 33.7933
29.759254535188578 33.6294
29.78229175361658 33.5659
29.80533020365064 33.8095
29.82836988641968 33.7129
29.85159081507472 33.6174
29.874632976355343 33.4877
29.89767637376955 33.7143
29.920721008448314 33.37
29.9439469322847 33.424
29.96699405457564 33.3644
29.9900424175358 33.3893
30.013092022298157 33.2884
30.03632295963995 33.1778
30.059375061131373 33.2514
30.08242840783577 33.3109
30.105483000888153 33.3109
30.128718970092244 33.2032
30.151776069006917 33.2243
30.17483441768648 33.3075
30.198074175317235 33.3337
30.221135036724256 33.2678
30.24419715131772 33.2068
30.267260520236203 33.0861
30.290505341942243 33.1286
30.313571232750228 33.2449
30.336638381310948 33.049
30.35970678876503 32.9704
30.38295669299435 32.9981
30.40602763151657 33.0537
30.429099832366074 32.8997
30.452173296685572 32.8384
30.47542830191959 32.7774
30.498504306502497 32.9246
30.521581577995562 32.9315
30.544660117543582 32.8264
30.56792024229725 32.9289
30.59100133132069 32.8506
30.614083691845494 32.8698
30.637167325018545 32.9543
30.660432587840603 33.032
30.683518779717886 32.9769
30.70660624769615 33.0199
30.729694992924372 32.9211
30.75296541239743 32.9898
30.77605672557558 32.9806
30.799149319462742 32.9845
30.8224236211637 32.8407
30.845518789950724 32.7312
30.868615242910597 32.606
30.891712981195973 32.4524
30.91499247215866 32.4493
30.938092794619365 32.3465
30.96119440587579 32.2814
30.984297307082752 32.065
31.00758200598383 31.9802
31.030687500658694 31.9875
31.053794288760695 31.9679
31.076902371446767 31.8527
31.100192296997445 31.9842
31.12330298246119 31.8116
31.14641496599209 31.7856
31.169528248749216 31.7831
31.19282341969534 31.7578
31.215939314557186 31.7105
31.239056512134788 31.7004
31.262175013589378 31.6556
31.28547544871168 31.5847
31.30859657161541 31.4919
31.331719001892175 31.5227
31.35484274070538 31.6209
31.378148458819545 31.5836
31.401274828443725 31.6299
31.424402510106933 31.6554
31.447712205419993 31.6001
31.470842524931633 31.5094
31.493974159989783 31.5327
31.51710711176168 31.6107
31.54042212308802 31.5711
31.563557722100917 31.5995
31.586694641341655 31.4217
31.609832881979628 31.3503
31.63315322823208 31.2066
31.656294125521327 31.1255
31.679436347728515 31.0927
31.70257989602529 31.046
31.725905596152327 30.9431
31.74905181052835 30.7644
31.772199354521323 30.8455
31.79534822930507 30.8452
31.818679302290967 30.9378
31.84183085259981 30.8945
31.864983737233473 30.9107
31.88813795736804 30.8553
31.911474422233013 30.7831
31.934631327356435 30.7995
31.9577895715215 30.8705
31.980949155906522 30.8651
32.004291031706956 30.7048
32.027453310562606 30.6488
32.05061693318573 30.5378
32.07396288236386 30.6096
32.09712920658542 30.5186
32.12029687812702 30.3948
32.14346589817093 30.3588
32.166817291729984 30.2659
32.18998902288583 30.1694
32.21316210610336 30.1713
32.23633654256711 30.0259
32.259693399663725 29.9542
32.282870556771144 29.9492
32.30604907069099 29.8768
32.329228942610065 29.8438
32.35259128243769 29.7158
32.375773884550505 29.6485
32.398957848235646 29.6011
32.422143174682176 29.5511
32.445511016471215 29.4841
32.468699082679954 29.3929
32.49188851523011 29.3602
32.51507931531304 29.3815
32.538452678331 29.4201
32.56164622776311 29.2693
32.58484114831493 29.1395
32.60803744118015 29.204
32.631416344731896 29.1918
32.654615396551876 29.1167
32.67781582427913 29.1557
32.701198898634416 28.9676
32.72440209253756 28.9355
32.747606665947124 28.9965
32.77081262006088 28.8324
32.79420126883317 28.9071
32.81740999876112 28.8638
32.840620112999424 28.7501
32.86383161274818 28.7357
32.88722585534586 28.6686
32.91044014056596 28.7057
32.933655814909734 28.6542
32.95687287957963 28.6386
32.98027273544904 28.5763
33.00349259526636 28.5499
33.026713849030116 28.5747
33.04993649794511 28.6168
33.073341986570746 28.468000000000004
33.09656744032826 28.4602
33.11979429286444 28.522
33.14302254538647 28.4313
33.166433686291185 28.3778
33.18966475336992 28.4042
33.212897224069096 28.2866
33.23613109959831 28.2827
33.259547912343415 28.2428
33.2827846121627 28.2832
33.306022720453775 28.1248
33.32926223842861 28.0353
33.352684742614166 28.1812
33.37592709463173 28.0787
33.399170859982064 27.9994
33.422597648419426 27.9471
33.44584425514446 27.8251
33.46909227885668 27.7847
33.4923417207723 27.6562
33.51577423505344 27.666999999999998
33.539026528130385 27.6294
33.56228024307245 27.5417
33.585535381098246 27.4306
33.60897364093058 27.4233
33.63223163992385 27.461
33.6554910656699 27.2986
33.678751919389796 27.3782
33.702195944520106 27.2678
33.72545966903325 27.2472
33.74872482519663 27.1431
33.771991414233746 27.2012
33.79544122444841 27.1098
33.81871069412428 27.0811
33.84198160035767 27.0446
33.86525394437455 27.0356
33.88870955949969 26.9257
33.911984794020626 26.9059
33.93526147001624 26.9628
33.958539588715006 26.8623
33.98200102861669 26.7873
34.0052820477047 26.703000000000003
34.02856451319451 26.7329
34.05203033759056 26.628
34.07531571090147 26.6606
34.09860253431845 26.6585
34.121890809074316 26.5975
34.145362493118924 26.5851
34.16865368561615 26.4366
34.191946333164054 26.3428
34.21524043699793 26.377
34.23871800066799 26.3834
34.26201503218366 26.3205
34.28531352370466 26.2865
34.30861347646881 26.1665
34.33209693978188 26.1505
34.3553998301885 26.1996
34.378704185565205 26.1054
34.402010007152356 26.0591
34.42549939016683 25.9621
34.44880815937748 25.9015
34.472118398533134 25.9875
34.49543010887669 25.9179
34.51892543169198 25.7581
34.54224009966052 25.7988
34.56555624255917 25.8436
34.58887386163339 25.673000000000002
34.61237514439016 25.6266
34.6356957311114 25.5502
34.65901779775809 25.5686
34.68252356662995 25.4465
34.705848608458616 25.4884
34.72917513396849 25.4856
34.75250314440949 25.4251
34.77601490857862 25.2645
34.799345904259795 25.2456
34.82267838863559 25.3281
34.846012362958525 25.3115
34.869530142679984 25.2249
34.89286711232212 25.1796
34.91620557568269 25.2054
34.93954553401677 25.1682
34.9630693495876 25.068
34.986412313340814 25.109
35.00975677584668 25.1537
35.033102738362956 25.0413
35.05663261012228 24.8942
35.0799815881786 24.9679
35.10333207003229 24.8557
35.12668405694369 24.8907
35.150220005273056 24.8182
35.17357501786656 24.8294
35.19693153931268 24.8137
35.220289570874385 24.6997
35.24383161619786 24.6836
35.267192683604904 24.7153
35.290555264930376 24.6386
35.314101899412165 24.6835
35.33746752422433 24.6762
35.36083466676374 24.5819
35.38420332829803 24.6286
35.407756095629054 24.6763
35.43112781085063 24.6512
35.45450104888391 24.4861
35.477875810999194 24.4344
35.50143473172161 24.4762
35.52481255774625 24.4789
35.54819191167777 24.4237
35.57157279478914 24.4144
35.595137889488406 24.3883
35.61852184675279 24.2727
35.641907337029984 24.2166
35.665294361595684 24.185
35.68886565090076 24.1418
35.7122557598848 24.1342
35.73564740699838 24.1455
35.759040593519934 24.0143
35.78261809810353 23.9175
35.80601437933051 23.9572
35.829412203814705 23.8692
35.85281157283719 23.7738
35.876395313415884 23.822
35.8997977874528 23.7637
35.92320180988546 23.7257
35.946790244133936 23.6883
35.97019737933222 23.6835
35.993606066789866 23.6271
36.01701630779276 23.6539
36.04061101440684 23.5209
36.06402437852291 23.51
36.08743930005611 23.5472
36.1108557802951 23.4602
36.13445678011326 23.4751
36.15787639383515 23.3408
36.18129757014299 23.3249
36.20472031032821 23.3319
36.22832762423364 23.2568
36.25175350829375 23.2835
36.275180960119776 23.1524
36.298609981005924 23.174
36.32222362992669 23.1981
36.34565580510207 23.1565
36.36908955323448 23.0989
36.39252487562093 23.0132
36.416144880530226 23.0295
36.43958336764275 22.9464
36.463023432914625 23.0275
36.486465077645676 22.9685
36.51009145956204 22.9758
36.53353627947859 22.9907
36.55698268276811 22.8585
36.58043067073321 22.828000000000003
36.60406345072071 22.7794
36.62751462435344 22.758000000000003
36.65096738658405 22.7459
36.67460498210655 22.7052
36.69806093788647 22.7114
36.72151848619297 22.5997
36.744977628333636 22.5832
36.76862165890998 22.4192
36.79208400512205 22.5337
36.81554794910557 22.4798
36.83901349217101 22.4267
36.862663978991606 22.3896
36.88613273667352 22.3661
36.90960309738324 22.2983
36.933075062434064 22.2753
36.95673202673572 22.2759
36.98020721697122 22.2463
37.003684015502365 22.1078
37.027162423645365 22.1568
37.050825886711465 22.1182
37.07430753063053 22.0692
37.09779078812467 22.0319
37.121275660513014 21.9987
37.144945643673694 21.9643
37.16843376245278 21.9099
37.19192350009803 21.8955
37.215414857931435 21.8766
37.239091382563885 21.7411
37.262585997426164 21.8205
37.28608223645736 21.7937
37.309763684451696 21.7342
37.33326318851098 21.6749
37.356764320726555 21.6945
37.380267082425526 21.6698
37.40395510942588 21.6189
37.42746114683234 21.5438
37.45096881771841 21.5541
37.474478123414166 21.4807
37.49817275092816 21.5348
37.52168534303452 21.4489
37.54519957395567 21.3336
37.568715445024665 21.4303
37.592416694607714 21.3373
37.61593586281424 21.337
37.63945667518264 21.3666
37.66297913304891 21.2419
37.68668702630454 21.201999999999998
37.710212792059274 21.2088
37.733740207334854 21.1607
37.757269273470364 21.053
37.780983832050374 20.9911
37.80451621684926 20.9342
37.82805025654007 20.9568
37.851585952464795 21.0041
37.8753071980695 20.8979
37.89884622345676 20.8146
37.92238690911902 20.8094
37.94611318753442 20.7884
37.969657210779765 20.6924
37.99320289834801 20.7341
38.016750251586465 20.7237
38.04048325513017 20.6609
38.06403395679343 20.6542
38.087586328183946 20.6412
38.11114037065203 20.5974
38.13488012115898 20.5987
38.1584375229181 20.4875
38.181996599821 20.4294
38.205557353221124 20.4517
38.229303872575656 20.4708
38.2528679961576 20.4247
38.27643380031219 20.3593
38.30000128639589 20.3397
38.32375459653193 20.2965
38.34732546371299 20.257
38.37089801690786 20.2019
38.39447225747609 20.158
38.418232380377425 20.212
38.441810012983396 20.1603
38.46538933705673 20.156
38.488970353960084 20.1676
38.51273731166058 20.062
38.536321731567014 19.9893
38.55990784840681 19.9582
38.58367995004091 19.8877
38.60726947812959 19.8208
38.63086070726198 19.8942
38.654453638806274 19.8456
38.678232613930824 19.792
38.70182896773327 19.7545
38.72542702806741 19.7792
38.7490267963045 19.7204
38.77281266709232 19.6894
38.79641586862214 19.6539
38.8200207821842 19.6201
38.843627409152944 19.6616
38.86742019782782 19.5343
38.891030269149255 19.5462
38.914642058016156 19.5404
38.938255565806124 19.404
38.96205529464307 19.4098
38.98567225787121 19.4388
39.00929094417078 19.4366
39.03291135492255 19.4167
39.05671804624804 19.3752
39.080341923549106 19.2959
39.103967529460334 19.2542
39.127594865365744 19.1681
39.15140854155791 19.1281
39.17503935514948 19.1633
39.19867190290282 19.1399
39.22249083587951 19.1553
39.24612686969409 19.0834
39.269764641845306 19.054000000000002
39.293404153722804 19.066
39.317230110864074 18.9288
39.34087311998506 18.8797
39.36451787301696 18.8896
39.388164371352595 18.7892
39.41199737518003 18.8432
39.43564738196752 18.725
39.45929913825317 18.7758
39.48295264543308 18.7802
39.506792718520884 18.7192
39.530449745387216 18.6507
39.55410852735203 18.6785
39.57776906581474 18.6347
39.60161623079 18.5928
39.625280300200025 18.593
39.64894613032202 18.4898
39.67261372255866 18.4789
39.6964680021016 18.5708
39.72013913657293 18.5349
39.74381203738292 18.4757
39.76748670593756 18.4628
39.79134812278169 18.4452
39.81502634488497 18.4397
39.83870633896685 18.3515
39.862388106436654 18.3096
39.88625668336918 18.2916
39.90994201572829 18.2831
39.933629125719285 18.1739
39.957503091207826 18.1982
39.9811937746168 18.1859
40.00488623990914 18.0646
40.02858048850006 18.0922
40.05246165409549 18.0366
40.076159487492085 18.009
40.099859108448875 18.047
40.123560518384345 18.0147
40.1474489070226 17.9985
40.171153913178564 17.957
40.194860712584955 17.9061
40.2185693066637 17.9599
40.242464941335314 17.8861
40.26617714307655 17.7694
40.289891143772046 17.7432
40.3136069448471 17.7391
40.33750984859743 17.724
40.3612292688043 17.7341
40.3849504936829 17.6836
40.40867352466194 17.6737
40.43258372059144 17.6206
40.45631038219906 17.5932
40.48003885420956 17.6021
40.503769138055105 17.5959
40.52768664931955 17.5462
40.55142057531802 17.5135
40.57515631746428 17.4487
40.599079334038514 17.4791
40.62281872700477 17.4094
40.64655994043941 17.3737
40.67030297578061 17.3642
40.69423334835778 17.3016
40.71798004609188 17.2399
40.74172857006355 17.2296
40.76547892171441 17.2237
40.7894166736039 17.1858
40.813170699248566 17.1624
40.83692655691388 17.1603
40.86068424804498 17.1611
40.884629402612525 17.0873
40.908390779366385 17.0566
40.932153993938 17.0244
40.95591904777605 17.0319
40.979871628443995 16.9798
41.003640379561936 16.9839
41.02741097430883 16.9178
41.05118341413683 16.9667
41.075143444384416 16.8567
41.098919593177826 16.8307
41.1226975914255 16.8256
41.14647744058318 16.7902
41.170444943946755 16.7111
41.19422851378379 16.7147
41.218013938914645 16.7125
41.24198706625173 16.6297
41.26577622087193 16.6674
41.289567235177785 16.6554
41.31336011063129 16.5565
41.337340752422875 16.5413
41.361137369129835 16.5405
41.38493585138705 16.5442
41.40873620066004 16.4798
41.43272438060107 16.473
41.45652848292052 16.4004
41.48033445666918 16.3833
41.50414230331616 16.3853
41.528138045159764 16.3736
41.551949656675205 16.2924
41.575763145513235 16.3005
41.59957851314666 16.2394
41.62358184070442 16.241
41.64740098505737 16.1999
41.6712220126409 16.1886
41.69504492493139 16.1197
41.71905586207357 16.1166
41.74288256296395 16.1103
41.766711153007456 16.0414
41.79054163368412 15.9839
41.814560204340054 16.0282
41.838394485526365 15.9998
41.86223066180303 15.9585
41.88625497706819 15.9455
41.910094962812 15.9474
41.93393684811168 15.9113
41.95778063445365 15.7848
41.981812625263366 15.8246
42.00566023303407 15.8009
42.029509746323676 15.7469
42.05336116662236 15.7921
42.077400857069705 15.7894
42.10125611078846 15.7417
42.12511327600405 15.6586
42.14897235421036 15.6117
42.173019768448455 15.6121
42.19688269209613 15.5644
42.22074753323349 15.5102
42.24461429335818 15.5178
42.268669455600495 15.5446
42.292540073217886 15.4796
42.31641261433284 15.4668
42.34028708044675 15.4511
42.36435001496739 15.4568
42.38822835065557 15.429
42.41210861586426 15.3276
42.4359908120986 15.2998
42.46006154323262 15.3566
42.48394762115317 15.2807
42.507835634632315 15.2664
42.531912233047436 15.220999999999998
42.55580413732265 15.2297
42.579697981698 15.2068
42.60359376768525 15.1625
42.62767820545945 15.0797
42.65157789440821 15.0779
42.67547952952185 15.0204
42.699383112316 15.0871
42.72347541395347 15.0519
42.74738291190531 14.9868
42.771292362102166 15.0132
42.795203766063516 14.9506
42.819303956130405 14.9621
42.843219287476536 14.8922
42.86713657716324 14.8902
42.89105582671383 14.8345
42.91516392983864 14.8407
42.939087119032166 14.8031
42.963012272677304 14.7599
42.98693939230129 14.7624
43.01105543317513 14.7275
43.034986504731386 14.6466
43.05891954686589 14.6846
43.08285456110972 14.6414
43.10697856448665 14.571
43.130917542983475 14.5487
43.15485849820081 14.5359
43.17880143167367 14.5283
43.20293342237094 14.5006
43.226880332449 14.4736
43.25082922540554 14.4712
43.27496722682525 14.4436
43.29892010567796 14.4302
43.32287497204102 14.3855
43.34683182745632 14.3669
43.370977859791836 14.3426
43.39493871351105 14.2964
43.41890156092628 14.3123
43.44286640358341 14.2472
43.46702049182749 14.2584
43.49098934522816 14.2036
43.51496019852649 14.1977
43.5389330532723 14.1679
43.56309522248204 14.1544
43.58707210044314 14.112
43.61105098451946 14.0926
43.63503187626491 14.0838
43.659202151562134 14.0492
43.68318707902681 14.0435
43.70717401884041 13.9893
43.731162972560874 13.9647
43.75534137913236 13.9443
43.779334381108384 13.8807
43.803329401683186 13.9199
43.82732644241872 13.8897
43.8515130055166 13.8077
43.87551410707659 13.8242
43.89951723350145 13.8395
43.923709934595614 13.7625
43.94771713129917 13.743
43.97172635758096 13.7549
43.99573761501002 13.7357
44.0199385169922 13.7023
44.04395385732619 13.6336
44.067971233533086 13.6331
44.09199064718605 13.6133
44.11619977548961 13.6047
44.14022328470671 13.5651
44.16424883610785 13.6274
44.18827643127035 13.5629
44.21249381139513 13.4991
44.236525514814076 13.489
44.26055926674478 13.4588
44.28459506876863 13.4737
44.3088207262813 13.3618
44.33286064928722 13.3723
44.35690262714919 13.3625
44.38094666145278 13.3736
44.4051806219871 13.3448
44.42922879003185 13.2969
44.45327901929361 13.1988
44.477331311362136 13.2159
44.501573600619416 13.22
44.525630039221795 13.1933
44.54968854541895 13.1653
44.573937102200176 13.1411
44.5979997645541 13.1615
44.622064499300315 13.1145
44.64613130803592 13.085
44.67038823869318 13.0844
44.69445921643748 13.027000000000001
44.718532272981385 12.9923
44.742607409926194 12.9933
44.76687274034801 12.9985
44.79095205918753 12.9306
44.81503346325094 12.877
44.839116954143876 12.8747
44.86339071028742 12.8932
44.88747839599524 12.8487
44.91156817336837 12.808
44.93566004401666 12.8243
44.959942251908146 12.8312
44.984038330325966 12.7832
45.00813650686762 12.7673
45.03223678314731 12.6768
45.05652746888232 12.6525
45.08063196592069 12.6631
45.104738567558705 12.649000000000001
45.128847275414856 12.616
45.15314646515866 12.587
45.17725940679741 12.5999
45.20137445952892 12.5484
45.22568004865265 12.5958
45.24979934496396 12.519
45.27392075725247 12.4847
45.29804428714431 12.4364
45.322358426247604 12.456
45.346486212804315 12.435
45.370616121861914 12.4438
45.39474815505086 12.4065
45.41907087049246 12.3728
45.4432071734666 12.3112
45.46734560548283 12.3038
45.49148616817604 12.3006
45.51581748638564 12.2937
45.5399623320197 12.2713
45.56410931325473 12.2419
45.58825843173002 12.2236
45.61259837920865 12.1789
45.636751793816 12.1929
45.66090735060093 12.1154
45.68506505120716 12.0864
45.7094136545275 12.0587
45.73357566449271 12.0688
45.75773982322992 12.0505
45.78190613238733 12.0469
45.806263418194064 11.982000000000001
45.83043404997326 11.9673
45.85460683713677 11.9777
45.87897065658495 11.9232
45.90314777634752 11.9273
45.92732705646868 11.9018
45.9515084986045 11.9301
45.97588104735473 11.8665
46.00006683541565 11.8762
46.02425479047904 11.8097
46.04844491420549 11.8117
46.0728262191024 11.8057
46.09702070211635 11.7692
46.12121735879483 11.7776
46.14541619080294 11.7693
46.169806278764455 11.6933
46.194009483459034 11.6942
46.21821486849841 11.663
46.24242243555223 11.6352
46.266821333570014 11.6337
46.29103328674601 11.6032
46.31524742696538 11.5773
46.33946375590237 11.5441
46.36387149104216 11.5671
46.38809221957392 11.5071
46.41231514186606 11.4677
46.436540259597464 11.488
46.460956858999374 11.4647
46.48518638983522 11.4336
46.509418121166966 11.4442
46.533652054678114 11.4102
46.55807754555709 11.3312
46.58231590571962 11.3718
46.60655647313217 11.323
46.630988654873654 11.2978
46.655233659129024 11.2599
46.67948087571551 11.2765
46.70373030632484 11.2814
46.72817142736393 11.2571
46.752425308428684 11.2071
46.77668140861147 11.2008
46.80093972960865 11.1568
46.82538981736788 11.1007
46.849652602470904 11.0692
46.87391761349769 11.0835
46.8981848521493 11.014000000000001
46.9226439341274 11.0703
46.946915650573224 10.9978
46.97118959976749 11.0199
46.99546578341598 10.9863
47.019933887188216 10.9288
47.04421456235744 10.9105
47.06849747711879 10.9064
47.09278263318286 10.9259
47.11725978640143 10.8902
47.14154944775105 10.8407
47.165841355555656 10.8514
47.1901355115306 10.7888
47.214621741924994 10.8256
47.23892041698887 10.7525
47.26322134538975 10.7229
47.28771440635075 10.7497
47.31201986422527 10.7645
47.33632758061436 10.6916
47.360637557241866 10.6812
47.38513974410611 10.6742
47.40945426407847 10.6493
47.43377104948137 10.6177
47.45809010204344 10.6314
47.48260144275502 10.5759
47.506925052572285 10.5365
47.53125093475548 10.5012
47.55557909103813 10.5376
47.58009961361992 10.4981
47.60443234110732 10.4957
47.62876734791564 10.4499
47.65310463578333 10.4387
47.6776343683373 10.4719
47.7019762413987 10.4061
47.72632040075572 10.359000000000002
47.75066684815169 10.3773
47.77520581885936 10.3242
47.799556865477655 10.2946
47.823910205386 10.2701
47.84826584033272 10.292
47.87281407745551 10.2892
47.89717432569297 10.267000000000001
47.92153687423484 10.2788
47.94609208429692 10.1916
47.97045925671401 10.2241
47.99482873471275 10.179
48.01920052005013 10.1678
48.04376504619224 10.1726
48.068141469543484 10.1744
48.09252020552573 10.1325
48.11690125590099 10.0921
48.1414751266064 10.1061
48.16586082917454 10.0737
48.19024885144316 10.0715
48.2146391951793 10.0285
48.239222439012764 10.0158
48.26361744916137 9.990860000000001
48.28801478610016 9.94505
48.31241445160131 9.97748
48.337007097209366 9.938239999999999
48.36141144338331 9.94484
48.38581812345755 9.93646
48.41022713920929 9.89997
48.434829215320704 9.894639999999999
48.45924292604658 9.846219999999999
48.48365897780325 9.85448
48.50807737237308 9.83933
48.532688907799276 9.78607
48.55711201168574 9.75745
48.581537463754074 9.770660000000001
48.60615611725119 9.75216
48.63058628942721 9.74755
48.65501881516546 9.75563
48.6794536962573 9.7076
48.70408185970339 9.69095
48.72852147531801 9.63837
48.75296345168211 9.61585
48.77740779059232 9.62012
48.80204549302823 9.6071
48.82649458091802 9.59892
48.85094603676547 9.54585
48.87539986237231 9.52162
48.90004713292306 9.5125
48.92450572200832 9.49329
48.94896668628025 9.48066
48.97343002754588 9.47599
48.99808689542115 9.484169999999999
49.02255501470614 9.46621
49.04702551642794 9.4418
49.0714984023988 9.42308
49.096164896893235 9.39328
49.120642575466796 9.37439
49.145122643748394 9.35383
49.16960510355558 9.33586
49.19428125404938 9.31195
49.2187685210852 9.30176
49.243258185121555 9.29614
49.26794160167084 9.3028
49.2924360839405 9.25057
49.31693296869764 9.23683
49.34143225776915 9.200289999999999
49.36612538195438 9.182780000000001
49.39062950396021 9.17976
49.41513603578346 9.18609
49.4396449792564 9.14429
49.46434784069503 9.10167
49.488861631846454 9.1244
49.513377840166804 9.11011
49.537896467493745 9.04729
49.56260909589029 9.038039999999999
49.587132585683285 9.04288
49.611658500018365 9.037360000000001
49.636186840738596 8.98648
49.66090926588511 8.96583
49.685442483902584 8.98086
49.70997813385706 8.9383
49.734516217597076 8.90903
49.75924846937352 8.91376
49.7837914452858 8.91655
49.80833686055187 8.85305
49.83288471702571 8.85355
49.85762682540054 8.87162
49.882179588965734 8.814210000000001
49.9067347993235 8.818760000000001
49.93129245833333 8.79756
49.95604445336378 8.80357
49.98060703442832 8.76408
50.005172069746266 8.75123
50.02993150438364 8.746089999999999
50.05450147301533 8.67308
50.07907390151433 8.70249
50.10364879174981 8.66907
50.12841816587289 8.662469999999999
50.1529980044635 8.65134
50.17758031042124 8.62567
50.20216508562089 8.62275
50.22694442953363 8.61974
50.25153416817468 8.55609
50.27612638170508 8.55608
50.300721072005196 8.52095
50.325510416102105 8.53353
50.350110084975064 8.546619999999999
50.37471223628208 8.51859
50.39931687190919 8.47813
50.424116246675766 8.44944
50.44872587605249 8.46108
50.47333799543065 8.42357
50.49795260670191 8.4023
50.52276204271512 8.35908
50.54738166295838 8.36765
50.57200378079314 8.38265
50.596628398116835 8.32643
50.62144792604559 8.342989999999999
50.646077567609396 8.30992
50.670709714377715 8.31835
50.69553683636198 8.27104
50.72017401885922 8.22843
50.7448137122895 8.25527
50.76945591856022 8.21538
50.79429318636823 8.21762
50.818940443716784 8.211739999999999
50.84359021965163 8.19388
50.868242516085964 8.17189
50.893089960641895 8.175510000000001
50.917747323549435 8.14043
50.94240721271973 8.12509
50.96706963007175 8.09694
50.99192728239342 8.11031
51.01659478166073 8.08923
51.04126481489051 8.06054
51.06593738400761 8.02029
51.090805275207074 8.01083
51.11548294172845 8.01748
51.14016314993547 7.9953199999999995
51.164845901758845 7.97583
51.18972406304274 7.94688
51.21441192780656 7.933669999999999
51.23910234200271 7.9456
51.2637953075678 7.91155
51.288683770237945 7.90198
51.31338186432707 7.88466
51.33808251561888 7.87437
51.362978729967345 7.88497
51.387684521509755 7.86848
51.41239287610203 7.78101
51.437103795691165 7.783010000000001
51.46201036644977 7.76325
51.486726441956634 7.7484
51.51144508832545 7.76427
51.536166307509156 7.727639999999999
51.56108326624387 7.68353
51.58580965706056 7.6947
51.61053862657523 7.67978
51.635270176746864 7.6729199999999995
51.66019755512065 7.66741
51.68493429268881 7.642289999999999
51.70967361681515 7.61141
51.73441552946465 7.56911
51.759353359237934 7.575819999999999
51.7841004750961 7.55727
51.80885018539685 7.56808
51.833602492111254 7.52188
51.8585508051424 7.492260000000001
51.883308330926425 7.4927399999999995
51.90806845906181 7.501339999999999
51.932831191525715 7.48947
51.95779001977161 7.456060000000001
51.98255798721516 7.42948
52.00732856494335 7.3970899999999995
52.03229530577543 7.3948100000000005
52.057071130455945 7.40382
52.081849571391054 7.3963600000000005
52.106630630568695 7.36494
52.13160794279417 7.3169
52.15639426492067 7.342560000000001
52.18118321127822 7.36
52.205974783860896 7.34103
52.23096269971011 7.3118300000000005
52.255759551287994 7.29098
52.280559035098186 7.28538
52.30536115314103 7.23032
52.33035970494467 7.22348
52.35516711807904 7.22345
52.37997717147198 7.23165
52.40478986713005 7.21807
52.42979908731974 7.21167
52.454617094216 7.11907
52.47943774942214 7.1233
52.50426105495102 7.15608
52.529280976059844 7.09163
52.554109609024096 7.132789999999999
52.57894089837482 7.07242
52.60377484613117 7.098160000000001
52.62880550079408 7.0709100000000005
52.65364479223379 7.02394
52.67848674816189 6.99545
52.70352547971946 7.02416
52.72837279155837 7.024939999999999
52.753222773982785 7.01018
52.778075429022984 7.00063
52.80312495150885 6.965789999999999
52.827982978797436 6.974989999999999
52.85284368481815 6.93969
52.87770707160767 6.908589999999999
52.90276741793998 6.87666
52.92763619336701 6.8803
52.952507655698504 6.846439999999999
52.977381806977576 6.858739999999999
53.00245301017842 6.843260000000001
53.02733256653592 6.834239999999999
53.052214817996074 6.82172
53.077099766608484 6.79477
53.102181859804446 6.77
53.127072229988265 6.79753
53.15196530349892 6.742089999999999
53.17686108239249 6.72474
53.20195409881522 6.7721800000000005
53.22685531582556 6.71558
53.25175924441303 6.66887
53.27666588664027 6.66971
53.30176985962693 6.66718
53.3266819565689 6.67532
53.35159677336455 6.61965
53.376514312083096 6.6343
53.40162927507703 6.60318
53.42655228516116 6.60343
53.45147802340193 6.58874
53.47660125628886 6.565760000000001
53.50153247842639 6.53373
53.52646643496923 6.5529
53.55140312799818 6.50847
53.576537409691696 6.5486
53.60147960336152 6.483569999999999
53.626424539786164 6.49871
53.65137222105307 6.47622
53.67651758529126 6.493869999999999
53.70147078399681 6.42507
53.72642673383343 6.43329
53.75138543689533 6.39521
53.776541917524526 6.39427
53.801506154876755 6.4013599999999995
53.826473151763246 6.40424
53.851442910284916 6.35685
53.87661054126026 6.35405
53.9015858509782 6.32841
53.92656392866066 6.31011
53.95154477641532 6.354369999999999
53.976723591801296 6.29821
54.00171000771266 6.27956
54.02669920004598 6.29668
54.051691170915745 6.21499
54.076881204886796 6.24251
54.101878760928514 6.20567
54.12687910187696 6.2158
54.152077577768296 6.241630000000001
54.1770835166946 6.1504
54.20209224691339 6.147959999999999
54.22710377055121 6.1413400000000005
54.25231352511594 6.12185
54.27733066384342 6.101030000000001
54.30235060239643 6.14928
54.32737334290836 6.0951900000000006
54.35259441062629 6.02538
54.377622783395324 6.016
54.40265396455061 6.02151
54.42768795623251 6.01548
54.45292037169559 5.97677
54.477960012857906 5.95561
54.50300247099511 5.9524300000000006
54.52804774825457 5.9692300000000005
54.55329154616743 5.92353
54.57834249018678 5.89311
54.6033962597977 5.8747300000000005
54.6284528571545 5.8436
54.653708072335164 5.8154900000000005
54.67877035378786 5.82209
54.70383546947698 5.84185
54.72890342156389 5.7869
54.7541700889442 5.72907
54.77924374251975 5.7236400000000005
54.8043202390049 5.70905
54.82959552413022 5.66325
54.8546777351945 5.64403
54.87976279569621 5.631880000000001
54.90485070780914 5.64375
54.930137506558005 5.58772
54.95523115074295 5.60883
54.98032765308844 5.57453
55.005427015775496 5.59732
55.03072536339621 5.56498
55.05583047570572 5.5328
55.080938454927676 5.53428
55.10604930325027 5.45906
55.131359235107396 5.4554800000000006
55.15647585066083 5.4640699999999995
55.181595341907496 5.426019999999999
55.20671771104285 5.35217
55.232039262617704 5.3865
55.25716741665048 5.3592900000000006
55.28229845518636 5.37327
55.30743238042802 5.30564
55.33276558731939 5.25384
55.357905315183636 5.25884
55.383047936390035 5.19161
55.40819345314859 5.17175
55.433538351073295 5.19623
55.458689688238415 5.2102900000000005
55.483843927614096 5.11987
55.509197623043605 5.1083
55.53435769621134 5.11102
55.55952067826466 5.11723
55.5846865714265 5.003
55.61005202069737 4.9318599999999995
55.63522376553902 5.017440000000001
55.66039842818645 4.97302
55.68557601087004 4.93386
55.7109532500271 4.91191
55.73613670233794 4.92822
