TT I
1.2716486653135266 7.3175300000000005
1.2939594142134223 7.35571
1.3162702121660406 6.742489999999999
1.3385810600174564 6.05514
1.3608919586137629 6.77398
1.383202908801069 6.36372
1.405513911425503 6.12636
1.4278249673332093 6.58822
1.4501343378461518 6.09506
1.4724455028545926 5.52809
1.4947567236847858 5.75776
1.517068001182951 5.903569999999999
1.5393793361953272 5.55586
1.5616907295681737 5.2522400000000005
1.5840021821477681 4.91536
1.60631369478041 4.9594
1.6286252683124185 5.0334699999999994
1.6509369035901333 4.40041
1.6732468618895553 4.66774
1.695558623192809 4.35723
1.7178704487808514 4.74596
1.7401823395001077 5.0724599999999995
1.7625012545597203 5.047619999999999
1.7848028405262486 4.90097
1.8071218901122095 4.79186
1.8294236121921872 4.93253
1.8517427996910911 5.1149
1.8740620574440425 4.818919999999999
1.8963639900671978 4.84039
1.9186833908139995 4.94245
1.9409854680117449 4.8015099999999995
1.9633050151394713 4.80035
1.9856246367570705 4.686780000000001
2.0079269371922672 4.19607
2.03024671027244 4.34604
2.0525491637446027 4.61811
2.074869091674931 4.60134
2.097171701569106 4.48527
2.1194917877373847 4.796469999999999
2.141811954326636 5.111280000000001
2.164114805233074 4.91921
2.186435135143035 5.69605
2.208738150935709 14.0678
2.231058647554722 28.8802
2.2533792288321184 22.3342
2.275682498336085 10.2401
2.298003251406138 6.16287
2.3203066942619714 5.76534
2.3426276225136022 5.35374
2.3649486396617507 5.29861
2.387252348930071 6.25983
2.4095735463442893 6.12677
2.4318774374315884 5.96382
2.4541988185014043 5.89659
2.476502894794693 7.25736
2.498824462909887 7.024539999999999
2.521146125856138 7.18613
2.5434504863470337 6.96082
2.5657723414244717 8.3485
2.588076895590662 8.28576
2.610398946189713 8.32023
2.6327210958598384 7.5434
2.6550259469304716 7.838239999999999
2.6773482972090137 8.686960000000001
2.6996533504259 8.50966
2.7219759047039602 8.72775
2.744298562293959 8.57356
2.7666039251246595 8.3028
2.7889267918020164 8.61045
2.8112323652516555 8.29862
2.833555444408179 8.87463
2.8558786311183852 8.62905
2.8781845268938557 9.09177
2.9005079311721484 9.05614
2.9228140460410397 8.88425
2.9451376712799635 9.38973
2.967444008632326 9.91452
2.9897678582247247 10.4653
3.0120918213106695 10.2731
3.0343984987899373 11.0718
3.0567226913198637 11.341
3.079029599759726 11.8775
3.101354025127254 12.2301
3.123678568232338 13.1255
3.145985829517914 13.148
3.16831061055229 14.2261
3.1906181112775593 14.5925
3.212943133635653 14.984000000000002
3.2352682779763207 15.4332
3.2575761442691227 15.8306
3.2799015350264273 15.699000000000002
3.302209649240067 16.2623
3.3245352898092655 16.9132
3.3468436553365257 17.4539
3.369169549113219 17.8405
3.3914955708171384 18.382
3.413804319727358 18.7299
3.4361305997334863 19.1917
3.4584396084414553 19.3534
3.4807661501462652 20.3
3.503092824025881 20.7187
3.5254022288463154 20.7164
3.5477291695206588 21.4765
3.5700388426251948 22.8484
3.5923660534916446 24.0476
3.6146934007816114 38.8027
3.637003482731501 89.6612
3.6593311053109985 99.9358
3.681641464033634 57.3052
3.7039693653009733 30.9165
3.726297407241705 26.2556
3.7486081875460804 25.6438
3.7709365132734978 26.0098
3.793247578841633 26.4615
3.8155761917550093 26.3826
3.8378875459837216 26.9334
3.8602164494827234 27.621
3.882545499606844 28.3245
3.9048572932539183 28.5574
3.9271866390645718 29.0531
3.9494987298666713 29.2414
3.971828374764527 30.0984
3.9941581705403255 30.7498
4.016470713506008 31.3304
4.038800813471445 31.6265
4.061113662089144 32.3918
4.0834440696459176 33.2835
4.105774632334751 34.0387
4.128087945865126 34.3875
4.150418821249301 35.4283
4.172732448931298 36.7418
4.195063640413578 38.1808
4.2173775856475215 42.4453
4.239709096631102 74.3052
4.262040768704612 241.91400000000002
4.284355196706267 329.647
4.306687193387355 212.90400000000002
4.329001947444346 82.6968
4.35133427213731 48.141999999999996
4.373666762177566 44.4884
4.395982011761091 44.1433
4.418314834921175 45.2602
4.44063041906622 53.4208
4.4629635787515625 65.0752
4.4852969080429785 64.6147
4.5076130004776225 53.6644
4.529946671403969 49.9831
4.552263106909177 49.5271
4.574597122877047 50.7046
4.596931312711224 52.5984
4.619248269273446 52.6853
4.6415828092605835 54.1447
4.663900117405352 54.9745
4.686235010953232 55.9951
4.708552674085913 57.4131
4.730887924602802 58.9068
4.753223354952695 60.3297
4.775541557023902 61.3205
4.797877349456786 62.9355
4.820195915032126 65.1116
4.842532072957498 66.282
4.864868414979744 68.4081
4.88718753227192 70.2829
4.909524244902505 72.4312
4.931843734218147 73.7678
4.954180820867835 76.4815
4.976518095879839 79.2444
4.998838149695359 81.5724
5.021175803844231 85.1276
5.043496238205739 88.4275
5.065834274903528 92.5603
5.088172504230693 96.8979
5.1104935158799565 102.51799999999999
5.132832132875765 122.713
5.155153533596801 163.99599999999998
5.1774925416746225 195.104
5.199814334878411 296.389
5.2221537374521505 793.9110000000001
5.244493338631803 2494.54
5.266815727034316 7451.98
5.289155727832427 12486.6
5.311478517248165 8942.92
5.333818921080011 2711.78
5.356159527788849 501.93
5.3784829252032536 176.49599999999998
5.400823940070432 138.982
5.423147747031976 124.896
5.445489173474152 116.205
5.467830807066149 111.613
5.490155234831516 107.00399999999999
5.512497285125229 104.051
5.534822130975162 102.367
5.557164601388673 100.39200000000001
5.579489868738879 97.9252
5.601832762690846 96.73200000000001
5.6241758697774475 96.1644
5.646501775867269 95.4441
5.668845311622074 93.6273
5.691171647754637 92.8349
5.713515615597765 91.7788
5.735859800852677 90.7295
5.758186788542988 90.0304
5.780531411018185 90.1169
5.802858837297399 89.4032
5.825203900414495 89.2997
5.8475491852224 89.3012
5.869877275883075 90.1264
5.892223006467101 90.7319
5.914551544266608 91.448
5.936897724049891 93.462
5.959244129804903 97.756
5.981573344815301 110.98100000000001
6.0039202049061 176.729
6.026249875609095 385.54
6.04859719346037 837.243
6.070927323278297 2118.49
6.093275102315365 4374.61
6.115623113320588 5256.63
6.137953938319995 3243.8
6.160302415650845 947.883
6.182633708324452 223.387
6.2049826554078376 110.836
6.227331838745022 90.7897
6.249663839443684 83.6121
6.27201349767565 81.8672
6.294345974611799 88.0433
6.316696111167083 100.67399999999999
6.339046488263839 94.5953
6.361379686074702 79.7231
6.383730546639482 71.2744
6.406064229255215 68.2346
6.428415576718203 67.7138
6.450749747566656 66.3807
6.47310158535871 65.1766
6.495453669698332 64.3981
6.517788579421056 63.9542
6.540141159237969 63.0047
6.562476565766648 62.7767
6.5848296444934045 62.2384
6.607182974060425 61.9159
6.6295191323281015 62.3382
6.651872965955752 65.6276
6.6742096296068985 92.5475
6.6965639707294615 140.218
6.71891856698715 138.84
6.741255995248479 94.904
6.763611104154477 67.9434
6.785949046381137 59.8179
6.808304671371482 57.9726
6.8306605557940046 57.2077
6.852999275508618 56.8703
6.875355681171544 56.4857
6.897694923437771 56.2376
6.92005185377892 55.7822
6.9423916220322655 56.1277
6.964749080490181 55.1627
6.987106804399774 55.0477
7.009447368180821 55.6064
7.031805625367033 54.7304
7.054146723727803 55.2052
7.076505517631004 54.3882
7.098864581288365 54.7193
7.121206488070854 54.5027
7.143566093607822 54.3912
7.165908543567245 54.6619
7.188268694426048 55.1105
7.2106291193438095 55.2004
7.232972390625943 56.7282
7.255333366030969 70.1882
7.277677189091925 124.79299999999999
7.300038718428332 173.287
7.322400526130865 145.52200000000002
7.344745183422596 89.4505
7.367107550224791 61.5725
7.389452767901992 55.9838
7.411815697249891 55.0423
7.434161478756298 53.8843
7.456524974096713 54.0839
7.478888753837185 54.0725
7.501235387657368 54.0508
7.523599738562711 54.3118
7.545946944825532 54.5172
7.568311870344528 54.9686
7.5906770845765665 54.8864
7.613025156078678 56.7159
7.635390950099687 57.6921
7.657739602662809 56.7187
7.680105979923558 55.8376
7.702472650212829 55.3857
7.724822180948224 55.3812
7.747189439655568 55.6729
7.769539560075357 55.7581
7.791907410653562 56.044
7.81425812420825 55.9715
7.836626570110925 56.6273
7.858995315087906 57.3341
7.881346924933401 57.338
7.903716270417482 57.8101
7.926068482028405 57.8392
7.948438431475253 58.6167
7.9708086843180235 58.9727
7.993161805171116 59.723
8.015532667162402 60.0224
8.037886398416653 61.2445
8.060257873014221 61.3517
8.082629655331942 61.9774
8.104984308787587 63.1513
8.127356708900503 66.5105
8.149711981398308 72.1622
8.172085002766314 74.5255
8.194458336181368 71.2569
8.216814543847752 68.7296
8.23918850371002 68.6717
8.26154533906492 69.4535
8.283919928836452 70.8088
8.306277395339652 71.8302
8.328652618483376 72.9064
8.351028159736202 74.8923
8.373386579575245 77.003
8.395762759396959 78.6076
8.418121819038275 83.7647
8.440498640894003 96.5601
8.462875785192262 110.36
8.485235811156207 118.87700000000001
8.507613602688501 147.192
8.529974277114228 221.47099999999998
8.552352719347912 344.244
8.574731488360351 606.596
8.59709314210385 1135.94
8.619472567021075 1865.47
8.64183487789147 2224.81
8.664214962183097 1808.87
8.686577933647762 929.054
8.708958680784317 361.151
8.731339760774953 170.202
8.753703729764451 110.757
8.77608547780821 97.6468
8.798450116065078 94.3106
8.820832535634787 91.3984
8.843215292401656 89.9537
8.865580941199045 88.3967
8.887964374703538 87.5
8.910330701447199 88.7129
8.932714815164482 91.0066
8.955099270424924 90.48899999999999
8.977466620733543 87.1676
8.999851761421976 84.3468
9.022219798361645 82.9434
9.04460562795561 82.7341
9.066991803441677 82.094
9.089360876979615 81.7595
9.111747746589993 81.4126
9.13411751544971 80.8592
9.156505082664324 80.5997
9.178875550323522 80.7514
9.20126381862328 81.37899999999999
9.223652438908596 82.0598
9.246023961427412 81.7178
9.26841328802173 80.9585
9.290785518039224 81.1122
9.313175554425882 81.1253
9.335565947154315 81.4906
9.357939245086508 81.5775
9.380330352834827 81.4322
9.40270436697103 82.1437
9.425096193225055 81.8828
9.447488380180165 82.7441
9.469863475295412 83.1808
9.492256385987508 83.5876
9.514632206018318 84.1778
9.537025843935714 84.4957
9.559402392368193 84.9571
9.581796761000229 86.0309
9.604191496441521 86.6657
9.626569144158516 90.6262
9.648964615551032 95.2799
9.671343000390081 97.0821
9.693739211225699 94.5741
9.716135793237463 92.5468
9.738515290448102 91.7254
9.760912617143402 92.2985
9.783292860202891 93.6215
9.805690935076182 94.84700000000001
9.828089385495742 95.8583
9.850470754023561 98.4389
9.872869957865444 106.244
9.89525208097539 121.51299999999999
9.917652041736662 133.627
9.940052382417589 131.95
9.962435644102392 133.11
9.984836746950979 159.711
10.007220771957746 214.997
10.029622640473708 309.10900000000004
10.052007432299963 480.532
10.074410069984072 784.804
10.096813093716005 1269.87
10.119199042482517 1768.12
10.141602840636468 1978.05
10.163989564971628 1569.47
10.186394141051062 896.562
10.208799107559706 397.481
10.231187001965623 184.11
10.253592751657669 124.316
10.275981430388155 111.58200000000001
10.298387966769793 111.471
10.320794897965431 114.221
10.343184759907361 113.131
10.36559248305461 107.459
10.387983138083852 102.666
10.410391656691655 103.949
10.432800574501677 112.824
10.455192425893369 126.91799999999999
10.47760214443012 151.335
10.499994797678786 194.058
10.522405320453982 275.472
10.54479877906917 397.9
10.567210109595656 530.271
10.5896218454736 572.446
10.612016518879773 503.86699999999996
10.634429067781074 350.48400000000004
10.656824555333241 201.08700000000002
10.679237920773568 121.565
10.701651695961992 95.6728
10.724048411481384 88.2302
10.746463008485165 85.485
10.768860546937125 83.7403
10.791275969274796 82.2509
10.81369180576079 81.1967
10.836090585366925 79.8938
10.858507252467449 78.7038
10.88090686379991 78.18
10.903324365036394 77.4506
10.925724811614439 77.4018
10.948143150509463 78.5784
10.970561909719066 77.8618
10.992963615930844 75.9393
11.015383218085756 73.9504
11.037785768347074 72.5889
11.06020621697282 72.1503
11.082627090322113 71.5312
11.105030913430326 71.0167
11.12745263854165 71.6776
11.149857314510728 75.225
11.172279894912576 81.2574
11.194702904450653 82.36399999999999
11.217108866490921 77.8623
11.239532736615194 73.3616
11.26193956033512 71.0891
11.284364294577085 69.2538
11.306789462371718 67.4672
11.329197585398376 66.3281
11.351623622610898 65.9309
11.37403261614354 65.4053
11.396459526308487 65.4936
11.418869393879497 64.6896
11.441297180532617 64.2943
11.463725406927658 63.9819
11.486136592353875 64.0973
11.508565700543707 64.8647
11.530977768845315 66.4436
11.553407762368774 67.2934
11.575838200059769 66.5043
11.598251599479612 64.4902
11.620682927815501 63.3285
11.64309721895548 62.8981
11.665529441478206 62.297
11.687962112597958 62.1417
11.710377748130886 62.3816
11.732811318753434 62.0755
11.755227854859067 62.1794
11.777662328529495 62.0525
11.800079768750786 61.9414
11.822515149015453 61.8474
11.844950984084935 62.2188
11.867369787303163 61.7518
11.889806534289491 61.4823
11.912226250487029 61.9446
11.934663912939751 62.3392
11.9571020346363 62.0304
11.979523127133968 61.8998
12.001962169624331 62.5711
12.024384183972964 63.2032
12.046824150809913 65.7567
12.069264581333726 70.1199
12.091687985297767 75.8016
12.11412934550045 84.2678
12.136553680195208 99.0869
12.158995973632788 123.405
12.181438735204349 154.215
12.20386447284199 191.074
12.226308172985636 212.109
12.24873485024193 200.86
12.271179492516982 168.22400000000002
12.293607112949127 125.60799999999999
12.316052700916226 94.8167
12.338498763250042 77.885
12.360927805303868 69.5744
12.383374818673879 65.5535
12.405804812803074 63.869
12.428252780773262 63.4525
12.45070122756722 63.5873
12.473132656675375 63.2584
12.49558206341869 63.521
12.518014453510101 63.4546
12.540464823770117 63.8587
12.562915677315177 63.783
12.58534951575545 64.6084
12.607801338171472 66.8134
12.630236146511358 72.1305
12.652688941369085 76.8552
12.675124723177234 77.2999
12.697578494048786 73.2979
12.720032754458185 68.86399999999999
12.742470003354093 67.0959
12.764925245138771 66.7606
12.787363476431278 67.1249
12.809819703166806 67.3967
12.83227642391173 68.1126
12.854716135692716 68.7049
12.877173846755147 69.60300000000001
12.899614549869717 69.9496
12.9220732548287 70.7675
12.94453245827299 71.3411
12.966974655289818 72.3183
12.989434858002571 72.9673
13.011878055298721 73.5509
13.034339260862497 74.4528
13.056800969391883 75.6559
13.079245674017244 77.5526
13.101708390774869 78.9765
13.12415410463411 84.8265
13.146617833206086 94.8709
13.169064559883248 105.736
13.191529303857127 119.133
13.213994557076367 140.565
13.236442809902437 177.22
13.258909083908291 233.862
13.28135835851934 303.063
13.30382565690295 375.685
13.326293469022952 424.23699999999997
13.348744283242008 423.09
13.371213125129904 350.74800000000005
13.39366497011003 256.851
13.416134845360597 169.139
13.438605238843131 121.389
13.46105863690397 102.777
13.483530069144786 101.251
13.505984506951902 105.305
13.528456981549432 114.69200000000001
13.550929978879088 128.444
13.573385983253365 152.524
13.595860028340867 192.452
13.618317081455832 249.395
13.64079217790333 307.95099999999996
13.663250283359057 360.32800000000003
13.685726434770173 378.587
13.708203115221277 334.89300000000003
13.730662806148091 259.89799999999997
13.75314054697177 182.062
13.775601299246777 125.789
13.798080104050406 96.1486
13.820559442405358 84.3514
13.843021793671388 80.5584
13.865502201420897 79.2469
13.887965623051947 78.4934
13.910447103807167 77.405
13.932929122629764 75.8953
13.955394156785959 75.663
13.977877254034569 74.8896
14.000343367582113 74.3154
14.022827546871707 73.5987
14.045294743423524 72.6765
14.06778000837062 71.987
14.090265817715476 71.7658
14.112734645763819 71.6598
14.13522154619454 71.4654
14.157691466286913 71.4185
14.180179461423874 71.2909
14.202668005486178 70.1818
14.22513957064374 69.6165
14.247629214846473 69.5382
14.270101881097517 69.2549
14.29259262906496 69.4847
14.315083930490205 70.3859
14.337558255389705 70.6567
14.360050666019726 70.3841
14.382526101071944 69.3601
14.405019624534942 68.423
14.427513705993134 67.8658
14.449990813291825 67.7008
14.47248601302899 67.5739
14.49496423954951 67.8365
14.517460561197822 67.9419
14.539939910570322 67.5513
14.562437357763558 67.944
14.58493536931253 69.1258
14.607416409993311 69.988
14.62991555254159 70.8706
14.652397725157423 70.5236
14.674898002342799 69.9602
14.697398848433282 69.2719
14.719882725991326 69.6096
14.74238471217934 70.4994
14.764869730765593 72.9459
14.787372860692983 75.6865
14.809876564079925 79.9997
14.83236330125751 85.4766
14.854868153850365 93.2984
14.877356041159485 106.87
14.899862046604186 125.59100000000001
14.922351087688757 152.724
14.944858249632887 184.08900000000003
14.967365991421232 211.86599999999999
14.989856770231246 224.102
15.012365673994204 216.856
15.03485761569738 187.394
15.05736768508665 146.972
15.07987833888692 112.404
15.102372032001655 89.7531
15.124883856909658 76.3413
15.14737872204565 71.2604
15.169891721717274 69.4392
15.192405310371893 69.4277
15.214901940621196 69.8984
15.237416709527137 70.0193
15.259914520936249 70.3645
15.282430473753607 69.3826
15.304947020131227 68.27600000000001
15.327446610371178 67.0767
15.349964346154254 66.1899
15.372465126703139 66.0317
15.394984055556009 65.667
15.417486030076159 65.34899999999999
15.44000615566487 65.2609
15.462526881230803 65.1308
15.485030653812652 65.3123
15.507552581617434 65.4461
15.530057557334603 65.6279
15.55258069104857 65.45
15.575104429329837 65.4574
15.597611216864632 64.8761
15.620136166564563 64.6014
15.6426441664095 65.2018
15.665170331202765 67.2419
15.687697105158826 69.8843
15.710206930593545 72.9499
15.732734925158933 76.5412
15.755245972089478 82.839
15.77777519094324 91.4086
15.800287463046663 104.73200000000001
15.822817909869592 124.72200000000001
15.84534897229804 147.958
15.867863089299354 171.877
15.890395385222186 191.31099999999998
15.912910736597423 194.08
15.935444269699861 181.66299999999998
15.957978423016485 153.143
15.980495633101265 120.492
16.003031029129367 93.2076
16.02554948280019 75.5748
16.048086125229432 67.1518
16.070623392487107 64.4751
16.09314371869582 63.6016
16.11568223789321 62.9137
16.13820381691126 61.736000000000004
16.160743591742527 60.6557
16.183283996022084 59.6611
16.205807461423195 58.8095
16.228349126881973 58.2213
16.25087385432698 58.2959
16.27341678466365 57.8775
16.29594277784926 57.611999999999995
16.31848697676433 57.9148
16.341031811604868 58.3023
16.36355971058487 58.6599
16.3861058195587 58.5348
16.40863499352978 57.1195
16.431182380342005 56.1136
16.453730407713202 55.5373
16.476261501364792 55.227
16.498810812136167 54.7113
16.52134319004079 54.7411
16.54389378792203 54.623000000000005
16.566445031001553 54.58
16.588979342490088 54.4427
16.61153187824822 54.476000000000006
16.634067483263312 54.2523
16.656621315414416 54.0807
16.679175797408888 53.7795
16.701713349928728 53.8831
16.72426913389191 54.2109
16.74680798922351 54.1249
16.76936507887444 54.2992
16.791905240734874 54.2271
16.814463639794468 54.1227
16.837022695210294 53.9863
16.859564824093756 54.4795
16.882125194503903 55.16
16.904668639217885 56.0159
16.927230328348003 56.1887
16.949792678493612 56.2922
16.972338104193863 55.7253
16.994901778652235 54.9238
17.017448529496576 54.6739
17.040013531998152 54.8421
17.06257920018044 55.4765
17.0851279459922 56.1638
17.107694947817667 56.7772
17.130245028099072 57.448
17.15281336730298 58.9854
17.17536478578733 60.596000000000004
17.19793446610687 62.5408
17.220504818648422 65.5569
17.243058251703697 69.3935
17.265629950971032 74.04899999999999
17.288184731571736 79.5243
17.310757781306908 82.7096
17.33333150794385 83.3167
17.355888317140174 81.322
17.37846339986244 75.9825
17.401021565958885 70.1953
17.42359800851343 64.6601
17.44617513265564 61.1179
17.468735341390783 59.23
17.491261035594565 58.2273
17.51396340099364 58.1397
17.536490463869136 58.3861
17.559018209820174 58.341
17.58154663977963 58.4808
17.604251766089718 58.4763
17.626781572227713 58.75
17.64931206518155 58.9684
17.671843245885103 59.3536
17.69455114821572 59.6913
17.717083712612634 59.9682
17.739616967569667 60.1514
17.762150914021706 60.4309
17.78486160749854 60.3055
17.807396945166804 60.748000000000005
17.829932977143503 61.3429
17.85246970436452 62.5864
17.875183204129467 64.2266
17.897721330097664 66.375
17.920260154126645 68.6994
17.942799677153296 71.4055
17.9655159983646 75.3067
17.988056927677544 80.2902
18.010598558807683 87.8788
18.033140892692916 98.5857
18.05586005052525 109.758
18.07840379824407 121.47399999999999
18.10094825154059 131.39
18.12366954819864 137.817
18.146215420998306 135.66299999999998
18.16876200220057 127.348
18.191309292745153 113.191
18.214033452627167 100.605
18.236582170236648 89.9225
18.259131600016456 84.6985
18.281681742907335 85.0089
18.304408781233683 90.1308
18.32696035875955 95.7353
18.349512652227624 100.39399999999999
18.372065662579683 104.24799999999999
18.394795594587553 104.525
18.41735004715306 100.695
18.43990521943684 93.7378
18.46246111238171 84.6998
18.485193953325208 76.2062
18.507751296070428 69.0326
18.530309362314178 64.8689
18.552868153000343 62.5664
18.57560391815056 61.2408
18.59816416623245 61.0389
18.620725141597372 60.513000000000005
18.643286845190268 59.8889
18.666025549835414 59.5873
18.688588718427933 58.9803
18.711152618092243 58.9994
18.73389353884365 58.5976
18.75645890921984 58.1289
18.77902501351406 57.9382
18.801591852673102 57.8036
18.824335739722738 57.2526
18.846904057212626 57.2347
18.8694731124168 57.0454
18.89204290628315 56.8317
18.914789774966803 56.7735
18.937361054791623 56.4864
18.959933076131318 56.178000000000004
18.982505839934877 56.2552
19.00525570560582 56.2559
19.027829963004184 56.0915
19.05040496572238 56.4555
19.072980714710468 56.1858
19.095733592739563 56.396
19.11831084296757 56.4445
19.140888842324735 56.9718
19.16346759176222 57.1003
19.18622349753803 57.7025
19.208803755869358 58.4797
19.231384767143577 59.4595
19.253966532312948 60.9115
19.276725481241822 63.2524
19.29930876296784 66.0026
19.3218928014549 68.9663
19.34465404436217 72.2076
19.36723960516257 75.2458
19.389825925592426 75.7212
19.412413006605938 74.6058
19.43517731967805 70.8441
19.457765930683355 66.4527
19.48035530514408 62.2419
19.50294544401556 58.6181
19.525712842708348 55.9206
19.54830451925909 54.5418
19.570896963095727 53.7487
19.593490175174704 53.2157
19.616260674962184 53.2806
19.638855432416964 52.8774
19.661450960992624 53.0051
19.68404726164677 52.8428
19.706820878021247 52.4255
19.729418731756834 52.8979
19.752017360452857 52.5474
19.77461676506804 52.9259
19.797393513540218 53.1158
19.819994478951667 53.1121
19.84259622316767 53.6482
19.8651987471481 53.8421
19.887978643247177 54.2129
19.91058273574792 54.7257
19.933187610901943 55.4866
19.955969879466828 56.5306
19.97857632894404 58.0174
20.00118356396599 59.4175
20.023791585494575 61.5162
20.046577028914875 64.403
20.069186632506966 66.6994
20.091797025500632 68.3742
20.114408208858933 68.8967
20.137196842715273 68.4436
20.159809615886765 66.9184
20.18242318232135 64.4543
20.20503754298326 62.3379
20.227829382875154 61.5229
20.250445341109344 61.4437
20.27306209647285 62.4827
20.29567964993108 63.7501
20.31847471147704 64.7806
20.34109387027612 64.9509
20.363713830075454 64.8428
20.386334591841646 63.013000000000005
20.409132890679302 60.5627
20.431755265564437 57.3661
20.454378445325528 54.8953
20.477002430930366 53.0195
20.499803982716553 51.8136
20.522429589228004 51.0067
20.54505600449589 50.5107
20.567683229489194 50.3213
20.590488049900088 49.958
20.61311690359731 49.5323
20.63574656993626 49.254
20.658553853717297 49.0566
20.681185154618298 49.0457
20.703817271080066 48.9356
20.72645020407368 48.5657
20.749260783967177 48.4027
20.771895359337133 48.5485
20.794530754161617 48.4509
20.817166969412938 48.0784
20.83998086114876 48.076
20.86261872660049 47.9009
20.885257415405402 47.9401
20.90789692853701 47.8549
20.930714147864748 47.757
20.953355319030678 47.9011
20.97599731745334 48.2297
20.99864014410749 47.8147
21.021460706796564 47.956
21.044105199328826 48.1356
21.06675052302631 48.1437
21.089396678865015 48.501999999999995
21.112220600704806 48.8379
21.134868430275347 49.3272
21.15751709492456 49.6514
21.180166595629693 49.8233
21.202993892429635 50.2156
21.22564507473034 50.762
21.24829709602816 50.8583
21.27112693608965 50.8908
21.293780644891275 50.7442
21.316435195634053 50.0668
21.339090589297417 49.3897
21.361923832041875 48.9851
21.384580921090404 48.4526
21.407238856007325 47.9284
21.429897637773326 47.7799
21.45273429906592 47.8301
21.475394784108598 47.8269
21.498056118951983 47.717
21.520718304578022 47.8073
21.543558400304388 47.8583
21.566222297108816 48.0526
21.58888704765135 48.0693
21.61155265291521 48.3462
21.63439619898156 48.8907
21.657063523335786 49.0643
21.67973170537063 49.5856
21.7024007460706 50.088
21.72524775840385 50.8232
21.747918526116475 51.6768
21.770590155457388 52.7988
21.79326264741238 54.5223
21.816113141960237 56.4623
21.838787368860547 58.3893
21.861462461341976 60.4997
21.884315579735777 62.2109
21.90699241312273 63.4292
21.92967011506078 63.6753
21.95234868653799 63.5296
21.9752053151131 62.0402
21.997885635446785 60.1715
22.020566828293532 58.4844
22.04324889464272 57.0929
22.066109049404666 56.0034
22.088792872571794 55.5962
22.111477572219204 55.6609
22.1341631493376 55.3737
22.157026846313123 55.0971
22.179714188221507 54.3548
22.202402410582668 53.3619
22.22509151438863 51.7925
22.24795876962584 50.7689
22.270649646204486 49.9497
22.293341407213727 49.2263
22.316034053646906 48.7774
22.338904883215342 48.4247
22.36159931041458 48.4335
22.38429462602756 48.3757
22.40699083104897 48.2483
22.429865251039757 48.2052
22.452563244831367 48.1994
22.47526213102522 48.2545
22.49813925616515 48.1065
22.520839937143307 47.9573
22.543541513520587 48.2243
22.56624398629403 47.8237
22.589124730075895 47.6967
22.611829005656723 48.0624
22.63453418063466 47.9131
22.657240256008077 48.1067
22.680124634582935 48.1776
22.70283252079775 48.6192
22.725541310413075 48.7631
22.74825100442868 48.7787
22.771139033969575 49.4237
22.79385054687155 49.5578
22.81656296718292 50.3018
22.83927629590484 51.2566
22.862167992606945 52.2168
22.88488314827121 53.4304
22.907599215359284 54.5074
22.93031619487366 55.8218
22.953211574954405 56.6285
22.975930389478226 57.316
22.998650119445763 57.4912
23.02137076586092 56.4247
23.044269845560063 55.3954
23.06699233506288 53.7241
23.089715744034912 52.0452
23.112617610931565 50.5193
23.135342869061212 49.3965
23.158069049684816 48.6144
23.1807961538087 48.1502
23.20370174880544 48.1434
23.226430710184808 47.9391
23.249160598093425 48.0301
23.271891413539002 47.9251
23.294800752937697 48.1231
23.31753343374794 48.1771
23.340267045128353 48.3549
23.36300158808808 48.6939
23.38591468821339 48.9712
23.408651104658304 49.4718
23.431388455719986 50.1171
23.454126742409 50.8611
23.4770436196085 51.8799
23.499783787914662 53.2706
23.522524894889884 54.2616
23.54526694154616 55.5254
23.56818761219047 56.6924
23.59093154860734 57.1549
23.613676427751283 57.2919
23.636422250635754 56.3437
23.659346731118656 54.8162
23.68209445191868 52.9284
23.704843119509587 50.8885
23.72759273490623 49.0413
23.750521041644767 47.7054
23.77327256312355 46.7257
23.796025035462787 46.1256
23.818956224555475 45.5829
23.841710609113413 45.3933
23.86446594758979 45.2234
23.887222241002014 44.9266
23.910157285144578 44.6101
23.932915498962537 44.6468
23.955674670778713 44.4399
23.978434801611975 44.2952
24.001373717286125 44.2322
24.024135776723917 44.1873
24.046898798245582 43.9632
24.06966278287146 43.838
24.092605586582614 43.6382
24.115371508023642 43.605
24.1381383956401 43.4098
24.16090625045381 43.4579
24.183852958731244 43.4187
24.206622758582608 43.3851
24.229393528706886 43.2253
24.252165270127392 43.2151
24.27511589952438 43.1456
24.297889594216997 42.8746
24.32066426328598 42.6903
24.34343990775613 42.8646
24.36639447485003 42.7116
24.38917208083877 42.5912
24.41195066531332 42.4538
24.43490819850244 42.6464
24.457688750692377 42.4852
24.48047028445616 42.3293
24.503252800821233 42.6121
24.526214300784112 42.6347
24.548998793132213 42.6078
24.57178427117417 42.411
24.59457073593893 42.3802
24.617536219319863 42.4502
24.64032466834748 42.4727
24.663114107195035 42.1335
24.685904536893013 42.1094
24.708874020360852 41.9775
24.731666442613744 41.8652
24.754459858818787 41.9385
24.777254270007962 41.7975
24.80022777025625 41.6717
24.82302418230472 41.6656
24.845821592443674 41.6731
24.86862000170663 41.5656
24.891597535453727 41.4418
24.914397953892728 41.6819
24.93719937456671 41.6385
24.96000179851076 41.8207
24.98298338249997 41.9062
25.00578782394922 42.1161
25.028593271784167 42.2654
25.05157790644186 42.5404
25.07438537804115 42.8555
25.097193859145293 43.0791
25.120003350792075 43.138999999999996
25.142992065061257 43.5356
25.165803588823465 43.7308
25.18861612625217 43.9305
25.211429678386736 44.1417
25.234422489079968 44.1029
25.257238081693636 44.2017
25.280054692141732 44.3986
25.3028723214652 44.4129
25.325869245420463 44.4301
25.348688923599397 44.3077
25.371509623787006 44.22
25.394331347025812 44.0765
25.41733240110666 43.497
25.440156181590016 42.9602
25.46298098826268 42.4566
25.48580682216873 41.9457
25.50881202326435 41.4077
25.53163992281684 40.9601
25.55446885274561 40.65
25.577298814096377 40.2768
25.600308179121807 40.3258
25.623140214533745 40.4066
25.64597328451537 40.2208
25.66898578564376 39.9811
25.691820936010206 40.0653
25.714657124097695 39.968
25.737494350954734 39.9398
25.760511045684957 39.8299
25.783350361364224 39.972
25.806190718969255 40.0405
25.82903211955018 40.0192
25.852053024868923 40.1484
25.874896522722523 40.1018
25.897741066713106 40.0128
25.920586657892454 40.1619
25.943611790812668 40.2896
25.966459487728237 40.353
25.989308234998564 40.5581
26.01215803367705 40.9535
26.03518741123814 41.0157
26.05803932412957 41.0193
26.080892291600094 41.0517
26.10374631470478 41.1305
26.12677995397268 41.0553
26.14963609978026 41.1072
26.172493304397875 40.748000000000005
26.19535156888223 40.7962
26.218389486949604 40.2836
26.241249882640123 39.9673
26.26411134137826 39.6702
26.28715248187403 39.6882
26.31001607820869 39.5877
26.3328807407756 39.3744
26.35574647063438 39.4924
26.37879191991473 39.4914
26.401659795896734 39.5942
26.424528742360263 39.7743
26.447398760366614 39.8573
26.470448535598294 40.1753
26.49332070826805 40.207
26.516193955675355 40.5223
26.53906827888316 40.7299
26.562122397260108 40.9497
26.584998883685063 41.1399
26.607876449110325 41.407
26.63075509460056 41.5228
26.65381357334404 41.6594
26.67669439061878 41.6446
26.699576291163382 41.476000000000006
26.722459276044212 41.4231
26.745522132402975 41.1295
26.768407297649354 40.8328
26.791293550442003 40.5207
26.814180891848974 40.3116
26.837248143099337 40.0129
26.860137673466657 39.8648
26.88302829566349 39.6904
26.90592001075963 39.4707
26.92899167420566 39.2964
26.951885586870763 38.8534
26.974780595655517 38.8362
26.99785558178161 38.668
27.020752794605112 38.5056
27.043651106772522 38.3527
27.06655051935668 38.4585
27.089629948036183 38.2266
27.112531573292053 38.2061
27.135434302194138 38.2281
27.158338135817015 38.0884
27.181422024430987 38.1104
27.204328079372566 38.0065
27.22723524226965 38.0884
27.250143514198573 38.0743
27.273231880156334 38.0281
27.296142382065014 37.9303
27.319053996245536 37.7766
27.341966723775965 37.888000000000005
27.365059584515222 37.8897
27.38797455070062 38.0148
27.410890633481237 37.8169
27.433807833936918 37.7898
27.456905206923906 37.9821
27.47982465472398 38.0573
27.502745223449743 38.0442
27.525666914182825 38.0813
27.548768816912457 38.0995
27.571692763693633 37.9871
27.59461783573812 37.7941
27.617723149491244 37.7033
27.640650484125285 37.6769
27.66357894728264 37.6544
27.686508540048052 37.6164
27.709618414237887 37.4518
27.732550278321757 37.4026
27.755483275279115 37.3663
27.778417406196485 37.4318
27.801531858397514 37.2612
27.824468269376716 37.2285
27.847405817586786 37.2331
27.870344504116094 37.4919
27.893463551932008 37.6204
27.916404527281053 37.7913
27.93934664422563 37.8162
27.962289903855886 37.8661
27.98541356491974 38.1086
28.00835912214229 38.2588
28.03130582533231 38.5
28.054253675581805 38.648
28.077381967556104 38.5041
28.100332124185126 38.4563
28.123283431160893 38.4819
28.146235889577238 38.3504
28.169368830154156 38.2921
28.192323603752033 38.1622
28.215279532083304 37.6295
28.238415973016764 37.4437
28.261374223145094 37.3195
28.284333631303806 37.13
28.307294198589954 36.9386
28.330435319167677 36.7701
28.353398217078915 36.518
28.376362277420153 36.266
28.39932750129032 36.1655
28.422473319286713 35.9498
28.44544088262495 35.9483
28.468409612800283 35.786
28.491379510913497 35.5536
28.51453004413313 35.4835
28.53750229057244 35.4663
28.56047570826344 35.349000000000004
28.583450298308804 35.3945
28.606605564586562 35.1969
28.629582511831156 35.3207
28.65256063474956 35.2477
28.675539934446338 35.2292
28.698699951647605 35.2412
28.72168161743193 35.0286
28.74466446331978 35.0465
28.767648490417624 35.0835
28.790813276438353 35.0157
28.813799678527303 35.1217
28.836787265157085 34.9707
28.859955641890075 35.0213
28.882945610203045 34.9798
28.905936766392035 34.856
28.928929111566863 34.8892
28.952102288520145 34.7852
28.975097024308607 34.6793
28.998092952423807 34.5996
29.021090073977508 34.4608
29.04426806913204 34.4809
29.067267590245258 34.2022
29.090268308143695 34.2419
29.11327022394099 34.1639
29.13645305530891 34.018
29.159457379627167 33.9632
29.18246290519685 33.8944
29.20546963313352 33.7731
29.22865731875826 33.9929
29.25166646419296 33.912
29.27467681535305 33.760999999999996
29.29768837335608 33.9273
29.320880931312562 33.9605
29.34389491580634 33.912
29.366910110507334 33.7678
29.38992651653503 33.8445
29.41312396492981 33.8885
29.436142806456754 33.7239
29.45916286268059 33.5407
29.48236399319994 33.4891
29.50538649169417 33.3779
29.528410208259935 33.2963
29.55143514402014 32.9924
29.574641196749695 33.0711
29.597668583816574 32.9782
29.6206971934585 32.6762
29.64372702680042 32.7453
29.666938019934474 32.5505
29.689970313635285 32.5129
29.713003834422636 32.5449
29.73603858342347 32.4394
29.759254535188578 32.4219
29.78229175361658 32.3952
29.80533020365064 32.4012
29.82836988641968 32.3701
29.85159081507472 32.4061
29.874632976355343 32.3548
29.89767637376955 32.4616
29.920721008448314 32.2657
29.9439469322847 32.1158
29.96699405457564 32.0398
29.9900424175358 32.1843
30.013092022298157 32.0929
30.03632295963995 32.022
30.059375061131373 32.0002
30.08242840783577 32.0261
30.105483000888153 32.1031
30.128718970092244 31.951
30.151776069006917 32.0371
30.17483441768648 32.0884
30.198074175317235 31.969
30.221135036724256 31.9996
30.24419715131772 31.9797
30.267260520236203 31.8379
30.290505341942243 31.9578
30.313571232750228 31.9499
30.336638381310948 31.8112
30.35970678876503 31.8291
30.38295669299435 31.7903
30.40602763151657 31.7177
30.429099832366074 31.7156
30.452173296685572 31.6053
30.47542830191959 31.6214
30.498504306502497 31.5518
30.521581577995562 31.773000000000003
30.544660117543582 31.7623
30.56792024229725 31.8021
30.59100133132069 31.7617
30.614083691845494 31.7351
30.637167325018545 31.7797
30.660432587840603 31.8989
30.683518779717886 31.7338
30.70660624769615 31.7948
30.729694992924372 31.8151
30.75296541239743 31.8146
30.77605672557558 31.7581
30.799149319462742 31.7369
30.8224236211637 31.5801
30.845518789950724 31.447
30.868615242910597 31.4728
30.891712981195973 31.2793
30.91499247215866 31.2761
30.938092794619365 31.2417
30.96119440587579 31.0677
30.984297307082752 30.969
31.00758200598383 30.8396
31.030687500658694 30.7558
31.053794288760695 30.7485
31.076902371446767 30.7166
31.100192296997445 30.7553
31.12330298246119 30.634
31.14641496599209 30.4983
31.169528248749216 30.4946
31.19282341969534 30.5012
31.215939314557186 30.574
31.239056512134788 30.5742
31.262175013589378 30.5708
31.28547544871168 30.4741
31.30859657161541 30.4573
31.331719001892175 30.3565
31.35484274070538 30.4702
31.378148458819545 30.4927
31.401274828443725 30.4971
31.424402510106933 30.5807
31.447712205419993 30.570999999999998
31.470842524931633 30.4455
31.493974159989783 30.4238
31.51710711176168 30.4499
31.54042212308802 30.3883
31.563557722100917 30.3507
31.586694641341655 30.1943
31.609832881979628 30.1345
31.63315322823208 30.0267
31.656294125521327 29.9208
31.679436347728515 29.9594
31.70257989602529 29.8961
31.725905596152327 29.8025
31.74905181052835 29.7165
31.772199354521323 29.8625
31.79534822930507 29.8291
31.818679302290967 29.7605
31.84183085259981 29.7891
31.864983737233473 29.7224
31.88813795736804 29.793000000000003
31.911474422233013 29.6454
31.934631327356435 29.8293
31.9577895715215 29.7309
31.980949155906522 29.5591
32.004291031706956 29.6311
32.027453310562606 29.5377
32.05061693318573 29.3831
32.07396288236386 29.4299
32.09712920658542 29.3192
32.12029687812702 29.2337
32.14346589817093 29.1615
32.166817291729984 29.1959
32.18998902288583 29.0957
32.21316210610336 28.951999999999998
32.23633654256711 28.7657
32.259693399663725 28.8417
32.282870556771144 28.7762
32.30604907069099 28.7816
32.329228942610065 28.6601
32.35259128243769 28.6668
32.375773884550505 28.6302
32.398957848235646 28.5625
32.422143174682176 28.4783
32.445511016471215 28.3331
32.468699082679954 28.313000000000002
32.49188851523011 28.2872
32.51507931531304 28.2409
32.538452678331 28.2613
32.56164622776311 28.2744
32.58484114831493 28.1066
32.60803744118015 28.2192
32.631416344731896 28.1231
32.654615396551876 28.031
32.67781582427913 28.0916
32.701198898634416 27.9652
32.72440209253756 27.9219
32.747606665947124 27.9516
32.77081262006088 27.8092
32.79420126883317 27.7472
32.81740999876112 27.8125
32.840620112999424 27.6848
32.86383161274818 27.5562
32.88722585534586 27.6216
32.91044014056596 27.6822
32.933655814909734 27.6137
32.95687287957963 27.6514
32.98027273544904 27.5705
33.00349259526636 27.4794
33.026713849030116 27.5659
33.04993649794511 27.4757
33.073341986570746 27.4151
33.09656744032826 27.4575
33.11979429286444 27.4287
33.14302254538647 27.4965
33.166433686291185 27.3601
33.18966475336992 27.3016
33.212897224069096 27.1663
33.23613109959831 27.2131
33.259547912343415 27.2222
33.2827846121627 27.2986
33.306022720453775 27.1826
33.32926223842861 27.0307
33.352684742614166 26.9867
33.37592709463173 26.9692
33.399170859982064 26.9321
33.422597648419426 26.8329
33.44584425514446 26.7833
33.46909227885668 26.7989
33.4923417207723 26.6609
33.51577423505344 26.6761
33.539026528130385 26.5661
33.56228024307245 26.5594
33.585535381098246 26.445
33.60897364093058 26.3921
33.63223163992385 26.406
33.6554910656699 26.3636
33.678751919389796 26.2837
33.702195944520106 26.2891
33.72545966903325 26.2736
33.74872482519663 26.2098
33.771991414233746 26.1675
33.79544122444841 26.1925
33.81871069412428 26.0945
33.84198160035767 26.0905
33.86525394437455 26.1099
33.88870955949969 25.9664
33.911984794020626 26.008000000000003
33.93526147001624 25.968000000000004
33.958539588715006 25.9399
33.98200102861669 25.822
34.0052820477047 25.7219
34.02856451319451 25.7374
34.05203033759056 25.6807
34.07531571090147 25.683000000000003
34.09860253431845 25.6648
34.121890809074316 25.5613
34.145362493118924 25.5892
34.16865368561615 25.5863
34.191946333164054 25.5213
34.21524043699793 25.4957
34.23871800066799 25.4246
34.26201503218366 25.3715
34.28531352370466 25.3401
34.30861347646881 25.2612
34.33209693978188 25.2422
34.3553998301885 25.1886
34.378704185565205 25.2187
34.402010007152356 25.1107
34.42549939016683 25.159000000000002
34.44880815937748 25.0016
34.472118398533134 24.9756
34.49543010887669 24.9714
34.51892543169198 24.7967
34.54224009966052 24.8798
34.56555624255917 24.8787
34.58887386163339 24.7521
34.61237514439016 24.7003
34.6356957311114 24.6777
34.65901779775809 24.6835
34.68252356662995 24.6461
34.705848608458616 24.6455
34.72917513396849 24.5543
34.75250314440949 24.4816
34.77601490857862 24.3978
34.799345904259795 24.4406
34.82267838863559 24.435
34.846012362958525 24.4306
34.869530142679984 24.3578
34.89286711232212 24.2756
34.91620557568269 24.3052
34.93954553401677 24.253
34.9630693495876 24.1932
34.986412313340814 24.1105
35.00975677584668 24.2402
35.033102738362956 24.2135
35.05663261012228 24.0668
35.0799815881786 23.9624
35.10333207003229 23.9631
35.12668405694369 24.0025
35.150220005273056 23.9725
35.17357501786656 23.8732
35.19693153931268 23.8624
35.220289570874385 23.7716
35.24383161619786 23.8769
35.267192683604904 23.7921
35.290555264930376 23.8125
35.314101899412165 23.7839
35.33746752422433 23.7584
35.36083466676374 23.761999999999997
35.38420332829803 23.6501
35.407756095629054 23.6787
35.43112781085063 23.6509
35.45450104888391 23.6836
35.477875810999194 23.6815
35.50143473172161 23.633000000000003
35.52481255774625 23.6265
35.54819191167777 23.5912
35.57157279478914 23.5422
35.595137889488406 23.3994
35.61852184675279 23.3981
35.641907337029984 23.3341
35.665294361595684 23.2471
35.68886565090076 23.2423
35.7122557598848 23.2862
35.73564740699838 23.2381
35.759040593519934 23.1161
35.78261809810353 23.1499
35.80601437933051 23.0653
35.829412203814705 23.008000000000003
35.85281157283719 22.9943
35.876395313415884 23.0123
35.8997977874528 22.9507
35.92320180988546 22.8873
35.946790244133936 22.8632
35.97019737933222 22.8
35.993606066789866 22.74
36.01701630779276 22.6998
36.04061101440684 22.6735
36.06402437852291 22.706999999999997
36.08743930005611 22.7261
36.1108557802951 22.6147
36.13445678011326 22.6233
36.15787639383515 22.4897
36.18129757014299 22.496
36.20472031032821 22.4405
36.22832762423364 22.5033
36.25175350829375 22.4377
36.275180960119776 22.3578
36.298609981005924 22.4358
36.32222362992669 22.3349
36.34565580510207 22.4133
36.36908955323448 22.2859
36.39252487562093 22.1882
36.416144880530226 22.1531
36.43958336764275 22.2035
36.463023432914625 22.1985
36.486465077645676 22.0863
36.51009145956204 22.1408
36.53353627947859 22.0952
36.55698268276811 22.0385
36.58043067073321 21.991999999999997
36.60406345072071 21.9079
36.62751462435344 21.9409
36.65096738658405 21.8894
36.67460498210655 21.8786
36.69806093788647 21.8297
36.72151848619297 21.7787
36.744977628333636 21.849
36.76862165890998 21.6134
36.79208400512205 21.6934
36.81554794910557 21.7248
36.83901349217101 21.6146
36.862663978991606 21.5101
36.88613273667352 21.5145
36.90960309738324 21.5108
36.933075062434064 21.4409
36.95673202673572 21.3984
36.98020721697122 21.3295
37.003684015502365 21.3064
37.027162423645365 21.3189
37.050825886711465 21.3422
37.07430753063053 21.2657
37.09779078812467 21.2094
37.121275660513014 21.1687
37.144945643673694 21.208000000000002
37.16843376245278 21.159000000000002
37.19192350009803 21.0963
37.215414857931435 21.0559
37.239091382563885 20.9671
37.262585997426164 21.0032
37.28608223645736 20.9795
37.309763684451696 20.9084
37.33326318851098 20.9007
37.356764320726555 20.8855
37.380267082425526 20.8496
37.40395510942588 20.7834
37.42746114683234 20.6762
37.45096881771841 20.6476
37.474478123414166 20.7276
37.49817275092816 20.6626
37.52168534303452 20.7177
37.54519957395567 20.5917
37.568715445024665 20.5898
37.592416694607714 20.5833
37.61593586281424 20.5982
37.63945667518264 20.5706
37.66297913304891 20.5394
37.68668702630454 20.4885
37.710212792059274 20.3692
37.733740207334854 20.3025
37.757269273470364 20.2739
37.780983832050374 20.2207
37.80451621684926 20.2066
37.82805025654007 20.2421
37.851585952464795 20.2115
37.8753071980695 20.1379
37.89884622345676 20.1054
37.92238690911902 20.087
37.94611318753442 20.0633
37.969657210779765 20.0634
37.99320289834801 20.0859
38.016750251586465 20.0379
38.04048325513017 19.952
38.06403395679343 19.878
38.087586328183946 19.8451
38.11114037065203 19.809
38.13488012115898 19.8599
38.1584375229181 19.7419
38.181996599821 19.749000000000002
38.205557353221124 19.6918
38.229303872575656 19.6148
38.2528679961576 19.703
38.27643380031219 19.5681
38.30000128639589 19.5382
38.32375459653193 19.543
38.34732546371299 19.5494
38.37089801690786 19.5125
38.39447225747609 19.4002
38.418232380377425 19.4427
38.441810012983396 19.4363
38.46538933705673 19.3124
38.488970353960084 19.3762
38.51273731166058 19.4007
38.536321731567014 19.2611
38.55990784840681 19.2817
38.58367995004091 19.1997
38.60726947812959 19.1529
38.63086070726198 19.1269
38.654453638806274 19.1492
38.678232613930824 19.0738
38.70182896773327 18.9816
38.72542702806741 19.0298
38.7490267963045 18.9658
38.77281266709232 18.9743
38.79641586862214 18.9784
38.8200207821842 18.8892
38.843627409152944 18.8684
38.86742019782782 18.8503
38.891030269149255 18.8058
38.914642058016156 18.8194
38.938255565806124 18.7846
38.96205529464307 18.7719
38.98567225787121 18.6996
39.00929094417078 18.7122
39.03291135492255 18.7014
39.05671804624804 18.6957
39.080341923549106 18.6355
39.103967529460334 18.5658
39.127594865365744 18.4695
39.15140854155791 18.472
39.17503935514948 18.4305
39.19867190290282 18.4753
39.22249083587951 18.4112
39.24612686969409 18.3757
39.269764641845306 18.4105
39.293404153722804 18.3962
39.317230110864074 18.2484
39.34087311998506 18.2748
39.36451787301696 18.2574
39.388164371352595 18.1246
39.41199737518003 18.1395
39.43564738196752 18.164
39.45929913825317 18.0923
39.48295264543308 18.1124
39.506792718520884 18.0157
39.530449745387216 18.0613
39.55410852735203 18.0208
39.57776906581474 18.0198
39.60161623079 17.9247
39.625280300200025 17.9778
39.64894613032202 17.8082
39.67261372255866 17.8134
39.6964680021016 17.8716
39.72013913657293 17.887999999999998
39.74381203738292 17.8722
39.76748670593756 17.789
39.79134812278169 17.7828
39.81502634488497 17.7496
39.83870633896685 17.701
39.862388106436654 17.6321
39.88625668336918 17.6142
39.90994201572829 17.625
39.933629125719285 17.6024
39.957503091207826 17.5206
39.9811937746168 17.518
40.00488623990914 17.4839
40.02858048850006 17.4928
40.05246165409549 17.4249
40.076159487492085 17.4028
40.099859108448875 17.3845
40.123560518384345 17.3972
40.1474489070226 17.3196
40.171153913178564 17.2271
40.194860712584955 17.2236
40.2185693066637 17.2321
40.242464941335314 17.1832
40.26617714307655 17.1781
40.289891143772046 17.1109
40.3136069448471 17.0948
40.33750984859743 17.0741
40.3612292688043 17.0828
40.3849504936829 17.0314
40.40867352466194 17.0116
40.43258372059144 16.9701
40.45631038219906 16.9592
40.48003885420956 16.9038
40.503769138055105 16.9191
40.52768664931955 16.9289
40.55142057531802 16.898
40.57515631746428 16.8295
40.599079334038514 16.7873
40.62281872700477 16.6705
40.64655994043941 16.6879
40.67030297578061 16.7636
40.69423334835778 16.6749
40.71798004609188 16.6536
40.74172857006355 16.5809
40.76547892171441 16.6335
40.7894166736039 16.5768
40.813170699248566 16.5225
40.83692655691388 16.5558
40.86068424804498 16.5452
40.884629402612525 16.4888
40.908390779366385 16.5079
40.932153993938 16.4553
40.95591904777605 16.4192
40.979871628443995 16.3935
41.003640379561936 16.3261
41.02741097430883 16.3321
41.05118341413683 16.2987
41.075143444384416 16.2217
41.098919593177826 16.3009
41.1226975914255 16.2496
41.14647744058318 16.2712
41.170444943946755 16.189
41.19422851378379 16.1624
41.218013938914645 16.1471
41.24198706625173 16.0083
41.26577622087193 16.0405
41.289567235177785 16.0094
41.31336011063129 16.0153
41.337340752422875 15.9767
41.361137369129835 15.9534
41.38493585138705 15.8885
41.40873620066004 15.834000000000001
41.43272438060107 15.8906
41.45652848292052 15.855
41.48033445666918 15.8333
41.50414230331616 15.8015
41.528138045159764 15.7498
41.551949656675205 15.7043
41.575763145513235 15.6712
41.59957851314666 15.6512
41.62358184070442 15.600999999999999
41.64740098505737 15.6027
41.6712220126409 15.5904
41.69504492493139 15.569
41.71905586207357 15.5388
41.74288256296395 15.4947
41.766711153007456 15.4489
41.79054163368412 15.4701
41.814560204340054 15.4949
41.838394485526365 15.4218
41.86223066180303 15.4212
41.88625497706819 15.38
41.910094962812 15.3533
41.93393684811168 15.302
41.95778063445365 15.234000000000002
41.981812625263366 15.2629
42.00566023303407 15.284
42.029509746323676 15.2141
42.05336116662236 15.1434
42.077400857069705 15.1313
42.10125611078846 15.14
42.12511327600405 15.1096
42.14897235421036 15.0656
42.173019768448455 15.0511
42.19688269209613 15.0893
42.22074753323349 15.0318
42.24461429335818 15.0335
42.268669455600495 14.9383
42.292540073217886 14.9211
42.31641261433284 14.9342
42.34028708044675 14.9154
42.36435001496739 14.9046
42.38822835065557 14.868
42.41210861586426 14.7932
42.4359908120986 14.7924
42.46006154323262 14.8173
42.48394762115317 14.7535
42.507835634632315 14.6816
42.531912233047436 14.7205
42.55580413732265 14.6792
42.579697981698 14.6607
42.60359376768525 14.6406
42.62767820545945 14.6012
42.65157789440821 14.5843
42.67547952952185 14.5268
42.699383112316 14.5247
42.72347541395347 14.4615
42.74738291190531 14.4751
42.771292362102166 14.5213
42.795203766063516 14.4257
42.819303956130405 14.3912
42.843219287476536 14.3282
42.86713657716324 14.3388
42.89105582671383 14.3158
42.91516392983864 14.3198
42.939087119032166 14.2753
42.963012272677304 14.2219
42.98693939230129 14.2011
43.01105543317513 14.1847
43.034986504731386 14.1926
43.05891954686589 14.1158
43.08285456110972 14.0971
43.10697856448665 14.0425
43.130917542983475 14.0564
43.15485849820081 14.0593
43.17880143167367 13.9753
43.20293342237094 14.0144
43.226880332449 13.9584
43.25082922540554 13.9573
43.27496722682525 13.9208
43.29892010567796 13.9166
43.32287497204102 13.8798
43.34683182745632 13.8951
43.370977859791836 13.8191
43.39493871351105 13.8023
43.41890156092628 13.7913
43.44286640358341 13.7729
43.46702049182749 13.7618
43.49098934522816 13.7244
43.51496019852649 13.6963
43.5389330532723 13.6947
43.56309522248204 13.6587
43.58707210044314 13.6342
43.61105098451946 13.5904
43.63503187626491 13.5701
43.659202151562134 13.5693
43.68318707902681 13.5283
43.70717401884041 13.522
43.731162972560874 13.431
43.75534137913236 13.4081
43.779334381108384 13.4683
43.803329401683186 13.4075
43.82732644241872 13.4046
43.8515130055166 13.3953
43.87551410707659 13.3774
43.89951723350145 13.3499
43.923709934595614 13.3153
43.94771713129917 13.269
43.97172635758096 13.254000000000001
43.99573761501002 13.2329
44.0199385169922 13.1916
44.04395385732619 13.2005
44.067971233533086 13.1848
44.09199064718605 13.1102
44.11619977548961 13.0867
44.14022328470671 13.0728
44.16424883610785 13.0556
44.18827643127035 13.0185
44.21249381139513 13.0213
44.236525514814076 13.0109
44.26055926674478 13.039000000000001
44.28459506876863 13.0199
44.3088207262813 12.9183
44.33286064928722 12.931
44.35690262714919 12.9074
44.38094666145278 12.8063
44.4051806219871 12.8285
44.42922879003185 12.8113
44.45327901929361 12.7933
44.477331311362136 12.8227
44.501573600619416 12.7742
44.525630039221795 12.7314
44.54968854541895 12.7314
44.573937102200176 12.7057
44.5979997645541 12.6552
44.622064499300315 12.6708
44.64613130803592 12.6191
44.67038823869318 12.6
44.69445921643748 12.5945
44.718532272981385 12.5562
44.742607409926194 12.501
44.76687274034801 12.5014
44.79095205918753 12.4851
44.81503346325094 12.4953
44.839116954143876 12.4469
44.86339071028742 12.3887
44.88747839599524 12.4173
44.91156817336837 12.3587
44.93566004401666 12.3689
44.959942251908146 12.3832
44.984038330325966 12.3001
45.00813650686762 12.2358
45.03223678314731 12.2766
45.05652746888232 12.2435
45.08063196592069 12.2324
45.104738567558705 12.2234
45.128847275414856 12.1882
45.15314646515866 12.1459
45.17725940679741 12.1443
45.20137445952892 12.1135
45.22568004865265 12.1007
45.24979934496396 12.103
45.27392075725247 12.0013
45.29804428714431 12.0411
45.322358426247604 12.0027
45.346486212804315 11.9774
45.370616121861914 12.0001
45.39474815505086 11.9419
45.41907087049246 11.9226
45.4432071734666 11.9035
45.46734560548283 11.887
45.49148616817604 11.8852
45.51581748638564 11.8743
45.5399623320197 11.8861
45.56410931325473 11.8061
45.58825843173002 11.7927
45.61259837920865 11.7479
45.636751793816 11.7792
45.66090735060093 11.6985
45.68506505120716 11.6689
45.7094136545275 11.6716
45.73357566449271 11.6256
45.75773982322992 11.6307
45.78190613238733 11.6603
45.806263418194064 11.5783
45.83043404997326 11.6007
45.85460683713677 11.5846
45.87897065658495 11.5326
45.90314777634752 11.5281
45.92732705646868 11.4969
45.9515084986045 11.4772
45.97588104735473 11.4329
46.00006683541565 11.4184
46.02425479047904 11.3807
46.04844491420549 11.3687
46.0728262191024 11.3885
46.09702070211635 11.3504
46.12121735879483 11.3626
46.14541619080294 11.3412
46.169806278764455 11.3016
46.194009483459034 11.2762
46.21821486849841 11.2519
46.24242243555223 11.2292
46.266821333570014 11.1881
46.29103328674601 11.1645
46.31524742696538 11.1662
46.33946375590237 11.1638
46.36387149104216 11.1477
46.38809221957392 11.0997
46.41231514186606 11.0761
46.436540259597464 11.0794
46.460956858999374 11.1123
46.48518638983522 11.046
46.509418121166966 10.9889
46.533652054678114 11.0127
46.55807754555709 10.9805
46.58231590571962 10.972999999999999
46.60655647313217 10.9146
46.630988654873654 10.8862
46.655233659129024 10.8613
46.67948087571551 10.8451
46.70373030632484 10.8591
46.72817142736393 10.8422
46.752425308428684 10.7854
46.77668140861147 10.7752
46.80093972960865 10.7125
46.82538981736788 10.7658
46.849652602470904 10.7143
46.87391761349769 10.7024
46.8981848521493 10.6497
46.9226439341274 10.6446
46.946915650573224 10.6149
46.97118959976749 10.6309
46.99546578341598 10.5475
47.019933887188216 10.5477
47.04421456235744 10.5457
47.06849747711879 10.5263
47.09278263318286 10.5349
47.11725978640143 10.5376
47.14154944775105 10.487
47.165841355555656 10.4608
47.1901355115306 10.4084
47.214621741924994 10.4131
47.23892041698887 10.4146
47.26322134538975 10.4222
47.28771440635075 10.386
47.31201986422527 10.3275
47.33632758061436 10.3376
47.360637557241866 10.2819
47.38513974410611 10.2962
47.40945426407847 10.2848
47.43377104948137 10.2746
47.45809010204344 10.2444
47.48260144275502 10.2314
47.506925052572285 10.2422
47.53125093475548 10.169
47.55557909103813 10.1901
47.58009961361992 10.1378
47.60443234110732 10.1117
47.62876734791564 10.1328
47.65310463578333 10.0982
47.6776343683373 10.0568
47.7019762413987 10.0096
47.72632040075572 10.0266
47.75066684815169 10.0564
47.77520581885936 9.99441
47.799556865477655 9.961310000000001
47.823910205386 9.95513
47.84826584033272 9.938310000000001
47.87281407745551 9.88695
47.89717432569297 9.90405
47.92153687423484 9.92313
47.94609208429692 9.86559
47.97045925671401 9.83239
47.99482873471275 9.80187
48.01920052005013 9.79155
48.04376504619224 9.82066
48.068141469543484 9.78153
48.09252020552573 9.77747
48.11690125590099 9.72967
48.1414751266064 9.73366
48.16586082917454 9.73816
48.19024885144316 9.6569
48.2146391951793 9.686639999999999
48.239222439012764 9.67229
48.26361744916137 9.64438
48.28801478610016 9.65816
48.31241445160131 9.622860000000001
48.337007097209366 9.59614
48.36141144338331 9.53783
48.38581812345755 9.55772
48.41022713920929 9.55384
48.434829215320704 9.5286
48.45924292604658 9.50097
48.48365897780325 9.497580000000001
48.50807737237308 9.50112
48.532688907799276 9.45393
48.55711201168574 9.42825
48.581537463754074 9.444280000000001
48.60615611725119 9.42998
48.63058628942721 9.3936
48.65501881516546 9.36668
48.6794536962573 9.33732
48.70408185970339 9.33302
48.72852147531801 9.30539
48.75296345168211 9.26527
48.77740779059232 9.30626
48.80204549302823 9.27624
48.82649458091802 9.22583
48.85094603676547 9.23578
48.87539986237231 9.18098
48.90004713292306 9.19485
48.92450572200832 9.20035
48.94896668628025 9.17027
48.97343002754588 9.15029
48.99808689542115 9.12991
49.02255501470614 9.10033
49.04702551642794 9.1166
49.0714984023988 9.07893
49.096164896893235 9.05062
49.120642575466796 9.05837
49.145122643748394 9.01343
49.16960510355558 9.01609
49.19428125404938 8.989939999999999
49.2187685210852 9.007539999999999
49.243258185121555 8.93207
49.26794160167084 8.9183
49.2924360839405 8.922
49.31693296869764 8.91005
49.34143225776915 8.86851
49.36612538195438 8.87084
49.39062950396021 8.88453
49.41513603578346 8.82455
49.4396449792564 8.799610000000001
49.46434784069503 8.82748
49.488861631846454 8.79703
49.513377840166804 8.74099
49.537896467493745 8.72593
49.56260909589029 8.71467
49.587132585683285 8.70156
49.611658500018365 8.72015
49.636186840738596 8.65828
49.66090926588511 8.67557
49.685442483902584 8.65804
49.70997813385706 8.6053
49.734516217597076 8.6067
49.75924846937352 8.62758
49.7837914452858 8.57854
49.80833686055187 8.55912
49.83288471702571 8.52188
49.85762682540054 8.54515
49.882179588965734 8.51029
49.9067347993235 8.47702
49.93129245833333 8.51635
49.95604445336378 8.481689999999999
49.98060703442832 8.45146
50.005172069746266 8.387880000000001
50.02993150438364 8.42808
50.05450147301533 8.40156
50.07907390151433 8.36714
50.10364879174981 8.34891
50.12841816587289 8.3519
50.1529980044635 8.31592
50.17758031042124 8.31103
50.20216508562089 8.27698
50.22694442953363 8.269210000000001
50.25153416817468 8.236369999999999
50.27612638170508 8.25645
50.300721072005196 8.19576
50.325510416102105 8.20244
50.350110084975064 8.20934
50.37471223628208 8.19242
50.39931687190919 8.14761
50.424116246675766 8.155439999999999
50.44872587605249 8.13234
50.47333799543065 8.12496
50.49795260670191 8.1295
50.52276204271512 8.10425
50.54738166295838 8.054160000000001
50.57200378079314 8.044
50.596628398116835 8.0293
50.62144792604559 8.0194
50.646077567609396 8.01844
50.670709714377715 8.01383
50.69553683636198 7.997039999999999
50.72017401885922 7.9668
50.7448137122895 7.98205
50.76945591856022 7.90619
50.79429318636823 7.930910000000001
50.818940443716784 7.918089999999999
50.84359021965163 7.89495
50.868242516085964 7.889689999999999
50.893089960641895 7.84725
50.917747323549435 7.84293
50.94240721271973 7.82592
50.96706963007175 7.823110000000001
50.99192728239342 7.794510000000001
51.01659478166073 7.79752
51.04126481489051 7.77579
51.06593738400761 7.7565
51.090805275207074 7.749039999999999
51.11548294172845 7.73831
51.14016314993547 7.712039999999999
51.164845901758845 7.67563
51.18972406304274 7.688439999999999
51.21441192780656 7.64624
51.23910234200271 7.6884
51.2637953075678 7.646160000000001
51.288683770237945 7.6044
51.31338186432707 7.586530000000001
51.33808251561888 7.5858
51.362978729967345 7.55905
51.387684521509755 7.54984
51.41239287610203 7.54113
51.437103795691165 7.51301
51.46201036644977 7.48465
51.486726441956634 7.45136
51.51144508832545 7.49038
51.536166307509156 7.4766
51.56108326624387 7.4442
51.58580965706056 7.416119999999999
51.61053862657523 7.42185
51.635270176746864 7.39815
51.66019755512065 7.391039999999999
51.68493429268881 7.40223
51.70967361681515 7.37485
51.73441552946465 7.35752
51.759353359237934 7.33339
51.7841004750961 7.3266100000000005
51.80885018539685 7.3142
51.833602492111254 7.26918
51.8585508051424 7.23883
51.883308330926425 7.242380000000001
51.90806845906181 7.233289999999999
51.932831191525715 7.24455
51.95779001977161 7.203310000000001
51.98255798721516 7.16425
52.00732856494335 7.169760000000001
52.03229530577543 7.14492
52.057071130455945 7.1665600000000005
52.081849571391054 7.130380000000001
52.106630630568695 7.12753
52.13160794279417 7.04005
52.15639426492067 7.08493
52.18118321127822 7.11985
52.205974783860896 7.0613
52.23096269971011 7.06305
52.255759551287994 7.0176300000000005
52.280559035098186 7.02532
52.30536115314103 7.0221
52.33035970494467 7.00881
52.35516711807904 7.00477
52.37997717147198 6.95172
52.40478986713005 6.95148
52.42979908731974 6.938560000000001
52.454617094216 6.92905
52.47943774942214 6.9023
52.50426105495102 6.89665
52.529280976059844 6.874160000000001
52.554109609024096 6.841
52.57894089837482 6.81716
52.60377484613117 6.823919999999999
52.62880550079408 6.8187
52.65364479223379 6.79679
52.67848674816189 6.77216
52.70352547971946 6.7805100000000005
52.72837279155837 6.756869999999999
52.753222773982785 6.73159
52.778075429022984 6.74983
52.80312495150885 6.75057
52.827982978797436 6.731439999999999
52.85284368481815 6.69998
52.87770707160767 6.6928399999999995
52.90276741793998 6.692489999999999
52.92763619336701 6.67583
52.952507655698504 6.66513
52.977381806977576 6.64495
53.00245301017842 6.62789
53.02733256653592 6.607069999999999
53.052214817996074 6.566260000000001
53.077099766608484 6.60162
53.102181859804446 6.53935
53.127072229988265 6.5803
53.15196530349892 6.53218
53.17686108239249 6.49819
53.20195409881522 6.52136
53.22685531582556 6.50597
53.25175924441303 6.43671
53.27666588664027 6.46164
53.30176985962693 6.43185
53.3266819565689 6.40634
53.35159677336455 6.39213
53.376514312083096 6.38185
53.40162927507703 6.356319999999999
53.42655228516116 6.35531
53.45147802340193 6.35681
53.47660125628886 6.3402400000000005
53.50153247842639 6.29065
53.52646643496923 6.30026
53.55140312799818 6.292269999999999
53.576537409691696 6.29151
53.60147960336152 6.26704
53.626424539786164 6.30465
53.65137222105307 6.24967
53.67651758529126 6.23735
53.70147078399681 6.2201
53.72642673383343 6.21471
53.75138543689533 6.19099
53.776541917524526 6.22202
53.801506154876755 6.17225
53.826473151763246 6.15006
53.851442910284916 6.12062
53.87661054126026 6.10069
53.9015858509782 6.09034
53.92656392866066 6.09392
53.95154477641532 6.085430000000001
53.976723591801296 6.0700400000000005
54.00171000771266 6.02666
54.02669920004598 6.01936
54.051691170915745 5.998130000000001
54.076881204886796 6.0265699999999995
54.101878760928514 6.02462
54.12687910187696 5.968380000000001
54.152077577768296 6.0176099999999995
54.1770835166946 5.9711300000000005
54.20209224691339 5.96824
54.22710377055121 5.9406300000000005
54.25231352511594 5.90186
54.27733066384342 5.87996
54.30235060239643 5.91326
54.32737334290836 5.89414
54.35259441062629 5.83275
54.377622783395324 5.84236
54.40265396455061 5.83898
54.42768795623251 5.764469999999999
54.45292037169559 5.75903
54.477960012857906 5.75633
54.50300247099511 5.75306
54.52804774825457 5.75089
54.55329154616743 5.701219999999999
54.57834249018678 5.70899
54.6033962597977 5.65348
54.6284528571545 5.60806
54.653708072335164 5.6245
54.67877035378786 5.669
54.70383546947698 5.55682
54.72890342156389 5.55681
54.7541700889442 5.50149
54.77924374251975 5.53466
54.8043202390049 5.50349
54.82959552413022 5.49504
54.8546777351945 5.49576
54.87976279569621 5.4366
54.90485070780914 5.48119
54.930137506558005 5.41521
54.95523115074295 5.424180000000001
54.98032765308844 5.41782
55.005427015775496 5.42465
55.03072536339621 5.36325
55.05583047570572 5.343719999999999
55.080938454927676 5.28726
55.10604930325027 5.30508
55.131359235107396 5.2790099999999995
55.15647585066083 5.24714
55.181595341907496 5.20814
55.20671771104285 5.13079
55.232039262617704 5.1764
55.25716741665048 5.1134
55.28229845518636 5.137230000000001
55.30743238042802 5.0820300000000005
55.33276558731939 5.09586
55.357905315183636 5.10763
55.383047936390035 5.01423
55.40819345314859 5.052230000000001
55.433538351073295 4.98361
55.458689688238415 4.9679199999999994
55.483843927614096 4.97473
55.509197623043605 4.9505099999999995
55.53435769621134 4.88961
55.55952067826466 4.88535
55.5846865714265 4.85425
55.61005202069737 4.88782
55.63522376553902 4.827030000000001
55.66039842818645 4.7903199999999995
55.68557601087004 4.7843800000000005
55.7109532500271 4.75483
55.73613670233794 4.76227
