TT I
1.2716486653135266 7.597180000000001
1.2939594142134223 7.441889999999999
1.3162702121660406 6.90384
1.3385810600174564 6.27894
1.3608919586137629 7.29137
1.383202908801069 7.04787
1.405513911425503 6.58126
1.4278249673332093 6.7613199999999996
1.4501343378461518 7.021439999999999
1.4724455028545926 6.7824
1.4947567236847858 6.38126
1.517068001182951 6.2724
1.5393793361953272 6.149830000000001
1.5616907295681737 5.47042
1.5840021821477681 5.7472900000000005
1.60631369478041 5.28788
1.6286252683124185 5.88628
1.6509369035901333 4.82453
1.6732468618895553 5.6683
1.695558623192809 5.3825199999999995
1.7178704487808514 5.15624
1.7401823395001077 5.347580000000001
1.7625012545597203 4.9240900000000005
1.7848028405262486 4.87916
1.8071218901122095 4.93176
1.8294236121921872 4.51279
1.8517427996910911 5.68824
1.8740620574440425 5.82846
1.8963639900671978 5.6304300000000005
1.9186833908139995 5.42443
1.9409854680117449 5.40031
1.9633050151394713 5.48594
1.9856246367570705 5.0789800000000005
2.0079269371922672 5.0768699999999995
2.03024671027244 4.90698
2.0525491637446027 4.4779599999999995
2.074869091674931 4.66143
2.097171701569106 5.05042
2.1194917877373847 4.899380000000001
2.141811954326636 4.7594199999999995
2.164114805233074 4.72803
2.186435135143035 5.19365
2.208738150935709 5.40868
2.231058647554722 4.64227
2.2533792288321184 3.9345800000000004
2.275682498336085 4.15166
2.298003251406138 4.3253
2.3203066942619714 4.88361
2.3426276225136022 4.733709999999999
2.3649486396617507 4.29047
2.387252348930071 3.8776
2.4095735463442893 4.02893
2.4318774374315884 4.8274
2.4541988185014043 3.9604
2.476502894794693 4.418740000000001
2.498824462909887 4.18652
2.521146125856138 3.57084
2.5434504863470337 4.23677
2.5657723414244717 4.7251
2.588076895590662 4.74498
2.610398946189713 5.19111
2.6327210958598384 5.00366
2.6550259469304716 4.83709
2.6773482972090137 4.6186
2.6996533504259 4.93578
2.7219759047039602 5.33138
2.744298562293959 5.68845
2.7666039251246595 6.2954
2.7889267918020164 6.38989
2.8112323652516555 6.88037
2.833555444408179 7.19648
2.8558786311183852 6.895980000000001
2.8781845268938557 7.533869999999999
2.9005079311721484 8.60679
2.9228140460410397 8.25347
2.9451376712799635 9.29378
2.967444008632326 9.375639999999999
2.9897678582247247 9.61955
3.0120918213106695 10.234
3.0343984987899373 10.6889
3.0567226913198637 11.3138
3.079029599759726 11.690999999999999
3.101354025127254 12.0766
3.123678568232338 12.5397
3.145985829517914 12.7327
3.16831061055229 13.7177
3.1906181112775593 13.8414
3.212943133635653 14.1863
3.2352682779763207 14.6229
3.2575761442691227 15.3794
3.2799015350264273 15.6952
3.302209649240067 16.4899
3.3245352898092655 16.9739
3.3468436553365257 17.1009
3.369169549113219 17.3621
3.3914955708171384 18.1394
3.413804319727358 18.4559
3.4361305997334863 18.2945
3.4584396084414553 18.9464
3.4807661501462652 20.0383
3.503092824025881 20.4057
3.5254022288463154 20.1061
3.5477291695206588 20.3743
3.5700388426251948 21.3353
3.5923660534916446 21.3298
3.6146934007816114 22.0382
3.637003482731501 22.2885
3.6593311053109985 22.816
3.681641464033634 23.1732
3.7039693653009733 23.0276
3.726297407241705 24.2392
3.7486081875460804 24.0121
3.7709365132734978 24.49
3.793247578841633 25.3456
3.8155761917550093 25.6597
3.8378875459837216 25.9667
3.8602164494827234 26.1771
3.882545499606844 26.8758
3.9048572932539183 27.3296
3.9271866390645718 27.6751
3.9494987298666713 28.4447
3.971828374764527 28.941
3.9941581705403255 29.3012
4.016470713506008 29.5555
4.038800813471445 30.4726
4.061113662089144 30.7187
4.0834440696459176 31.9477
4.105774632334751 31.8666
4.128087945865126 32.9675
4.150418821249301 32.8903
4.172732448931298 33.6001
4.195063640413578 34.6306
4.2173775856475215 35.5194
4.239709096631102 35.6028
4.262040768704612 35.9214
4.284355196706267 36.9712
4.306687193387355 37.4001
4.329001947444346 39.0848
4.35133427213731 39.2873
4.373666762177566 40.0091
4.395982011761091 41.2376
4.418314834921175 42.1253
4.44063041906622 42.637
4.4629635787515625 43.4171
4.4852969080429785 44.7152
4.5076130004776225 45.7866
4.529946671403969 46.3893
4.552263106909177 47.442
4.574597122877047 49.2905
4.596931312711224 50.2508
4.619248269273446 51.4685
4.6415828092605835 52.6881
4.663900117405352 53.376000000000005
4.686235010953232 54.9411
4.708552674085913 56.0283
4.730887924602802 57.7448
4.753223354952695 59.4531
4.775541557023902 60.5889
4.797877349456786 62.5163
4.820195915032126 64.2647
4.842532072957498 65.7296
4.864868414979744 67.8932
4.88718753227192 70.1306
4.909524244902505 72.8317
4.931843734218147 75.0127
4.954180820867835 78.6722
4.976518095879839 82.2137
4.998838149695359 85.8833
5.021175803844231 90.4865
5.043496238205739 94.9255
5.065834274903528 101.07700000000001
5.088172504230693 108.81200000000001
5.1104935158799565 118.131
5.132832132875765 133.202
5.155153533596801 157.763
5.1774925416746225 215.291
5.199814334878411 575.118
5.2221537374521505 1997.18
5.244493338631803 3765.87
5.266815727034316 5178.61
5.289155727832427 7810.32
5.311478517248165 9491.6
5.333818921080011 6504.03
5.356159527788849 2115.17
5.3784829252032536 499.046
5.400823940070432 224.44099999999997
5.423147747031976 167.99400000000003
5.445489173474152 142.499
5.467830807066149 129.372
5.490155234831516 121.286
5.512497285125229 114.50200000000001
5.534822130975162 110.973
5.557164601388673 107.779
5.579489868738879 103.85600000000001
5.601832762690846 101.62200000000001
5.6241758697774475 99.9799
5.646501775867269 98.8953
5.668845311622074 98.3814
5.691171647754637 97.611
5.713515615597765 96.4233
5.735859800852677 95.0674
5.758186788542988 94.5995
5.780531411018185 95.4034
5.802858837297399 95.4443
5.825203900414495 95.6996
5.8475491852224 97.0257
5.869877275883075 98.9734
5.892223006467101 101.554
5.914551544266608 106.10700000000001
5.936897724049891 113.098
5.959244129804903 126.055
5.981573344815301 159.035
6.0039202049061 297.11400000000003
6.026249875609095 767.3380000000001
6.04859719346037 1394.41
6.070927323278297 1873.14
6.093275102315365 2558.41
6.115623113320588 3604.39
6.137953938319995 3922.13
6.160302415650845 2316.82
6.182633708324452 734.115
6.2049826554078376 226.79
6.227331838745022 126.329
6.249663839443684 101.45700000000001
6.27201349767565 90.0643
6.294345974611799 83.7088
6.316696111167083 78.3431
6.339046488263839 75.3136
6.361379686074702 72.8512
6.383730546639482 70.5586
6.406064229255215 68.4274
6.428415576718203 67.9486
6.450749747566656 66.2382
6.47310158535871 64.8165
6.495453669698332 64.0562
6.517788579421056 63.2514
6.540141159237969 62.4243
6.562476565766648 61.2405
6.5848296444934045 60.4394
6.607182974060425 60.0699
6.6295191323281015 59.4337
6.651872965955752 58.6254
6.6742096296068985 58.1871
6.6965639707294615 57.7439
6.71891856698715 56.9396
6.741255995248479 56.7122
6.763611104154477 56.4511
6.785949046381137 55.7713
6.808304671371482 55.2915
6.8306605557940046 55.3074
6.852999275508618 54.476000000000006
6.875355681171544 54.2797
6.897694923437771 54.297
6.92005185377892 54.0296
6.9423916220322655 54.0007
6.964749080490181 53.2024
6.987106804399774 52.92
7.009447368180821 52.9759
7.031805625367033 52.8094
7.054146723727803 52.3894
7.076505517631004 52.245
7.098864581288365 52.2133
7.121206488070854 52.4252
7.143566093607822 52.2276
7.165908543567245 52.1377
7.188268694426048 51.986000000000004
7.2106291193438095 51.5624
7.232972390625943 51.3863
7.255333366030969 51.2453
7.277677189091925 51.2581
7.300038718428332 51.6917
7.322400526130865 51.4566
7.344745183422596 51.8926
7.367107550224791 51.6384
7.389452767901992 52.1464
7.411815697249891 52.1025
7.434161478756298 51.4417
7.456524974096713 51.7533
7.478888753837185 51.5823
7.501235387657368 52.5989
7.523599738562711 56.13399999999999
7.545946944825532 63.3338
7.568311870344528 65.21
7.5906770845765665 60.6416
7.613025156078678 55.6237
7.635390950099687 53.8669
7.657739602662809 53.0554
7.680105979923558 52.7334
7.702472650212829 53.6678
7.724822180948224 53.4416
7.747189439655568 53.9245
7.769539560075357 53.7086
7.791907410653562 54.2212
7.81425812420825 54.531000000000006
7.836626570110925 54.446999999999996
7.858995315087906 55.2357
7.881346924933401 55.6616
7.903716270417482 56.4192
7.926068482028405 56.9036
7.948438431475253 57.1302
7.9708086843180235 57.7088
7.993161805171116 58.4413
8.015532667162402 59.1288
8.037886398416653 60.0111
8.060257873014221 60.242
8.082629655331942 60.3133
8.104984308787587 61.2817
8.127356708900503 62.102
8.149711981398308 63.1511
8.172085002766314 63.9635
8.194458336181368 64.6229
8.216814543847752 66.0871
8.23918850371002 67.7215
8.26154533906492 68.6286
8.283919928836452 70.4172
8.306277395339652 71.1939
8.328652618483376 72.7868
8.351028159736202 75.1926
8.373386579575245 77.8663
8.395762759396959 80.16199999999999
8.418121819038275 83.5459
8.440498640894003 88.1213
8.462875785192262 95.6501
8.485235811156207 111.059
8.507613602688501 174.554
8.529974277114228 373.459
8.552352719347912 612.1
8.574731488360351 769.556
8.59709314210385 851.128
8.619472567021075 1041.09
8.64183487789147 1409.3
8.664214962183097 1829.65
8.686577933647762 1702.16
8.708958680784317 1012.88
8.731339760774953 445.744
8.753703729764451 184.543
8.77608547780821 118.493
8.798450116065078 104.426
8.820832535634787 97.4794
8.843215292401656 93.8625
8.865580941199045 90.8575
8.887964374703538 88.8134
8.910330701447199 87.4777
8.932714815164482 86.0309
8.955099270424924 84.5114
8.977466620733543 84.0125
8.999851761421976 83.5063
9.022219798361645 82.8394
9.04460562795561 82.5696
9.066991803441677 81.9502
9.089360876979615 81.672
9.111747746589993 81.2997
9.13411751544971 80.7867
9.156505082664324 80.7074
9.178875550323522 81.1686
9.20126381862328 82.1085
9.223652438908596 87.4108
9.246023961427412 97.8908
9.26841328802173 100.40899999999999
9.290785518039224 94.6652
9.313175554425882 87.5218
9.335565947154315 82.7365
9.357939245086508 81.8737
9.380330352834827 81.8401
9.40270436697103 81.6051
9.425096193225055 81.7384
9.447488380180165 82.2459
9.469863475295412 82.3103
9.492256385987508 83.1245
9.514632206018318 83.8495
9.537025843935714 83.8137
9.559402392368193 84.4178
9.581796761000229 85.3931
9.604191496441521 85.6384
9.626569144158516 86.1944
9.648964615551032 87.066
9.671343000390081 87.6541
9.693739211225699 89.2113
9.716135793237463 89.8712
9.738515290448102 90.8722
9.760912617143402 92.1962
9.783292860202891 93.6451
9.805690935076182 95.0002
9.828089385495742 95.8735
9.850470754023561 97.9904
9.872869957865444 100.60700000000001
9.89525208097539 103.319
9.917652041736662 107.721
9.940052382417589 113.805
9.962435644102392 130.565
9.984836746950979 186.734
10.007220771957746 346.094
10.029622640473708 553.957
10.052007432299963 682.194
10.074410069984072 721.159
10.096813093716005 784.02
10.119199042482517 962.92
10.141602840636468 1305.54
10.163989564971628 1617.5
10.186394141051062 1571.75
10.208799107559706 1045.56
10.231187001965623 516.34
10.253592751657669 227.372
10.275981430388155 137.186
10.298387966769793 117.271
10.320794897965431 111.20700000000001
10.343184759907361 108.069
10.36559248305461 104.92
10.387983138083852 104.243
10.410391656691655 106.24799999999999
10.432800574501677 121.069
10.455192425893369 164.896
10.47760214443012 217.176
10.499994797678786 248.998
10.522405320453982 256.693
10.54479877906917 270.617
10.567210109595656 313.968
10.5896218454736 386.50800000000004
10.612016518879773 475.39099999999996
10.634429067781074 487.52
10.656824555333241 383.223
10.679237920773568 239.6
10.701651695961992 140.467
10.724048411481384 102.053
10.746463008485165 91.1706
10.768860546937125 86.2214
10.791275969274796 83.3391
10.81369180576079 81.6512
10.836090585366925 80.094
10.858507252467449 78.4599
10.88090686379991 77.6538
10.903324365036394 76.547
10.925724811614439 75.1198
10.948143150509463 75.1393
10.970561909719066 73.9734
10.992963615930844 73.0564
11.015383218085756 72.0047
11.037785768347074 71.0733
11.06020621697282 70.5073
11.082627090322113 70.3369
11.105030913430326 69.7146
11.12745263854165 69.0591
11.149857314510728 68.1424
11.172279894912576 68.1858
11.194702904450653 67.1154
11.217108866490921 66.5936
11.239532736615194 66.3156
11.26193956033512 66.0969
11.284364294577085 65.7177
11.306789462371718 65.0634
11.329197585398376 65.0123
11.351623622610898 64.903
11.37403261614354 64.2198
11.396459526308487 64.212
11.418869393879497 63.6414
11.441297180532617 63.1362
11.463725406927658 62.8073
11.486136592353875 62.5043
11.508565700543707 62.099
11.530977768845315 62.3598
11.553407762368774 61.9783
11.575838200059769 61.5987
11.598251599479612 61.5063
11.620682927815501 61.3346
11.64309721895548 61.6057
11.665529441478206 61.2536
11.687962112597958 61.2645
11.710377748130886 61.206
11.732811318753434 60.7959
11.755227854859067 60.7972
11.777662328529495 60.5544
11.800079768750786 60.8225
11.822515149015453 60.6457
11.844950984084935 61.2895
11.867369787303163 60.9765
11.889806534289491 61.2523
11.912226250487029 62.1769
11.934663912939751 64.3344
11.9571020346363 66.2648
11.979523127133968 66.1756
12.001962169624331 65.4248
12.024384183972964 64.8193
12.046824150809913 67.4064
12.069264581333726 77.2272
12.091687985297767 90.7317
12.11412934550045 101.771
12.136553680195208 107.281
12.158995973632788 109.727
12.181438735204349 114.204
12.20386447284199 124.855
12.226308172985636 144.291
12.24873485024193 170.644
12.271179492516982 187.856
12.293607112949127 179.59900000000002
12.316052700916226 143.25799999999998
12.338498763250042 101.417
12.360927805303868 75.6215
12.383374818673879 66.4774
12.405804812803074 63.7017
12.428252780773262 63.1622
12.45070122756722 62.8886
12.473132656675375 62.5297
12.49558206341869 62.672
12.518014453510101 62.5044
12.540464823770117 62.5598
12.562915677315177 62.8396
12.58534951575545 63.3723
12.607801338171472 63.0159
12.630236146511358 63.1468
12.652688941369085 63.6578
12.675124723177234 63.8638
12.697578494048786 64.4781
12.720032754458185 64.7512
12.742470003354093 65.2527
12.764925245138771 65.619
12.787363476431278 66.0402
12.809819703166806 66.5449
12.83227642391173 67.1492
12.854716135692716 67.7155
12.877173846755147 68.6901
12.899614549869717 69.0289
12.9220732548287 70.0687
12.94453245827299 70.6929
12.966974655289818 71.7907
12.989434858002571 72.6653
13.011878055298721 73.5577
13.034339260862497 74.8083
13.056800969391883 75.9925
13.079245674017244 78.6571
13.101708390774869 80.9093
13.12415410463411 86.2421
13.146617833206086 102.682
13.169064559883248 132.95600000000002
13.191529303857127 165.295
13.213994557076367 188.09099999999998
13.236442809902437 195.695
13.258909083908291 198.75799999999998
13.28135835851934 208.394
13.30382565690295 232.81099999999998
13.326293469022952 275.969
13.348744283242008 334.981
13.371213125129904 385.87199999999996
13.39366497011003 383.772
13.416134845360597 315.522
13.438605238843131 219.34400000000002
13.46105863690397 148.77100000000002
13.483530069144786 121.92
13.505984506951902 130.613
13.528456981549432 155.65200000000002
13.550929978879088 174.084
13.573385983253365 182.072
13.595860028340867 182.084
13.618317081455832 186.139
13.64079217790333 199.10299999999998
13.663250283359057 225.26
13.685726434770173 266.931
13.708203115221277 319.01599999999996
13.730662806148091 340.278
13.75314054697177 309.249
13.775601299246777 239.503
13.798080104050406 160.792
13.820559442405358 108.69200000000001
13.843021793671388 88.68299999999999
13.865502201420897 82.1469
13.887965623051947 80.2014
13.910447103807167 78.6924
13.932929122629764 76.8437
13.955394156785959 76.5621
13.977877254034569 75.3938
14.000343367582113 74.9201
14.022827546871707 73.9062
14.045294743423524 72.9841
14.06778000837062 72.407
14.090265817715476 72.3653
14.112734645763819 72.4583
14.13522154619454 73.4018
14.157691466286913 74.2823
14.180179461423874 73.9753
14.202668005486178 72.8224
14.22513957064374 71.4959
14.247629214846473 70.0981
14.270101881097517 69.4403
14.29259262906496 68.9798
14.315083930490205 68.8362
14.337558255389705 68.7073
14.360050666019726 68.256
14.382526101071944 68.0701
14.405019624534942 67.8416
14.427513705993134 67.7974
14.449990813291825 67.8608
14.47248601302899 67.6906
14.49496423954951 67.8086
14.517460561197822 67.9049
14.539939910570322 67.6546
14.562437357763558 67.7175
14.58493536931253 68.1125
14.607416409993311 68.1389
14.62991555254159 68.4246
14.652397725157423 68.4858
14.674898002342799 68.7841
14.697398848433282 69.2513
14.719882725991326 70.2656
14.74238471217934 70.7816
14.764869730765593 73.6222
14.787372860692983 80.3869
14.809876564079925 93.5352
14.83236330125751 107.44
14.854868153850365 116.699
14.877356041159485 120.556
14.899862046604186 121.06
14.922351087688757 123.6
14.944858249632887 130.039
14.967365991421232 141.64600000000002
14.989856770231246 159.47299999999998
15.012365673994204 184.83900000000003
15.03485761569738 205.165
15.05736768508665 206.257
15.07987833888692 181.65599999999998
15.102372032001655 143.687
15.124883856909658 104.985
15.14737872204565 83.1828
15.169891721717274 73.857
15.192405310371893 70.9027
15.214901940621196 69.5385
15.237416709527137 68.62100000000001
15.259914520936249 68.0991
15.282430473753607 67.3267
15.304947020131227 66.7528
15.327446610371178 66.4336
15.349964346154254 66.1847
15.372465126703139 65.988
15.394984055556009 65.6643
15.417486030076159 65.4658
15.44000615566487 65.2327
15.462526881230803 65.3378
15.485030653812652 64.9454
15.507552581617434 64.7894
15.530057557334603 64.8005
15.55258069104857 65.0873
15.575104429329837 65.1849
15.597611216864632 65.2159
15.620136166564563 65.3968
15.6426441664095 66.1054
15.665170331202765 67.8088
15.687697105158826 73.4305
15.710206930593545 83.7551
15.732734925158933 95.0729
15.755245972089478 103.195
15.77777519094324 107.244
15.800287463046663 107.71799999999999
15.822817909869592 108.10600000000001
15.84534897229804 111.391
15.867863089299354 119.542
15.890395385222186 131.055
15.912910736597423 148.161
15.935444269699861 170.24
15.957978423016485 183.928
15.980495633101265 178.49900000000002
16.003031029129367 155.878
16.02554948280019 120.141
16.048086125229432 90.8359
16.070623392487107 73.9903
16.09314371869582 66.3951
16.11568223789321 62.9722
16.13820381691126 61.6182
16.160743591742527 60.7686
16.183283996022084 60.0323
16.205807461423195 59.0921
16.228349126881973 58.4158
16.25087385432698 58.5071
16.27341678466365 57.8221
16.29594277784926 57.4292
16.31848697676433 56.8551
16.341031811604868 56.2342
16.36355971058487 56.1863
16.3861058195587 55.7824
16.40863499352978 55.3601
16.431182380342005 55.4237
16.453730407713202 54.9462
16.476261501364792 54.7383
16.498810812136167 54.7069
16.52134319004079 54.6914
16.54389378792203 54.7364
16.566445031001553 54.452
16.588979342490088 54.3754
16.61153187824822 54.1925
16.634067483263312 54.1742
16.656621315414416 54.0176
16.679175797408888 53.6976
16.701713349928728 53.5183
16.72426913389191 53.8092
16.74680798922351 53.8033
16.76936507887444 53.6613
16.791905240734874 53.8868
16.814463639794468 53.5435
16.837022695210294 53.6097
16.859564824093756 53.8281
16.882125194503903 53.8132
16.904668639217885 54.368
16.927230328348003 54.4243
16.949792678493612 54.523
16.972338104193863 54.6936
16.994901778652235 54.4765
17.017448529496576 54.7143
17.040013531998152 54.9527
17.06257920018044 55.1238
17.0851279459922 56.318000000000005
17.107694947817667 58.3394
17.130245028099072 60.5909
17.15281336730298 62.6525
17.17536478578733 63.9011
17.19793446610687 64.4164
17.220504818648422 64.4126
17.243058251703697 64.5985
17.265629950971032 65.9443
17.288184731571736 67.7656
17.310757781306908 70.7026
17.33333150794385 73.8977
17.355888317140174 78.077
17.37846339986244 80.7626
17.401021565958885 80.6782
17.42359800851343 77.1699
17.44617513265564 71.9248
17.468735341390783 65.9124
17.491261035594565 61.6153
17.51396340099364 59.3537
17.536490463869136 58.6676
17.559018209820174 58.4888
17.58154663977963 58.5692
17.604251766089718 58.7294
17.626781572227713 58.9579
17.64931206518155 58.9095
17.671843245885103 59.3924
17.69455114821572 59.5207
17.717083712612634 59.7943
17.739616967569667 60.1079
17.762150914021706 60.9432
17.78486160749854 61.0974
17.807396945166804 61.7011
17.829932977143503 62.233000000000004
17.85246970436452 63.4624
17.875183204129467 66.0658
17.897721330097664 71.5891
17.920260154126645 78.2529
17.942799677153296 83.7308
17.9655159983646 86.8395
17.988056927677544 88.1054
18.010598558807683 88.2464
18.033140892692916 89.0463
18.05586005052525 91.1968
18.07840379824407 95.2096
18.10094825154059 101.432
18.12366954819864 111.256
18.146215420998306 124.572
18.16876200220057 138.436
18.191309292745153 146.158
18.214033452627167 144.352
18.236582170236648 131.512
18.259131600016456 113.679
18.281681742907335 97.3119
18.304408781233683 87.8867
18.32696035875955 84.5765
18.349512652227624 84.9802
18.372065662579683 88.1352
18.394795594587553 92.8046
18.41735004715306 98.2308
18.43990521943684 101.93700000000001
18.46246111238171 101.837
18.485193953325208 96.0893
18.507751296070428 86.6626
18.530309362314178 77.0002
18.552868153000343 69.7598
18.57560391815056 65.1391
18.59816416623245 63.0062
18.620725141597372 61.7427
18.643286845190268 61.1722
18.666025549835414 60.5481
18.688588718427933 59.6473
18.711152618092243 59.5636
18.73389353884365 59.2236
18.75645890921984 58.9108
18.77902501351406 58.4923
18.801591852673102 58.4738
18.824335739722738 57.9869
18.846904057212626 57.9468
18.8694731124168 57.5068
18.89204290628315 57.2877
18.914789774966803 57.025
18.937361054791623 56.7991
18.959933076131318 56.6155
18.982505839934877 56.5611
19.00525570560582 56.6722
19.027829963004184 56.2882
19.05040496572238 56.4319
19.072980714710468 56.3332
19.095733592739563 56.4631
19.11831084296757 56.8188
19.140888842324735 58.0401
19.16346759176222 59.361000000000004
19.18622349753803 60.6013
19.208803755869358 61.5596
19.231384767143577 61.8733
19.253966532312948 61.9534
19.276725481241822 61.8499
19.29930876296784 62.2602
19.3218928014549 63.2495
19.34465404436217 64.141
19.36723960516257 65.865
19.389825925592426 67.6877
19.412413006605938 70.2202
19.43517731967805 72.882
19.457765930683355 73.718
19.48035530514408 72.4972
19.50294544401556 69.0265
19.525712842708348 64.007
19.54830451925909 59.7958
19.570896963095727 56.3969
19.593490175174704 54.7461
19.616260674962184 53.8194
19.638855432416964 53.3618
19.661450960992624 53.5536
19.68404726164677 53.3321
19.706820878021247 53.1835
19.729418731756834 53.1924
19.752017360452857 52.9488
19.77461676506804 53.0715
19.797393513540218 53.0679
19.819994478951667 53.2752
19.84259622316767 54.3052
19.8651987471481 55.3504
19.887978643247177 56.4345
19.91058273574792 57.2216
19.933187610901943 57.8294
19.955969879466828 58.283
19.97857632894404 58.3783
20.00118356396599 58.0606
20.023791585494575 58.5316
20.046577028914875 59.6822
20.069186632506966 61.0781
20.091797025500632 63.2258
20.114408208858933 65.9
20.137196842715273 68.8343
20.159809615886765 71.5103
20.18242318232135 71.991
20.20503754298326 70.6822
20.227829382875154 68.2693
20.250445341109344 65.2797
20.27306209647285 62.2362
20.29567964993108 60.4095
20.31847471147704 60.0429
20.34109387027612 60.861000000000004
20.363713830075454 62.2127
20.386334591841646 63.9877
20.409132890679302 64.8512
20.431755265564437 64.3996
20.454378445325528 62.0485
20.477002430930366 59.1886
20.499803982716553 56.0601
20.522429589228004 53.2453
20.54505600449589 51.4429
20.567683229489194 50.7183
20.590488049900088 50.1664
20.61311690359731 50.0577
20.63574656993626 49.996
20.658553853717297 49.4249
20.681185154618298 49.5191
20.703817271080066 49.1907
20.72645020407368 48.9912
20.749260783967177 49.0559
20.771895359337133 48.9264
20.794530754161617 48.8789
20.817166969412938 48.7589
20.83998086114876 48.7486
20.86261872660049 48.7252
20.885257415405402 48.6051
20.90789692853701 48.4486
20.930714147864748 48.2043
20.953355319030678 48.2693
20.97599731745334 48.4325
20.99864014410749 48.4008
21.021460706796564 48.7625
21.044105199328826 48.9911
21.06675052302631 49.0912
21.089396678865015 49.1384
21.112220600704806 49.1145
21.134868430275347 49.3261
21.15751709492456 49.1683
21.180166595629693 48.9841
21.202993892429635 49.2096
21.22564507473034 49.3933
21.24829709602816 49.7668
21.27112693608965 50.2652
21.293780644891275 50.8782
21.316435195634053 51.0437
21.339090589297417 50.9986
21.361923832041875 50.8762
21.384580921090404 50.2902
21.407238856007325 49.5289
21.429897637773326 48.983000000000004
21.45273429906592 48.7077
21.475394784108598 48.4821
21.498056118951983 48.2844
21.520718304578022 48.4798
21.543558400304388 48.4613
21.566222297108816 48.5622
21.58888704765135 48.5411
21.61155265291521 49.1031
21.63439619898156 50.096000000000004
21.657063523335786 51.1646
21.67973170537063 52.0706
21.7024007460706 52.9347
21.72524775840385 53.4274
21.747918526116475 53.8401
21.770590155457388 53.8105
21.79326264741238 53.8701
21.816113141960237 54.2478
21.838787368860547 55.1386
21.861462461341976 56.1548
21.884315579735777 57.6095
21.90699241312273 59.2439
21.92967011506078 60.9677
21.95234868653799 63.2977
21.9752053151131 64.9035
21.997885635446785 65.9482
22.020566828293532 65.6055
22.04324889464272 63.6958
22.066109049404666 60.8125
22.088792872571794 57.931999999999995
22.111477572219204 55.9547
22.1341631493376 55.1163
22.157026846313123 54.9846
22.179714188221507 55.3802
22.202402410582668 55.9663
22.22509151438863 55.7231
22.24795876962584 54.842
22.270649646204486 53.6277
22.293341407213727 52.4134
22.316034053646906 51.0414
22.338904883215342 49.8185
22.36159931041458 49.1304
22.38429462602756 49.0127
22.40699083104897 48.5473
22.429865251039757 48.4727
22.452563244831367 48.4655
22.47526213102522 48.4977
22.49813925616515 48.3204
22.520839937143307 48.4606
22.543541513520587 48.497
22.56624398629403 48.434
22.589124730075895 48.3441
22.611829005656723 48.588
22.63453418063466 48.5041
22.657240256008077 48.7537
22.680124634582935 49.0214
22.70283252079775 49.9174
22.725541310413075 50.7033
22.74825100442868 51.0835
22.771139033969575 51.7692
22.79385054687155 51.6558
22.81656296718292 51.6897
22.83927629590484 51.7199
22.862167992606945 51.7108
22.88488314827121 52.0033
22.907599215359284 52.1537
22.93031619487366 52.5863
22.953211574954405 53.1691
22.975930389478226 54.253
22.998650119445763 55.611999999999995
23.02137076586092 56.5213
23.044269845560063 57.5388
23.06699233506288 57.8479
23.089715744034912 57.4954
23.112617610931565 56.0794
23.135342869061212 54.3465
23.158069049684816 52.3626
23.1807961538087 50.4909
23.20370174880544 49.5568
23.226430710184808 49.0881
23.249160598093425 48.9063
23.271891413539002 49.0522
23.294800752937697 49.4195
23.31753343374794 50.2743
23.340267045128353 50.7346
23.36300158808808 51.2354
23.38591468821339 51.5997
23.408651104658304 51.6172
23.431388455719986 51.4568
23.454126742409 51.3916
23.4770436196085 51.3303
23.499783787914662 51.7005
23.522524894889884 51.6992
23.54526694154616 52.1013
23.56818761219047 52.8155
23.59093154860734 53.575
23.613676427751283 55.1016
23.636422250635754 56.1797
23.659346731118656 57.4651
23.68209445191868 57.9092
23.704843119509587 57.2925
23.72759273490623 55.528
23.750521041644767 53.6658
23.77327256312355 51.3438
23.796025035462787 48.9099
23.818956224555475 47.4951
23.841710609113413 46.6983
23.86446594758979 46.1607
23.887222241002014 45.7917
23.910157285144578 45.3971
23.932915498962537 45.3351
23.955674670778713 45.2991
23.978434801611975 44.9679
24.001373717286125 44.7991
24.024135776723917 44.6678
24.046898798245582 44.5577
24.06966278287146 44.4106
24.092605586582614 43.9894
24.115371508023642 44.1577
24.1381383956401 44.1609
24.16090625045381 44.0275
24.183852958731244 43.8965
24.206622758582608 43.7759
24.229393528706886 43.5259
24.252165270127392 43.7379
24.27511589952438 43.552
24.297889594216997 43.4474
24.32066426328598 43.2295
24.34343990775613 43.2515
24.36639447485003 43.2151
24.38917208083877 43.0266
24.41195066531332 42.8514
24.43490819850244 42.88
24.457688750692377 42.6598
24.48047028445616 42.6408
24.503252800821233 42.7567
24.526214300784112 42.7788
24.548998793132213 42.7241
24.57178427117417 42.5853
24.59457073593893 42.7572
24.617536219319863 42.7349
24.64032466834748 42.8459
24.663114107195035 42.8809
24.685904536893013 42.7199
24.708874020360852 42.5985
24.731666442613744 42.5696
24.754459858818787 42.3662
24.777254270007962 42.2627
24.80022777025625 42.2099
24.82302418230472 42.2158
24.845821592443674 42.2888
24.86862000170663 42.3305
24.891597535453727 42.214
24.914397953892728 42.5743
24.93719937456671 42.4094
24.96000179851076 42.4727
24.98298338249997 42.51
25.00578782394922 42.5717
25.028593271784167 42.7205
25.05157790644186 43.0513
25.07438537804115 43.0328
25.097193859145293 43.391000000000005
25.120003350792075 43.7428
25.142992065061257 43.7694
25.165803588823465 43.9001
25.18861612625217 44.0891
25.211429678386736 44.4309
25.234422489079968 44.5179
25.257238081693636 44.5725
25.280054692141732 44.6624
25.3028723214652 44.6061
25.325869245420463 44.4166
25.348688923599397 44.3801
25.371509623787006 44.4419
25.394331347025812 44.533
25.41733240110666 44.6487
25.440156181590016 44.7103
25.46298098826268 44.6472
25.48580682216873 44.3683
25.50881202326435 43.8277
25.53163992281684 42.843999999999994
25.55446885274561 42.1796
25.577298814096377 41.5744
25.600308179121807 41.1944
25.623140214533745 41.0076
25.64597328451537 40.9406
25.66898578564376 40.6105
25.691820936010206 40.4759
25.714657124097695 40.6076
25.737494350954734 40.5764
25.760511045684957 40.5363
25.783350361364224 40.6017
25.806190718969255 40.6963
25.82903211955018 40.9644
25.852053024868923 40.9297
25.874896522722523 40.9228
25.897741066713106 40.7713
25.920586657892454 40.8415
25.943611790812668 40.7591
25.966459487728237 40.7885
25.989308234998564 40.5427
26.01215803367705 40.7487
26.03518741123814 40.8494
26.05803932412957 40.9135
26.080892291600094 40.7977
26.10374631470478 41.1057
26.12677995397268 41.305
26.14963609978026 41.7638
26.172493304397875 41.7544
26.19535156888223 41.8753
26.218389486949604 41.8032
26.241249882640123 41.5954
26.26411134137826 41.1969
26.28715248187403 41.1376
26.31001607820869 40.8414
26.3328807407756 40.4953
26.35574647063438 40.5075
26.37879191991473 40.5962
26.401659795896734 40.4927
26.424528742360263 40.574
26.447398760366614 40.6603
26.470448535598294 40.6864
26.49332070826805 40.6685
26.516193955675355 40.7603
26.53906827888316 40.9163
26.562122397260108 40.8812
26.584998883685063 41.0324
26.607876449110325 41.173
26.63075509460056 41.2441
26.65381357334404 41.5544
26.67669439061878 41.825
26.699576291163382 42.0498
26.722459276044212 42.3734
26.745522132402975 42.4358
26.768407297649354 42.2904
26.791293550442003 42.0981
26.814180891848974 41.8975
26.837248143099337 41.2993
26.860137673466657 41.0855
26.88302829566349 40.8145
26.90592001075963 40.5977
26.92899167420566 40.4615
26.951885586870763 40.1656
26.974780595655517 39.8713
26.99785558178161 39.676
27.020752794605112 39.6713
27.043651106772522 39.3558
27.06655051935668 39.2206
27.089629948036183 38.9842
27.112531573292053 38.9844
27.135434302194138 38.8945
27.158338135817015 38.7007
27.181422024430987 38.7999
27.204328079372566 38.5828
27.22723524226965 38.7504
27.250143514198573 38.7666
27.273231880156334 38.6542
27.296142382065014 38.5434
27.319053996245536 38.5064
27.341966723775965 38.5089
27.365059584515222 38.6078
27.38797455070062 38.5104
27.410890633481237 38.3405
27.433807833936918 38.332
27.456905206923906 38.45
27.47982465472398 38.2774
27.502745223449743 38.3796
27.525666914182825 38.5668
27.548768816912457 38.4583
27.571692763693633 38.4241
27.59461783573812 38.4466
27.617723149491244 38.3947
27.640650484125285 38.5482
27.66357894728264 38.4749
27.686508540048052 38.5125
27.709618414237887 38.5086
27.732550278321757 38.3647
27.755483275279115 38.3945
27.778417406196485 38.3902
27.801531858397514 38.3047
27.824468269376716 38.0912
27.847405817586786 38.0641
27.870344504116094 38.2305
27.893463551932008 38.1219
27.916404527281053 38.1792
27.93934664422563 38.3641
27.962289903855886 38.3488
27.98541356491974 38.4396
28.00835912214229 38.5141
28.03130582533231 38.5096
28.054253675581805 38.6362
28.077381967556104 38.7331
28.100332124185126 38.808
28.123283431160893 38.9113
28.146235889577238 39.1317
28.169368830154156 39.1388
28.192323603752033 39.121
28.215279532083304 38.8769
28.238415973016764 38.6074
28.261374223145094 38.3937
28.284333631303806 38.1988
28.307294198589954 37.9652
28.330435319167677 37.7837
28.353398217078915 37.5945
28.376362277420153 37.4685
28.39932750129032 37.2435
28.422473319286713 36.9972
28.44544088262495 36.8067
28.468409612800283 36.5733
28.491379510913497 36.2759
28.51453004413313 36.0338
28.53750229057244 36.0028
28.56047570826344 36.0042
28.583450298308804 35.9485
28.606605564586562 35.8901
28.629582511831156 35.9592
28.65256063474956 35.7944
28.675539934446338 35.6941
28.698699951647605 35.6208
28.72168161743193 35.4187
28.74466446331978 35.4538
28.767648490417624 35.4194
28.790813276438353 35.351
28.813799678527303 35.3557
28.836787265157085 35.3338
28.859955641890075 35.3608
28.882945610203045 35.4166
28.905936766392035 35.1444
28.928929111566863 35.2605
28.952102288520145 35.1598
28.975097024308607 35.1471
28.998092952423807 35.2207
29.021090073977508 35.1796
29.04426806913204 35.1303
29.067267590245258 34.9381
29.090268308143695 34.8769
29.11327022394099 34.7907
29.13645305530891 34.6555
29.159457379627167 34.5702
29.18246290519685 34.4643
29.20546963313352 34.3291
29.22865731875826 34.4357
29.25166646419296 34.2605
29.27467681535305 34.0601
29.29768837335608 34.1039
29.320880931312562 34.1725
29.34389491580634 34.0504
29.366910110507334 34.0245
29.38992651653503 34.1269
29.41312396492981 34.0874
29.436142806456754 34.0286
29.45916286268059 34.0735
29.48236399319994 34.0397
29.50538649169417 33.9626
29.528410208259935 34.0636
29.55143514402014 33.7823
29.574641196749695 33.7477
29.597668583816574 33.6298
29.6206971934585 33.4051
29.64372702680042 33.3768
29.666938019934474 33.2327
29.689970313635285 33.1317
29.713003834422636 33.0028
29.73603858342347 32.9421
29.759254535188578 32.8435
29.78229175361658 32.8431
29.80533020365064 32.9788
29.82836988641968 32.975
29.85159081507472 32.7971
29.874632976355343 32.7193
29.89767637376955 32.8363
29.920721008448314 32.7036
29.9439469322847 32.6799
29.96699405457564 32.6171
29.9900424175358 32.6468
30.013092022298157 32.5803
30.03632295963995 32.4508
30.059375061131373 32.4663
30.08242840783577 32.4733
30.105483000888153 32.422
30.128718970092244 32.3111
30.151776069006917 32.3714
30.17483441768648 32.3339
30.198074175317235 32.4073
30.221135036724256 32.34
30.24419715131772 32.258
30.267260520236203 32.1681
30.290505341942243 32.2912
30.313571232750228 32.4161
30.336638381310948 32.3998
30.35970678876503 32.3997
30.38295669299435 32.4537
30.40602763151657 32.3889
30.429099832366074 32.3351
30.452173296685572 32.1622
30.47542830191959 32.1304
30.498504306502497 32.0254
30.521581577995562 32.1887
30.544660117543582 32.2041
30.56792024229725 32.132
30.59100133132069 32.0087
30.614083691845494 32.1054
30.637167325018545 32.0583
30.660432587840603 32.0789
30.683518779717886 32.0361
30.70660624769615 32.1066
30.729694992924372 32.0869
30.75296541239743 32.2144
30.77605672557558 32.1851
30.799149319462742 32.2237
30.8224236211637 32.1713
30.845518789950724 32.16
30.868615242910597 32.1149
30.891712981195973 31.941999999999997
30.91499247215866 31.8574
30.938092794619365 31.8291
30.96119440587579 31.6557
30.984297307082752 31.5995
31.00758200598383 31.4309
31.030687500658694 31.412
31.053794288760695 31.3433
31.076902371446767 31.2932
31.100192296997445 31.1786
31.12330298246119 31.194000000000003
31.14641496599209 31.0111
31.169528248749216 31.206999999999997
31.19282341969534 31.2054
31.215939314557186 31.0678
31.239056512134788 31.0859
31.262175013589378 31.037
31.28547544871168 30.9979
31.30859657161541 30.9578
31.331719001892175 30.9244
31.35484274070538 30.9133
31.378148458819545 30.853
31.401274828443725 30.8617
31.424402510106933 30.8497
31.447712205419993 30.9109
31.470842524931633 30.6629
31.493974159989783 30.7371
31.51710711176168 30.7598
31.54042212308802 30.8221
31.563557722100917 30.8905
31.586694641341655 30.7688
31.609832881979628 30.7417
31.63315322823208 30.7295
31.656294125521327 30.7562
31.679436347728515 30.6233
31.70257989602529 30.566
31.725905596152327 30.4233
31.74905181052835 30.2587
31.772199354521323 30.3745
31.79534822930507 30.3348
31.818679302290967 30.1901
31.84183085259981 30.0861
31.864983737233473 30.0817
31.88813795736804 30.1151
31.911474422233013 30.0824
31.934631327356435 30.0534
31.9577895715215 30.023000000000003
31.980949155906522 29.9746
32.004291031706956 30.1147
32.027453310562606 29.9896
32.05061693318573 29.8096
32.07396288236386 29.9254
32.09712920658542 29.9652
32.12029687812702 29.7879
32.14346589817093 29.6977
32.166817291729984 29.6826
32.18998902288583 29.6707
32.21316210610336 29.601999999999997
32.23633654256711 29.4621
32.259693399663725 29.3842
32.282870556771144 29.3489
32.30604907069099 29.4082
32.329228942610065 29.248
32.35259128243769 29.0227
32.375773884550505 29.0747
32.398957848235646 28.9569
32.422143174682176 28.8746
32.445511016471215 28.7926
32.468699082679954 28.741999999999997
32.49188851523011 28.7433
32.51507931531304 28.7626
32.538452678331 28.7012
32.56164622776311 28.592
32.58484114831493 28.47
32.60803744118015 28.4889
32.631416344731896 28.5433
32.654615396551876 28.5044
32.67781582427913 28.5357
32.701198898634416 28.3697
32.72440209253756 28.3674
32.747606665947124 28.3244
32.77081262006088 28.2012
32.79420126883317 28.2258
32.81740999876112 28.2263
32.840620112999424 28.1271
32.86383161274818 28.0656
32.88722585534586 28.0756
32.91044014056596 28.1102
32.933655814909734 28.0233
32.95687287957963 28.0679
32.98027273544904 27.9406
33.00349259526636 27.9143
33.026713849030116 27.8949
33.04993649794511 27.8589
33.073341986570746 27.8514
33.09656744032826 27.7395
33.11979429286444 27.7372
33.14302254538647 27.7801
33.166433686291185 27.6539
33.18966475336992 27.6683
33.212897224069096 27.6159
33.23613109959831 27.5265
33.259547912343415 27.5538
33.2827846121627 27.5925
33.306022720453775 27.6064
33.32926223842861 27.5343
33.352684742614166 27.5091
33.37592709463173 27.5115
33.399170859982064 27.480999999999998
33.422597648419426 27.3748
33.44584425514446 27.3137
33.46909227885668 27.1964
33.4923417207723 27.2053
33.51577423505344 27.1766
33.539026528130385 27.0668
33.56228024307245 26.9982
33.585535381098246 26.8359
33.60897364093058 26.8535
33.63223163992385 26.7733
33.6554910656699 26.701999999999998
33.678751919389796 26.7196
33.702195944520106 26.6526
33.72545966903325 26.5858
33.74872482519663 26.534000000000002
33.771991414233746 26.5547
33.79544122444841 26.557
33.81871069412428 26.4436
33.84198160035767 26.4145
33.86525394437455 26.3946
33.88870955949969 26.3142
33.911984794020626 26.3175
33.93526147001624 26.3097
33.958539588715006 26.2605
33.98200102861669 26.1946
34.0052820477047 26.0927
34.02856451319451 26.1586
34.05203033759056 26.0545
34.07531571090147 26.0535
34.09860253431845 26.024
34.121890809074316 25.8868
34.145362493118924 25.9397
34.16865368561615 25.8415
34.191946333164054 25.8163
34.21524043699793 25.7811
34.23871800066799 25.7738
34.26201503218366 25.6106
34.28531352370466 25.6693
34.30861347646881 25.5836
34.33209693978188 25.5539
34.3553998301885 25.5543
34.378704185565205 25.483
34.402010007152356 25.4806
34.42549939016683 25.4623
34.44880815937748 25.3158
34.472118398533134 25.2501
34.49543010887669 25.3117
34.51892543169198 25.2437
34.54224009966052 25.1526
34.56555624255917 25.1984
34.58887386163339 25.0972
34.61237514439016 25.0485
34.6356957311114 24.9094
34.65901779775809 24.8788
34.68252356662995 24.9412
34.705848608458616 24.9492
34.72917513396849 24.8307
34.75250314440949 24.8524
34.77601490857862 24.8541
34.799345904259795 24.7072
34.82267838863559 24.7177
34.846012362958525 24.6985
34.869530142679984 24.6913
34.89286711232212 24.6031
34.91620557568269 24.5178
34.93954553401677 24.539
34.9630693495876 24.4508
34.986412313340814 24.4923
35.00975677584668 24.4765
35.033102738362956 24.4037
35.05663261012228 24.3443
35.0799815881786 24.4242
35.10333207003229 24.3208
35.12668405694369 24.3828
35.150220005273056 24.3488
35.17357501786656 24.298000000000002
35.19693153931268 24.1981
35.220289570874385 24.1348
35.24383161619786 24.0975
35.267192683604904 24.1251
35.290555264930376 24.0716
35.314101899412165 24.073
35.33746752422433 24.0829
35.36083466676374 24.0251
35.38420332829803 23.9857
35.407756095629054 23.9744
35.43112781085063 23.9041
35.45450104888391 23.8645
35.477875810999194 23.8904
35.50143473172161 23.8369
35.52481255774625 23.9673
35.54819191167777 23.8574
35.57157279478914 23.8935
35.595137889488406 23.7864
35.61852184675279 23.7504
35.641907337029984 23.7071
35.665294361595684 23.669
35.68886565090076 23.6092
35.7122557598848 23.5583
35.73564740699838 23.5893
35.759040593519934 23.5159
35.78261809810353 23.5078
35.80601437933051 23.5117
35.829412203814705 23.3395
35.85281157283719 23.1847
35.876395313415884 23.2961
35.8997977874528 23.2838
35.92320180988546 23.2285
35.946790244133936 23.1356
35.97019737933222 23.1219
35.993606066789866 23.1291
36.01701630779276 23.0361
36.04061101440684 22.976999999999997
36.06402437852291 22.9729
36.08743930005611 23.0119
36.1108557802951 22.8976
36.13445678011326 22.8694
36.15787639383515 22.8598
36.18129757014299 22.8771
36.20472031032821 22.8197
36.22832762423364 22.7547
36.25175350829375 22.7181
36.275180960119776 22.649
36.298609981005924 22.677
36.32222362992669 22.7677
36.34565580510207 22.7224
36.36908955323448 22.6006
36.39252487562093 22.5822
36.416144880530226 22.4536
36.43958336764275 22.5079
36.463023432914625 22.4767
36.486465077645676 22.3874
36.51009145956204 22.479
36.53353627947859 22.4488
36.55698268276811 22.3683
36.58043067073321 22.3701
36.60406345072071 22.250999999999998
36.62751462435344 22.2483
36.65096738658405 22.2454
36.67460498210655 22.1635
36.69806093788647 22.1577
36.72151848619297 22.0749
36.744977628333636 22.1305
36.76862165890998 22.13
36.79208400512205 22.0627
36.81554794910557 21.9894
36.83901349217101 21.8389
36.862663978991606 21.9593
36.88613273667352 21.8561
36.90960309738324 21.8526
36.933075062434064 21.7858
36.95673202673572 21.7497
36.98020721697122 21.6794
37.003684015502365 21.6391
37.027162423645365 21.644000000000002
37.050825886711465 21.5645
37.07430753063053 21.5284
37.09779078812467 21.4931
37.121275660513014 21.4387
37.144945643673694 21.4307
37.16843376245278 21.463
37.19192350009803 21.4811
37.215414857931435 21.3665
37.239091382563885 21.2916
37.262585997426164 21.2223
37.28608223645736 21.2642
37.309763684451696 21.2118
37.33326318851098 21.2206
37.356764320726555 21.1798
37.380267082425526 21.1286
37.40395510942588 21.1553
37.42746114683234 21.094
37.45096881771841 21.0509
37.474478123414166 21.0377
37.49817275092816 21.0125
37.52168534303452 20.9384
37.54519957395567 20.823
37.568715445024665 20.8288
37.592416694607714 20.8043
37.61593586281424 20.8735
37.63945667518264 20.8184
37.66297913304891 20.724
37.68668702630454 20.7129
37.710212792059274 20.6617
37.733740207334854 20.6663
37.757269273470364 20.6262
37.780983832050374 20.5196
37.80451621684926 20.5552
37.82805025654007 20.5408
37.851585952464795 20.4455
37.8753071980695 20.402
37.89884622345676 20.3606
37.92238690911902 20.4104
37.94611318753442 20.3013
37.969657210779765 20.2494
37.99320289834801 20.2763
38.016750251586465 20.188
38.04048325513017 20.1613
38.06403395679343 20.133
38.087586328183946 20.0674
38.11114037065203 20.162
38.13488012115898 20.0956
38.1584375229181 20.0383
38.181996599821 19.9828
38.205557353221124 20.0087
38.229303872575656 19.8965
38.2528679961576 19.8925
38.27643380031219 19.8263
38.30000128639589 19.8042
38.32375459653193 19.8237
38.34732546371299 19.805
38.37089801690786 19.7593
38.39447225747609 19.5865
38.418232380377425 19.6298
38.441810012983396 19.6562
38.46538933705673 19.6253
38.488970353960084 19.5804
38.51273731166058 19.5626
38.536321731567014 19.5344
38.55990784840681 19.5152
38.58367995004091 19.4886
38.60726947812959 19.3844
38.63086070726198 19.3677
38.654453638806274 19.382
38.678232613930824 19.340999999999998
38.70182896773327 19.2393
38.72542702806741 19.2517
38.7490267963045 19.2352
38.77281266709232 19.2007
38.79641586862214 19.2129
38.8200207821842 19.1464
38.843627409152944 19.1913
38.86742019782782 19.1175
38.891030269149255 19.0233
38.914642058016156 18.9841
38.938255565806124 18.9962
38.96205529464307 18.9873
38.98567225787121 18.9766
39.00929094417078 18.9679
39.03291135492255 18.9018
39.05671804624804 18.8783
39.080341923549106 18.8472
39.103967529460334 18.7674
39.127594865365744 18.7646
39.15140854155791 18.7347
39.17503935514948 18.6877
39.19867190290282 18.6757
39.22249083587951 18.6534
39.24612686969409 18.6752
39.269764641845306 18.665
39.293404153722804 18.6225
39.317230110864074 18.4996
39.34087311998506 18.4769
39.36451787301696 18.4415
39.388164371352595 18.386
39.41199737518003 18.3897
39.43564738196752 18.4255
39.45929913825317 18.3779
39.48295264543308 18.3315
39.506792718520884 18.3075
39.530449745387216 18.2704
39.55410852735203 18.2354
39.57776906581474 18.2768
39.60161623079 18.1834
39.625280300200025 18.1832
39.64894613032202 18.1498
39.67261372255866 18.0924
39.6964680021016 18.0898
39.72013913657293 18.0636
39.74381203738292 18.0247
39.76748670593756 17.9806
39.79134812278169 18.0132
39.81502634488497 17.9217
39.83870633896685 17.9284
39.862388106436654 17.8508
39.88625668336918 17.8108
39.90994201572829 17.8743
39.933629125719285 17.8023
39.957503091207826 17.7829
39.9811937746168 17.7621
40.00488623990914 17.7153
40.02858048850006 17.6696
40.05246165409549 17.6564
40.076159487492085 17.6567
40.099859108448875 17.6622
40.123560518384345 17.6034
40.1474489070226 17.6108
40.171153913178564 17.4569
40.194860712584955 17.4108
40.2185693066637 17.4556
40.242464941335314 17.4297
40.26617714307655 17.3897
40.289891143772046 17.3874
40.3136069448471 17.3586
40.33750984859743 17.3206
40.3612292688043 17.2889
40.3849504936829 17.2505
40.40867352466194 17.2296
40.43258372059144 17.2059
40.45631038219906 17.2508
40.48003885420956 17.13
40.503769138055105 17.0996
40.52768664931955 17.1169
40.55142057531802 17.0692
40.57515631746428 17.0851
40.599079334038514 17.0315
40.62281872700477 16.953
40.64655994043941 16.9626
40.67030297578061 16.8946
40.69423334835778 16.9296
40.71798004609188 16.8982
40.74172857006355 16.8609
40.76547892171441 16.8587
40.7894166736039 16.7995
40.813170699248566 16.7521
40.83692655691388 16.7287
40.86068424804498 16.753
40.884629402612525 16.7582
40.908390779366385 16.6721
40.932153993938 16.7058
40.95591904777605 16.6209
40.979871628443995 16.6645
41.003640379561936 16.5662
41.02741097430883 16.6048
41.05118341413683 16.5428
41.075143444384416 16.5162
41.098919593177826 16.5618
41.1226975914255 16.4222
41.14647744058318 16.3925
41.170444943946755 16.3329
41.19422851378379 16.3541
41.218013938914645 16.3259
41.24198706625173 16.262999999999998
41.26577622087193 16.2482
41.289567235177785 16.2562
41.31336011063129 16.1917
41.337340752422875 16.1596
41.361137369129835 16.1571
41.38493585138705 16.1476
41.40873620066004 16.0335
41.43272438060107 16.066
41.45652848292052 16.0643
41.48033445666918 16.0211
41.50414230331616 15.9774
41.528138045159764 15.9403
41.551949656675205 15.9237
41.575763145513235 15.8942
41.59957851314666 15.9299
41.62358184070442 15.8405
41.64740098505737 15.7936
41.6712220126409 15.7711
41.69504492493139 15.745999999999999
41.71905586207357 15.7186
41.74288256296395 15.6837
41.766711153007456 15.6924
41.79054163368412 15.7212
41.814560204340054 15.6436
41.838394485526365 15.6195
41.86223066180303 15.5907
41.88625497706819 15.5916
41.910094962812 15.6171
41.93393684811168 15.5665
41.95778063445365 15.4119
41.981812625263366 15.3996
42.00566023303407 15.4824
42.029509746323676 15.415
42.05336116662236 15.4164
42.077400857069705 15.3347
42.10125611078846 15.3473
42.12511327600405 15.3048
42.14897235421036 15.3007
42.173019768448455 15.2621
42.19688269209613 15.2632
42.22074753323349 15.205
42.24461429335818 15.2239
42.268669455600495 15.1567
42.292540073217886 15.1181
42.31641261433284 15.1188
42.34028708044675 15.0567
42.36435001496739 15.0504
42.38822835065557 15.0544
42.41210861586426 15.0367
42.4359908120986 15.0328
42.46006154323262 15.0003
42.48394762115317 14.9333
42.507835634632315 14.9173
42.531912233047436 14.9354
42.55580413732265 14.8537
42.579697981698 14.8618
42.60359376768525 14.7973
42.62767820545945 14.7903
42.65157789440821 14.7851
42.67547952952185 14.7756
42.699383112316 14.7112
42.72347541395347 14.6345
42.74738291190531 14.5981
42.771292362102166 14.652999999999999
42.795203766063516 14.5818
42.819303956130405 14.5862
42.843219287476536 14.5436
42.86713657716324 14.5643
42.89105582671383 14.5111
42.91516392983864 14.4956
42.939087119032166 14.4772
42.963012272677304 14.4385
42.98693939230129 14.3403
43.01105543317513 14.323
43.034986504731386 14.357000000000001
43.05891954686589 14.2991
43.08285456110972 14.2914
43.10697856448665 14.231
43.130917542983475 14.2203
43.15485849820081 14.2006
43.17880143167367 14.1518
43.20293342237094 14.1818
43.226880332449 14.1693
43.25082922540554 14.1781
43.27496722682525 14.1174
43.29892010567796 14.1142
43.32287497204102 14.0248
43.34683182745632 13.9762
43.370977859791836 14.0131
43.39493871351105 13.9844
43.41890156092628 13.9819
43.44286640358341 13.9081
43.46702049182749 13.9569
43.49098934522816 13.9076
43.51496019852649 13.9371
43.5389330532723 13.8497
43.56309522248204 13.815999999999999
43.58707210044314 13.8008
43.61105098451946 13.7729
43.63503187626491 13.7258
43.659202151562134 13.7179
43.68318707902681 13.7639
43.70717401884041 13.6894
43.731162972560874 13.6279
43.75534137913236 13.6268
43.779334381108384 13.6302
43.803329401683186 13.562000000000001
43.82732644241872 13.5389
43.8515130055166 13.5352
43.87551410707659 13.5272
43.89951723350145 13.5148
43.923709934595614 13.460999999999999
43.94771713129917 13.4144
43.97172635758096 13.419
43.99573761501002 13.4003
44.0199385169922 13.3542
44.04395385732619 13.3541
44.067971233533086 13.2983
44.09199064718605 13.2929
44.11619977548961 13.267999999999999
44.14022328470671 13.2286
44.16424883610785 13.2514
44.18827643127035 13.2626
44.21249381139513 13.2109
44.236525514814076 13.1239
44.26055926674478 13.1148
44.28459506876863 13.1579
44.3088207262813 13.0996
44.33286064928722 13.0663
44.35690262714919 13.0259
44.38094666145278 13.0105
44.4051806219871 13.0916
44.42922879003185 12.987
44.45327901929361 12.9536
44.477331311362136 12.9534
44.501573600619416 12.8717
44.525630039221795 12.8609
44.54968854541895 12.8963
44.573937102200176 12.8778
44.5979997645541 12.8231
44.622064499300315 12.8194
44.64613130803592 12.7938
44.67038823869318 12.7771
44.69445921643748 12.7338
44.718532272981385 12.6864
44.742607409926194 12.654000000000002
44.76687274034801 12.6488
44.79095205918753 12.6352
44.81503346325094 12.5955
44.839116954143876 12.5766
44.86339071028742 12.6178
44.88747839599524 12.5812
44.91156817336837 12.4577
44.93566004401666 12.504000000000001
44.959942251908146 12.4829
44.984038330325966 12.4693
45.00813650686762 12.4341
45.03223678314731 12.4037
45.05652746888232 12.3953
45.08063196592069 12.3753
45.104738567558705 12.3157
45.128847275414856 12.3226
45.15314646515866 12.2609
45.17725940679741 12.2844
45.20137445952892 12.2529
45.22568004865265 12.2945
45.24979934496396 12.1758
45.27392075725247 12.1649
45.29804428714431 12.1555
45.322358426247604 12.1387
45.346486212804315 12.1257
45.370616121861914 12.1091
45.39474815505086 12.0974
45.41907087049246 12.0257
45.4432071734666 12.0008
45.46734560548283 12.0106
45.49148616817604 12.0351
45.51581748638564 12.0208
45.5399623320197 11.9886
45.56410931325473 11.9246
45.58825843173002 11.9473
45.61259837920865 11.8876
45.636751793816 11.8912
45.66090735060093 11.7985
45.68506505120716 11.7861
45.7094136545275 11.8256
45.73357566449271 11.7603
45.75773982322992 11.7628
45.78190613238733 11.731
45.806263418194064 11.6737
45.83043404997326 11.7206
45.85460683713677 11.6849
45.87897065658495 11.6453
45.90314777634752 11.6562
45.92732705646868 11.6283
45.9515084986045 11.6074
45.97588104735473 11.6148
46.00006683541565 11.57
46.02425479047904 11.5482
46.04844491420549 11.5447
46.0728262191024 11.5287
46.09702070211635 11.4916
46.12121735879483 11.4603
46.14541619080294 11.4284
46.169806278764455 11.4312
46.194009483459034 11.3953
46.21821486849841 11.3895
46.24242243555223 11.3455
46.266821333570014 11.327
46.29103328674601 11.3421
46.31524742696538 11.3265
46.33946375590237 11.2824
46.36387149104216 11.2635
46.38809221957392 11.1835
46.41231514186606 11.2202
46.436540259597464 11.225999999999999
46.460956858999374 11.1576
46.48518638983522 11.1238
46.509418121166966 11.1192
46.533652054678114 11.1043
46.55807754555709 11.0706
46.58231590571962 11.0815
46.60655647313217 11.0556
46.630988654873654 11.0477
46.655233659129024 11.0275
46.67948087571551 10.9969
46.70373030632484 10.9858
46.72817142736393 11.0065
46.752425308428684 10.9366
46.77668140861147 10.8807
46.80093972960865 10.8648
46.82538981736788 10.8188
46.849652602470904 10.8432
46.87391761349769 10.802999999999999
46.8981848521493 10.8262
46.9226439341274 10.7702
46.946915650573224 10.7461
46.97118959976749 10.7476
46.99546578341598 10.7097
47.019933887188216 10.6889
47.04421456235744 10.6938
47.06849747711879 10.6851
47.09278263318286 10.6643
47.11725978640143 10.6155
47.14154944775105 10.591
47.165841355555656 10.5994
47.1901355115306 10.5592
47.214621741924994 10.533
47.23892041698887 10.5003
47.26322134538975 10.5418
47.28771440635075 10.4626
47.31201986422527 10.4961
47.33632758061436 10.44
47.360637557241866 10.4072
47.38513974410611 10.3858
47.40945426407847 10.3735
47.43377104948137 10.3837
47.45809010204344 10.3477
47.48260144275502 10.360999999999999
47.506925052572285 10.304
47.53125093475548 10.3094
47.55557909103813 10.2934
47.58009961361992 10.2435
47.60443234110732 10.2192
47.62876734791564 10.1917
47.65310463578333 10.2011
47.6776343683373 10.1304
47.7019762413987 10.1389
47.72632040075572 10.1021
47.75066684815169 10.1023
47.77520581885936 10.1356
47.799556865477655 10.0797
47.823910205386 10.101
47.84826584033272 10.0748
47.87281407745551 10.0373
47.89717432569297 10.039
47.92153687423484 10.0526
47.94609208429692 10.0098
47.97045925671401 9.96022
47.99482873471275 9.94411
48.01920052005013 9.925139999999999
48.04376504619224 9.89816
48.068141469543484 9.90512
48.09252020552573 9.89397
48.11690125590099 9.9074
48.1414751266064 9.89759
48.16586082917454 9.81949
48.19024885144316 9.76843
48.2146391951793 9.77338
48.239222439012764 9.77092
48.26361744916137 9.75183
48.28801478610016 9.74344
48.31241445160131 9.73298
48.337007097209366 9.72533
48.36141144338331 9.674389999999999
48.38581812345755 9.66228
48.41022713920929 9.63606
48.434829215320704 9.62208
48.45924292604658 9.61063
48.48365897780325 9.58992
48.50807737237308 9.55349
48.532688907799276 9.55737
48.55711201168574 9.551960000000001
48.581537463754074 9.51178
48.60615611725119 9.506269999999999
48.63058628942721 9.49837
48.65501881516546 9.49183
48.6794536962573 9.45439
48.70408185970339 9.45357
48.72852147531801 9.41633
48.75296345168211 9.40405
48.77740779059232 9.42762
48.80204549302823 9.401589999999999
48.82649458091802 9.37288
48.85094603676547 9.36705
48.87539986237231 9.30369
48.90004713292306 9.28072
48.92450572200832 9.29386
48.94896668628025 9.281410000000001
48.97343002754588 9.26485
48.99808689542115 9.21879
49.02255501470614 9.2246
49.04702551642794 9.189039999999999
49.0714984023988 9.18212
49.096164896893235 9.17495
49.120642575466796 9.1377
49.145122643748394 9.0934
49.16960510355558 9.105039999999999
49.19428125404938 9.10362
49.2187685210852 9.08465
49.243258185121555 9.05495
49.26794160167084 9.03905
49.2924360839405 9.00816
49.31693296869764 8.97684
49.34143225776915 8.96541
49.36612538195438 8.98811
49.39062950396021 8.957889999999999
49.41513603578346 8.93254
49.4396449792564 8.9323
49.46434784069503 8.91273
49.488861631846454 8.910219999999999
49.513377840166804 8.84292
49.537896467493745 8.83672
49.56260909589029 8.8309
49.587132585683285 8.85085
49.611658500018365 8.81939
49.636186840738596 8.78175
49.66090926588511 8.793389999999999
49.685442483902584 8.7684
49.70997813385706 8.69913
49.734516217597076 8.72125
49.75924846937352 8.70828
49.7837914452858 8.68807
49.80833686055187 8.6907
49.83288471702571 8.65051
49.85762682540054 8.61956
49.882179588965734 8.58044
49.9067347993235 8.61533
49.93129245833333 8.56499
49.95604445336378 8.60286
49.98060703442832 8.58573
50.005172069746266 8.51838
50.02993150438364 8.51695
50.05450147301533 8.52205
50.07907390151433 8.480410000000001
50.10364879174981 8.50504
50.12841816587289 8.477689999999999
50.1529980044635 8.4082
50.17758031042124 8.38711
50.20216508562089 8.42612
50.22694442953363 8.432030000000001
50.25153416817468 8.38678
50.27612638170508 8.35652
50.300721072005196 8.322560000000001
50.325510416102105 8.35101
50.350110084975064 8.27918
50.37471223628208 8.30888
50.39931687190919 8.2813
50.424116246675766 8.25046
50.44872587605249 8.27622
50.47333799543065 8.1993
50.49795260670191 8.211030000000001
50.52276204271512 8.18084
50.54738166295838 8.18182
50.57200378079314 8.189219999999999
50.596628398116835 8.14607
50.62144792604559 8.13663
50.646077567609396 8.141960000000001
50.670709714377715 8.10276
50.69553683636198 8.06379
50.72017401885922 8.06743
50.7448137122895 8.070210000000001
50.76945591856022 8.03312
50.79429318636823 8.03041
50.818940443716784 8.023610000000001
50.84359021965163 8.01117
50.868242516085964 7.99742
50.893089960641895 7.98521
50.917747323549435 7.94135
50.94240721271973 7.94808
50.96706963007175 7.92023
50.99192728239342 7.902660000000001
51.01659478166073 7.894010000000001
51.04126481489051 7.887919999999999
51.06593738400761 7.8756699999999995
51.090805275207074 7.84713
51.11548294172845 7.81266
51.14016314993547 7.81654
51.164845901758845 7.801069999999999
51.18972406304274 7.7648399999999995
51.21441192780656 7.762860000000001
51.23910234200271 7.764010000000001
51.2637953075678 7.7213899999999995
51.288683770237945 7.73203
51.31338186432707 7.72514
51.33808251561888 7.69648
51.362978729967345 7.666710000000001
51.387684521509755 7.6646399999999995
51.41239287610203 7.612439999999999
51.437103795691165 7.627610000000001
51.46201036644977 7.621519999999999
51.486726441956634 7.58615
51.51144508832545 7.580360000000001
51.536166307509156 7.61223
51.56108326624387 7.5518600000000005
51.58580965706056 7.50397
51.61053862657523 7.5102
51.635270176746864 7.47917
51.66019755512065 7.48275
51.68493429268881 7.44992
51.70967361681515 7.496689999999999
51.73441552946465 7.43275
51.759353359237934 7.42665
51.7841004750961 7.3814
51.80885018539685 7.3775699999999995
51.833602492111254 7.34668
51.8585508051424 7.366689999999999
51.883308330926425 7.348889999999999
51.90806845906181 7.347360000000001
51.932831191525715 7.32764
51.95779001977161 7.303160000000001
51.98255798721516 7.264989999999999
52.00732856494335 7.2310300000000005
52.03229530577543 7.22658
52.057071130455945 7.20507
52.081849571391054 7.21427
52.106630630568695 7.211180000000001
52.13160794279417 7.1905399999999995
52.15639426492067 7.1950199999999995
52.18118321127822 7.176260000000001
52.205974783860896 7.12248
52.23096269971011 7.1489899999999995
52.255759551287994 7.13179
52.280559035098186 7.124110000000001
52.30536115314103 7.09979
52.33035970494467 7.0713
52.35516711807904 7.097230000000001
52.37997717147198 7.06203
52.40478986713005 7.01967
52.42979908731974 6.97739
52.454617094216 6.952539999999999
52.47943774942214 6.93619
52.50426105495102 6.94305
52.529280976059844 6.9459800000000005
52.554109609024096 6.94295
52.57894089837482 6.93952
52.60377484613117 6.939189999999999
52.62880550079408 6.90952
52.65364479223379 6.86412
52.67848674816189 6.866289999999999
52.70352547971946 6.8562199999999995
52.72837279155837 6.8547199999999995
52.753222773982785 6.82751
52.778075429022984 6.83167
52.80312495150885 6.789219999999999
52.827982978797436 6.81093
52.85284368481815 6.77968
52.87770707160767 6.73952
52.90276741793998 6.77981
52.92763619336701 6.745139999999999
52.952507655698504 6.706160000000001
52.977381806977576 6.699389999999999
53.00245301017842 6.67512
53.02733256653592 6.67097
53.052214817996074 6.63622
53.077099766608484 6.616560000000001
53.102181859804446 6.6573199999999995
53.127072229988265 6.6494100000000005
53.15196530349892 6.6220300000000005
53.17686108239249 6.574660000000001
53.20195409881522 6.588589999999999
53.22685531582556 6.5748
53.25175924441303 6.493580000000001
53.27666588664027 6.53782
53.30176985962693 6.5193900000000005
53.3266819565689 6.48445
53.35159677336455 6.47674
53.376514312083096 6.49897
53.40162927507703 6.47274
53.42655228516116 6.44645
53.45147802340193 6.43761
53.47660125628886 6.39565
53.50153247842639 6.38022
53.52646643496923 6.35294
53.55140312799818 6.35762
53.576537409691696 6.3985
53.60147960336152 6.35422
53.626424539786164 6.37285
53.65137222105307 6.33195
53.67651758529126 6.35271
53.70147078399681 6.31986
53.72642673383343 6.3058
53.75138543689533 6.31024
53.776541917524526 6.28019
53.801506154876755 6.2611300000000005
53.826473151763246 6.21857
53.851442910284916 6.21116
53.87661054126026 6.22262
53.9015858509782 6.195209999999999
53.92656392866066 6.176080000000001
53.95154477641532 6.171880000000001
53.976723591801296 6.10989
54.00171000771266 6.10896
54.02669920004598 6.090409999999999
54.051691170915745 6.06994
54.076881204886796 6.08485
54.101878760928514 6.07365
54.12687910187696 6.03142
54.152077577768296 6.0406699999999995
54.1770835166946 6.01284
54.20209224691339 5.98721
54.22710377055121 5.99064
54.25231352511594 5.96704
54.27733066384342 5.90315
54.30235060239643 5.8938
54.32737334290836 5.8793
54.35259441062629 5.84439
54.377622783395324 5.83283
54.40265396455061 5.826630000000001
54.42768795623251 5.85331
54.45292037169559 5.8002199999999995
54.477960012857906 5.80727
54.50300247099511 5.78846
54.52804774825457 5.777080000000001
54.55329154616743 5.7201900000000006
54.57834249018678 5.678380000000001
54.6033962597977 5.6724
54.6284528571545 5.68876
54.653708072335164 5.61011
54.67877035378786 5.6496699999999995
54.70383546947698 5.616569999999999
54.72890342156389 5.6163099999999995
54.7541700889442 5.53913
54.77924374251975 5.5567
54.8043202390049 5.53109
54.82959552413022 5.433
54.8546777351945 5.463480000000001
54.87976279569621 5.41715
54.90485070780914 5.45334
54.930137506558005 5.39954
54.95523115074295 5.43726
54.98032765308844 5.35289
55.005427015775496 5.32581
55.03072536339621 5.353680000000001
55.05583047570572 5.29033
55.080938454927676 5.3238
55.10604930325027 5.23
55.131359235107396 5.2772
55.15647585066083 5.24892
55.181595341907496 5.19575
55.20671771104285 5.2017
55.232039262617704 5.1304099999999995
55.25716741665048 5.12099
55.28229845518636 5.09397
55.30743238042802 5.04847
55.33276558731939 5.05789
55.357905315183636 4.99207
55.383047936390035 4.98015
55.40819345314859 4.9021
55.433538351073295 4.93319
55.458689688238415 4.947369999999999
55.483843927614096 4.98042
55.509197623043605 4.90752
55.53435769621134 4.86752
55.55952067826466 4.82852
55.5846865714265 4.81109
55.61005202069737 4.77264
55.63522376553902 4.7742
55.66039842818645 4.72551
55.68557601087004 4.7588099999999995
55.7109532500271 4.6759
55.73613670233794 4.72893
