TT I
1.2716486653135266 7.12335
1.2939594142134223 7.03972
1.3162702121660406 6.580010000000001
1.3385810600174564 6.47987
1.3608919586137629 6.24211
1.383202908801069 6.45334
1.405513911425503 6.2948
1.4278249673332093 6.4059800000000005
1.4501343378461518 6.23175
1.4724455028545926 6.2758199999999995
1.4947567236847858 6.5979
1.517068001182951 6.10193
1.5393793361953272 5.99126
1.5616907295681737 5.606330000000001
1.5840021821477681 5.303380000000001
1.60631369478041 5.15027
1.6286252683124185 4.97504
1.6509369035901333 4.71047
1.6732468618895553 5.55158
1.695558623192809 4.81533
1.7178704487808514 5.0192
1.7401823395001077 4.758719999999999
1.7625012545597203 5.1954
1.7848028405262486 4.5528900000000005
1.8071218901122095 4.946940000000001
1.8294236121921872 4.84213
1.8517427996910911 5.01923
1.8740620574440425 4.34429
1.8963639900671978 4.79322
1.9186833908139995 4.53143
1.9409854680117449 4.6603
1.9633050151394713 5.002680000000001
1.9856246367570705 4.54815
2.0079269371922672 4.8356699999999995
2.03024671027244 5.01781
2.0525491637446027 4.71814
2.074869091674931 4.32078
2.097171701569106 4.73752
2.1194917877373847 4.96392
2.141811954326636 4.946000000000001
2.164114805233074 5.57322
2.186435135143035 6.26535
2.208738150935709 13.9016
2.231058647554722 26.8216
2.2533792288321184 20.279
2.275682498336085 9.47335
2.298003251406138 5.833080000000001
2.3203066942619714 5.94383
2.3426276225136022 5.99925
2.3649486396617507 5.72711
2.387252348930071 5.88809
2.4095735463442893 5.97085
2.4318774374315884 5.812790000000001
2.4541988185014043 6.41104
2.476502894794693 6.842969999999999
2.498824462909887 6.51545
2.521146125856138 6.47398
2.5434504863470337 7.06387
2.5657723414244717 7.637639999999999
2.588076895590662 8.39847
2.610398946189713 8.53894
2.6327210958598384 7.82118
2.6550259469304716 8.26566
2.6773482972090137 8.687330000000001
2.6996533504259 8.52087
2.7219759047039602 8.61288
2.744298562293959 8.3057
2.7666039251246595 8.23708
2.7889267918020164 8.503039999999999
2.8112323652516555 9.14891
2.833555444408179 8.79043
2.8558786311183852 8.59941
2.8781845268938557 8.78379
2.9005079311721484 9.1388
2.9228140460410397 8.86323
2.9451376712799635 9.471689999999999
2.967444008632326 9.70392
2.9897678582247247 10.0399
3.0120918213106695 10.2902
3.0343984987899373 11.0824
3.0567226913198637 10.8645
3.079029599759726 11.4049
3.101354025127254 12.2682
3.123678568232338 13.0844
3.145985829517914 13.125
3.16831061055229 13.6831
3.1906181112775593 14.7307
3.212943133635653 14.9976
3.2352682779763207 15.3845
3.2575761442691227 15.2915
3.2799015350264273 15.8449
3.302209649240067 16.4604
3.3245352898092655 17.1508
3.3468436553365257 17.365
3.369169549113219 17.7032
3.3914955708171384 18.4335
3.413804319727358 18.7582
3.4361305997334863 19.2806
3.4584396084414553 19.9246
3.4807661501462652 20.3347
3.503092824025881 21.2238
3.5254022288463154 21.5699
3.5477291695206588 21.805999999999997
3.5700388426251948 22.0027
3.5923660534916446 23.6376
3.6146934007816114 37.9014
3.637003482731501 83.2322
3.6593311053109985 92.3359
3.681641464033634 54.349
3.7039693653009733 30.5976
3.726297407241705 26.1376
3.7486081875460804 25.6466
3.7709365132734978 25.8662
3.793247578841633 26.3812
3.8155761917550093 26.5927
3.8378875459837216 26.8221
3.8602164494827234 27.0898
3.882545499606844 28.221
3.9048572932539183 28.743000000000002
3.9271866390645718 28.8833
3.9494987298666713 29.7109
3.971828374764527 30.2351
3.9941581705403255 30.6656
4.016470713506008 31.4574
4.038800813471445 32.0512
4.061113662089144 32.6803
4.0834440696459176 33.5833
4.105774632334751 33.8324
4.128087945865126 34.4211
4.150418821249301 34.7644
4.172732448931298 37.1048
4.195063640413578 38.7249
4.2173775856475215 42.2074
4.239709096631102 72.8777
4.262040768704612 223.115
4.284355196706267 298.233
4.306687193387355 193.80200000000002
4.329001947444346 78.2673
4.35133427213731 47.5249
4.373666762177566 44.5744
4.395982011761091 43.9179
4.418314834921175 45.4188
4.44063041906622 52.5458
4.4629635787515625 62.7828
4.4852969080429785 62.9528
4.5076130004776225 53.6432
4.529946671403969 49.6923
4.552263106909177 49.7282
4.574597122877047 50.9604
4.596931312711224 52.0278
4.619248269273446 52.8339
4.6415828092605835 53.7389
4.663900117405352 54.4666
4.686235010953232 56.0438
4.708552674085913 57.6011
4.730887924602802 59.1239
4.753223354952695 60.0953
4.775541557023902 61.8901
4.797877349456786 63.3285
4.820195915032126 65.0493
4.842532072957498 66.5811
4.864868414979744 68.6124
4.88718753227192 70.5517
4.909524244902505 72.2906
4.931843734218147 74.3853
4.954180820867835 76.1698
4.976518095879839 78.9618
4.998838149695359 82.0136
5.021175803844231 85.5389
5.043496238205739 88.4669
5.065834274903528 92.5262
5.088172504230693 96.6991
5.1104935158799565 102.51700000000001
5.132832132875765 122.946
5.155153533596801 160.819
5.1774925416746225 192.11599999999999
5.199814334878411 303.41700000000003
5.2221537374521505 824.262
5.244493338631803 2563.08
5.266815727034316 7592.56
5.289155727832427 12283.9
5.311478517248165 8755.92
5.333818921080011 2677.41
5.356159527788849 499.494
5.3784829252032536 176.25099999999998
5.400823940070432 139.477
5.423147747031976 124.96600000000001
5.445489173474152 116.271
5.467830807066149 111.58
5.490155234831516 107.91
5.512497285125229 104.596
5.534822130975162 102.866
5.557164601388673 100.885
5.579489868738879 97.6236
5.601832762690846 97.0721
5.6241758697774475 96.6838
5.646501775867269 95.5768
5.668845311622074 94.0041
5.691171647754637 93.2498
5.713515615597765 92.0076
5.735859800852677 90.8815
5.758186788542988 90.4442
5.780531411018185 90.5573
5.802858837297399 90.2102
5.825203900414495 90.2116
5.8475491852224 90.346
5.869877275883075 90.441
5.892223006467101 90.9853
5.914551544266608 92.0443
5.936897724049891 94.375
5.959244129804903 98.5103
5.981573344815301 112.5
6.0039202049061 182.37599999999998
6.026249875609095 399.12199999999996
6.04859719346037 871.45
6.070927323278297 2133.11
6.093275102315365 4404.22
6.115623113320588 5205.56
6.137953938319995 3113.21
6.160302415650845 946.035
6.182633708324452 228.87900000000002
6.2049826554078376 110.23200000000001
6.227331838745022 90.1074
6.249663839443684 82.9541
6.27201349767565 80.8583
6.294345974611799 86.9231
6.316696111167083 97.3438
6.339046488263839 91.8295
6.361379686074702 78.4321
6.383730546639482 71.2774
6.406064229255215 68.2743
6.428415576718203 67.5754
6.450749747566656 66.455
6.47310158535871 65.4256
6.495453669698332 64.8428
6.517788579421056 64.4775
6.540141159237969 63.2806
6.562476565766648 62.5377
6.5848296444934045 62.4029
6.607182974060425 62.4621
6.6295191323281015 62.18600000000001
6.651872965955752 65.325
6.6742096296068985 89.4118
6.6965639707294615 131.58700000000002
6.71891856698715 130.459
6.741255995248479 90.7339
6.763611104154477 66.6809
6.785949046381137 59.6084
6.808304671371482 57.7935
6.8306605557940046 57.5115
6.852999275508618 57.1085
6.875355681171544 56.42100000000001
6.897694923437771 55.9158
6.92005185377892 55.8575
6.9423916220322655 55.8288
6.964749080490181 55.2846
6.987106804399774 54.9988
7.009447368180821 55.022
7.031805625367033 55.1221
7.054146723727803 55.0416
7.076505517631004 54.8113
7.098864581288365 54.6254
7.121206488070854 54.6442
7.143566093607822 55.0011
7.165908543567245 55.1233
7.188268694426048 54.9867
7.2106291193438095 55.0545
7.232972390625943 56.3397
7.255333366030969 68.7516
7.277677189091925 116.40899999999999
7.300038718428332 159.165
7.322400526130865 135.566
7.344745183422596 85.5809
7.367107550224791 60.9872
7.389452767901992 56.0107
7.411815697249891 55.0369
7.434161478756298 54.1546
7.456524974096713 53.4838
7.478888753837185 53.7497
7.501235387657368 53.9863
7.523599738562711 53.9402
7.545946944825532 54.3755
7.568311870344528 55.0934
7.5906770845765665 54.7918
7.613025156078678 56.0032
7.635390950099687 57.0596
7.657739602662809 56.7658
7.680105979923558 55.5416
7.702472650212829 55.6917
7.724822180948224 54.9676
7.747189439655568 55.2494
7.769539560075357 55.91
7.791907410653562 55.9358
7.81425812420825 55.9489
7.836626570110925 56.1062
7.858995315087906 57.0208
7.881346924933401 57.1805
7.903716270417482 57.8887
7.926068482028405 58.2722
7.948438431475253 58.7121
7.9708086843180235 59.1904
7.993161805171116 59.7978
8.015532667162402 60.246
8.037886398416653 61.5308
8.060257873014221 61.7969
8.082629655331942 62.1195
8.104984308787587 62.6456
8.127356708900503 66.1651
8.149711981398308 71.5752
8.172085002766314 73.765
8.194458336181368 70.6882
8.216814543847752 68.7882
8.23918850371002 68.5124
8.26154533906492 69.1434
8.283919928836452 70.9889
8.306277395339652 71.857
8.328652618483376 73.0786
8.351028159736202 75.1252
8.373386579575245 77.0883
8.395762759396959 78.8138
8.418121819038275 83.9688
8.440498640894003 96.1735
8.462875785192262 109.046
8.485235811156207 118.126
8.507613602688501 150.069
8.529974277114228 225.815
8.552352719347912 353.02
8.574731488360351 622.044
8.59709314210385 1165.74
8.619472567021075 1930.43
8.64183487789147 2268.87
8.664214962183097 1812.47
8.686577933647762 929.6089999999999
8.708958680784317 365.23699999999997
8.731339760774953 168.481
8.753703729764451 110.57799999999999
8.77608547780821 97.4392
8.798450116065078 93.9211
8.820832535634787 91.3136
8.843215292401656 89.7393
8.865580941199045 88.6484
8.887964374703538 87.6622
8.910330701447199 88.7078
8.932714815164482 90.7086
8.955099270424924 90.0796
8.977466620733543 86.8864
8.999851761421976 84.3693
9.022219798361645 82.9073
9.04460562795561 82.8491
9.066991803441677 82.3956
9.089360876979615 82.0525
9.111747746589993 81.7706
9.13411751544971 81.1268
9.156505082664324 80.6521
9.178875550323522 81.2246
9.20126381862328 81.634
9.223652438908596 81.1659
9.246023961427412 81.5639
9.26841328802173 80.9584
9.290785518039224 81.407
9.313175554425882 81.7699
9.335565947154315 81.4957
9.357939245086508 82.0001
9.380330352834827 81.9466
9.40270436697103 82.4927
9.425096193225055 81.8457
9.447488380180165 83.0201
9.469863475295412 83.3739
9.492256385987508 83.4676
9.514632206018318 84.5594
9.537025843935714 85.0171
9.559402392368193 85.4816
9.581796761000229 86.1717
9.604191496441521 87.4603
9.626569144158516 90.5567
9.648964615551032 94.948
9.671343000390081 96.6032
9.693739211225699 94.36399999999999
9.716135793237463 92.5879
9.738515290448102 92.0138
9.760912617143402 92.8129
9.783292860202891 93.99700000000001
9.805690935076182 95.2238
9.828089385495742 96.404
9.850470754023561 98.7119
9.872869957865444 106.214
9.89525208097539 119.79
9.917652041736662 131.214
9.940052382417589 129.876
9.962435644102392 133.8
9.984836746950979 161.274
10.007220771957746 219.11
10.029622640473708 317.94
10.052007432299963 490.181
10.074410069984072 801.84
10.096813093716005 1274.66
10.119199042482517 1757.06
10.141602840636468 1944.03
10.163989564971628 1556.69
10.186394141051062 885.3660000000001
10.208799107559706 395.82
10.231187001965623 184.577
10.253592751657669 124.249
10.275981430388155 111.334
10.298387966769793 111.402
10.320794897965431 113.169
10.343184759907361 112.32799999999999
10.36559248305461 106.944
10.387983138083852 103.03399999999999
10.410391656691655 104.251
10.432800574501677 113.514
10.455192425893369 128.914
10.47760214443012 153.847
10.499994797678786 198.61
10.522405320453982 281.23900000000003
10.54479877906917 410.08099999999996
10.567210109595656 533.9019999999999
10.5896218454736 581.751
10.612016518879773 509.365
10.634429067781074 350.00800000000004
10.656824555333241 200.62
10.679237920773568 122.87100000000001
10.701651695961992 95.9178
10.724048411481384 88.5626
10.746463008485165 85.4138
10.768860546937125 83.5225
10.791275969274796 82.1092
10.81369180576079 81.1211
10.836090585366925 80.0721
10.858507252467449 78.9269
10.88090686379991 78.0436
10.903324365036394 77.439
10.925724811614439 77.3266
10.948143150509463 78.4338
10.970561909719066 77.6486
10.992963615930844 75.9545
11.015383218085756 73.8653
11.037785768347074 72.5088
11.06020621697282 72.1151
11.082627090322113 71.1485
11.105030913430326 70.9317
11.12745263854165 72.036
11.149857314510728 74.8862
11.172279894912576 80.2945
11.194702904450653 80.6969
11.217108866490921 76.4661
11.239532736615194 72.9741
11.26193956033512 70.8314
11.284364294577085 69.2666
11.306789462371718 67.4837
11.329197585398376 66.2616
11.351623622610898 66.4222
11.37403261614354 65.2625
11.396459526308487 64.9129
11.418869393879497 64.6286
11.441297180532617 64.4882
11.463725406927658 64.0263
11.486136592353875 63.9629
11.508565700543707 64.4897
11.530977768845315 66.4124
11.553407762368774 66.9116
11.575838200059769 66.4106
11.598251599479612 64.4736
11.620682927815501 63.3287
11.64309721895548 62.7848
11.665529441478206 62.5263
11.687962112597958 62.3522
11.710377748130886 62.1835
11.732811318753434 62.129
11.755227854859067 62.082
11.777662328529495 61.8611
11.800079768750786 61.9447
11.822515149015453 61.65
11.844950984084935 61.9011
11.867369787303163 61.6841
11.889806534289491 61.3665
11.912226250487029 61.7148
11.934663912939751 62.2404
11.9571020346363 62.1053
11.979523127133968 62.0515
12.001962169624331 62.4891
12.024384183972964 63.3328
12.046824150809913 66.157
12.069264581333726 70.5781
12.091687985297767 75.7952
12.11412934550045 84.8735
12.136553680195208 100.205
12.158995973632788 124.014
12.181438735204349 154.66299999999998
12.20386447284199 189.87099999999998
12.226308172985636 212.02900000000002
12.24873485024193 201.96900000000002
12.271179492516982 169.665
12.293607112949127 124.743
12.316052700916226 94.2396
12.338498763250042 77.2148
12.360927805303868 68.8551
12.383374818673879 65.5244
12.405804812803074 63.8041
12.428252780773262 63.4502
12.45070122756722 63.5851
12.473132656675375 63.5634
12.49558206341869 63.5938
12.518014453510101 63.5746
12.540464823770117 63.6418
12.562915677315177 63.9025
12.58534951575545 64.7505
12.607801338171472 66.7918
12.630236146511358 71.6201
12.652688941369085 75.8086
12.675124723177234 75.8164
12.697578494048786 72.5858
12.720032754458185 68.781
12.742470003354093 67.0084
12.764925245138771 66.9172
12.787363476431278 67.1874
12.809819703166806 67.6399
12.83227642391173 68.2496
12.854716135692716 68.7115
12.877173846755147 69.8657
12.899614549869717 69.87899999999999
12.9220732548287 70.9637
12.94453245827299 71.3635
12.966974655289818 72.1756
12.989434858002571 73.079
13.011878055298721 73.7118
13.034339260862497 74.6445
13.056800969391883 75.9598
13.079245674017244 77.8687
13.101708390774869 79.3403
13.12415410463411 85.1724
13.146617833206086 95.0908
13.169064559883248 106.602
13.191529303857127 120.103
13.213994557076367 142.405
13.236442809902437 180.361
13.258909083908291 238.485
13.28135835851934 309.265
13.30382565690295 377.491
13.326293469022952 420.48900000000003
13.348744283242008 414.286
13.371213125129904 346.983
13.39366497011003 255.53799999999998
13.416134845360597 169.53099999999998
13.438605238843131 121.22200000000001
13.46105863690397 103.09100000000001
13.483530069144786 101.882
13.505984506951902 106.12700000000001
13.528456981549432 115.31
13.550929978879088 129.635
13.573385983253365 154.982
13.595860028340867 195.78599999999997
13.618317081455832 251.738
13.64079217790333 316.566
13.663250283359057 362.51099999999997
13.685726434770173 376.026
13.708203115221277 335.00300000000004
13.730662806148091 256.218
13.75314054697177 180.046
13.775601299246777 125.964
13.798080104050406 96.12200000000001
13.820559442405358 84.3448
13.843021793671388 80.6566
13.865502201420897 78.932
13.887965623051947 78.3185
13.910447103807167 77.3676
13.932929122629764 76.1937
13.955394156785959 75.6997
13.977877254034569 74.9311
14.000343367582113 74.046
14.022827546871707 73.3419
14.045294743423524 72.5791
14.06778000837062 71.8116
14.090265817715476 71.8117
14.112734645763819 71.5501
14.13522154619454 71.6293
14.157691466286913 71.4581
14.180179461423874 71.2692
14.202668005486178 70.7084
14.22513957064374 70.035
14.247629214846473 69.5602
14.270101881097517 69.2285
14.29259262906496 69.4992
14.315083930490205 70.2475
14.337558255389705 70.418
14.360050666019726 70.0494
14.382526101071944 69.3611
14.405019624534942 68.3472
14.427513705993134 67.8331
14.449990813291825 67.8463
14.47248601302899 67.8401
14.49496423954951 67.8061
14.517460561197822 67.8866
14.539939910570322 67.7172
14.562437357763558 68.2121
14.58493536931253 69.3816
14.607416409993311 69.9929
14.62991555254159 70.4796
14.652397725157423 70.5344
14.674898002342799 70.158
14.697398848433282 69.7644
14.719882725991326 69.9537
14.74238471217934 70.5344
14.764869730765593 73.4472
14.787372860692983 76.334
14.809876564079925 80.5242
14.83236330125751 85.81
14.854868153850365 94.4044
14.877356041159485 107.744
14.899862046604186 127.074
14.922351087688757 154.561
14.944858249632887 187.707
14.967365991421232 215.66299999999998
14.989856770231246 229.083
15.012365673994204 218.77200000000002
15.03485761569738 189.51
15.05736768508665 147.025
15.07987833888692 113.77600000000001
15.102372032001655 89.5966
15.124883856909658 76.4877
15.14737872204565 71.2266
15.169891721717274 69.5476
15.192405310371893 69.2632
15.214901940621196 70.0265
15.237416709527137 70.0612
15.259914520936249 69.9581
15.282430473753607 69.1065
15.304947020131227 67.888
15.327446610371178 67.1004
15.349964346154254 66.3535
15.372465126703139 65.914
15.394984055556009 65.503
15.417486030076159 65.5932
15.44000615566487 65.1261
15.462526881230803 65.1189
15.485030653812652 65.3538
15.507552581617434 65.3625
15.530057557334603 65.4531
15.55258069104857 65.3244
15.575104429329837 65.1683
15.597611216864632 64.9982
15.620136166564563 64.9913
15.6426441664095 65.5356
15.665170331202765 67.4316
15.687697105158826 70.315
15.710206930593545 73.6818
15.732734925158933 77.2071
15.755245972089478 83.537
15.77777519094324 92.7939
15.800287463046663 106.01100000000001
15.822817909869592 126.436
15.84534897229804 149.50799999999998
15.867863089299354 172.50599999999997
15.890395385222186 190.00599999999997
15.912910736597423 191.303
15.935444269699861 179.253
15.957978423016485 150.642
15.980495633101265 119.305
16.003031029129367 93.0129
16.02554948280019 75.2956
16.048086125229432 67.0429
16.070623392487107 64.5156
16.09314371869582 63.5384
16.11568223789321 62.5032
16.13820381691126 61.6657
16.160743591742527 60.9867
16.183283996022084 59.8094
16.205807461423195 58.7524
16.228349126881973 58.1215
16.25087385432698 58.1913
16.27341678466365 57.4921
16.29594277784926 57.5245
16.31848697676433 57.9274
16.341031811604868 58.027
16.36355971058487 58.3396
16.3861058195587 57.9258
16.40863499352978 56.8117
16.431182380342005 55.8427
16.453730407713202 55.3462
16.476261501364792 55.2873
16.498810812136167 54.9802
16.52134319004079 54.9972
16.54389378792203 54.7222
16.566445031001553 54.6395
16.588979342490088 54.2884
16.61153187824822 54.1181
16.634067483263312 54.128
16.656621315414416 54.0446
16.679175797408888 53.919
16.701713349928728 53.9656
16.72426913389191 54.2016
16.74680798922351 54.2436
16.76936507887444 54.1217
16.791905240734874 54.3304
16.814463639794468 54.2218
16.837022695210294 54.0389
16.859564824093756 54.607
16.882125194503903 55.097
16.904668639217885 55.7897
16.927230328348003 56.0674
16.949792678493612 55.9933
16.972338104193863 55.4723
16.994901778652235 54.9518
17.017448529496576 54.9885
17.040013531998152 55.2059
17.06257920018044 55.4003
17.0851279459922 55.981
17.107694947817667 56.7369
17.130245028099072 57.678999999999995
17.15281336730298 58.7116
17.17536478578733 60.6836
17.19793446610687 62.792
17.220504818648422 65.835
17.243058251703697 69.5281
17.265629950971032 74.3503
17.288184731571736 79.575
17.310757781306908 82.5275
17.33333150794385 83.9343
17.355888317140174 81.1224
17.37846339986244 76.1195
17.401021565958885 70.13600000000001
17.42359800851343 64.7481
17.44617513265564 61.2723
17.468735341390783 59.3357
17.491261035594565 58.4605
17.51396340099364 58.0388
17.536490463869136 58.2079
17.559018209820174 58.398
17.58154663977963 58.5252
17.604251766089718 58.6678
17.626781572227713 58.8222
17.64931206518155 59.0649
17.671843245885103 59.4661
17.69455114821572 59.82
17.717083712612634 60.0932
17.739616967569667 60.1526
17.762150914021706 60.4857
17.78486160749854 60.3795
17.807396945166804 61.1318
17.829932977143503 61.6016
17.85246970436452 62.8511
17.875183204129467 64.5419
17.897721330097664 66.6466
17.920260154126645 69.077
17.942799677153296 71.7803
17.9655159983646 75.4074
17.988056927677544 81.0712
18.010598558807683 88.84100000000001
18.033140892692916 99.0138
18.05586005052525 111.05
18.07840379824407 122.036
18.10094825154059 131.80700000000002
18.12366954819864 137.447
18.146215420998306 135.847
18.16876200220057 127.07700000000001
18.191309292745153 113.508
18.214033452627167 101.131
18.236582170236648 90.4431
18.259131600016456 85.3089
18.281681742907335 85.8762
18.304408781233683 90.8223
18.32696035875955 96.1375
18.349512652227624 100.18799999999999
18.372065662579683 103.837
18.394795594587553 104.572
18.41735004715306 100.462
18.43990521943684 93.7462
18.46246111238171 84.7969
18.485193953325208 75.8597
18.507751296070428 69.0887
18.530309362314178 64.9303
18.552868153000343 62.637
18.57560391815056 61.3488
18.59816416623245 61.0459
18.620725141597372 60.5934
18.643286845190268 59.9458
18.666025549835414 59.4113
18.688588718427933 59.0659
18.711152618092243 58.9768
18.73389353884365 58.4779
18.75645890921984 58.268
18.77902501351406 57.8323
18.801591852673102 57.9427
18.824335739722738 57.3592
18.846904057212626 57.2935
18.8694731124168 56.9883
18.89204290628315 56.9219
18.914789774966803 56.6979
18.937361054791623 56.407
18.959933076131318 56.1411
18.982505839934877 56.2691
19.00525570560582 56.0922
19.027829963004184 56.0982
19.05040496572238 56.2003
19.072980714710468 56.1871
19.095733592739563 56.3002
19.11831084296757 56.6591
19.140888842324735 57.0583
19.16346759176222 57.0656
19.18622349753803 57.5428
19.208803755869358 58.5828
19.231384767143577 59.6066
19.253966532312948 61.4416
19.276725481241822 63.305
19.29930876296784 65.9095
19.3218928014549 69.1715
19.34465404436217 72.288
19.36723960516257 75.25399999999999
19.389825925592426 75.736
19.412413006605938 74.6315
19.43517731967805 70.9071
19.457765930683355 66.5365
19.48035530514408 62.0446
19.50294544401556 58.5431
19.525712842708348 55.7828
19.54830451925909 54.4846
19.570896963095727 53.351000000000006
19.593490175174704 53.238
19.616260674962184 53.2368
19.638855432416964 52.5933
19.661450960992624 53.0659
19.68404726164677 52.9735
19.706820878021247 52.7794
19.729418731756834 52.8751
19.752017360452857 52.6413
19.77461676506804 52.7306
19.797393513540218 52.8725
19.819994478951667 53.2126
19.84259622316767 53.7098
19.8651987471481 54.0681
19.887978643247177 54.2013
19.91058273574792 54.4906
19.933187610901943 55.3283
19.955969879466828 56.49100000000001
19.97857632894404 57.9454
20.00118356396599 59.6538
20.023791585494575 61.9059
20.046577028914875 64.8189
20.069186632506966 66.8583
20.091797025500632 68.5669
20.114408208858933 68.9575
20.137196842715273 68.7007
20.159809615886765 67.1874
20.18242318232135 64.5545
20.20503754298326 62.6625
20.227829382875154 61.7162
20.250445341109344 61.9977
20.27306209647285 62.6022
20.29567964993108 63.9789
20.31847471147704 64.9305
20.34109387027612 65.1221
20.363713830075454 64.711
20.386334591841646 62.9193
20.409132890679302 60.6023
20.431755265564437 57.4265
20.454378445325528 54.7519
20.477002430930366 52.9527
20.499803982716553 51.913999999999994
20.522429589228004 51.1641
20.54505600449589 50.5538
20.567683229489194 50.3272
20.590488049900088 49.9247
20.61311690359731 49.6332
20.63574656993626 49.3427
20.658553853717297 48.9966
20.681185154618298 49.0509
20.703817271080066 48.8327
20.72645020407368 48.5772
20.749260783967177 48.4262
20.771895359337133 48.4992
20.794530754161617 48.3399
20.817166969412938 48.3353
20.83998086114876 48.3218
20.86261872660049 47.9673
20.885257415405402 47.9074
20.90789692853701 47.8529
20.930714147864748 47.8415
20.953355319030678 48.0898
20.97599731745334 48.04600000000001
20.99864014410749 47.9622
21.021460706796564 47.9764
21.044105199328826 48.3039
21.06675052302631 48.5135
21.089396678865015 48.5516
21.112220600704806 48.8519
21.134868430275347 49.1272
21.15751709492456 49.5688
21.180166595629693 49.9156
21.202993892429635 50.3874
21.22564507473034 50.4885
21.24829709602816 50.7365
21.27112693608965 50.7726
21.293780644891275 50.9208
21.316435195634053 50.2092
21.339090589297417 49.5222
21.361923832041875 49.1187
21.384580921090404 48.3832
21.407238856007325 47.6252
21.429897637773326 47.7675
21.45273429906592 47.8576
21.475394784108598 47.7618
21.498056118951983 47.6921
21.520718304578022 47.8439
21.543558400304388 47.8825
21.566222297108816 48.0754
21.58888704765135 48.2649
21.61155265291521 48.6657
21.63439619898156 48.9727
21.657063523335786 48.9711
21.67973170537063 49.6272
21.7024007460706 50.0377
21.72524775840385 50.7021
21.747918526116475 51.8015
21.770590155457388 52.9916
21.79326264741238 54.7009
21.816113141960237 56.4586
21.838787368860547 58.5252
21.861462461341976 60.2176
21.884315579735777 62.2468
21.90699241312273 63.2672
21.92967011506078 63.482
21.95234868653799 63.1973
21.9752053151131 61.9527
21.997885635446785 60.1407
22.020566828293532 58.592
22.04324889464272 57.1213
22.066109049404666 55.9894
22.088792872571794 55.3394
22.111477572219204 55.3682
22.1341631493376 55.3391
22.157026846313123 55.034
22.179714188221507 54.3234
22.202402410582668 53.1207
22.22509151438863 51.9712
22.24795876962584 50.7016
22.270649646204486 49.8847
22.293341407213727 49.1401
22.316034053646906 48.7155
22.338904883215342 48.449
22.36159931041458 48.6136
22.38429462602756 48.3603
22.40699083104897 48.3501
22.429865251039757 48.2711
22.452563244831367 48.3107
22.47526213102522 48.2187
22.49813925616515 48.0542
22.520839937143307 47.9409
22.543541513520587 48.0198
22.56624398629403 47.9488
22.589124730075895 47.7974
22.611829005656723 47.9834
22.63453418063466 47.9361
22.657240256008077 48.1031
22.680124634582935 48.2662
22.70283252079775 48.4746
22.725541310413075 48.8148
22.74825100442868 48.9282
22.771139033969575 49.3979
22.79385054687155 49.6078
22.81656296718292 50.3407
22.83927629590484 51.328
22.862167992606945 52.2956
22.88488314827121 53.4484
22.907599215359284 54.6879
22.93031619487366 55.81
22.953211574954405 56.7775
22.975930389478226 57.1413
22.998650119445763 57.5012
23.02137076586092 56.5998
23.044269845560063 55.3245
23.06699233506288 53.8177
23.089715744034912 51.9633
23.112617610931565 50.4297
23.135342869061212 49.4229
23.158069049684816 48.7077
23.1807961538087 48.1604
23.20370174880544 48.1525
23.226430710184808 48.174
23.249160598093425 48.2409
23.271891413539002 48.0223
23.294800752937697 48.07899999999999
23.31753343374794 48.1401
23.340267045128353 48.3682
23.36300158808808 48.7906
23.38591468821339 48.9433
23.408651104658304 49.4733
23.431388455719986 49.9555
23.454126742409 50.9232
23.4770436196085 52.1973
23.499783787914662 53.3365
23.522524894889884 54.5118
23.54526694154616 55.598
23.56818761219047 56.4404
23.59093154860734 56.8632
23.613676427751283 57.1205
23.636422250635754 56.138000000000005
23.659346731118656 54.5797
23.68209445191868 52.8119
23.704843119509587 50.7214
23.72759273490623 49.1214
23.750521041644767 47.8201
23.77327256312355 46.8462
23.796025035462787 46.0559
23.818956224555475 45.5593
23.841710609113413 45.5991
23.86446594758979 45.1548
23.887222241002014 44.9689
23.910157285144578 44.6578
23.932915498962537 44.7163
23.955674670778713 44.5242
23.978434801611975 44.36600000000001
24.001373717286125 44.1464
24.024135776723917 43.9796
24.046898798245582 43.8707
24.06966278287146 43.8071
24.092605586582614 43.7002
24.115371508023642 43.5493
24.1381383956401 43.6083
24.16090625045381 43.3724
24.183852958731244 43.3381
24.206622758582608 43.3485
24.229393528706886 43.0901
24.252165270127392 43.2589
24.27511589952438 43.082
24.297889594216997 42.9385
24.32066426328598 42.6932
24.34343990775613 42.7512
24.36639447485003 42.6125
24.38917208083877 42.6494
24.41195066531332 42.6119
24.43490819850244 42.6008
24.457688750692377 42.6393
24.48047028445616 42.3794
24.503252800821233 42.5585
24.526214300784112 42.5681
24.548998793132213 42.4977
24.57178427117417 42.4386
24.59457073593893 42.4405
24.617536219319863 42.4278
24.64032466834748 42.2662
24.663114107195035 42.1479
24.685904536893013 42.1328
24.708874020360852 42.1117
24.731666442613744 42.0261
24.754459858818787 41.9514
24.777254270007962 41.9228
24.80022777025625 41.7218
24.82302418230472 41.7944
24.845821592443674 41.6883
24.86862000170663 41.6528
24.891597535453727 41.5686
24.914397953892728 41.7437
24.93719937456671 41.7509
24.96000179851076 41.9167
24.98298338249997 42.0492
25.00578782394922 42.211999999999996
25.028593271784167 42.3777
25.05157790644186 42.716
25.07438537804115 42.8003
25.097193859145293 43.1472
25.120003350792075 43.2389
25.142992065061257 43.6656
25.165803588823465 43.9655
25.18861612625217 44.0777
25.211429678386736 44.119
25.234422489079968 44.3593
25.257238081693636 44.4333
25.280054692141732 44.4174
25.3028723214652 44.4397
25.325869245420463 44.5301
25.348688923599397 44.4876
25.371509623787006 44.3543
25.394331347025812 44.0419
25.41733240110666 43.6479
25.440156181590016 43.0227
25.46298098826268 42.4378
25.48580682216873 41.9183
25.50881202326435 41.391999999999996
25.53163992281684 40.9347
25.55446885274561 40.6944
25.577298814096377 40.4059
25.600308179121807 40.348
25.623140214533745 40.3923
25.64597328451537 40.1576
25.66898578564376 39.9179
25.691820936010206 40.0698
25.714657124097695 39.8899
25.737494350954734 40.0706
25.760511045684957 40.119
25.783350361364224 40.158
25.806190718969255 40.1675
25.82903211955018 40.1232
25.852053024868923 40.1606
25.874896522722523 40.2104
25.897741066713106 39.9818
25.920586657892454 40.0608
25.943611790812668 40.3907
25.966459487728237 40.4586
25.989308234998564 40.3818
26.01215803367705 40.8542
26.03518741123814 40.9338
26.05803932412957 41.1088
26.080892291600094 41.1192
26.10374631470478 41.1147
26.12677995397268 41.1577
26.14963609978026 41.1539
26.172493304397875 40.8834
26.19535156888223 40.6522
26.218389486949604 40.275999999999996
26.241249882640123 40.0079
26.26411134137826 39.8062
26.28715248187403 39.7613
26.31001607820869 39.5768
26.3328807407756 39.5162
26.35574647063438 39.6943
26.37879191991473 39.5127
26.401659795896734 39.5486
26.424528742360263 39.7487
26.447398760366614 39.8592
26.470448535598294 40.0932
26.49332070826805 40.2466
26.516193955675355 40.5782
26.53906827888316 40.7784
26.562122397260108 41.0671
26.584998883685063 41.3203
26.607876449110325 41.6731
26.63075509460056 41.6805
26.65381357334404 41.6721
26.67669439061878 41.6591
26.699576291163382 41.5253
26.722459276044212 41.5703
26.745522132402975 41.0905
26.768407297649354 40.9297
26.791293550442003 40.5156
26.814180891848974 40.4143
26.837248143099337 39.8765
26.860137673466657 39.9654
26.88302829566349 39.7985
26.90592001075963 39.5503
26.92899167420566 39.2646
26.951885586870763 38.9897
26.974780595655517 38.8427
26.99785558178161 38.6883
27.020752794605112 38.4741
27.043651106772522 38.2996
27.06655051935668 38.3817
27.089629948036183 38.249
27.112531573292053 38.2781
27.135434302194138 38.2856
27.158338135817015 38.1435
27.181422024430987 38.1898
27.204328079372566 37.9556
27.22723524226965 38.0887
27.250143514198573 38.1846
27.273231880156334 37.9668
27.296142382065014 37.9662
27.319053996245536 37.8184
27.341966723775965 37.887
27.365059584515222 37.9595
27.38797455070062 38.1056
27.410890633481237 37.9234
27.433807833936918 37.9275
27.456905206923906 38.0588
27.47982465472398 38.0457
27.502745223449743 38.1099
27.525666914182825 38.105
27.548768816912457 38.0691
27.571692763693633 38.0243
27.59461783573812 37.9007
27.617723149491244 37.8874
27.640650484125285 37.6866
27.66357894728264 37.542
27.686508540048052 37.6459
27.709618414237887 37.5621
27.732550278321757 37.343
27.755483275279115 37.3001
27.778417406196485 37.379
27.801531858397514 37.3746
27.824468269376716 37.4111
27.847405817586786 37.3926
27.870344504116094 37.6166
27.893463551932008 37.6909
27.916404527281053 37.8208
27.93934664422563 37.9514
27.962289903855886 37.9288
27.98541356491974 38.1766
28.00835912214229 38.2882
28.03130582533231 38.4445
28.054253675581805 38.6524
28.077381967556104 38.6444
28.100332124185126 38.5525
28.123283431160893 38.3452
28.146235889577238 38.2862
28.169368830154156 38.1333
28.192323603752033 37.8758
28.215279532083304 37.7022
28.238415973016764 37.5081
28.261374223145094 37.4386
28.284333631303806 37.1558
28.307294198589954 36.9208
28.330435319167677 36.6839
28.353398217078915 36.49
28.376362277420153 36.1183
28.39932750129032 36.0379
28.422473319286713 35.9383
28.44544088262495 35.917
28.468409612800283 35.8418
28.491379510913497 35.6263
28.51453004413313 35.4566
28.53750229057244 35.4037
28.56047570826344 35.4634
28.583450298308804 35.4682
28.606605564586562 35.2618
28.629582511831156 35.3756
28.65256063474956 35.218
28.675539934446338 35.309
28.698699951647605 35.2484
28.72168161743193 35.1695
28.74466446331978 35.1582
28.767648490417624 35.0741
28.790813276438353 35.0589
28.813799678527303 35.0393
28.836787265157085 35.022
28.859955641890075 35.091
28.882945610203045 34.9788
28.905936766392035 34.9367
28.928929111566863 34.8875
28.952102288520145 34.925
28.975097024308607 34.7786
28.998092952423807 34.6039
29.021090073977508 34.5236
29.04426806913204 34.4961
29.067267590245258 34.2483
29.090268308143695 34.2065
29.11327022394099 34.1043
29.13645305530891 34.0826
29.159457379627167 34.1735
29.18246290519685 34.0607
29.20546963313352 33.8918
29.22865731875826 33.9733
29.25166646419296 34.0418
29.27467681535305 33.8513
29.29768837335608 33.9678
29.320880931312562 33.9307
29.34389491580634 33.9486
29.366910110507334 33.9235
29.38992651653503 33.943000000000005
29.41312396492981 33.8035
29.436142806456754 33.7259
29.45916286268059 33.6475
29.48236399319994 33.4485
29.50538649169417 33.4099
29.528410208259935 33.3194
29.55143514402014 33.1181
29.574641196749695 33.0024
29.597668583816574 32.9755
29.6206971934585 32.8068
29.64372702680042 32.861999999999995
29.666938019934474 32.6468
29.689970313635285 32.5573
29.713003834422636 32.6353
29.73603858342347 32.4435
29.759254535188578 32.3553
29.78229175361658 32.3635
29.80533020365064 32.4809
29.82836988641968 32.5544
29.85159081507472 32.3546
29.874632976355343 32.3251
29.89767637376955 32.4203
29.920721008448314 32.3133
29.9439469322847 32.1905
29.96699405457564 32.1814
29.9900424175358 32.2215
30.013092022298157 32.152
30.03632295963995 32.0043
30.059375061131373 31.9792
30.08242840783577 32.2112
30.105483000888153 32.1231
30.128718970092244 32.0001
30.151776069006917 32.1411
30.17483441768648 32.0966
30.198074175317235 32.0954
30.221135036724256 32.1035
30.24419715131772 32.0069
30.267260520236203 31.8987
30.290505341942243 31.9315
30.313571232750228 32.0177
30.336638381310948 31.9109
30.35970678876503 31.8052
30.38295669299435 31.8911
30.40602763151657 31.8342
30.429099832366074 31.7436
30.452173296685572 31.6716
30.47542830191959 31.7907
30.498504306502497 31.7042
30.521581577995562 31.7782
30.544660117543582 31.7761
30.56792024229725 31.726
30.59100133132069 31.8261
30.614083691845494 31.8674
30.637167325018545 31.891
30.660432587840603 31.9099
30.683518779717886 31.7939
30.70660624769615 31.7777
30.729694992924372 31.7906
30.75296541239743 31.7646
30.77605672557558 31.8339
30.799149319462742 31.7904
30.8224236211637 31.6127
30.845518789950724 31.4685
30.868615242910597 31.4837
30.891712981195973 31.3528
30.91499247215866 31.2109
30.938092794619365 31.1917
30.96119440587579 31.1477
30.984297307082752 31.07
31.00758200598383 30.873
31.030687500658694 30.8439
31.053794288760695 30.7858
31.076902371446767 30.6517
31.100192296997445 30.7816
31.12330298246119 30.5947
31.14641496599209 30.6366
31.169528248749216 30.6412
31.19282341969534 30.6262
31.215939314557186 30.5483
31.239056512134788 30.5829
31.262175013589378 30.5892
31.28547544871168 30.4775
31.30859657161541 30.3978
31.331719001892175 30.4959
31.35484274070538 30.5985
31.378148458819545 30.5559
31.401274828443725 30.5991
31.424402510106933 30.5393
31.447712205419993 30.5545
31.470842524931633 30.5108
31.493974159989783 30.5442
31.51710711176168 30.3931
31.54042212308802 30.4145
31.563557722100917 30.3788
31.586694641341655 30.2005
31.609832881979628 30.1924
31.63315322823208 30.061
31.656294125521327 29.9527
31.679436347728515 29.9252
31.70257989602529 29.9133
31.725905596152327 29.8252
31.74905181052835 29.778000000000002
31.772199354521323 29.7868
31.79534822930507 29.8753
31.818679302290967 29.8129
31.84183085259981 29.756
31.864983737233473 29.7614
31.88813795736804 29.7622
31.911474422233013 29.6522
31.934631327356435 29.7464
31.9577895715215 29.7236
31.980949155906522 29.7208
32.004291031706956 29.729
32.027453310562606 29.5813
32.05061693318573 29.4193
32.07396288236386 29.421999999999997
32.09712920658542 29.4012
32.12029687812702 29.3376
32.14346589817093 29.2265
32.166817291729984 29.2092
32.18998902288583 29.1604
32.21316210610336 29.0514
32.23633654256711 28.9731
32.259693399663725 28.9609
32.282870556771144 28.7718
32.30604907069099 28.8276
32.329228942610065 28.7781
32.35259128243769 28.6223
32.375773884550505 28.5787
32.398957848235646 28.627
32.422143174682176 28.5176
32.445511016471215 28.4548
32.468699082679954 28.3511
32.49188851523011 28.4092
32.51507931531304 28.3122
32.538452678331 28.2732
32.56164622776311 28.3237
32.58484114831493 28.1718
32.60803744118015 28.1072
32.631416344731896 28.1594
32.654615396551876 28.1198
32.67781582427913 28.0476
32.701198898634416 28.0012
32.72440209253756 27.9783
32.747606665947124 27.9522
32.77081262006088 27.7345
32.79420126883317 27.7755
32.81740999876112 27.8581
32.840620112999424 27.7689
32.86383161274818 27.7174
32.88722585534586 27.6998
32.91044014056596 27.8337
32.933655814909734 27.706
32.95687287957963 27.6716
32.98027273544904 27.6132
33.00349259526636 27.535
33.026713849030116 27.6558
33.04993649794511 27.4915
33.073341986570746 27.4918
33.09656744032826 27.4998
33.11979429286444 27.4476
33.14302254538647 27.4661
33.166433686291185 27.4532
33.18966475336992 27.4363
33.212897224069096 27.2134
33.23613109959831 27.2691
33.259547912343415 27.1991
33.2827846121627 27.2288
33.306022720453775 27.1672
33.32926223842861 27.107
33.352684742614166 27.1465
33.37592709463173 27.0483
33.399170859982064 27.0247
33.422597648419426 26.9314
33.44584425514446 26.835
33.46909227885668 26.7645
33.4923417207723 26.6376
33.51577423505344 26.7437
33.539026528130385 26.6133
33.56228024307245 26.6227
33.585535381098246 26.5387
33.60897364093058 26.4701
33.63223163992385 26.3356
33.6554910656699 26.3727
33.678751919389796 26.3789
33.702195944520106 26.3365
33.72545966903325 26.3029
33.74872482519663 26.1804
33.771991414233746 26.2246
33.79544122444841 26.1936
33.81871069412428 26.0347
33.84198160035767 26.0527
33.86525394437455 26.1469
33.88870955949969 26.0503
33.911984794020626 26.0551
33.93526147001624 25.9197
33.958539588715006 25.8923
33.98200102861669 25.8981
34.0052820477047 25.7968
34.02856451319451 25.8144
34.05203033759056 25.8286
34.07531571090147 25.7349
34.09860253431845 25.7226
34.121890809074316 25.6471
34.145362493118924 25.6153
34.16865368561615 25.5756
34.191946333164054 25.5517
34.21524043699793 25.5129
34.23871800066799 25.4586
34.26201503218366 25.3531
34.28531352370466 25.3422
34.30861347646881 25.2965
34.33209693978188 25.2405
34.3553998301885 25.3406
34.378704185565205 25.1821
34.402010007152356 25.0721
34.42549939016683 25.0602
34.44880815937748 25.0602
34.472118398533134 25.0
34.49543010887669 24.9636
34.51892543169198 24.8517
34.54224009966052 24.8956
34.56555624255917 24.916999999999998
34.58887386163339 24.8001
34.61237514439016 24.7063
34.6356957311114 24.7026
34.65901779775809 24.6605
34.68252356662995 24.6701
34.705848608458616 24.5905
34.72917513396849 24.5246
34.75250314440949 24.4743
34.77601490857862 24.4659
34.799345904259795 24.3409
34.82267838863559 24.4856
34.846012362958525 24.3372
34.869530142679984 24.3767
34.89286711232212 24.3791
34.91620557568269 24.264
34.93954553401677 24.3283
34.9630693495876 24.2321
34.986412313340814 24.1972
35.00975677584668 24.1497
35.033102738362956 24.0092
35.05663261012228 24.1028
35.0799815881786 24.1347
35.10333207003229 24.0019
35.12668405694369 24.0926
35.150220005273056 23.9774
35.17357501786656 24.0196
35.19693153931268 23.9658
35.220289570874385 23.8844
35.24383161619786 23.8826
35.267192683604904 23.8204
35.290555264930376 23.8796
35.314101899412165 23.8221
35.33746752422433 23.7731
35.36083466676374 23.8064
35.38420332829803 23.7525
35.407756095629054 23.669
35.43112781085063 23.6573
35.45450104888391 23.6818
35.477875810999194 23.6503
35.50143473172161 23.599
35.52481255774625 23.6913
35.54819191167777 23.5374
35.57157279478914 23.5105
35.595137889488406 23.4902
35.61852184675279 23.4073
35.641907337029984 23.4317
35.665294361595684 23.319000000000003
35.68886565090076 23.2497
35.7122557598848 23.3471
35.73564740699838 23.3211
35.759040593519934 23.2914
35.78261809810353 23.1748
35.80601437933051 23.0303
35.829412203814705 22.9682
35.85281157283719 23.0142
35.876395313415884 23.0877
35.8997977874528 23.0041
35.92320180988546 22.9101
35.946790244133936 22.8687
35.97019737933222 22.9327
35.993606066789866 22.8623
36.01701630779276 22.7858
36.04061101440684 22.7403
36.06402437852291 22.8179
36.08743930005611 22.7533
36.1108557802951 22.6198
36.13445678011326 22.7067
36.15787639383515 22.5991
36.18129757014299 22.5961
36.20472031032821 22.5705
36.22832762423364 22.4288
36.25175350829375 22.474
36.275180960119776 22.3738
36.298609981005924 22.3819
36.32222362992669 22.3607
36.34565580510207 22.3892
36.36908955323448 22.2976
36.39252487562093 22.1887
36.416144880530226 22.2136
36.43958336764275 22.2412
36.463023432914625 22.1633
36.486465077645676 22.0268
36.51009145956204 22.213
36.53353627947859 22.136999999999997
36.55698268276811 22.1331
36.58043067073321 22.0445
36.60406345072071 21.8988
36.62751462435344 21.9463
36.65096738658405 21.9552
36.67460498210655 21.8879
36.69806093788647 21.8121
36.72151848619297 21.7396
36.744977628333636 21.816999999999997
36.76862165890998 21.7694
36.79208400512205 21.7588
36.81554794910557 21.6785
36.83901349217101 21.6156
36.862663978991606 21.6256
36.88613273667352 21.509
36.90960309738324 21.5229
36.933075062434064 21.4266
36.95673202673572 21.3858
36.98020721697122 21.4076
37.003684015502365 21.4015
37.027162423645365 21.2926
37.050825886711465 21.3383
37.07430753063053 21.3001
37.09779078812467 21.2901
37.121275660513014 21.2085
37.144945643673694 21.1874
37.16843376245278 21.1654
37.19192350009803 21.1984
37.215414857931435 21.1261
37.239091382563885 21.0259
37.262585997426164 21.0362
37.28608223645736 21.0654
37.309763684451696 20.9666
37.33326318851098 20.9022
37.356764320726555 20.8964
37.380267082425526 20.8775
37.40395510942588 20.8126
37.42746114683234 20.8361
37.45096881771841 20.7802
37.474478123414166 20.7533
37.49817275092816 20.7084
37.52168534303452 20.7202
37.54519957395567 20.561
37.568715445024665 20.593000000000004
37.592416694607714 20.5155
37.61593586281424 20.596
37.63945667518264 20.663
37.66297913304891 20.4841
37.68668702630454 20.5008
37.710212792059274 20.4444
37.733740207334854 20.429000000000002
37.757269273470364 20.3228
37.780983832050374 20.2547
37.80451621684926 20.2208
37.82805025654007 20.2201
37.851585952464795 20.2013
37.8753071980695 20.1409
37.89884622345676 20.0936
37.92238690911902 20.1288
37.94611318753442 20.0439
37.969657210779765 20.0392
37.99320289834801 20.0518
38.016750251586465 19.9786
38.04048325513017 19.9595
38.06403395679343 19.9
38.087586328183946 19.8926
38.11114037065203 19.9309
38.13488012115898 19.8704
38.1584375229181 19.803
38.181996599821 19.7076
38.205557353221124 19.6994
38.229303872575656 19.7869
38.2528679961576 19.7095
38.27643380031219 19.6029
38.30000128639589 19.5372
38.32375459653193 19.5889
38.34732546371299 19.5812
38.37089801690786 19.5451
38.39447225747609 19.5402
38.418232380377425 19.465
38.441810012983396 19.4582
38.46538933705673 19.3643
38.488970353960084 19.335
38.51273731166058 19.3714
38.536321731567014 19.3093
38.55990784840681 19.2404
38.58367995004091 19.2455
38.60726947812959 19.208
38.63086070726198 19.1209
38.654453638806274 19.206
38.678232613930824 19.0904
38.70182896773327 19.0168
38.72542702806741 19.0502
38.7490267963045 19.0553
38.77281266709232 19.0083
38.79641586862214 19.0204
38.8200207821842 18.8986
38.843627409152944 18.9269
38.86742019782782 18.8861
38.891030269149255 18.8584
38.914642058016156 18.7773
38.938255565806124 18.733
38.96205529464307 18.7102
38.98567225787121 18.694000000000003
39.00929094417078 18.7023
39.03291135492255 18.6997
39.05671804624804 18.6751
39.080341923549106 18.5839
39.103967529460334 18.5641
39.127594865365744 18.5334
39.15140854155791 18.5042
39.17503935514948 18.5383
39.19867190290282 18.4894
39.22249083587951 18.4547
39.24612686969409 18.4246
39.269764641845306 18.3638
39.293404153722804 18.3222
39.317230110864074 18.2204
39.34087311998506 18.3128
39.36451787301696 18.2736
39.388164371352595 18.2261
39.41199737518003 18.1826
39.43564738196752 18.1875
39.45929913825317 18.1342
39.48295264543308 18.0748
39.506792718520884 18.0551
39.530449745387216 18.0232
39.55410852735203 17.9448
39.57776906581474 17.9587
39.60161623079 17.9488
39.625280300200025 17.9607
39.64894613032202 17.8847
39.67261372255866 17.8967
39.6964680021016 17.8552
39.72013913657293 17.8989
39.74381203738292 17.855999999999998
39.76748670593756 17.8485
39.79134812278169 17.8169
39.81502634488497 17.727999999999998
39.83870633896685 17.7241
39.862388106436654 17.6345
39.88625668336918 17.6328
39.90994201572829 17.6288
39.933629125719285 17.5888
39.957503091207826 17.5502
39.9811937746168 17.5763
40.00488623990914 17.4586
40.02858048850006 17.3607
40.05246165409549 17.4078
40.076159487492085 17.3571
40.099859108448875 17.3519
40.123560518384345 17.2732
40.1474489070226 17.2889
40.171153913178564 17.2927
40.194860712584955 17.2695
40.2185693066637 17.2846
40.242464941335314 17.24
40.26617714307655 17.2483
40.289891143772046 17.1715
40.3136069448471 17.2024
40.33750984859743 17.1269
40.3612292688043 17.1022
40.3849504936829 17.0818
40.40867352466194 17.0192
40.43258372059144 16.9766
40.45631038219906 17.0034
40.48003885420956 16.9019
40.503769138055105 16.9042
40.52768664931955 16.9312
40.55142057531802 16.9041
40.57515631746428 16.8182
40.599079334038514 16.7938
40.62281872700477 16.7322
40.64655994043941 16.7444
40.67030297578061 16.7024
40.69423334835778 16.7273
40.71798004609188 16.6686
40.74172857006355 16.6599
40.76547892171441 16.6482
40.7894166736039 16.6343
40.813170699248566 16.5659
40.83692655691388 16.5462
40.86068424804498 16.5274
40.884629402612525 16.5632
40.908390779366385 16.4979
40.932153993938 16.401
40.95591904777605 16.3745
40.979871628443995 16.4452
41.003640379561936 16.3957
41.02741097430883 16.3465
41.05118341413683 16.332
41.075143444384416 16.287
41.098919593177826 16.3284
41.1226975914255 16.2681
41.14647744058318 16.2398
41.170444943946755 16.1112
41.19422851378379 16.1606
41.218013938914645 16.127
41.24198706625173 16.0494
41.26577622087193 16.0304
41.289567235177785 16.0244
41.31336011063129 16.0315
41.337340752422875 15.9533
41.361137369129835 15.9805
41.38493585138705 15.9071
41.40873620066004 15.907
41.43272438060107 15.9067
41.45652848292052 15.8203
41.48033445666918 15.8058
41.50414230331616 15.8237
41.528138045159764 15.79
41.551949656675205 15.7456
41.575763145513235 15.6948
41.59957851314666 15.7283
41.62358184070442 15.6552
41.64740098505737 15.6021
41.6712220126409 15.5923
41.69504492493139 15.5538
41.71905586207357 15.5495
41.74288256296395 15.5334
41.766711153007456 15.5024
41.79054163368412 15.485
41.814560204340054 15.4627
41.838394485526365 15.437999999999999
41.86223066180303 15.4201
41.88625497706819 15.3562
41.910094962812 15.385
41.93393684811168 15.3324
41.95778063445365 15.2628
41.981812625263366 15.2644
42.00566023303407 15.2362
42.029509746323676 15.1923
42.05336116662236 15.1835
42.077400857069705 15.1584
42.10125611078846 15.1706
42.12511327600405 15.1388
42.14897235421036 15.1112
42.173019768448455 15.0411
42.19688269209613 15.0382
42.22074753323349 15.0157
42.24461429335818 15.0004
42.268669455600495 14.9298
42.292540073217886 14.9324
42.31641261433284 14.9201
42.34028708044675 14.9165
42.36435001496739 14.9167
42.38822835065557 14.9092
42.41210861586426 14.8065
42.4359908120986 14.8129
42.46006154323262 14.7908
42.48394762115317 14.7204
42.507835634632315 14.7345
42.531912233047436 14.6908
42.55580413732265 14.6588
42.579697981698 14.6418
42.60359376768525 14.6426
42.62767820545945 14.6015
42.65157789440821 14.5797
42.67547952952185 14.4954
42.699383112316 14.5395
42.72347541395347 14.4754
42.74738291190531 14.4829
42.771292362102166 14.5097
42.795203766063516 14.4155
42.819303956130405 14.4281
42.843219287476536 14.3933
42.86713657716324 14.4177
42.89105582671383 14.3243
42.91516392983864 14.2881
42.939087119032166 14.265999999999998
42.963012272677304 14.2154
42.98693939230129 14.2484
43.01105543317513 14.1979
43.034986504731386 14.2101
43.05891954686589 14.1793
43.08285456110972 14.1216
43.10697856448665 14.068
43.130917542983475 14.036
43.15485849820081 14.0609
43.17880143167367 14.027000000000001
43.20293342237094 14.0401
43.226880332449 13.9481
43.25082922540554 13.9633
43.27496722682525 13.9764
43.29892010567796 13.9295
43.32287497204102 13.8571
43.34683182745632 13.8339
43.370977859791836 13.857000000000001
43.39493871351105 13.8418
43.41890156092628 13.8513
43.44286640358341 13.7508
43.46702049182749 13.7188
43.49098934522816 13.7065
43.51496019852649 13.7134
43.5389330532723 13.7007
43.56309522248204 13.6663
43.58707210044314 13.6549
43.61105098451946 13.6046
43.63503187626491 13.5972
43.659202151562134 13.5506
43.68318707902681 13.5637
43.70717401884041 13.5126
43.731162972560874 13.4775
43.75534137913236 13.4372
43.779334381108384 13.4051
43.803329401683186 13.4009
43.82732644241872 13.3955
43.8515130055166 13.3621
43.87551410707659 13.3356
43.89951723350145 13.3433
43.923709934595614 13.3261
43.94771713129917 13.3326
43.97172635758096 13.2682
43.99573761501002 13.2456
44.0199385169922 13.1988
44.04395385732619 13.2041
44.067971233533086 13.1991
44.09199064718605 13.1346
44.11619977548961 13.0728
44.14022328470671 13.0598
44.16424883610785 13.1282
44.18827643127035 13.0729
44.21249381139513 13.0488
44.236525514814076 13.0014
44.26055926674478 12.987
44.28459506876863 12.9534
44.3088207262813 12.9555
44.33286064928722 12.9085
44.35690262714919 12.9079
44.38094666145278 12.9251
44.4051806219871 12.9142
44.42922879003185 12.8806
44.45327901929361 12.8131
44.477331311362136 12.8326
44.501573600619416 12.7438
44.525630039221795 12.7273
44.54968854541895 12.7037
44.573937102200176 12.6488
44.5979997645541 12.6612
44.622064499300315 12.6533
44.64613130803592 12.6084
44.67038823869318 12.6425
44.69445921643748 12.5243
44.718532272981385 12.5095
44.742607409926194 12.5631
44.76687274034801 12.5307
44.79095205918753 12.4864
44.81503346325094 12.4547
44.839116954143876 12.4463
44.86339071028742 12.4432
44.88747839599524 12.4234
44.91156817336837 12.4066
44.93566004401666 12.3665
44.959942251908146 12.3121
44.984038330325966 12.2951
45.00813650686762 12.2606
45.03223678314731 12.2413
45.05652746888232 12.269
45.08063196592069 12.2675
45.104738567558705 12.2059
45.128847275414856 12.1773
45.15314646515866 12.1529
45.17725940679741 12.1505
45.20137445952892 12.1233
45.22568004865265 12.0794
45.24979934496396 12.0801
45.27392075725247 12.1021
45.29804428714431 12.055
45.322358426247604 12.0192
45.346486212804315 12.0097
45.370616121861914 11.9787
45.39474815505086 11.9455
45.41907087049246 11.890999999999998
45.4432071734666 11.9126
45.46734560548283 11.9123
45.49148616817604 11.8867
45.51581748638564 11.8274
45.5399623320197 11.8239
45.56410931325473 11.8133
45.58825843173002 11.8096
45.61259837920865 11.8059
45.636751793816 11.7707
45.66090735060093 11.7333
45.68506505120716 11.6917
45.7094136545275 11.684000000000001
45.73357566449271 11.6518
45.75773982322992 11.6692
45.78190613238733 11.6667
45.806263418194064 11.5554
45.83043404997326 11.5778
45.85460683713677 11.5754
45.87897065658495 11.5334
45.90314777634752 11.5233
45.92732705646868 11.5008
45.9515084986045 11.5227
45.97588104735473 11.4821
46.00006683541565 11.4207
46.02425479047904 11.4244
46.04844491420549 11.4119
46.0728262191024 11.3914
46.09702070211635 11.4102
46.12121735879483 11.3538
46.14541619080294 11.3368
46.169806278764455 11.3011
46.194009483459034 11.2852
46.21821486849841 11.2642
46.24242243555223 11.2276
46.266821333570014 11.2052
46.29103328674601 11.1794
46.31524742696538 11.1706
46.33946375590237 11.1425
46.36387149104216 11.154000000000002
46.38809221957392 11.0914
46.41231514186606 11.0951
46.436540259597464 11.1019
46.460956858999374 11.0674
46.48518638983522 11.0267
46.509418121166966 10.9952
46.533652054678114 10.9933
46.55807754555709 11.0116
46.58231590571962 10.9802
46.60655647313217 10.8985
46.630988654873654 10.9385
46.655233659129024 10.8973
46.67948087571551 10.8546
46.70373030632484 10.8263
46.72817142736393 10.8173
46.752425308428684 10.7992
46.77668140861147 10.761
46.80093972960865 10.7382
46.82538981736788 10.7455
46.849652602470904 10.7549
46.87391761349769 10.7263
46.8981848521493 10.6884
46.9226439341274 10.6588
46.946915650573224 10.6231
46.97118959976749 10.6325
46.99546578341598 10.5854
47.019933887188216 10.5625
47.04421456235744 10.5993
47.06849747711879 10.5444
47.09278263318286 10.5092
47.11725978640143 10.4849
47.14154944775105 10.4956
47.165841355555656 10.498
47.1901355115306 10.4456
47.214621741924994 10.4685
47.23892041698887 10.4309
47.26322134538975 10.3966
47.28771440635075 10.3654
47.31201986422527 10.3628
47.33632758061436 10.3334
47.360637557241866 10.3232
47.38513974410611 10.304
47.40945426407847 10.3057
47.43377104948137 10.2812
47.45809010204344 10.2563
47.48260144275502 10.2551
47.506925052572285 10.2029
47.53125093475548 10.1394
47.55557909103813 10.1837
47.58009961361992 10.1435
47.60443234110732 10.1213
47.62876734791564 10.1222
47.65310463578333 10.1045
47.6776343683373 10.0708
47.7019762413987 10.0448
47.72632040075572 10.0402
47.75066684815169 10.0527
47.77520581885936 9.99345
47.799556865477655 9.99063
47.823910205386 9.96429
47.84826584033272 9.94482
47.87281407745551 9.90325
47.89717432569297 9.94871
47.92153687423484 9.8864
47.94609208429692 9.8641
47.97045925671401 9.83762
47.99482873471275 9.877139999999999
48.01920052005013 9.837439999999999
48.04376504619224 9.77172
48.068141469543484 9.81395
48.09252020552573 9.766539999999999
48.11690125590099 9.767999999999999
48.1414751266064 9.7547
48.16586082917454 9.72922
48.19024885144316 9.70138
48.2146391951793 9.69998
48.239222439012764 9.66108
48.26361744916137 9.64958
48.28801478610016 9.69588
48.31241445160131 9.60529
48.337007097209366 9.55655
48.36141144338331 9.58237
48.38581812345755 9.565710000000001
48.41022713920929 9.560030000000001
48.434829215320704 9.52854
48.45924292604658 9.53642
48.48365897780325 9.51595
48.50807737237308 9.47558
48.532688907799276 9.44872
48.55711201168574 9.39502
48.581537463754074 9.40131
48.60615611725119 9.39132
48.63058628942721 9.37492
48.65501881516546 9.41136
48.6794536962573 9.31405
48.70408185970339 9.327910000000001
48.72852147531801 9.314
48.75296345168211 9.29396
48.77740779059232 9.25783
48.80204549302823 9.26927
48.82649458091802 9.253680000000001
48.85094603676547 9.24025
48.87539986237231 9.22425
48.90004713292306 9.21645
48.92450572200832 9.19163
48.94896668628025 9.15903
48.97343002754588 9.12758
48.99808689542115 9.12905
49.02255501470614 9.17342
49.04702551642794 9.13993
49.0714984023988 9.07373
49.096164896893235 9.05337
49.120642575466796 9.02331
49.145122643748394 9.06282
49.16960510355558 8.99852
49.19428125404938 9.00145
49.2187685210852 8.9614
49.243258185121555 8.97161
49.26794160167084 8.94903
49.2924360839405 8.9331
49.31693296869764 8.88781
49.34143225776915 8.89673
49.36612538195438 8.83261
49.39062950396021 8.8549
49.41513603578346 8.84789
49.4396449792564 8.774460000000001
49.46434784069503 8.83272
49.488861631846454 8.7468
49.513377840166804 8.76667
49.537896467493745 8.74971
49.56260909589029 8.74697
49.587132585683285 8.773530000000001
49.611658500018365 8.66613
49.636186840738596 8.68365
49.66090926588511 8.69647
49.685442483902584 8.618780000000001
49.70997813385706 8.59597
49.734516217597076 8.59267
49.75924846937352 8.61786
49.7837914452858 8.59493
49.80833686055187 8.537519999999999
49.83288471702571 8.52863
49.85762682540054 8.53945
49.882179588965734 8.54508
49.9067347993235 8.504660000000001
49.93129245833333 8.538789999999999
49.95604445336378 8.48069
49.98060703442832 8.444560000000001
50.005172069746266 8.43041
50.02993150438364 8.41411
50.05450147301533 8.41606
50.07907390151433 8.38619
50.10364879174981 8.36318
50.12841816587289 8.338230000000001
50.1529980044635 8.34343
50.17758031042124 8.35821
50.20216508562089 8.29882
50.22694442953363 8.27174
50.25153416817468 8.2359
50.27612638170508 8.264380000000001
50.300721072005196 8.22109
50.325510416102105 8.22236
50.350110084975064 8.21947
50.37471223628208 8.2029
50.39931687190919 8.187339999999999
50.424116246675766 8.162
50.44872587605249 8.16553
50.47333799543065 8.12097
50.49795260670191 8.10109
50.52276204271512 8.10394
50.54738166295838 8.07128
50.57200378079314 8.092830000000001
50.596628398116835 8.044960000000001
50.62144792604559 8.04544
50.646077567609396 8.01399
50.670709714377715 8.04531
50.69553683636198 7.98573
50.72017401885922 7.97365
50.7448137122895 7.967039999999999
50.76945591856022 7.92242
50.79429318636823 7.905819999999999
50.818940443716784 7.925089999999999
50.84359021965163 7.8865300000000005
50.868242516085964 7.90738
50.893089960641895 7.86468
50.917747323549435 7.85067
50.94240721271973 7.836939999999999
50.96706963007175 7.8274300000000006
50.99192728239342 7.8063
51.01659478166073 7.81168
51.04126481489051 7.795669999999999
51.06593738400761 7.7611
51.090805275207074 7.71213
51.11548294172845 7.707160000000001
51.14016314993547 7.7229
51.164845901758845 7.71215
51.18972406304274 7.69185
51.21441192780656 7.6452800000000005
51.23910234200271 7.627839999999999
51.2637953075678 7.67099
51.288683770237945 7.60686
51.31338186432707 7.564030000000001
51.33808251561888 7.623639999999999
51.362978729967345 7.59563
51.387684521509755 7.555389999999999
51.41239287610203 7.5393
51.437103795691165 7.5503100000000005
51.46201036644977 7.49419
51.486726441956634 7.501930000000001
51.51144508832545 7.487760000000001
51.536166307509156 7.4774899999999995
51.56108326624387 7.475280000000001
51.58580965706056 7.44568
51.61053862657523 7.441669999999999
51.635270176746864 7.40423
51.66019755512065 7.404710000000001
51.68493429268881 7.361089999999999
51.70967361681515 7.35075
51.73441552946465 7.33855
51.759353359237934 7.36384
51.7841004750961 7.36724
51.80885018539685 7.337999999999999
51.833602492111254 7.2971
51.8585508051424 7.30538
51.883308330926425 7.245010000000001
51.90806845906181 7.2213199999999995
51.932831191525715 7.22986
51.95779001977161 7.18195
51.98255798721516 7.19385
52.00732856494335 7.1839
52.03229530577543 7.19822
52.057071130455945 7.16011
52.081849571391054 7.17058
52.106630630568695 7.12332
52.13160794279417 7.07448
52.15639426492067 7.0878
52.18118321127822 7.141260000000001
52.205974783860896 7.0602800000000006
52.23096269971011 7.05082
52.255759551287994 7.0269699999999995
52.280559035098186 7.00597
52.30536115314103 6.9927
52.33035970494467 6.992030000000001
52.35516711807904 6.98043
52.37997717147198 6.94734
52.40478986713005 6.95235
52.42979908731974 6.927639999999999
52.454617094216 6.933110000000001
52.47943774942214 6.9002300000000005
52.50426105495102 6.89692
52.529280976059844 6.8700600000000005
52.554109609024096 6.869910000000001
52.57894089837482 6.88059
52.60377484613117 6.850230000000001
52.62880550079408 6.84103
52.65364479223379 6.79777
52.67848674816189 6.77648
52.70352547971946 6.73802
52.72837279155837 6.7784
52.753222773982785 6.7253
52.778075429022984 6.741739999999999
52.80312495150885 6.73261
52.827982978797436 6.73049
52.85284368481815 6.7015
52.87770707160767 6.6718399999999995
52.90276741793998 6.6548
52.92763619336701 6.632639999999999
52.952507655698504 6.602939999999999
52.977381806977576 6.58392
53.00245301017842 6.610989999999999
53.02733256653592 6.562310000000001
53.052214817996074 6.55923
53.077099766608484 6.56878
53.102181859804446 6.571619999999999
53.127072229988265 6.559539999999999
53.15196530349892 6.55198
53.17686108239249 6.49391
53.20195409881522 6.4746
53.22685531582556 6.47206
53.25175924441303 6.45234
53.27666588664027 6.45841
53.30176985962693 6.419569999999999
53.3266819565689 6.38149
53.35159677336455 6.3955
53.376514312083096 6.41815
53.40162927507703 6.38589
53.42655228516116 6.3849800000000005
53.45147802340193 6.35427
53.47660125628886 6.3105400000000005
53.50153247842639 6.33384
53.52646643496923 6.29338
53.55140312799818 6.28426
53.576537409691696 6.304130000000001
53.60147960336152 6.29548
53.626424539786164 6.29113
53.65137222105307 6.31334
53.67651758529126 6.287730000000001
53.70147078399681 6.19555
53.72642673383343 6.22525
53.75138543689533 6.21625
53.776541917524526 6.19249
53.801506154876755 6.19765
53.826473151763246 6.182169999999999
53.851442910284916 6.13425
53.87661054126026 6.12367
53.9015858509782 6.13509
53.92656392866066 6.1163
53.95154477641532 6.113119999999999
53.976723591801296 6.087680000000001
54.00171000771266 6.08585
54.02669920004598 6.031000000000001
54.051691170915745 5.96925
54.076881204886796 6.02864
54.101878760928514 6.00088
54.12687910187696 5.98229
54.152077577768296 5.9682900000000005
54.1770835166946 5.95335
54.20209224691339 5.93684
54.22710377055121 5.97818
54.25231352511594 5.94224
54.27733066384342 5.88204
54.30235060239643 5.8764400000000006
54.32737334290836 5.88326
54.35259441062629 5.87127
54.377622783395324 5.8680699999999995
54.40265396455061 5.8592900000000006
54.42768795623251 5.81982
54.45292037169559 5.77541
54.477960012857906 5.79475
54.50300247099511 5.75893
54.52804774825457 5.72508
54.55329154616743 5.74322
54.57834249018678 5.68886
54.6033962597977 5.68705
54.6284528571545 5.71285
54.653708072335164 5.6603699999999995
54.67877035378786 5.62175
54.70383546947698 5.61665
54.72890342156389 5.62662
54.7541700889442 5.61831
54.77924374251975 5.55154
54.8043202390049 5.52108
54.82959552413022 5.50448
54.8546777351945 5.50407
54.87976279569621 5.4535599999999995
54.90485070780914 5.5170900000000005
54.930137506558005 5.40206
54.95523115074295 5.4051599999999995
54.98032765308844 5.37841
55.005427015775496 5.40501
55.03072536339621 5.41179
55.05583047570572 5.35741
55.080938454927676 5.28529
55.10604930325027 5.31884
55.131359235107396 5.3453800000000005
55.15647585066083 5.2268099999999995
55.181595341907496 5.20374
55.20671771104285 5.19825
55.232039262617704 5.1597800000000005
55.25716741665048 5.10191
55.28229845518636 5.13587
55.30743238042802 5.12531
55.33276558731939 5.0582400000000005
55.357905315183636 5.05294
55.383047936390035 5.0305
55.40819345314859 5.03728
55.433538351073295 5.03003
55.458689688238415 4.99083
55.483843927614096 4.95752
55.509197623043605 4.92408
55.53435769621134 4.96286
55.55952067826466 4.89809
55.5846865714265 4.84886
55.61005202069737 4.812880000000001
55.63522376553902 4.81806
55.66039842818645 4.82116
55.68557601087004 4.7906
55.7109532500271 4.69787
55.73613670233794 4.8208400000000005
