TT I
1.2716486653135266 7.45525
1.2939594142134223 7.044569999999999
1.3162702121660406 7.03308
1.3385810600174564 6.713189999999999
1.3608919586137629 7.1405
1.383202908801069 6.86424
1.405513911425503 6.23731
1.4278249673332093 6.2629
1.4501343378461518 6.17629
1.4724455028545926 5.97422
1.4947567236847858 6.48194
1.517068001182951 6.1980699999999995
1.5393793361953272 5.87219
1.5616907295681737 5.51274
1.5840021821477681 5.0231699999999995
1.60631369478041 5.6493400000000005
1.6286252683124185 5.47053
1.6509369035901333 4.620769999999999
1.6732468618895553 5.218
1.695558623192809 4.83172
1.7178704487808514 5.2150300000000005
1.7401823395001077 5.47907
1.7625012545597203 5.30166
1.7848028405262486 5.429530000000001
1.8071218901122095 5.3434800000000005
1.8294236121921872 4.5667599999999995
1.8517427996910911 4.82386
1.8740620574440425 4.89625
1.8963639900671978 4.89
1.9186833908139995 4.566409999999999
1.9409854680117449 5.18652
1.9633050151394713 5.17858
1.9856246367570705 4.64061
2.0079269371922672 4.41933
2.03024671027244 4.75237
2.0525491637446027 4.58721
2.074869091674931 4.56926
2.097171701569106 4.39075
2.1194917877373847 4.39889
2.141811954326636 4.94561
2.164114805233074 3.82944
2.186435135143035 4.86564
2.208738150935709 8.14432
2.231058647554722 13.7788
2.2533792288321184 10.6493
2.275682498336085 6.72955
2.298003251406138 5.229019999999999
2.3203066942619714 5.46411
2.3426276225136022 4.370369999999999
2.3649486396617507 4.2293199999999995
2.387252348930071 5.35438
2.4095735463442893 4.894080000000001
2.4318774374315884 5.26654
2.4541988185014043 5.22666
2.476502894794693 5.8136
2.498824462909887 6.0465599999999995
2.521146125856138 5.86923
2.5434504863470337 5.99137
2.5657723414244717 6.10355
2.588076895590662 6.908930000000001
2.610398946189713 7.282189999999999
2.6327210958598384 6.633489999999999
2.6550259469304716 6.82741
2.6773482972090137 7.029960000000001
2.6996533504259 7.45805
2.7219759047039602 7.87633
2.744298562293959 7.645519999999999
2.7666039251246595 7.12723
2.7889267918020164 7.647880000000001
2.8112323652516555 7.716360000000001
2.833555444408179 8.005
2.8558786311183852 7.6742
2.8781845268938557 8.29402
2.9005079311721484 8.511000000000001
2.9228140460410397 8.90881
2.9451376712799635 8.955630000000001
2.967444008632326 8.91951
2.9897678582247247 9.43207
3.0120918213106695 10.4005
3.0343984987899373 10.7251
3.0567226913198637 10.6535
3.079029599759726 11.2472
3.101354025127254 12.1767
3.123678568232338 12.1379
3.145985829517914 12.8984
3.16831061055229 13.0248
3.1906181112775593 14.5673
3.212943133635653 14.7678
3.2352682779763207 14.8913
3.2575761442691227 15.5219
3.2799015350264273 16.035
3.302209649240067 16.2383
3.3245352898092655 16.7149
3.3468436553365257 17.5414
3.369169549113219 17.2581
3.3914955708171384 18.5452
3.413804319727358 18.8409
3.4361305997334863 18.8173
3.4584396084414553 19.3647
3.4807661501462652 20.0438
3.503092824025881 20.7536
3.5254022288463154 21.2466
3.5477291695206588 21.4265
3.5700388426251948 22.276
3.5923660534916446 23.4018
3.6146934007816114 29.4648
3.637003482731501 51.4122
3.6593311053109985 55.0561
3.681641464033634 37.5639
3.7039693653009733 27.0086
3.726297407241705 25.971
3.7486081875460804 25.9273
3.7709365132734978 26.33
3.793247578841633 26.8147
3.8155761917550093 26.4713
3.8378875459837216 27.2487
3.8602164494827234 27.6618
3.882545499606844 28.2948
3.9048572932539183 29.3858
3.9271866390645718 29.3091
3.9494987298666713 29.9225
3.971828374764527 30.2841
3.9941581705403255 30.9276
4.016470713506008 31.9189
4.038800813471445 32.1813
4.061113662089144 32.868
4.0834440696459176 33.8387
4.105774632334751 34.2044
4.128087945865126 34.5587
4.150418821249301 35.5064
4.172732448931298 36.3386
4.195063640413578 37.5721
4.2173775856475215 40.2318
4.239709096631102 54.6037
4.262040768704612 120.448
4.284355196706267 154.908
4.306687193387355 109.875
4.329001947444346 59.036
4.35133427213731 45.4275
4.373666762177566 44.1931
4.395982011761091 44.3456
4.418314834921175 45.5548
4.44063041906622 49.3666
4.4629635787515625 54.4256
4.4852969080429785 55.0495
4.5076130004776225 52.7816
4.529946671403969 53.7342
4.552263106909177 54.1644
4.574597122877047 54.11600000000001
4.596931312711224 54.1538
4.619248269273446 54.6715
4.6415828092605835 55.4647
4.663900117405352 56.5783
4.686235010953232 58.2682
4.708552674085913 59.5438
4.730887924602802 61.0736
4.753223354952695 62.9815
4.775541557023902 64.8969
4.797877349456786 66.8409
4.820195915032126 68.6478
4.842532072957498 70.1747
4.864868414979744 72.7209
4.88718753227192 74.6182
4.909524244902505 76.8001
4.931843734218147 77.9958
4.954180820867835 80.7231
4.976518095879839 84.0794
4.998838149695359 87.2976
5.021175803844231 92.0152
5.043496238205739 95.6656
5.065834274903528 101.084
5.088172504230693 106.74600000000001
5.1104935158799565 115.406
5.132832132875765 135.64
5.155153533596801 168.745
5.1774925416746225 241.953
5.199814334878411 619.039
5.2221537374521505 1631.05
5.244493338631803 3697.07
5.266815727034316 7472.34
5.289155727832427 11311.4
5.311478517248165 8614.43
5.333818921080011 3275.12
5.356159527788849 706.2560000000001
5.3784829252032536 221.26
5.400823940070432 162.207
5.423147747031976 139.52
5.445489173474152 127.193
5.467830807066149 122.227
5.490155234831516 117.686
5.512497285125229 112.265
5.534822130975162 109.23200000000001
5.557164601388673 106.845
5.579489868738879 103.71799999999999
5.601832762690846 101.991
5.6241758697774475 100.51899999999999
5.646501775867269 99.8565
5.668845311622074 98.9629
5.691171647754637 98.6988
5.713515615597765 97.3196
5.735859800852677 96.5594
5.758186788542988 97.0065
5.780531411018185 98.0915
5.802858837297399 97.5679
5.825203900414495 98.1441
5.8475491852224 98.9118
5.869877275883075 99.8226
5.892223006467101 100.17399999999999
5.914551544266608 101.823
5.936897724049891 106.555
5.959244129804903 117.70700000000001
5.981573344815301 160.58700000000002
6.0039202049061 332.345
6.026249875609095 688.6080000000001
6.04859719346037 1289.81
6.070927323278297 2349.06
6.093275102315365 4061.26
6.115623113320588 4970.01
6.137953938319995 3350.45
6.160302415650845 1144.29
6.182633708324452 283.057
6.2049826554078376 126.14299999999999
6.227331838745022 99.2713
6.249663839443684 90.0255
6.27201349767565 84.9949
6.294345974611799 85.4636
6.316696111167083 88.1858
6.339046488263839 85.0474
6.361379686074702 77.226
6.383730546639482 73.0383
6.406064229255215 71.4905
6.428415576718203 71.1365
6.450749747566656 69.4924
6.47310158535871 67.9172
6.495453669698332 66.8397
6.517788579421056 66.1811
6.540141159237969 64.9001
6.562476565766648 64.5398
6.5848296444934045 64.4475
6.607182974060425 64.0377
6.6295191323281015 63.5916
6.651872965955752 64.3964
6.6742096296068985 73.9825
6.6965639707294615 92.8725
6.71891856698715 93.5396
6.741255995248479 75.1522
6.763611104154477 63.4155
6.785949046381137 60.0761
6.808304671371482 59.9539
6.8306605557940046 60.1846
6.852999275508618 58.726000000000006
6.875355681171544 58.4509
6.897694923437771 57.9776
6.92005185377892 57.3244
6.9423916220322655 57.5898
6.964749080490181 56.7319
6.987106804399774 56.7613
7.009447368180821 56.8324
7.031805625367033 56.8321
7.054146723727803 56.4525
7.076505517631004 56.0478
7.098864581288365 55.9622
7.121206488070854 55.9898
7.143566093607822 55.8923
7.165908543567245 56.5593
7.188268694426048 56.4077
7.2106291193438095 56.0597
7.232972390625943 56.4255
7.255333366030969 61.5858
7.277677189091925 82.5478
7.300038718428332 103.366
7.322400526130865 92.6155
7.344745183422596 70.0153
7.367107550224791 58.3441
7.389452767901992 56.3923
7.411815697249891 55.7261
7.434161478756298 54.821999999999996
7.456524974096713 54.8498
7.478888753837185 54.7925
7.501235387657368 55.1693
7.523599738562711 55.4966
7.545946944825532 55.9141
7.568311870344528 56.32
7.5906770845765665 56.4698
7.613025156078678 56.9167
7.635390950099687 57.4014
7.657739602662809 57.1397
7.680105979923558 56.7381
7.702472650212829 57.3954
7.724822180948224 57.0511
7.747189439655568 57.2361
7.769539560075357 57.4004
7.791907410653562 57.7495
7.81425812420825 57.7948
7.836626570110925 58.1472
7.858995315087906 59.0448
7.881346924933401 59.0414
7.903716270417482 59.6487
7.926068482028405 59.7742
7.948438431475253 60.4576
7.9708086843180235 61.4644
7.993161805171116 61.9318
8.015532667162402 62.2216
8.037886398416653 63.8994
8.060257873014221 64.0366
8.082629655331942 64.4607
8.104984308787587 65.6095
8.127356708900503 67.6593
8.149711981398308 71.3378
8.172085002766314 73.0145
8.194458336181368 71.7551
8.216814543847752 70.8683
8.23918850371002 71.3933
8.26154533906492 72.7039
8.283919928836452 74.3616
8.306277395339652 75.3084
8.328652618483376 76.764
8.351028159736202 78.6323
8.373386579575245 81.4903
8.395762759396959 83.2637
8.418121819038275 87.4541
8.440498640894003 96.525
8.462875785192262 110.461
8.485235811156207 147.17600000000002
8.507613602688501 229.71200000000002
8.529974277114228 349.80400000000003
8.552352719347912 507.05800000000005
8.574731488360351 769.377
8.59709314210385 1194.2
8.619472567021075 1726.93
8.64183487789147 2091.09
8.664214962183097 1830.92
8.686577933647762 1035.28
8.708958680784317 412.67400000000004
8.731339760774953 179.446
8.753703729764451 118.22200000000001
8.77608547780821 103.84700000000001
8.798450116065078 99.3473
8.820832535634787 96.0747
8.843215292401656 94.7746
8.865580941199045 93.4287
8.887964374703538 92.6317
8.910330701447199 92.3834
8.932714815164482 92.4632
8.955099270424924 90.8122
8.977466620733543 88.6358
8.999851761421976 87.069
9.022219798361645 86.3569
9.04460562795561 85.7033
9.066991803441677 85.8154
9.089360876979615 85.9846
9.111747746589993 85.5808
9.13411751544971 84.624
9.156505082664324 84.6449
9.178875550323522 84.4902
9.20126381862328 84.51299999999999
9.223652438908596 84.8663
9.246023961427412 84.6499
9.26841328802173 84.1141
9.290785518039224 84.6608
9.313175554425882 86.0422
9.335565947154315 86.3655
9.357939245086508 86.0631
9.380330352834827 86.1123
9.40270436697103 86.37299999999999
9.425096193225055 86.0058
9.447488380180165 86.6679
9.469863475295412 86.7598
9.492256385987508 87.3188
9.514632206018318 87.8574
9.537025843935714 87.9737
9.559402392368193 89.3245
9.581796761000229 90.9197
9.604191496441521 92.0169
9.626569144158516 93.7944
9.648964615551032 95.8484
9.671343000390081 96.6038
9.693739211225699 96.4712
9.716135793237463 95.5533
9.738515290448102 96.15700000000001
9.760912617143402 97.2573
9.783292860202891 99.0908
9.805690935076182 100.588
9.828089385495742 101.631
9.850470754023561 103.80799999999999
9.872869957865444 108.29899999999999
9.89525208097539 116.18799999999999
9.917652041736662 125.28
9.940052382417589 136.252
9.962435644102392 175.44299999999998
9.984836746950979 241.488
10.007220771957746 326.816
10.029622640473708 446.892
10.052007432299963 629.116
10.074410069984072 873.915
10.096813093716005 1216.04
10.119199042482517 1598.64
10.141602840636468 1852.73
10.163989564971628 1613.8
10.186394141051062 993.313
10.208799107559706 454.306
10.231187001965623 207.049
10.253592751657669 134.125
10.275981430388155 118.056
10.298387966769793 114.09100000000001
10.320794897965431 114.235
10.343184759907361 112.53
10.36559248305461 109.45
10.387983138083852 109.958
10.410391656691655 120.29899999999999
10.432800574501677 138.3
10.455192425893369 159.149
10.47760214443012 188.93200000000002
10.499994797678786 232.791
10.522405320453982 300.849
10.54479877906917 390.051
10.567210109595656 482.45300000000003
10.5896218454736 554.378
10.612016518879773 512.27
10.634429067781074 363.00699999999995
10.656824555333241 210.825
10.679237920773568 128.437
10.701651695961992 99.6411
10.724048411481384 92.1865
10.746463008485165 89.0887
10.768860546937125 87.4261
10.791275969274796 85.4354
10.81369180576079 84.1139
10.836090585366925 83.0552
10.858507252467449 82.0707
10.88090686379991 81.0632
10.903324365036394 80.2392
10.925724811614439 79.6222
10.948143150509463 80.0967
10.970561909719066 79.1694
10.992963615930844 78.1592
11.015383218085756 76.5285
11.037785768347074 75.2171
11.06020621697282 74.4702
11.082627090322113 74.2338
11.105030913430326 73.4065
11.12745263854165 73.0712
11.149857314510728 74.1106
11.172279894912576 76.6192
11.194702904450653 76.2033
11.217108866490921 74.4681
11.239532736615194 72.3551
11.26193956033512 71.0205
11.284364294577085 70.5003
11.306789462371718 69.1213
11.329197585398376 68.6931
11.351623622610898 68.4804
11.37403261614354 67.8502
11.396459526308487 67.872
11.418869393879497 67.4778
11.441297180532617 66.6152
11.463725406927658 66.3642
11.486136592353875 66.1431
11.508565700543707 66.1922
11.530977768845315 67.2304
11.553407762368774 66.908
11.575838200059769 66.9028
11.598251599479612 65.8409
11.620682927815501 65.128
11.64309721895548 65.1886
11.665529441478206 64.6825
11.687962112597958 64.5909
11.710377748130886 64.58
11.732811318753434 64.2618
11.755227854859067 64.3319
11.777662328529495 64.204
11.800079768750786 64.1094
11.822515149015453 63.9745
11.844950984084935 64.3007
11.867369787303163 64.0104
11.889806534289491 64.2376
11.912226250487029 64.4295
11.934663912939751 64.4643
11.9571020346363 64.6429
11.979523127133968 64.9284
12.001962169624331 66.5267
12.024384183972964 69.1258
12.046824150809913 74.1572
12.069264581333726 80.3191
12.091687985297767 87.0372
12.11412934550045 96.5165
12.136553680195208 109.939
12.158995973632788 129.10299999999998
12.181438735204349 151.941
12.20386447284199 177.75599999999997
12.226308172985636 202.925
12.24873485024193 202.89700000000002
12.271179492516982 172.334
12.293607112949127 131.062
12.316052700916226 95.0717
12.338498763250042 76.8383
12.360927805303868 69.4351
12.383374818673879 67.0573
12.405804812803074 65.8834
12.428252780773262 65.6711
12.45070122756722 66.1278
12.473132656675375 65.8926
12.49558206341869 65.9941
12.518014453510101 66.1482
12.540464823770117 66.3444
12.562915677315177 66.3524
12.58534951575545 66.8976
12.607801338171472 67.4374
12.630236146511358 69.6898
12.652688941369085 72.1914
12.675124723177234 72.8101
12.697578494048786 71.6243
12.720032754458185 69.8773
12.742470003354093 69.2863
12.764925245138771 69.5133
12.787363476431278 69.9119
12.809819703166806 70.3398
12.83227642391173 71.0183
12.854716135692716 71.6778
12.877173846755147 72.8954
12.899614549869717 73.1925
12.9220732548287 74.11399999999999
12.94453245827299 74.7579
12.966974655289818 75.79899999999999
12.989434858002571 76.6728
13.011878055298721 77.3544
13.034339260862497 78.4571
13.056800969391883 80.0429
13.079245674017244 83.2844
13.101708390774869 88.6538
13.12415410463411 100.45200000000001
13.146617833206086 114.699
13.169064559883248 129.086
13.191529303857127 145.878
13.213994557076367 169.96400000000003
13.236442809902437 204.4
13.258909083908291 248.274
13.28135835851934 295.904
13.30382565690295 352.131
13.326293469022952 401.43
13.348744283242008 421.148
13.371213125129904 367.31199999999995
13.39366497011003 276.16
13.416134845360597 185.76
13.438605238843131 132.306
13.46105863690397 116.634
13.483530069144786 118.684
13.505984506951902 125.697
13.528456981549432 137.516
13.550929978879088 152.873
13.573385983253365 175.687
13.595860028340867 206.632
13.618317081455832 245.283
13.64079217790333 290.874
13.663250283359057 334.134
13.685726434770173 362.57
13.708203115221277 344.226
13.730662806148091 276.763
13.75314054697177 198.516
13.775601299246777 135.747
13.798080104050406 101.916
13.820559442405358 88.295
13.843021793671388 84.1244
13.865502201420897 82.414
13.887965623051947 82.2714
13.910447103807167 80.9177
13.932929122629764 79.3302
13.955394156785959 78.8938
13.977877254034569 77.9738
14.000343367582113 77.236
14.022827546871707 76.3351
14.045294743423524 75.9194
14.06778000837062 74.9692
14.090265817715476 74.9472
14.112734645763819 74.5556
14.13522154619454 74.0193
14.157691466286913 74.0705
14.180179461423874 73.7424
14.202668005486178 73.1577
14.22513957064374 72.7366
14.247629214846473 72.2076
14.270101881097517 72.1342
14.29259262906496 71.9498
14.315083930490205 72.2357
14.337558255389705 72.4073
14.360050666019726 72.1218
14.382526101071944 71.6648
14.405019624534942 71.1849
14.427513705993134 70.9257
14.449990813291825 70.7436
14.47248601302899 70.5638
14.49496423954951 70.7373
14.517460561197822 71.0236
14.539939910570322 70.7299
14.562437357763558 71.1199
14.58493536931253 71.7106
14.607416409993311 72.0317
14.62991555254159 72.6588
14.652397725157423 72.8785
14.674898002342799 72.7171
14.697398848433282 72.7086
14.719882725991326 74.2099
14.74238471217934 77.0513
14.764869730765593 82.5389
14.787372860692983 86.9551
14.809876564079925 92.1338
14.83236330125751 98.8973
14.854868153850365 108.008
14.877356041159485 120.561
14.899862046604186 136.08
14.922351087688757 155.61
14.944858249632887 177.706
14.967365991421232 200.707
14.989856770231246 216.99200000000002
15.012365673994204 217.373
15.03485761569738 195.105
15.05736768508665 152.879
15.07987833888692 118.64
15.102372032001655 93.7108
15.124883856909658 79.4354
15.14737872204565 74.2343
15.169891721717274 72.6306
15.192405310371893 71.9816
15.214901940621196 72.0546
15.237416709527137 71.589
15.259914520936249 71.4051
15.282430473753607 70.8761
15.304947020131227 69.8148
15.327446610371178 69.5808
15.349964346154254 69.1163
15.372465126703139 68.6342
15.394984055556009 68.5462
15.417486030076159 68.2652
15.44000615566487 67.9118
15.462526881230803 67.8032
15.485030653812652 67.8032
15.507552581617434 67.7702
15.530057557334603 67.7948
15.55258069104857 67.7789
15.575104429329837 67.9366
15.597611216864632 68.1122
15.620136166564563 69.0029
15.6426441664095 71.3621
15.665170331202765 75.3901
15.687697105158826 78.9305
15.710206930593545 83.2936
15.732734925158933 88.0039
15.755245972089478 94.4127
15.77777519094324 103.59700000000001
15.800287463046663 115.225
15.822817909869592 129.906
15.84534897229804 145.097
15.867863089299354 164.199
15.890395385222186 181.149
15.912910736597423 191.262
15.935444269699861 186.075
15.957978423016485 160.817
15.980495633101265 129.847
16.003031029129367 100.927
16.02554948280019 79.9263
16.048086125229432 69.6965
16.070623392487107 66.4402
16.09314371869582 65.1094
16.11568223789321 63.9938
16.13820381691126 63.1778
16.160743591742527 62.6932
16.183283996022084 61.9217
16.205807461423195 60.9119
16.228349126881973 60.26
16.25087385432698 60.4208
16.27341678466365 59.89
16.29594277784926 59.5195
16.31848697676433 59.5048
16.341031811604868 59.4339
16.36355971058487 59.3603
16.3861058195587 59.1515
16.40863499352978 58.1464
16.431182380342005 57.8152
16.453730407713202 57.5395
16.476261501364792 57.1153
16.498810812136167 56.9922
16.52134319004079 56.968
16.54389378792203 56.8692
16.566445031001553 56.6624
16.588979342490088 56.6016
16.61153187824822 56.3302
16.634067483263312 56.2626
16.656621315414416 56.2775
16.679175797408888 55.8661
16.701713349928728 56.0544
16.72426913389191 56.196000000000005
16.74680798922351 56.2864
16.76936507887444 56.2025
16.791905240734874 56.2328
16.814463639794468 56.0384
16.837022695210294 56.1578
16.859564824093756 56.3586
16.882125194503903 56.7583
16.904668639217885 57.1647
16.927230328348003 57.2198
16.949792678493612 57.3821
16.972338104193863 57.215
16.994901778652235 57.0737
17.017448529496576 57.3232
17.040013531998152 58.0883
17.06257920018044 58.7138
17.0851279459922 59.533
17.107694947817667 60.4868
17.130245028099072 61.5071
17.15281336730298 62.8202
17.17536478578733 64.6302
17.19793446610687 66.7058
17.220504818648422 69.2656
17.243058251703697 71.7909
17.265629950971032 75.1654
17.288184731571736 78.8332
17.310757781306908 82.62799999999999
17.33333150794385 84.7856
17.355888317140174 83.194
17.37846339986244 79.3865
17.401021565958885 73.2619
17.42359800851343 68.2007
17.44617513265564 64.2799
17.468735341390783 61.8703
17.491261035594565 60.9345
17.51396340099364 60.6554
17.536490463869136 60.8192
17.559018209820174 60.8596
17.58154663977963 61.007
17.604251766089718 61.138999999999996
17.626781572227713 61.1783
17.64931206518155 61.4611
17.671843245885103 61.9293
17.69455114821572 62.0998
17.717083712612634 62.4511
17.739616967569667 62.8296
17.762150914021706 63.1878
17.78486160749854 63.3426
17.807396945166804 64.5883
17.829932977143503 66.4701
17.85246970436452 68.7017
17.875183204129467 71.1268
17.897721330097664 73.171
17.920260154126645 75.7172
17.942799677153296 79.1401
17.9655159983646 83.1228
17.988056927677544 88.3703
18.010598558807683 94.8781
18.033140892692916 102.542
18.05586005052525 110.81200000000001
18.07840379824407 120.124
18.10094825154059 130.696
18.12366954819864 139.80700000000002
18.146215420998306 142.547
18.16876200220057 136.536
18.191309292745153 124.06299999999999
18.214033452627167 110.697
18.236582170236648 97.3443
18.259131600016456 91.2276
18.281681742907335 89.58
18.304408781233683 91.8635
18.32696035875955 95.4632
18.349512652227624 99.1008
18.372065662579683 104.09700000000001
18.394795594587553 105.89299999999999
18.41735004715306 104.21
18.43990521943684 97.8827
18.46246111238171 88.7918
18.485193953325208 79.1256
18.507751296070428 71.7478
18.530309362314178 67.5991
18.552868153000343 65.3466
18.57560391815056 63.9901
18.59816416623245 63.4575
18.620725141597372 62.9608
18.643286845190268 62.6606
18.666025549835414 62.0454
18.688588718427933 61.4642
18.711152618092243 61.3021
18.73389353884365 60.8712
18.75645890921984 60.6598
18.77902501351406 60.153999999999996
18.801591852673102 60.2939
18.824335739722738 59.8051
18.846904057212626 59.6729
18.8694731124168 59.3634
18.89204290628315 59.2129
18.914789774966803 59.1421
18.937361054791623 58.8604
18.959933076131318 58.6511
18.982505839934877 58.5634
19.00525570560582 58.8481
19.027829963004184 58.4557
19.05040496572238 58.7401
19.072980714710468 58.8707
19.095733592739563 59.1531
19.11831084296757 59.6658
19.140888842324735 60.0701
19.16346759176222 60.3344
19.18622349753803 60.646
19.208803755869358 61.745
19.231384767143577 62.9375
19.253966532312948 64.4654
19.276725481241822 65.9574
19.29930876296784 67.8733
19.3218928014549 70.0054
19.34465404436217 72.3962
19.36723960516257 74.5661
19.389825925592426 76.9147
19.412413006605938 76.4316
19.43517731967805 73.9666
19.457765930683355 69.8422
19.48035530514408 65.2492
19.50294544401556 61.3943
19.525712842708348 58.4653
19.54830451925909 56.7288
19.570896963095727 55.6865
19.593490175174704 55.2141
19.616260674962184 55.4947
19.638855432416964 54.9001
19.661450960992624 55.1872
19.68404726164677 55.0251
19.706820878021247 54.8665
19.729418731756834 54.992
19.752017360452857 54.751999999999995
19.77461676506804 55.225
19.797393513540218 55.5015
19.819994478951667 55.8198
19.84259622316767 56.4282
19.8651987471481 56.8852
19.887978643247177 57.0981
19.91058273574792 57.5706
19.933187610901943 58.4712
19.955969879466828 59.7283
19.97857632894404 60.964
20.00118356396599 62.3984
20.023791585494575 64.03399999999999
20.046577028914875 66.4784
20.069186632506966 68.3
20.091797025500632 70.2869
20.114408208858933 71.4917
20.137196842715273 71.9471
20.159809615886765 70.6411
20.18242318232135 68.3618
20.20503754298326 66.0849
20.227829382875154 64.3334
20.250445341109344 63.5745
20.27306209647285 63.821000000000005
20.29567964993108 64.4873
20.31847471147704 65.5415
20.34109387027612 66.6891
20.363713830075454 66.866
20.386334591841646 65.8765
20.409132890679302 63.4027
20.431755265564437 60.2779
20.454378445325528 57.3079
20.477002430930366 55.0928
20.499803982716553 53.4599
20.522429589228004 52.6497
20.54505600449589 52.1976
20.567683229489194 52.158
20.590488049900088 51.9756
20.61311690359731 51.5228
20.63574656993626 51.2143
20.658553853717297 51.0076
20.681185154618298 50.8954
20.703817271080066 50.8128
20.72645020407368 50.5245
20.749260783967177 50.4199
20.771895359337133 50.336000000000006
20.794530754161617 50.3564
20.817166969412938 50.278
20.83998086114876 50.1099
20.86261872660049 50.2418
20.885257415405402 50.0817
20.90789692853701 50.1229
20.930714147864748 49.9651
20.953355319030678 50.1079
20.97599731745334 50.0981
20.99864014410749 50.0275
21.021460706796564 50.052
21.044105199328826 50.25899999999999
21.06675052302631 50.4106
21.089396678865015 50.5915
21.112220600704806 51.0569
21.134868430275347 51.4085
21.15751709492456 51.4558
21.180166595629693 51.6875
21.202993892429635 51.8237
21.22564507473034 52.2735
21.24829709602816 52.7803
21.27112693608965 53.0673
21.293780644891275 52.9349
21.316435195634053 52.3016
21.339090589297417 51.6389
21.361923832041875 51.0155
21.384580921090404 50.4535
21.407238856007325 49.9031
21.429897637773326 49.8768
21.45273429906592 49.9355
21.475394784108598 49.8948
21.498056118951983 49.784
21.520718304578022 50.1301
21.543558400304388 50.2382
21.566222297108816 50.5777
21.58888704765135 50.8758
21.61155265291521 51.196999999999996
21.63439619898156 51.6999
21.657063523335786 52.0138
21.67973170537063 52.3929
21.7024007460706 52.97
21.72524775840385 53.8149
21.747918526116475 54.8824
21.770590155457388 56.0089
21.79326264741238 57.395
21.816113141960237 58.7868
21.838787368860547 60.0358
21.861462461341976 61.6374
21.884315579735777 63.3344
21.90699241312273 64.956
21.92967011506078 66.094
21.95234868653799 66.3735
21.9752053151131 65.3024
21.997885635446785 63.475
22.020566828293532 61.277
22.04324889464272 59.3235
22.066109049404666 57.7641
22.088792872571794 57.0219
22.111477572219204 57.2736
22.1341631493376 57.3375
22.157026846313123 57.3165
22.179714188221507 56.7377
22.202402410582668 55.8268
22.22509151438863 54.4465
22.24795876962584 53.0654
22.270649646204486 52.0016
22.293341407213727 51.3039
22.316034053646906 50.7839
22.338904883215342 50.2885
22.36159931041458 50.291000000000004
22.38429462602756 50.3337
22.40699083104897 50.2522
22.429865251039757 50.0647
22.452563244831367 50.0984
22.47526213102522 50.0744
22.49813925616515 50.07899999999999
22.520839937143307 49.9882
22.543541513520587 50.023
22.56624398629403 50.0513
22.589124730075895 50.0841
22.611829005656723 50.269
22.63453418063466 50.4028
22.657240256008077 50.7408
22.680124634582935 50.8372
22.70283252079775 51.1805
22.725541310413075 51.3237
22.74825100442868 51.5281
22.771139033969575 52.2307
22.79385054687155 52.3556
22.81656296718292 52.9827
22.83927629590484 53.6903
22.862167992606945 54.3327
22.88488314827121 55.4156
22.907599215359284 56.1211
22.93031619487366 57.0177
22.953211574954405 57.8379
22.975930389478226 58.8345
22.998650119445763 59.3786
23.02137076586092 58.9201
23.044269845560063 57.836000000000006
23.06699233506288 56.2427
23.089715744034912 54.3703
23.112617610931565 52.4996
23.135342869061212 51.34
23.158069049684816 50.7832
23.1807961538087 50.2846
23.20370174880544 50.3819
23.226430710184808 50.3159
23.249160598093425 50.5098
23.271891413539002 50.6265
23.294800752937697 50.6525
23.31753343374794 50.768
23.340267045128353 50.9567
23.36300158808808 51.3491
23.38591468821339 51.6592
23.408651104658304 52.0375
23.431388455719986 52.6462
23.454126742409 53.1825
23.4770436196085 54.0376
23.499783787914662 54.8964
23.522524894889884 55.6986
23.54526694154616 56.4218
23.56818761219047 57.768
23.59093154860734 58.3695
23.613676427751283 59.2107
23.636422250635754 58.6263
23.659346731118656 57.2038
23.68209445191868 55.5038
23.704843119509587 53.2751
23.72759273490623 51.1556
23.750521041644767 49.6428
23.77327256312355 48.6784
23.796025035462787 47.9841
23.818956224555475 47.3407
23.841710609113413 47.3551
23.86446594758979 47.0883
23.887222241002014 46.879
23.910157285144578 46.3923
23.932915498962537 46.4692
23.955674670778713 46.3425
23.978434801611975 46.1465
24.001373717286125 45.9004
24.024135776723917 45.8099
24.046898798245582 45.6899
24.06966278287146 45.5898
24.092605586582614 45.425
24.115371508023642 45.2032
24.1381383956401 45.0978
24.16090625045381 45.1322
24.183852958731244 45.0652
24.206622758582608 45.0593
24.229393528706886 44.8291
24.252165270127392 45.0142
24.27511589952438 44.9004
24.297889594216997 44.6743
24.32066426328598 44.5729
24.34343990775613 44.4862
24.36639447485003 44.3968
24.38917208083877 44.2976
24.41195066531332 44.3205
24.43490819850244 44.1968
24.457688750692377 44.1062
24.48047028445616 43.9813
24.503252800821233 44.0859
24.526214300784112 44.3196
24.548998793132213 44.1726
24.57178427117417 44.089
24.59457073593893 44.1769
24.617536219319863 44.165
24.64032466834748 44.0205
24.663114107195035 43.9682
24.685904536893013 43.7441
24.708874020360852 43.6632
24.731666442613744 43.7118
24.754459858818787 43.5556
24.777254270007962 43.5726
24.80022777025625 43.4525
24.82302418230472 43.361999999999995
24.845821592443674 43.5281
24.86862000170663 43.4309
24.891597535453727 43.2726
24.914397953892728 43.6973
24.93719937456671 43.5723
24.96000179851076 43.7688
24.98298338249997 43.9371
25.00578782394922 44.2088
25.028593271784167 44.2007
25.05157790644186 44.4719
25.07438537804115 44.4947
25.097193859145293 44.8353
25.120003350792075 45.0432
25.142992065061257 45.2771
25.165803588823465 45.5773
25.18861612625217 45.8165
25.211429678386736 46.0278
25.234422489079968 45.9493
25.257238081693636 45.972
25.280054692141732 45.9209
25.3028723214652 45.8729
25.325869245420463 45.8355
25.348688923599397 45.9798
25.371509623787006 46.0395
25.394331347025812 45.8601
25.41733240110666 45.4009
25.440156181590016 44.7283
25.46298098826268 44.263000000000005
25.48580682216873 43.5777
25.50881202326435 43.0614
25.53163992281684 42.5795
25.55446885274561 42.3325
25.577298814096377 41.9567
25.600308179121807 41.8957
25.623140214533745 41.9688
25.64597328451537 41.9321
25.66898578564376 41.713
25.691820936010206 41.7288
25.714657124097695 41.6766
25.737494350954734 41.7799
25.760511045684957 41.6056
25.783350361364224 41.6984
25.806190718969255 41.6808
25.82903211955018 41.8276
25.852053024868923 41.7406
25.874896522722523 41.7651
25.897741066713106 41.8225
25.920586657892454 41.8173
25.943611790812668 41.973
25.966459487728237 42.106
25.989308234998564 42.0747
26.01215803367705 42.3074
26.03518741123814 42.5496
26.05803932412957 42.5257
26.080892291600094 42.5817
26.10374631470478 42.6168
26.12677995397268 42.8374
26.14963609978026 42.8056
26.172493304397875 42.4253
26.19535156888223 42.3621
26.218389486949604 41.9421
26.241249882640123 41.7417
26.26411134137826 41.5544
26.28715248187403 41.486000000000004
26.31001607820869 41.2782
26.3328807407756 41.187
26.35574647063438 41.437
26.37879191991473 41.3655
26.401659795896734 41.3655
26.424528742360263 41.464
26.447398760366614 41.6459
26.470448535598294 41.8391
26.49332070826805 41.9592
26.516193955675355 42.2052
26.53906827888316 42.318999999999996
26.562122397260108 42.4924
26.584998883685063 42.6729
26.607876449110325 42.9236
26.63075509460056 43.1267
26.65381357334404 43.2492
26.67669439061878 43.2776
26.699576291163382 43.3367
26.722459276044212 43.2036
26.745522132402975 42.8765
26.768407297649354 42.63399999999999
26.791293550442003 42.1539
26.814180891848974 41.961000000000006
26.837248143099337 41.6198
26.860137673466657 41.5063
26.88302829566349 41.365
26.90592001075963 41.1229
26.92899167420566 41.0236
26.951885586870763 40.6703
26.974780595655517 40.431999999999995
26.99785558178161 40.3078
27.020752794605112 40.0804
27.043651106772522 40.0785
27.06655051935668 40.0724
27.089629948036183 39.8272
27.112531573292053 39.7495
27.135434302194138 39.8195
27.158338135817015 39.663000000000004
27.181422024430987 39.6833
27.204328079372566 39.5224
27.22723524226965 39.6395
27.250143514198573 39.6099
27.273231880156334 39.5603
27.296142382065014 39.3929
27.319053996245536 39.452
27.341966723775965 39.5398
27.365059584515222 39.5071
27.38797455070062 39.5417
27.410890633481237 39.4375
27.433807833936918 39.4177
27.456905206923906 39.4691
27.47982465472398 39.5334
27.502745223449743 39.6257
27.525666914182825 39.7059
27.548768816912457 39.6867
27.571692763693633 39.6512
27.59461783573812 39.3599
27.617723149491244 39.2658
27.640650484125285 39.2718
27.66357894728264 39.1872
27.686508540048052 39.141
27.709618414237887 39.2257
27.732550278321757 38.8549
27.755483275279115 38.9501
27.778417406196485 39.0353
27.801531858397514 39.0004
27.824468269376716 38.9469
27.847405817586786 38.9501
27.870344504116094 39.0827
27.893463551932008 39.1741
27.916404527281053 39.2261
27.93934664422563 39.3866
27.962289903855886 39.3853
27.98541356491974 39.6097
28.00835912214229 39.6251
28.03130582533231 39.8571
28.054253675581805 40.2175
28.077381967556104 40.0656
28.100332124185126 40.1154
28.123283431160893 39.945
28.146235889577238 39.813
28.169368830154156 39.71
28.192323603752033 39.5784
28.215279532083304 39.2948
28.238415973016764 39.0024
28.261374223145094 38.8726
28.284333631303806 38.6163
28.307294198589954 38.4054
28.330435319167677 38.1483
28.353398217078915 37.9824
28.376362277420153 37.6356
28.39932750129032 37.5023
28.422473319286713 37.4315
28.44544088262495 37.455999999999996
28.468409612800283 37.2356
28.491379510913497 36.9471
28.51453004413313 36.844
28.53750229057244 36.9298
28.56047570826344 36.911
28.583450298308804 36.7721
28.606605564586562 36.6332
28.629582511831156 36.5375
28.65256063474956 36.577
28.675539934446338 36.7575
28.698699951647605 36.6741
28.72168161743193 36.4179
28.74466446331978 36.4615
28.767648490417624 36.4198
28.790813276438353 36.3849
28.813799678527303 36.3214
28.836787265157085 36.3511
28.859955641890075 36.2619
28.882945610203045 36.2912
28.905936766392035 36.1845
28.928929111566863 36.2821
28.952102288520145 36.2034
28.975097024308607 36.1384
28.998092952423807 35.9246
29.021090073977508 35.9234
29.04426806913204 35.774
29.067267590245258 35.5309
29.090268308143695 35.4637
29.11327022394099 35.4529
29.13645305530891 35.4424
29.159457379627167 35.2939
29.18246290519685 35.1998
29.20546963313352 35.2367
29.22865731875826 35.2325
29.25166646419296 35.1654
29.27467681535305 35.1541
29.29768837335608 35.2119
29.320880931312562 35.1195
29.34389491580634 35.113
29.366910110507334 35.1599
29.38992651653503 35.0742
29.41312396492981 35.0723
29.436142806456754 34.9863
29.45916286268059 34.9001
29.48236399319994 34.8295
29.50538649169417 34.6712
29.528410208259935 34.6284
29.55143514402014 34.4491
29.574641196749695 34.3739
29.597668583816574 34.2469
29.6206971934585 34.0736
29.64372702680042 34.1285
29.666938019934474 33.9796
29.689970313635285 33.968
29.713003834422636 33.9023
29.73603858342347 33.8297
29.759254535188578 33.7783
29.78229175361658 33.6571
29.80533020365064 33.7314
29.82836988641968 33.8805
29.85159081507472 33.5963
29.874632976355343 33.5405
29.89767637376955 33.7472
29.920721008448314 33.5795
29.9439469322847 33.5166
29.96699405457564 33.2874
29.9900424175358 33.3797
30.013092022298157 33.361
30.03632295963995 33.3516
30.059375061131373 33.3018
30.08242840783577 33.419000000000004
30.105483000888153 33.3803
30.128718970092244 33.2062
30.151776069006917 33.2521
30.17483441768648 33.3449
30.198074175317235 33.3242
30.221135036724256 33.3539
30.24419715131772 33.2502
30.267260520236203 33.1183
30.290505341942243 33.1014
30.313571232750228 33.2076
30.336638381310948 33.2158
30.35970678876503 33.1401
30.38295669299435 33.0285
30.40602763151657 33.1145
30.429099832366074 33.1099
30.452173296685572 32.9497
30.47542830191959 32.8999
30.498504306502497 32.9904
30.521581577995562 32.952
30.544660117543582 32.9639
30.56792024229725 33.0056
30.59100133132069 33.0692
30.614083691845494 32.8958
30.637167325018545 33.0618
30.660432587840603 33.0982
30.683518779717886 33.009
30.70660624769615 33.052
30.729694992924372 33.0772
30.75296541239743 33.0876
30.77605672557558 33.0317
30.799149319462742 32.9672
30.8224236211637 32.8828
30.845518789950724 32.7727
30.868615242910597 32.7491
30.891712981195973 32.5376
30.91499247215866 32.3436
30.938092794619365 32.3561
30.96119440587579 32.356
30.984297307082752 32.317
31.00758200598383 32.2177
31.030687500658694 32.065
31.053794288760695 32.0214
31.076902371446767 31.829
31.100192296997445 31.9871
31.12330298246119 31.9415
31.14641496599209 31.8193
31.169528248749216 31.7593
31.19282341969534 31.8185
31.215939314557186 31.9394
31.239056512134788 31.8304
31.262175013589378 31.7333
31.28547544871168 31.6571
31.30859657161541 31.7056
31.331719001892175 31.6906
31.35484274070538 31.736
31.378148458819545 31.8017
31.401274828443725 31.8339
31.424402510106933 31.7373
31.447712205419993 31.7584
31.470842524931633 31.5588
31.493974159989783 31.590999999999998
31.51710711176168 31.6469
31.54042212308802 31.5888
31.563557722100917 31.5527
31.586694641341655 31.3512
31.609832881979628 31.3835
31.63315322823208 31.2569
31.656294125521327 31.1713
31.679436347728515 31.1546
31.70257989602529 31.1045
31.725905596152327 30.9595
31.74905181052835 30.8759
31.772199354521323 30.9833
31.79534822930507 30.8718
31.818679302290967 30.9116
31.84183085259981 30.9438
31.864983737233473 30.941
31.88813795736804 30.8242
31.911474422233013 30.7324
31.934631327356435 30.8299
31.9577895715215 30.8871
31.980949155906522 30.8407
32.004291031706956 30.7108
32.027453310562606 30.7035
32.05061693318573 30.5884
32.07396288236386 30.6099
32.09712920658542 30.5518
32.12029687812702 30.4406
32.14346589817093 30.3142
32.166817291729984 30.368000000000002
32.18998902288583 30.274
32.21316210610336 30.265
32.23633654256711 30.0452
32.259693399663725 30.0409
32.282870556771144 29.962
32.30604907069099 29.9915
32.329228942610065 29.866
32.35259128243769 29.6653
32.375773884550505 29.6581
32.398957848235646 29.6434
32.422143174682176 29.6
32.445511016471215 29.6378
32.468699082679954 29.4763
32.49188851523011 29.4741
32.51507931531304 29.4699
32.538452678331 29.4735
32.56164622776311 29.323
32.58484114831493 29.1961
32.60803744118015 29.184
32.631416344731896 29.2014
32.654615396551876 29.1861
32.67781582427913 29.2334
32.701198898634416 29.1408
32.72440209253756 29.0804
32.747606665947124 29.046
32.77081262006088 28.9318
32.79420126883317 28.8514
32.81740999876112 28.8965
32.840620112999424 28.8543
32.86383161274818 28.723000000000003
32.88722585534586 28.8259
32.91044014056596 28.8932
32.933655814909734 28.7414
32.95687287957963 28.7853
32.98027273544904 28.706999999999997
33.00349259526636 28.6315
33.026713849030116 28.5868
33.04993649794511 28.594
33.073341986570746 28.5633
33.09656744032826 28.4698
33.11979429286444 28.4853
33.14302254538647 28.5414
33.166433686291185 28.4353
33.18966475336992 28.3801
33.212897224069096 28.3887
33.23613109959831 28.3384
33.259547912343415 28.2519
33.2827846121627 28.2561
33.306022720453775 28.2308
33.32926223842861 28.0324
33.352684742614166 28.0722
33.37592709463173 28.1861
33.399170859982064 28.0177
33.422597648419426 27.9414
33.44584425514446 27.8386
33.46909227885668 27.7788
33.4923417207723 27.7704
33.51577423505344 27.6417
33.539026528130385 27.6395
33.56228024307245 27.7064
33.585535381098246 27.4995
33.60897364093058 27.5173
33.63223163992385 27.3677
33.6554910656699 27.3846
33.678751919389796 27.3837
33.702195944520106 27.2678
33.72545966903325 27.2479
33.74872482519663 27.1897
33.771991414233746 27.1856
33.79544122444841 27.1828
33.81871069412428 27.0515
33.84198160035767 27.0496
33.86525394437455 26.9948
33.88870955949969 26.9837
33.911984794020626 26.9604
33.93526147001624 26.985
33.958539588715006 26.9738
33.98200102861669 26.8493
34.0052820477047 26.7603
34.02856451319451 26.8114
34.05203033759056 26.7147
34.07531571090147 26.6157
34.09860253431845 26.666
34.121890809074316 26.5595
34.145362493118924 26.5223
34.16865368561615 26.484
34.191946333164054 26.4264
34.21524043699793 26.340999999999998
34.23871800066799 26.4199
34.26201503218366 26.2953
34.28531352370466 26.276
34.30861347646881 26.2477
34.33209693978188 26.2053
34.3553998301885 26.1933
34.378704185565205 26.0917
34.402010007152356 26.069000000000003
34.42549939016683 26.1136
34.44880815937748 26.026999999999997
34.472118398533134 25.9304
34.49543010887669 25.9658
34.51892543169198 25.8135
34.54224009966052 25.7611
34.56555624255917 25.8679
34.58887386163339 25.7112
34.61237514439016 25.660999999999998
34.6356957311114 25.6064
34.65901779775809 25.4757
34.68252356662995 25.589000000000002
34.705848608458616 25.5709
34.72917513396849 25.5282
34.75250314440949 25.4486
34.77601490857862 25.4088
34.799345904259795 25.2679
34.82267838863559 25.3483
34.846012362958525 25.3235
34.869530142679984 25.2385
34.89286711232212 25.1747
34.91620557568269 25.2071
34.93954553401677 25.1878
34.9630693495876 25.0391
34.986412313340814 25.1495
35.00975677584668 25.1964
35.033102738362956 25.1102
35.05663261012228 24.991
35.0799815881786 24.9848
35.10333207003229 25.0061
35.12668405694369 24.9643
35.150220005273056 24.8989
35.17357501786656 24.8902
35.19693153931268 24.8103
35.220289570874385 24.7419
35.24383161619786 24.7339
35.267192683604904 24.7454
35.290555264930376 24.6544
35.314101899412165 24.658
35.33746752422433 24.6496
35.36083466676374 24.6781
35.38420332829803 24.5867
35.407756095629054 24.6373
35.43112781085063 24.6312
35.45450104888391 24.5777
35.477875810999194 24.6085
35.50143473172161 24.5046
35.52481255774625 24.5037
35.54819191167777 24.4068
35.57157279478914 24.358
35.595137889488406 24.3949
35.61852184675279 24.3294
35.641907337029984 24.2008
35.665294361595684 24.1763
35.68886565090076 24.1629
35.7122557598848 24.0733
35.73564740699838 24.141
35.759040593519934 24.1234
35.78261809810353 24.0141
35.80601437933051 23.9828
35.829412203814705 23.9241
35.85281157283719 23.8285
35.876395313415884 23.9806
35.8997977874528 23.8568
35.92320180988546 23.9089
35.946790244133936 23.7758
35.97019737933222 23.7131
35.993606066789866 23.7188
36.01701630779276 23.6522
36.04061101440684 23.6357
36.06402437852291 23.5533
36.08743930005611 23.6235
36.1108557802951 23.428
36.13445678011326 23.4857
36.15787639383515 23.4597
36.18129757014299 23.3886
36.20472031032821 23.3516
36.22832762423364 23.2905
36.25175350829375 23.3128
36.275180960119776 23.1919
36.298609981005924 23.239
36.32222362992669 23.2341
36.34565580510207 23.2716
36.36908955323448 23.2382
36.39252487562093 23.0707
36.416144880530226 23.0531
36.43958336764275 23.0586
36.463023432914625 23.0152
36.486465077645676 22.9348
36.51009145956204 23.044
36.53353627947859 22.9883
36.55698268276811 22.9327
36.58043067073321 22.8239
36.60406345072071 22.7051
36.62751462435344 22.7614
36.65096738658405 22.8257
36.67460498210655 22.6884
36.69806093788647 22.6645
36.72151848619297 22.6276
36.744977628333636 22.686999999999998
36.76862165890998 22.4874
36.79208400512205 22.4918
36.81554794910557 22.4558
36.83901349217101 22.3862
36.862663978991606 22.3517
36.88613273667352 22.3843
36.90960309738324 22.3563
36.933075062434064 22.2606
36.95673202673572 22.2596
36.98020721697122 22.2797
37.003684015502365 22.1731
37.027162423645365 22.1523
37.050825886711465 22.1778
37.07430753063053 22.0522
37.09779078812467 22.0804
37.121275660513014 22.0543
37.144945643673694 21.9881
37.16843376245278 22.0182
37.19192350009803 21.9746
37.215414857931435 21.8965
37.239091382563885 21.8932
37.262585997426164 21.8347
37.28608223645736 21.7498
37.309763684451696 21.765
37.33326318851098 21.6996
37.356764320726555 21.6627
37.380267082425526 21.6437
37.40395510942588 21.5963
37.42746114683234 21.572
37.45096881771841 21.5458
37.474478123414166 21.517
37.49817275092816 21.4937
37.52168534303452 21.4444
37.54519957395567 21.4168
37.568715445024665 21.3592
37.592416694607714 21.2586
37.61593586281424 21.3506
37.63945667518264 21.3803
37.66297913304891 21.2818
37.68668702630454 21.2807
37.710212792059274 21.1564
37.733740207334854 21.0954
37.757269273470364 21.0619
37.780983832050374 20.9936
37.80451621684926 20.9891
37.82805025654007 21.0167
37.851585952464795 20.9719
37.8753071980695 20.8436
37.89884622345676 20.8831
37.92238690911902 20.8659
37.94611318753442 20.8312
37.969657210779765 20.7837
37.99320289834801 20.8143
38.016750251586465 20.7636
38.04048325513017 20.7011
38.06403395679343 20.6958
38.087586328183946 20.581999999999997
38.11114037065203 20.662
38.13488012115898 20.5818
38.1584375229181 20.5453
38.181996599821 20.4941
38.205557353221124 20.5184
38.229303872575656 20.4307
38.2528679961576 20.4214
38.27643380031219 20.4069
38.30000128639589 20.3623
38.32375459653193 20.3403
38.34732546371299 20.2862
38.37089801690786 20.2047
38.39447225747609 20.2028
38.418232380377425 20.1634
38.441810012983396 20.2425
38.46538933705673 20.121
38.488970353960084 20.0388
38.51273731166058 20.0742
38.536321731567014 20.0291
38.55990784840681 19.9277
38.58367995004091 19.9428
38.60726947812959 19.9063
38.63086070726198 19.9131
38.654453638806274 19.906
38.678232613930824 19.8616
38.70182896773327 19.8056
38.72542702806741 19.7995
38.7490267963045 19.7597
38.77281266709232 19.7136
38.79641586862214 19.6878
38.8200207821842 19.6968
38.843627409152944 19.6518
38.86742019782782 19.6059
38.891030269149255 19.489
38.914642058016156 19.5756
38.938255565806124 19.5155
38.96205529464307 19.4881
38.98567225787121 19.37
39.00929094417078 19.4173
39.03291135492255 19.4314
39.05671804624804 19.397000000000002
39.080341923549106 19.3823
39.103967529460334 19.2592
39.127594865365744 19.2061
39.15140854155791 19.1517
39.17503935514948 19.2041
39.19867190290282 19.2218
39.22249083587951 19.0677
39.24612686969409 19.0569
39.269764641845306 18.9823
39.293404153722804 19.0299
39.317230110864074 18.9693
39.34087311998506 18.9424
39.36451787301696 18.9668
39.388164371352595 18.9066
39.41199737518003 18.8641
39.43564738196752 18.8085
39.45929913825317 18.819000000000003
39.48295264543308 18.7943
39.506792718520884 18.7804
39.530449745387216 18.7046
39.55410852735203 18.6961
39.57776906581474 18.7576
39.60161623079 18.6586
39.625280300200025 18.5974
39.64894613032202 18.5752
39.67261372255866 18.5758
39.6964680021016 18.5477
39.72013913657293 18.5298
39.74381203738292 18.4809
39.76748670593756 18.4385
39.79134812278169 18.4978
39.81502634488497 18.4053
39.83870633896685 18.3285
39.862388106436654 18.3158
39.88625668336918 18.3536
39.90994201572829 18.3374
39.933629125719285 18.2045
39.957503091207826 18.1209
39.9811937746168 18.1832
40.00488623990914 18.1602
40.02858048850006 18.0735
40.05246165409549 18.0677
40.076159487492085 18.0217
40.099859108448875 17.9982
40.123560518384345 18.0316
40.1474489070226 18.029
40.171153913178564 17.9393
40.194860712584955 17.9291
40.2185693066637 17.9288
40.242464941335314 17.8928
40.26617714307655 17.8586
40.289891143772046 17.7855
40.3136069448471 17.7386
40.33750984859743 17.7393
40.3612292688043 17.7147
40.3849504936829 17.6792
40.40867352466194 17.668
40.43258372059144 17.616
40.45631038219906 17.6259
40.48003885420956 17.6021
40.503769138055105 17.5858
40.52768664931955 17.5875
40.55142057531802 17.5374
40.57515631746428 17.4401
40.599079334038514 17.3959
40.62281872700477 17.3984
40.64655994043941 17.3543
40.67030297578061 17.3798
40.69423334835778 17.3176
40.71798004609188 17.3154
40.74172857006355 17.2383
40.76547892171441 17.2269
40.7894166736039 17.1832
40.813170699248566 17.1579
40.83692655691388 17.1643
40.86068424804498 17.1433
40.884629402612525 17.0813
40.908390779366385 17.1067
40.932153993938 17.0677
40.95591904777605 17.0535
40.979871628443995 17.0163
41.003640379561936 16.9933
41.02741097430883 16.9271
41.05118341413683 16.8986
41.075143444384416 16.9119
41.098919593177826 16.8868
41.1226975914255 16.8509
41.14647744058318 16.8542
41.170444943946755 16.7517
41.19422851378379 16.7635
41.218013938914645 16.7025
41.24198706625173 16.6772
41.26577622087193 16.6497
41.289567235177785 16.6254
41.31336011063129 16.6016
41.337340752422875 16.570999999999998
41.361137369129835 16.5923
41.38493585138705 16.5648
41.40873620066004 16.454
41.43272438060107 16.4805
41.45652848292052 16.441
41.48033445666918 16.3796
41.50414230331616 16.3262
41.528138045159764 16.3378
41.551949656675205 16.3279
41.575763145513235 16.3023
41.59957851314666 16.2385
41.62358184070442 16.2454
41.64740098505737 16.2232
41.6712220126409 16.2022
41.69504492493139 16.1744
41.71905586207357 16.1029
41.74288256296395 16.0642
41.766711153007456 16.0881
41.79054163368412 16.0325
41.814560204340054 16.049
41.838394485526365 16.0104
41.86223066180303 15.9684
41.88625497706819 15.972000000000001
41.910094962812 15.9383
41.93393684811168 15.9111
41.95778063445365 15.8942
41.981812625263366 15.8379
42.00566023303407 15.7987
42.029509746323676 15.7707
42.05336116662236 15.7908
42.077400857069705 15.784
42.10125611078846 15.7143
42.12511327600405 15.5991
42.14897235421036 15.6024
42.173019768448455 15.5768
42.19688269209613 15.579
42.22074753323349 15.5889
42.24461429335818 15.5402
42.268669455600495 15.4818
42.292540073217886 15.4559
42.31641261433284 15.4883
42.34028708044675 15.5021
42.36435001496739 15.4427
42.38822835065557 15.3657
42.41210861586426 15.4049
42.4359908120986 15.3359
42.46006154323262 15.3168
42.48394762115317 15.2568
42.507835634632315 15.2775
42.531912233047436 15.2515
42.55580413732265 15.2256
42.579697981698 15.1904
42.60359376768525 15.1149
42.62767820545945 15.1349
42.65157789440821 15.1128
42.67547952952185 15.0782
42.699383112316 15.084000000000001
42.72347541395347 15.02
42.74738291190531 14.9633
42.771292362102166 15.0075
42.795203766063516 14.9753
42.819303956130405 14.9832
42.843219287476536 14.9267
42.86713657716324 14.8603
42.89105582671383 14.8933
42.91516392983864 14.8145
42.939087119032166 14.7838
42.963012272677304 14.767000000000001
42.98693939230129 14.788
43.01105543317513 14.7542
43.034986504731386 14.7123
43.05891954686589 14.6566
43.08285456110972 14.6249
43.10697856448665 14.6118
43.130917542983475 14.5728
43.15485849820081 14.5425
43.17880143167367 14.5508
43.20293342237094 14.5453
43.226880332449 14.4635
43.25082922540554 14.5059
43.27496722682525 14.4522
43.29892010567796 14.4561
43.32287497204102 14.3926
43.34683182745632 14.3266
43.370977859791836 14.2919
43.39493871351105 14.3142
43.41890156092628 14.2655
43.44286640358341 14.2545
43.46702049182749 14.2814
43.49098934522816 14.1936
43.51496019852649 14.1938
43.5389330532723 14.1764
43.56309522248204 14.1204
43.58707210044314 14.1097
43.61105098451946 14.0353
43.63503187626491 14.069
43.659202151562134 14.0291
43.68318707902681 14.0569
43.70717401884041 14.0287
43.731162972560874 13.9493
43.75534137913236 13.9603
43.779334381108384 13.9093
43.803329401683186 13.8929
43.82732644241872 13.9122
43.8515130055166 13.8544
43.87551410707659 13.8333
43.89951723350145 13.8361
43.923709934595614 13.8013
43.94771713129917 13.8115
43.97172635758096 13.7823
43.99573761501002 13.6854
44.0199385169922 13.7092
44.04395385732619 13.6795
44.067971233533086 13.6396
44.09199064718605 13.6253
44.11619977548961 13.5904
44.14022328470671 13.5657
44.16424883610785 13.6047
44.18827643127035 13.5572
44.21249381139513 13.504000000000001
44.236525514814076 13.5112
44.26055926674478 13.489
44.28459506876863 13.4812
44.3088207262813 13.4351
44.33286064928722 13.3974
44.35690262714919 13.3791
44.38094666145278 13.3045
44.4051806219871 13.338
44.42922879003185 13.3472
44.45327901929361 13.2567
44.477331311362136 13.3093
44.501573600619416 13.1889
44.525630039221795 13.1575
44.54968854541895 13.1828
44.573937102200176 13.1299
44.5979997645541 13.1364
44.622064499300315 13.1063
44.64613130803592 13.105
44.67038823869318 13.1111
44.69445921643748 13.0463
44.718532272981385 13.0104
44.742607409926194 12.9975
44.76687274034801 12.9615
44.79095205918753 12.927
44.81503346325094 12.9048
44.839116954143876 12.9192
44.86339071028742 12.9166
44.88747839599524 12.9312
44.91156817336837 12.8698
44.93566004401666 12.8417
44.959942251908146 12.8206
44.984038330325966 12.7547
45.00813650686762 12.7024
45.03223678314731 12.6939
45.05652746888232 12.6727
45.08063196592069 12.6958
45.104738567558705 12.6554
45.128847275414856 12.6181
45.15314646515866 12.5829
45.17725940679741 12.6023
45.20137445952892 12.5698
45.22568004865265 12.5012
45.24979934496396 12.4843
45.27392075725247 12.4808
45.29804428714431 12.4875
45.322358426247604 12.4881
45.346486212804315 12.4507
45.370616121861914 12.4104
45.39474815505086 12.3708
45.41907087049246 12.3682
45.4432071734666 12.3195
45.46734560548283 12.3089
45.49148616817604 12.3164
45.51581748638564 12.2816
45.5399623320197 12.2237
45.56410931325473 12.2212
45.58825843173002 12.2532
45.61259837920865 12.2057
45.636751793816 12.1482
45.66090735060093 12.1507
45.68506505120716 12.1394
45.7094136545275 12.1121
45.73357566449271 12.0846
45.75773982322992 12.0281
45.78190613238733 12.0159
45.806263418194064 11.9987
45.83043404997326 12.0185
45.85460683713677 12.0045
45.87897065658495 11.9876
45.90314777634752 11.9196
45.92732705646868 11.9461
45.9515084986045 11.9137
45.97588104735473 11.9118
46.00006683541565 11.8482
46.02425479047904 11.7996
46.04844491420549 11.8144
46.0728262191024 11.7851
46.09702070211635 11.7635
46.12121735879483 11.7114
46.14541619080294 11.7471
46.169806278764455 11.7075
46.194009483459034 11.6991
46.21821486849841 11.6889
46.24242243555223 11.6146
46.266821333570014 11.6233
46.29103328674601 11.6187
46.31524742696538 11.5996
46.33946375590237 11.5295
46.36387149104216 11.552
46.38809221957392 11.4812
46.41231514186606 11.489
46.436540259597464 11.472999999999999
46.460956858999374 11.466
46.48518638983522 11.4318
46.509418121166966 11.3836
46.533652054678114 11.3603
46.55807754555709 11.3166
46.58231590571962 11.3695
46.60655647313217 11.32
46.630988654873654 11.2687
46.655233659129024 11.2777
46.67948087571551 11.2633
46.70373030632484 11.2303
46.72817142736393 11.2446
46.752425308428684 11.2047
46.77668140861147 11.2011
46.80093972960865 11.1201
46.82538981736788 11.1226
46.849652602470904 11.0965
46.87391761349769 11.0923
46.8981848521493 11.0688
46.9226439341274 11.0185
46.946915650573224 11.0563
46.97118959976749 11.035
46.99546578341598 10.9465
47.019933887188216 10.9329
47.04421456235744 10.9544
47.06849747711879 10.9359
47.09278263318286 10.9032
47.11725978640143 10.9162
47.14154944775105 10.870999999999999
47.165841355555656 10.8911
47.1901355115306 10.8376
47.214621741924994 10.8378
47.23892041698887 10.8049
47.26322134538975 10.7655
47.28771440635075 10.7437
47.31201986422527 10.732000000000001
47.33632758061436 10.69
47.360637557241866 10.6908
47.38513974410611 10.6822
47.40945426407847 10.6302
47.43377104948137 10.6525
47.45809010204344 10.6132
47.48260144275502 10.6057
47.506925052572285 10.595999999999998
47.53125093475548 10.5386
47.55557909103813 10.5234
47.58009961361992 10.459000000000001
47.60443234110732 10.4902
47.62876734791564 10.4633
47.65310463578333 10.4455
47.6776343683373 10.4362
47.7019762413987 10.3716
47.72632040075572 10.4001
47.75066684815169 10.39
47.77520581885936 10.3187
47.799556865477655 10.3268
47.823910205386 10.3229
47.84826584033272 10.2972
47.87281407745551 10.2812
47.89717432569297 10.2879
47.92153687423484 10.2328
47.94609208429692 10.2412
47.97045925671401 10.1745
47.99482873471275 10.1752
48.01920052005013 10.1756
48.04376504619224 10.112
48.068141469543484 10.1456
48.09252020552573 10.111
48.11690125590099 10.0989
48.1414751266064 10.1074
48.16586082917454 10.0847
48.19024885144316 10.0361
48.2146391951793 10.0441
48.239222439012764 10.0127
48.26361744916137 9.97405
48.28801478610016 9.95208
48.31241445160131 9.97204
48.337007097209366 9.95543
48.36141144338331 9.93304
48.38581812345755 9.91845
48.41022713920929 9.927
48.434829215320704 9.86872
48.45924292604658 9.88994
48.48365897780325 9.87252
48.50807737237308 9.82981
48.532688907799276 9.82713
48.55711201168574 9.76339
48.581537463754074 9.769919999999999
48.60615611725119 9.78384
48.63058628942721 9.74362
48.65501881516546 9.68951
48.6794536962573 9.695039999999999
48.70408185970339 9.68356
48.72852147531801 9.632010000000001
48.75296345168211 9.64613
48.77740779059232 9.62658
48.80204549302823 9.630939999999999
48.82649458091802 9.604619999999999
48.85094603676547 9.560889999999999
48.87539986237231 9.54004
48.90004713292306 9.5316
48.92450572200832 9.49874
48.94896668628025 9.479280000000001
48.97343002754588 9.48696
48.99808689542115 9.45444
49.02255501470614 9.461110000000001
49.04702551642794 9.42329
49.0714984023988 9.4108
49.096164896893235 9.41756
49.120642575466796 9.37601
49.145122643748394 9.36198
49.16960510355558 9.338
49.19428125404938 9.32399
49.2187685210852 9.302669999999999
49.243258185121555 9.25858
49.26794160167084 9.2599
49.2924360839405 9.22247
49.31693296869764 9.217130000000001
49.34143225776915 9.21217
49.36612538195438 9.16588
49.39062950396021 9.20952
49.41513603578346 9.21401
49.4396449792564 9.14095
49.46434784069503 9.16761
49.488861631846454 9.11381
49.513377840166804 9.11168
49.537896467493745 9.0669
49.56260909589029 9.05034
49.587132585683285 9.05547
49.611658500018365 9.03605
49.636186840738596 8.98949
49.66090926588511 9.01047
49.685442483902584 9.00543
49.70997813385706 8.92238
49.734516217597076 8.90395
49.75924846937352 8.91961
49.7837914452858 8.88667
49.80833686055187 8.873280000000001
49.83288471702571 8.864460000000001
49.85762682540054 8.85858
49.882179588965734 8.81794
49.9067347993235 8.8381
49.93129245833333 8.813989999999999
49.95604445336378 8.771989999999999
49.98060703442832 8.77091
50.005172069746266 8.723289999999999
50.02993150438364 8.73202
50.05450147301533 8.70951
50.07907390151433 8.74436
50.10364879174981 8.6631
50.12841816587289 8.65385
50.1529980044635 8.66505
50.17758031042124 8.59782
50.20216508562089 8.601189999999999
50.22694442953363 8.6393
50.25153416817468 8.5758
50.27612638170508 8.54415
50.300721072005196 8.52012
50.325510416102105 8.49708
50.350110084975064 8.48442
50.37471223628208 8.4843
50.39931687190919 8.4603
50.424116246675766 8.449069999999999
50.44872587605249 8.43942
50.47333799543065 8.42613
50.49795260670191 8.40961
50.52276204271512 8.377289999999999
50.54738166295838 8.3874
50.57200378079314 8.381039999999999
50.596628398116835 8.35029
50.62144792604559 8.35331
50.646077567609396 8.3282
50.670709714377715 8.31878
50.69553683636198 8.29433
50.72017401885922 8.28737
50.7448137122895 8.26096
50.76945591856022 8.26318
50.79429318636823 8.18174
50.818940443716784 8.18528
50.84359021965163 8.19978
50.868242516085964 8.20008
50.893089960641895 8.1629
50.917747323549435 8.14798
50.94240721271973 8.11201
50.96706963007175 8.08643
50.99192728239342 8.0774
51.01659478166073 8.10896
51.04126481489051 8.0455
51.06593738400761 8.0697
51.090805275207074 8.037989999999999
51.11548294172845 8.01298
51.14016314993547 7.99685
51.164845901758845 7.96703
51.18972406304274 7.945180000000001
51.21441192780656 7.9767600000000005
51.23910234200271 7.975630000000001
51.2637953075678 7.90026
51.288683770237945 7.87565
51.31338186432707 7.8667300000000004
51.33808251561888 7.87752
51.362978729967345 7.854360000000001
51.387684521509755 7.824660000000001
51.41239287610203 7.8334399999999995
51.437103795691165 7.838430000000001
51.46201036644977 7.80093
51.486726441956634 7.76673
51.51144508832545 7.754230000000001
51.536166307509156 7.74138
51.56108326624387 7.73135
51.58580965706056 7.73544
51.61053862657523 7.7343
51.635270176746864 7.69013
51.66019755512065 7.668410000000001
51.68493429268881 7.631460000000001
51.70967361681515 7.58592
51.73441552946465 7.59227
51.759353359237934 7.60243
51.7841004750961 7.56465
51.80885018539685 7.53666
51.833602492111254 7.5533399999999995
51.8585508051424 7.5285
51.883308330926425 7.4973600000000005
51.90806845906181 7.50015
51.932831191525715 7.48013
51.95779001977161 7.43934
51.98255798721516 7.41372
52.00732856494335 7.395110000000001
52.03229530577543 7.396489999999999
52.057071130455945 7.3870000000000005
52.081849571391054 7.3684
52.106630630568695 7.412160000000001
52.13160794279417 7.36353
52.15639426492067 7.36751
52.18118321127822 7.334
52.205974783860896 7.2629399999999995
52.23096269971011 7.31169
52.255759551287994 7.27628
52.280559035098186 7.221
52.30536115314103 7.25983
52.33035970494467 7.27791
52.35516711807904 7.242999999999999
52.37997717147198 7.1813
52.40478986713005 7.19568
52.42979908731974 7.1846
52.454617094216 7.195810000000001
52.47943774942214 7.13134
52.50426105495102 7.1402600000000005
52.529280976059844 7.11143
52.554109609024096 7.078589999999999
52.57894089837482 7.08675
52.60377484613117 7.0750399999999996
52.62880550079408 7.06232
52.65364479223379 7.04471
52.67848674816189 7.05218
52.70352547971946 7.0283
52.72837279155837 7.03941
52.753222773982785 6.99436
52.778075429022984 6.9673300000000005
52.80312495150885 6.97289
52.827982978797436 6.9200800000000005
52.85284368481815 6.8839999999999995
52.87770707160767 6.89124
52.90276741793998 6.889469999999999
52.92763619336701 6.9068
52.952507655698504 6.853839999999999
52.977381806977576 6.850960000000001
53.00245301017842 6.881410000000001
53.02733256653592 6.83012
53.052214817996074 6.816610000000001
53.077099766608484 6.78297
53.102181859804446 6.78597
53.127072229988265 6.77925
53.15196530349892 6.76523
53.17686108239249 6.742030000000001
53.20195409881522 6.73785
53.22685531582556 6.746339999999999
53.25175924441303 6.68433
53.27666588664027 6.69653
53.30176985962693 6.6891300000000005
53.3266819565689 6.656610000000001
53.35159677336455 6.66437
53.376514312083096 6.64875
53.40162927507703 6.625539999999999
53.42655228516116 6.636489999999999
53.45147802340193 6.58213
53.47660125628886 6.59466
53.50153247842639 6.53843
53.52646643496923 6.51809
53.55140312799818 6.52529
53.576537409691696 6.49242
53.60147960336152 6.487419999999999
53.626424539786164 6.42145
53.65137222105307 6.44935
53.67651758529126 6.45254
53.70147078399681 6.39853
53.72642673383343 6.4452
53.75138543689533 6.4762900000000005
53.776541917524526 6.39085
53.801506154876755 6.389959999999999
53.826473151763246 6.36271
53.851442910284916 6.3129
53.87661054126026 6.3022
53.9015858509782 6.30514
53.92656392866066 6.2815900000000005
53.95154477641532 6.2704699999999995
53.976723591801296 6.244330000000001
54.00171000771266 6.24984
54.02669920004598 6.234369999999999
54.051691170915745 6.21453
54.076881204886796 6.18556
54.101878760928514 6.19652
54.12687910187696 6.16172
54.152077577768296 6.17015
54.1770835166946 6.141830000000001
54.20209224691339 6.18466
54.22710377055121 6.13464
54.25231352511594 6.14389
54.27733066384342 6.08477
54.30235060239643 6.081930000000001
54.32737334290836 6.06832
54.35259441062629 6.02072
54.377622783395324 6.04074
54.40265396455061 6.04758
54.42768795623251 6.00979
54.45292037169559 5.96972
54.477960012857906 5.9996599999999995
54.50300247099511 6.0162
54.52804774825457 5.91726
54.55329154616743 5.89945
54.57834249018678 5.8966
54.6033962597977 5.895919999999999
54.6284528571545 5.8233
54.653708072335164 5.79723
54.67877035378786 5.83686
54.70383546947698 5.7884
54.72890342156389 5.7865
54.7541700889442 5.76931
54.77924374251975 5.78866
54.8043202390049 5.71908
54.82959552413022 5.68671
54.8546777351945 5.655069999999999
54.87976279569621 5.63282
54.90485070780914 5.6506099999999995
54.930137506558005 5.605
54.95523115074295 5.6229
54.98032765308844 5.58172
55.005427015775496 5.59881
55.03072536339621 5.59466
55.05583047570572 5.5151900000000005
55.080938454927676 5.50545
55.10604930325027 5.45632
55.131359235107396 5.47548
55.15647585066083 5.44263
55.181595341907496 5.44452
55.20671771104285 5.403969999999999
55.232039262617704 5.3877
55.25716741665048 5.31881
55.28229845518636 5.3438099999999995
55.30743238042802 5.29553
55.33276558731939 5.2727900000000005
55.357905315183636 5.266719999999999
55.383047936390035 5.20132
55.40819345314859 5.12539
55.433538351073295 5.18602
55.458689688238415 5.18966
55.483843927614096 5.1460099999999995
55.509197623043605 5.1384
55.53435769621134 5.089840000000001
55.55952067826466 5.07885
55.5846865714265 5.0877099999999995
55.61005202069737 5.01015
55.63522376553902 5.02205
55.66039842818645 5.009519999999999
55.68557601087004 4.93237
55.7109532500271 4.89648
55.73613670233794 4.93127
