TT I
1.2716486653135266 33.1425
1.2939594142134223 33.0276
1.3162702121660406 31.4881
1.3385810600174564 30.8381
1.3608919586137629 31.0628
1.383202908801069 29.1876
1.405513911425503 28.5658
1.4278249673332093 27.6209
1.4501343378461518 26.5735
1.4724455028545926 26.1122
1.4947567236847858 27.0324
1.517068001182951 26.0979
1.5393793361953272 25.5124
1.5616907295681737 25.1415
1.5840021821477681 24.9457
1.60631369478041 24.0219
1.6286252683124185 23.7251
1.6509369035901333 23.6908
1.6732468618895553 22.5331
1.695558623192809 22.0144
1.7178704487808514 22.2765
1.7401823395001077 22.6378
1.7625012545597203 22.3649
1.7848028405262486 21.6477
1.8071218901122095 21.2837
1.8294236121921872 21.0245
1.8517427996910911 21.7757
1.8740620574440425 21.566
1.8963639900671978 20.8329
1.9186833908139995 21.0791
1.9409854680117449 21.2287
1.9633050151394713 21.2686
1.9856246367570705 21.186
2.0079269371922672 21.1049
2.03024671027244 20.7276
2.0525491637446027 20.7942
2.074869091674931 21.031
2.097171701569106 21.1705
2.1194917877373847 21.1485
2.141811954326636 21.5652
2.164114805233074 20.9358
2.186435135143035 21.0472
2.208738150935709 21.5886
2.231058647554722 21.1559
2.2533792288321184 21.5339
2.275682498336085 21.8797
2.298003251406138 21.4981
2.3203066942619714 21.8326
2.3426276225136022 21.9181
2.3649486396617507 21.1059
2.387252348930071 21.8441
2.4095735463442893 21.085
2.4318774374315884 21.4474
2.4541988185014043 21.5038
2.476502894794693 22.1661
2.498824462909887 22.4379
2.521146125856138 22.4881
2.5434504863470337 22.3587
2.5657723414244717 22.5394
2.588076895590662 24.4848
2.610398946189713 24.766
2.6327210958598384 24.4047
2.6550259469304716 25.1859
2.6773482972090137 24.8513
2.6996533504259 26.4137
2.7219759047039602 27.7888
2.744298562293959 28.0888
2.7666039251246595 29.2047
2.7889267918020164 30.3643
2.8112323652516555 31.2664
2.833555444408179 32.6815
2.8558786311183852 34.7294
2.8781845268938557 37.2752
2.9005079311721484 39.5837
2.9228140460410397 41.7703
2.9451376712799635 44.4274
2.967444008632326 46.9091
2.9897678582247247 50.3255
3.0120918213106695 55.7736
3.0343984987899373 59.4528
3.0567226913198637 63.4236
3.079029599759726 68.1805
3.101354025127254 73.2032
3.123678568232338 75.9464
3.145985829517914 77.4592
3.16831061055229 78.1226
3.1906181112775593 76.0684
3.212943133635653 73.9899
3.2352682779763207 68.2941
3.2575761442691227 62.9967
3.2799015350264273 57.5412
3.302209649240067 52.5008
3.3245352898092655 47.552
3.3468436553365257 44.2537
3.369169549113219 40.5776
3.3914955708171384 37.4939
3.413804319727358 35.1229
3.4361305997334863 32.8411
3.4584396084414553 31.8036
3.4807661501462652 31.3966
3.503092824025881 30.2926
3.5254022288463154 29.4513
3.5477291695206588 28.1984
3.5700388426251948 28.0292
3.5923660534916446 27.0899
3.6146934007816114 27.076999999999998
3.637003482731501 26.41
3.6593311053109985 26.7923
3.681641464033634 26.7722
3.7039693653009733 26.7232
3.726297407241705 26.6886
3.7486081875460804 26.275
3.7709365132734978 26.0843
3.793247578841633 26.0758
3.8155761917550093 26.1192
3.8378875459837216 26.4108
3.8602164494827234 26.0469
3.882545499606844 26.3008
3.9048572932539183 26.4638
3.9271866390645718 26.4625
3.9494987298666713 26.8245
3.971828374764527 27.0417
3.9941581705403255 27.3076
4.016470713506008 27.4579
4.038800813471445 27.7714
4.061113662089144 28.1857
4.0834440696459176 28.8533
4.105774632334751 28.9367
4.128087945865126 29.5837
4.150418821249301 30.1573
4.172732448931298 30.8295
4.195063640413578 31.5121
4.2173775856475215 32.7788
4.239709096631102 33.798
4.262040768704612 35.4552
4.284355196706267 37.2491
4.306687193387355 38.6025
4.329001947444346 40.4111
4.35133427213731 40.9973
4.373666762177566 40.6772
4.395982011761091 39.5411
4.418314834921175 38.8238
4.44063041906622 38.0694
4.4629635787515625 37.2796
4.4852969080429785 37.2871
4.5076130004776225 37.3865
4.529946671403969 38.4814
4.552263106909177 38.8006
4.574597122877047 39.5175
4.596931312711224 39.8188
4.619248269273446 40.4321
4.6415828092605835 41.0008
4.663900117405352 41.8604
4.686235010953232 42.6849
4.708552674085913 43.5114
4.730887924602802 44.9208
4.753223354952695 46.3935
4.775541557023902 48.0058
4.797877349456786 49.5742
4.820195915032126 51.6323
4.842532072957498 53.5663
4.864868414979744 55.8728
4.88718753227192 58.9878
4.909524244902505 62.6005
4.931843734218147 66.4241
4.954180820867835 72.3058
4.976518095879839 79.1625
4.998838149695359 87.1385
5.021175803844231 98.4452
5.043496238205739 110.14200000000001
5.065834274903528 119.235
5.088172504230693 127.999
5.1104935158799565 139.795
5.132832132875765 158.014
5.155153533596801 184.67
5.1774925416746225 224.74900000000002
5.199814334878411 300.788
5.2221537374521505 452.105
5.244493338631803 682.591
5.266815727034316 981.7819999999999
5.289155727832427 1520.55
5.311478517248165 2651.04
5.333818921080011 3950.77
5.356159527788849 4486.43
5.3784829252032536 3366.53
5.400823940070432 1884.49
5.423147747031976 895.0930000000001
5.445489173474152 480.464
5.467830807066149 321.548
5.490155234831516 246.976
5.512497285125229 200.72400000000002
5.534822130975162 172.628
5.557164601388673 152.793
5.579489868738879 136.895
5.601832762690846 126.334
5.6241758697774475 118.602
5.646501775867269 114.146
5.668845311622074 111.307
5.691171647754637 109.262
5.713515615597765 105.541
5.735859800852677 102.50200000000001
5.758186788542988 100.206
5.780531411018185 98.9606
5.802858837297399 98.6181
5.825203900414495 100.434
5.8475491852224 102.449
5.869877275883075 105.895
5.892223006467101 111.42
5.914551544266608 117.265
5.936897724049891 125.649
5.959244129804903 139.138
5.981573344815301 159.497
6.0039202049061 190.886
6.026249875609095 244.236
6.04859719346037 317.85900000000004
6.070927323278297 412.584
6.093275102315365 545.0219999999999
6.115623113320588 720.55
6.137953938319995 999.1210000000001
6.160302415650845 1251.79
6.182633708324452 1180.88
6.2049826554078376 879.7239999999999
6.227331838745022 548.744
6.249663839443684 343.418
6.27201349767565 237.101
6.294345974611799 177.29
6.316696111167083 136.375
6.339046488263839 110.76799999999999
6.361379686074702 94.6354
6.383730546639482 83.2951
6.406064229255215 74.5183
6.428415576718203 69.0425
6.450749747566656 64.2758
6.47310158535871 60.6165
6.495453669698332 57.5144
6.517788579421056 55.0068
6.540141159237969 52.5466
6.562476565766648 50.62
6.5848296444934045 49.1882
6.607182974060425 47.6302
6.6295191323281015 46.8613
6.651872965955752 45.9615
6.6742096296068985 45.1901
6.6965639707294615 44.5853
6.71891856698715 44.2286
6.741255995248479 43.2487
6.763611104154477 42.8802
6.785949046381137 42.0811
6.808304671371482 41.535
6.8306605557940046 41.0293
6.852999275508618 40.6807
6.875355681171544 40.5863
6.897694923437771 40.4746
6.92005185377892 40.4075
6.9423916220322655 40.4772
6.964749080490181 39.9284
6.987106804399774 40.0783
7.009447368180821 40.8767
7.031805625367033 41.2378
7.054146723727803 42.153999999999996
7.076505517631004 43.4308
7.098864581288365 43.8504
7.121206488070854 44.169
7.143566093607822 43.553000000000004
7.165908543567245 42.9922
7.188268694426048 42.1192
7.2106291193438095 40.7838
7.232972390625943 40.1473
7.255333366030969 39.9578
7.277677189091925 39.6753
7.300038718428332 40.1231
7.322400526130865 39.6649
7.344745183422596 39.8743
7.367107550224791 39.357
7.389452767901992 39.6016
7.411815697249891 39.2698
7.434161478756298 39.1906
7.456524974096713 39.8671
7.478888753837185 41.3824
7.501235387657368 44.9424
7.523599738562711 55.6001
7.545946944825532 89.2997
7.568311870344528 152.67600000000002
7.5906770845765665 206.45
7.613025156078678 179.107
7.635390950099687 110.92299999999999
7.657739602662809 67.3156
7.680105979923558 49.5876
7.702472650212829 43.7903
7.724822180948224 41.1407
7.747189439655568 39.6101
7.769539560075357 38.5267
7.791907410653562 38.4779
7.81425812420825 37.8343
7.836626570110925 37.5025
7.858995315087906 37.8091
7.881346924933401 37.8097
7.903716270417482 37.7869
7.926068482028405 37.8818
7.948438431475253 37.9317
7.9708086843180235 38.3193
7.993161805171116 38.9259
8.015532667162402 39.0754
8.037886398416653 39.6393
8.060257873014221 39.7218
8.082629655331942 40.2538
8.104984308787587 40.4569
8.127356708900503 41.1211
8.149711981398308 41.8756
8.172085002766314 42.5577
8.194458336181368 43.5079
8.216814543847752 44.0916
8.23918850371002 45.13
8.26154533906492 46.2832
8.283919928836452 47.6876
8.306277395339652 48.8286
8.328652618483376 50.5783
8.351028159736202 52.1446
8.373386579575245 54.1352
8.395762759396959 55.7427
8.418121819038275 57.8562
8.440498640894003 60.8188
8.462875785192262 65.5834
8.485235811156207 71.7757
8.507613602688501 80.4105
8.529974277114228 95.8217
8.552352719347912 116.874
8.574731488360351 147.418
8.59709314210385 180.925
8.619472567021075 211.54
8.64183487789147 258.478
8.664214962183097 360.17800000000005
8.686577933647762 531.832
8.708958680784317 711.548
8.731339760774953 776.133
8.753703729764451 642.816
8.77608547780821 426.836
8.798450116065078 273.746
8.820832535634787 185.025
8.843215292401656 136.282
8.865580941199045 109.76
8.887964374703538 95.3177
8.910330701447199 86.2914
8.932714815164482 79.7488
8.955099270424924 74.9088
8.977466620733543 71.4494
8.999851761421976 68.9485
9.022219798361645 67.3683
9.04460562795561 65.7619
9.066991803441677 64.5828
9.089360876979615 63.7629
9.111747746589993 63.8052
9.13411751544971 63.9513
9.156505082664324 64.9462
9.178875550323522 67.0959
9.20126381862328 72.0482
9.223652438908596 85.2147
9.246023961427412 127.94
9.26841328802173 226.18599999999998
9.290785518039224 328.01099999999997
9.313175554425882 335.722
9.335565947154315 231.824
9.357939245086508 134.38
9.380330352834827 89.0769
9.40270436697103 71.4735
9.425096193225055 64.2565
9.447488380180165 61.01
9.469863475295412 58.7925
9.492256385987508 57.5429
9.514632206018318 56.6935
9.537025843935714 55.9937
9.559402392368193 55.8623
9.581796761000229 55.9314
9.604191496441521 55.8504
9.626569144158516 55.3591
9.648964615551032 55.8511
9.671343000390081 55.9855
9.693739211225699 56.519
9.716135793237463 56.7629
9.738515290448102 57.0229
9.760912617143402 57.8339
9.783292860202891 58.6469
9.805690935076182 59.5583
9.828089385495742 60.1596
9.850470754023561 62.056000000000004
9.872869957865444 63.6183
9.89525208097539 65.6819
9.917652041736662 68.721
9.940052382417589 71.6567
9.962435644102392 76.6631
9.984836746950979 83.5925
10.007220771957746 94.5464
10.029622640473708 113.14200000000001
10.052007432299963 137.97299999999998
10.074410069984072 160.954
10.096813093716005 181.88299999999998
10.119199042482517 203.49099999999999
10.141602840636468 244.067
10.163989564971628 324.982
10.186394141051062 479.10400000000004
10.208799107559706 658.34
10.231187001965623 760.4639999999999
10.253592751657669 697.04
10.275981430388155 503.70300000000003
10.298387966769793 327.27
10.320794897965431 223.524
10.343184759907361 161.67700000000002
10.36559248305461 124.902
10.387983138083852 104.191
10.410391656691655 92.8896
10.432800574501677 85.7071
10.455192425893369 82.6843
10.47760214443012 83.0452
10.499994797678786 86.3152
10.522405320453982 90.4321
10.54479877906917 94.2371
10.567210109595656 96.8635
10.5896218454736 103.023
10.612016518879773 121.464
10.634429067781074 156.97
10.656824555333241 209.78400000000002
10.679237920773568 262.314
10.701651695961992 281.36
10.724048411481384 260.676
10.746463008485165 217.047
10.768860546937125 162.072
10.791275969274796 109.844
10.81369180576079 79.7578
10.836090585366925 66.0627
10.858507252467449 58.9329
10.88090686379991 55.1954
10.903324365036394 52.6341
10.925724811614439 50.7296
10.948143150509463 49.8564
10.970561909719066 48.5092
10.992963615930844 47.4989
11.015383218085756 46.5818
11.037785768347074 45.711999999999996
11.06020621697282 45.1726
11.082627090322113 44.4476
11.105030913430326 44.1219
11.12745263854165 43.5772
11.149857314510728 42.885
11.172279894912576 43.1309
11.194702904450653 42.6107
11.217108866490921 42.3142
11.239532736615194 42.2176
11.26193956033512 42.0975
11.284364294577085 42.0439
11.306789462371718 41.1135
11.329197585398376 40.8472
11.351623622610898 40.5708
11.37403261614354 39.8084
11.396459526308487 39.6004
11.418869393879497 39.3675
11.441297180532617 39.279
11.463725406927658 38.9722
11.486136592353875 38.763000000000005
11.508565700543707 38.4706
11.530977768845315 38.6071
11.553407762368774 38.2239
11.575838200059769 38.2941
11.598251599479612 38.2925
11.620682927815501 38.3161
11.64309721895548 38.3501
11.665529441478206 38.2706
11.687962112597958 38.094
11.710377748130886 38.1733
11.732811318753434 38.2402
11.755227854859067 38.429
11.777662328529495 38.4945
11.800079768750786 38.49
11.822515149015453 39.039
11.844950984084935 39.4657
11.867369787303163 39.7452
11.889806534289491 40.8525
11.912226250487029 42.9947
11.934663912939751 47.4762
11.9571020346363 60.5848
11.979523127133968 85.3393
12.001962169624331 110.785
12.024384183972964 117.90100000000001
12.046824150809913 99.1374
12.069264581333726 72.1382
12.091687985297767 55.8796
12.11412934550045 50.0603
12.136553680195208 48.3149
12.158995973632788 48.7469
12.181438735204349 49.6256
12.20386447284199 50.4515
12.226308172985636 52.7064
12.24873485024193 56.7212
12.271179492516982 62.7641
12.293607112949127 71.7939
12.316052700916226 82.5473
12.338498763250042 90.7277
12.360927805303868 89.7783
12.383374818673879 81.8118
12.405804812803074 69.8455
12.428252780773262 59.576
12.45070122756722 52.6555
12.473132656675375 48.5418
12.49558206341869 45.8586
12.518014453510101 43.6321
12.540464823770117 42.3539
12.562915677315177 40.9954
12.58534951575545 40.8345
12.607801338171472 40.0076
12.630236146511358 39.8044
12.652688941369085 39.421
12.675124723177234 39.3004
12.697578494048786 39.1295
12.720032754458185 39.27
12.742470003354093 39.1703
12.764925245138771 39.3061
12.787363476431278 39.5312
12.809819703166806 39.4595
12.83227642391173 39.5391
12.854716135692716 39.998000000000005
12.877173846755147 40.5286
12.899614549869717 40.643
12.9220732548287 40.9374
12.94453245827299 41.3073
12.966974655289818 41.7039
12.989434858002571 42.2734
13.011878055298721 42.6664
13.034339260862497 43.4393
13.056800969391883 44.4344
13.079245674017244 46.3785
13.101708390774869 48.9824
13.12415410463411 55.1317
13.146617833206086 62.6988
13.169064559883248 66.9587
13.191529303857127 67.3919
13.213994557076367 66.0232
13.236442809902437 66.0144
13.258909083908291 68.0659
13.28135835851934 70.0309
13.30382565690295 72.0131
13.326293469022952 76.078
13.348744283242008 83.8256
13.371213125129904 97.9536
13.39366497011003 120.255
13.416134845360597 151.724
13.438605238843131 184.763
13.46105863690397 201.88099999999997
13.483530069144786 192.22299999999998
13.505984506951902 161.553
13.528456981549432 128.395
13.550929978879088 105.67399999999999
13.573385983253365 93.0164
13.595860028340867 86.2211
13.618317081455832 82.2345
13.64079217790333 79.7991
13.663250283359057 79.4261
13.685726434770173 81.8931
13.708203115221277 90.40100000000001
13.730662806148091 105.304
13.75314054697177 128.679
13.775601299246777 160.536
13.798080104050406 186.655
13.820559442405358 187.192
13.843021793671388 163.636
13.865502201420897 128.303
13.887965623051947 97.9933
13.910447103807167 78.2224
13.932929122629764 66.4058
13.955394156785959 60.1354
13.977877254034569 55.6643
14.000343367582113 52.6042
14.022827546871707 50.8097
14.045294743423524 49.4474
14.06778000837062 48.47
14.090265817715476 48.4928
14.112734645763819 49.1441
14.13522154619454 51.5496
14.157691466286913 59.8777
14.180179461423874 77.0126
14.202668005486178 96.8253
14.22513957064374 106.758
14.247629214846473 100.76899999999999
14.270101881097517 79.8438
14.29259262906496 61.3504
14.315083930490205 51.5479
14.337558255389705 46.9596
14.360050666019726 44.6118
14.382526101071944 43.3448
14.405019624534942 42.5725
14.427513705993134 41.9802
14.449990813291825 41.5371
14.47248601302899 41.2232
14.49496423954951 41.1063
14.517460561197822 41.1054
14.539939910570322 40.57
14.562437357763558 40.4813
14.58493536931253 40.4935
14.607416409993311 40.2615
14.62991555254159 40.233000000000004
14.652397725157423 40.3146
14.674898002342799 40.4123
14.697398848433282 40.4971
14.719882725991326 41.0294
14.74238471217934 41.1117
14.764869730765593 41.3434
14.787372860692983 41.7296
14.809876564079925 42.8274
14.83236330125751 43.9722
14.854868153850365 45.6003
14.877356041159485 47.6801
14.899862046604186 49.0951
14.922351087688757 50.7403
14.944858249632887 51.6358
14.967365991421232 52.5358
14.989856770231246 53.7953
15.012365673994204 57.4586
15.03485761569738 63.5882
15.05736768508665 72.7927
15.07987833888692 85.1952
15.102372032001655 101.712
15.124883856909658 112.834
15.14737872204565 114.572
15.169891721717274 104.82600000000001
15.192405310371893 91.2736
15.214901940621196 76.9282
15.237416709527137 65.0629
15.259914520936249 56.9656
15.282430473753607 51.1781
15.304947020131227 47.7107
15.327446610371178 45.2729
15.349964346154254 43.5926
15.372465126703139 42.861000000000004
15.394984055556009 41.9392
15.417486030076159 41.49
15.44000615566487 41.0566
15.462526881230803 40.8404
15.485030653812652 40.585
15.507552581617434 40.1759
15.530057557334603 40.1268
15.55258069104857 40.2259
15.575104429329837 40.1819
15.597611216864632 40.0693
15.620136166564563 39.871
15.6426441664095 40.2141
15.665170331202765 40.2083
15.687697105158826 40.5943
15.710206930593545 41.2739
15.732734925158933 41.9594
15.755245972089478 42.9485
15.77777519094324 44.5305
15.800287463046663 46.2441
15.822817909869592 47.7049
15.84534897229804 48.2928
15.867863089299354 49.1771
15.890395385222186 50.2068
15.912910736597423 52.0908
15.935444269699861 55.7947
15.957978423016485 61.6189
15.980495633101265 69.9515
16.003031029129367 81.9325
16.02554948280019 96.37899999999999
16.048086125229432 107.118
16.070623392487107 110.777
16.09314371869582 106.771
16.11568223789321 97.4686
16.13820381691126 87.3782
16.160743591742527 76.3284
16.183283996022084 64.5695
16.205807461423195 54.165
16.228349126881973 47.2295
16.25087385432698 43.446000000000005
16.27341678466365 40.8524
16.29594277784926 39.4852
16.31848697676433 38.5111
16.341031811604868 37.4248
16.36355971058487 36.9076
16.3861058195587 36.3567
16.40863499352978 35.7198
16.431182380342005 35.4367
16.453730407713202 35.1414
16.476261501364792 34.875
16.498810812136167 34.4865
16.52134319004079 34.4412
16.54389378792203 34.3632
16.566445031001553 34.1662
16.588979342490088 34.0333
16.61153187824822 33.8999
16.634067483263312 33.6411
16.656621315414416 33.4902
16.679175797408888 33.2064
16.701713349928728 33.2697
16.72426913389191 33.3815
16.74680798922351 33.3513
16.76936507887444 33.4363
16.791905240734874 33.4081
16.814463639794468 33.2383
16.837022695210294 33.2391
16.859564824093756 33.2834
16.882125194503903 33.3282
16.904668639217885 33.8804
16.927230328348003 34.5244
16.949792678493612 36.0824
16.972338104193863 38.9686
16.994901778652235 41.6449
17.017448529496576 43.3136
17.040013531998152 42.8915
17.06257920018044 40.2619
17.0851279459922 37.2718
17.107694947817667 35.6752
17.130245028099072 34.7135
17.15281336730298 34.5469
17.17536478578733 34.5458
17.19793446610687 34.7628
17.220504818648422 35.0965
17.243058251703697 35.3238
17.265629950971032 35.4997
17.288184731571736 35.7287
17.310757781306908 36.0796
17.33333150794385 36.339
17.355888317140174 37.001999999999995
17.37846339986244 38.1482
17.401021565958885 39.6985
17.42359800851343 42.147
17.44617513265564 45.0075
17.468735341390783 47.8586
17.491261035594565 49.1013
17.51396340099364 48.4216
17.536490463869136 46.1451
17.559018209820174 43.1592
17.58154663977963 40.501999999999995
17.604251766089718 38.8514
17.626781572227713 37.546
17.64931206518155 36.979
17.671843245885103 36.5278
17.69455114821572 36.3171
17.717083712612634 36.4776
17.739616967569667 36.7903
17.762150914021706 37.2662
17.78486160749854 38.4908
17.807396945166804 41.2078
17.829932977143503 43.501000000000005
17.85246970436452 44.7682
17.875183204129467 44.6517
17.897721330097664 43.2944
17.920260154126645 41.739
17.942799677153296 40.8592
17.9655159983646 40.7291
17.988056927677544 41.276
18.010598558807683 42.4175
18.033140892692916 43.1705
18.05586005052525 43.1928
18.07840379824407 43.3987
18.10094825154059 44.1169
18.12366954819864 45.0158
18.146215420998306 46.6904
18.16876200220057 49.324
18.191309292745153 53.5289
18.214033452627167 59.6821
18.236582170236648 67.9819
18.259131600016456 77.532
18.281681742907335 85.0728
18.304408781233683 87.5129
18.32696035875955 83.6988
18.349512652227624 75.2145
18.372065662579683 66.1922
18.394795594587553 58.9542
18.41735004715306 54.6848
18.43990521943684 52.9374
18.46246111238171 53.2193
18.485193953325208 55.5465
18.507751296070428 59.3237
18.530309362314178 63.6562
18.552868153000343 65.9822
18.57560391815056 66.2932
18.59816416623245 63.9239
18.620725141597372 59.7812
18.643286845190268 55.3566
18.666025549835414 51.2421
18.688588718427933 47.4832
18.711152618092243 44.1854
18.73389353884365 41.4794
18.75645890921984 39.4186
18.77902501351406 38.4161
18.801591852673102 37.9238
18.824335739722738 37.2167
18.846904057212626 36.9168
18.8694731124168 36.5684
18.89204290628315 36.2468
18.914789774966803 36.1456
18.937361054791623 35.6752
18.959933076131318 35.5075
18.982505839934877 35.5159
19.00525570560582 35.3143
19.027829963004184 35.1499
19.05040496572238 35.2006
19.072980714710468 35.0786
19.095733592739563 34.97
19.11831084296757 34.8618
19.140888842324735 34.8315
19.16346759176222 34.8716
19.18622349753803 35.0535
19.208803755869358 35.3001
19.231384767143577 35.6631
19.253966532312948 36.0241
19.276725481241822 36.1883
19.29930876296784 36.5939
19.3218928014549 37.5786
19.34465404436217 39.6461
19.36723960516257 42.8742
19.389825925592426 46.4657
19.412413006605938 49.3651
19.43517731967805 50.3006
19.457765930683355 49.1282
19.48035530514408 46.7006
19.50294544401556 45.1675
19.525712842708348 45.1977
19.54830451925909 45.8713
19.570896963095727 45.5834
19.593490175174704 44.9337
19.616260674962184 43.1782
19.638855432416964 40.6792
19.661450960992624 38.673
19.68404726164677 36.9741
19.706820878021247 35.7032
19.729418731756834 35.0073
19.752017360452857 34.257
19.77461676506804 33.8903
19.797393513540218 33.5861
19.819994478951667 33.2088
19.84259622316767 33.2274
19.8651987471481 33.2002
19.887978643247177 32.9581
19.91058273574792 33.0336
19.933187610901943 32.9507
19.955969879466828 33.1952
19.97857632894404 33.3245
20.00118356396599 33.3893
20.023791585494575 33.4841
20.046577028914875 33.5222
20.069186632506966 33.4772
20.091797025500632 33.5716
20.114408208858933 33.8795
20.137196842715273 34.4258
20.159809615886765 35.0617
20.18242318232135 35.8372
20.20503754298326 37.2043
20.227829382875154 38.7924
20.250445341109344 40.8467
20.27306209647285 42.6055
20.29567964993108 43.3703
20.31847471147704 43.2649
20.34109387027612 42.2481
20.363713830075454 40.4937
20.386334591841646 38.8948
20.409132890679302 37.9844
20.431755265564437 37.657
20.454378445325528 38.059
20.477002430930366 39.184
20.499803982716553 40.3105
20.522429589228004 41.3013
20.54505600449589 41.2453
20.567683229489194 40.4193
20.590488049900088 38.5627
20.61311690359731 36.6398
20.63574656993626 35.1166
20.658553853717297 33.8151
20.681185154618298 32.9439
20.703817271080066 32.4941
20.72645020407368 31.9282
20.749260783967177 31.8657
20.771895359337133 31.761
20.794530754161617 32.3363
20.817166969412938 33.3558
20.83998086114876 34.6254
20.86261872660049 35.3395
20.885257415405402 35.7683
20.90789692853701 34.955
20.930714147864748 33.6865
20.953355319030678 32.2014
20.97599731745334 31.3229
20.99864014410749 30.5804
21.021460706796564 30.1869
21.044105199328826 30.1529
21.06675052302631 30.0809
21.089396678865015 29.9608
21.112220600704806 30.0148
21.134868430275347 30.13
21.15751709492456 29.9155
21.180166595629693 29.8609
21.202993892429635 29.894000000000002
21.22564507473034 29.6941
21.24829709602816 29.7484
21.27112693608965 29.9557
21.293780644891275 29.9808
21.316435195634053 30.0107
21.339090589297417 30.2013
21.361923832041875 30.5475
21.384580921090404 30.8382
21.407238856007325 31.175
21.429897637773326 31.8502
21.45273429906592 32.2443
21.475394784108598 32.281
21.498056118951983 32.2404
21.520718304578022 32.0216
21.543558400304388 31.9009
21.566222297108816 31.6119
21.58888704765135 31.3623
21.61155265291521 31.0929
21.63439619898156 30.7336
21.657063523335786 30.3595
21.67973170537063 30.3071
21.7024007460706 30.3579
21.72524775840385 30.5503
21.747918526116475 30.7605
21.770590155457388 30.8996
21.79326264741238 31.1721
21.816113141960237 31.1833
21.838787368860547 31.1876
21.861462461341976 31.5124
21.884315579735777 31.7096
21.90699241312273 31.8312
21.92967011506078 32.2358
21.95234868653799 32.6664
21.9752053151131 33.2915
21.997885635446785 34.2508
22.020566828293532 35.2371
22.04324889464272 36.6567
22.066109049404666 38.3788
22.088792872571794 40.1646
22.111477572219204 41.7422
22.1341631493376 42.4614
22.157026846313123 42.3338
22.179714188221507 41.9173
22.202402410582668 41.1538
22.22509151438863 40.2077
22.24795876962584 39.6586
22.270649646204486 39.0709
22.293341407213727 38.4204
22.316034053646906 37.951
22.338904883215342 37.1976
22.36159931041458 36.5697
22.38429462602756 35.7131
22.40699083104897 34.6222
22.429865251039757 33.6341
22.452563244831367 32.7577
22.47526213102522 32.1017
22.49813925616515 31.5579
22.520839937143307 31.2139
22.543541513520587 31.0381
22.56624398629403 30.7456
22.589124730075895 30.724
22.611829005656723 30.6585
22.63453418063466 30.4477
22.657240256008077 30.5031
22.680124634582935 30.2849
22.70283252079775 30.4658
22.725541310413075 30.5879
22.74825100442868 30.5789
22.771139033969575 30.791
22.79385054687155 30.8844
22.81656296718292 31.3288
22.83927629590484 31.8736
22.862167992606945 32.3598
22.88488314827121 32.7039
22.907599215359284 32.6829
22.93031619487366 32.4197
22.953211574954405 32.0856
22.975930389478226 31.8733
22.998650119445763 31.8233
23.02137076586092 31.7229
23.044269845560063 31.9841
23.06699233506288 32.5885
23.089715744034912 33.1846
23.112617610931565 34.1465
23.135342869061212 35.3858
23.158069049684816 36.7518
23.1807961538087 37.8627
23.20370174880544 38.3977
23.226430710184808 38.065
23.249160598093425 36.9937
23.271891413539002 35.5485
23.294800752937697 34.1996
23.31753343374794 33.2528
23.340267045128353 32.4233
23.36300158808808 32.0925
23.38591468821339 31.8837
23.408651104658304 31.9124
23.431388455719986 32.1036
23.454126742409 32.6609
23.4770436196085 33.3791
23.499783787914662 34.1676
23.522524894889884 34.4421
23.54526694154616 34.3931
23.56818761219047 34.0788
23.59093154860734 33.1605
23.613676427751283 32.8347
23.636422250635754 32.4673
23.659346731118656 32.3693
23.68209445191868 32.8325
23.704843119509587 33.4358
23.72759273490623 34.3653
23.750521041644767 35.5183
23.77327256312355 36.9913
23.796025035462787 38.1789
23.818956224555475 38.7221
23.841710609113413 38.695
23.86446594758979 37.6
23.887222241002014 36.0213
23.910157285144578 34.1957
23.932915498962537 33.0015
23.955674670778713 31.6933
23.978434801611975 30.7822
24.001373717286125 30.3872
24.024135776723917 30.0407
24.046898798245582 29.7294
24.06966278287146 29.6117
24.092605586582614 29.4681
24.115371508023642 29.4215
24.1381383956401 29.4014
24.16090625045381 29.3823
24.183852958731244 29.1024
24.206622758582608 28.7487
24.229393528706886 28.3617
24.252165270127392 28.2713
24.27511589952438 28.1301
24.297889594216997 27.9189
24.32066426328598 27.6048
24.34343990775613 27.7403
24.36639447485003 27.5638
24.38917208083877 27.3728
24.41195066531332 27.4022
24.43490819850244 27.3996
24.457688750692377 27.256999999999998
24.48047028445616 27.2454
24.503252800821233 27.3276
24.526214300784112 27.2792
24.548998793132213 27.115
24.57178427117417 27.2095
24.59457073593893 27.2089
24.617536219319863 27.0066
24.64032466834748 27.1053
24.663114107195035 27.3485
24.685904536893013 27.6702
24.708874020360852 28.055
24.731666442613744 28.3664
24.754459858818787 28.5699
24.777254270007962 28.5918
24.80022777025625 28.1907
24.82302418230472 27.8496
24.845821592443674 27.4682
24.86862000170663 27.2668
24.891597535453727 27.1299
24.914397953892728 27.0297
24.93719937456671 26.7388
24.96000179851076 26.8823
24.98298338249997 26.8549
25.00578782394922 26.8032
25.028593271784167 26.7911
25.05157790644186 26.7403
25.07438537804115 26.6355
25.097193859145293 26.7001
25.120003350792075 26.7306
25.142992065061257 26.7727
25.165803588823465 26.8072
25.18861612625217 27.015
25.211429678386736 26.9284
25.234422489079968 27.1552
25.257238081693636 27.2798
25.280054692141732 27.5503
25.3028723214652 27.8538
25.325869245420463 28.2221
25.348688923599397 28.4957
25.371509623787006 28.8215
25.394331347025812 28.9157
25.41733240110666 28.8289
25.440156181590016 28.7378
25.46298098826268 28.654
25.48580682216873 28.8396
25.50881202326435 28.8544
25.53163992281684 29.0446
25.55446885274561 29.4485
25.577298814096377 29.6693
25.600308179121807 29.6809
25.623140214533745 29.6637
25.64597328451537 29.1169
25.66898578564376 28.3952
25.691820936010206 27.9382
25.714657124097695 27.5359
25.737494350954734 27.023000000000003
25.760511045684957 26.6292
25.783350361364224 26.4819
25.806190718969255 26.4506
25.82903211955018 26.5517
25.852053024868923 26.6399
25.874896522722523 26.7878
25.897741066713106 26.8867
25.920586657892454 27.0021
25.943611790812668 26.9003
25.966459487728237 26.8068
25.989308234998564 26.3957
26.01215803367705 26.2302
26.03518741123814 26.0535
26.05803932412957 25.9632
26.080892291600094 25.8155
26.10374631470478 25.7903
26.12677995397268 25.8655
26.14963609978026 25.923000000000002
26.172493304397875 25.8827
26.19535156888223 25.9555
26.218389486949604 26.0609
26.241249882640123 26.2517
26.26411134137826 26.448
26.28715248187403 26.831
26.31001607820869 27.0165
26.3328807407756 27.1202
26.35574647063438 27.3898
26.37879191991473 27.2249
26.401659795896734 27.0924
26.424528742360263 26.9136
26.447398760366614 26.6535
26.470448535598294 26.4855
26.49332070826805 26.3949
26.516193955675355 26.4186
26.53906827888316 26.0528
26.562122397260108 25.9497
26.584998883685063 25.8982
26.607876449110325 25.9135
26.63075509460056 25.844
26.65381357334404 25.8829
26.67669439061878 25.9877
26.699576291163382 25.9252
26.722459276044212 26.0971
26.745522132402975 26.2231
26.768407297649354 26.4038
26.791293550442003 26.52
26.814180891848974 26.8807
26.837248143099337 27.2013
26.860137673466657 27.6253
26.88302829566349 27.8504
26.90592001075963 28.2455
26.92899167420566 28.3028
26.951885586870763 28.2247
26.974780595655517 28.2663
26.99785558178161 28.2217
27.020752794605112 28.1606
27.043651106772522 28.1227
27.06655051935668 28.0435
27.089629948036183 27.6774
27.112531573292053 27.1622
27.135434302194138 26.9066
27.158338135817015 26.3713
27.181422024430987 26.0328
27.204328079372566 25.8299
27.22723524226965 25.6404
27.250143514198573 25.4829
27.273231880156334 25.4281
27.296142382065014 25.2811
27.319053996245536 25.0676
27.341966723775965 25.0032
27.365059584515222 24.9659
27.38797455070062 24.9843
27.410890633481237 24.8827
27.433807833936918 24.8121
27.456905206923906 24.763
27.47982465472398 24.7198
27.502745223449743 24.8993
27.525666914182825 24.9501
27.548768816912457 24.9303
27.571692763693633 24.8553
27.59461783573812 24.8942
27.617723149491244 24.8771
27.640650484125285 24.8295
27.66357894728264 24.9221
27.686508540048052 24.9653
27.709618414237887 24.9102
27.732550278321757 24.9661
27.755483275279115 25.0772
27.778417406196485 25.2752
27.801531858397514 25.2277
27.824468269376716 25.2128
27.847405817586786 25.0999
27.870344504116094 25.0517
27.893463551932008 24.9956
27.916404527281053 24.8895
27.93934664422563 24.845
27.962289903855886 24.6542
27.98541356491974 24.6469
28.00835912214229 24.7344
28.03130582533231 24.9606
28.054253675581805 25.098000000000003
28.077381967556104 25.1969
28.100332124185126 25.3806
28.123283431160893 25.5185
28.146235889577238 25.548000000000002
28.169368830154156 25.5068
28.192323603752033 25.4881
28.215279532083304 25.3687
28.238415973016764 25.4225
28.261374223145094 25.6634
28.284333631303806 26.0498
28.307294198589954 26.186999999999998
28.330435319167677 26.2453
28.353398217078915 26.2077
28.376362277420153 26.105999999999998
28.39932750129032 25.9318
28.422473319286713 25.6812
28.44544088262495 25.5867
28.468409612800283 25.4528
28.491379510913497 25.2186
28.51453004413313 25.0997
28.53750229057244 25.0013
28.56047570826344 24.7973
28.583450298308804 24.8274
28.606605564586562 24.5223
28.629582511831156 24.357
28.65256063474956 24.2192
28.675539934446338 24.055
28.698699951647605 23.8139
28.72168161743193 23.6897
28.74466446331978 23.5591
28.767648490417624 23.4466
28.790813276438353 23.2315
28.813799678527303 23.0923
28.836787265157085 23.138
28.859955641890075 23.0482
28.882945610203045 23.0102
28.905936766392035 23.0099
28.928929111566863 23.0157
28.952102288520145 22.8299
28.975097024308607 22.7773
28.998092952423807 22.8948
29.021090073977508 22.8678
29.04426806913204 22.8435
29.067267590245258 22.8253
29.090268308143695 22.774
29.11327022394099 22.9445
29.13645305530891 22.9731
29.159457379627167 23.0267
29.18246290519685 23.0667
29.20546963313352 23.0946
29.22865731875826 22.9691
29.25166646419296 22.8064
29.27467681535305 22.6133
29.29768837335608 22.535
29.320880931312562 22.4052
29.34389491580634 22.2701
29.366910110507334 22.3161
29.38992651653503 22.2436
29.41312396492981 22.2412
29.436142806456754 22.1439
29.45916286268059 22.0827
29.48236399319994 22.024
29.50538649169417 22.0155
29.528410208259935 22.1314
29.55143514402014 22.0266
29.574641196749695 22.0476
29.597668583816574 22.1402
29.6206971934585 22.0627
29.64372702680042 22.2349
29.666938019934474 22.2002
29.689970313635285 22.2138
29.713003834422636 22.265
29.73603858342347 22.0871
29.759254535188578 21.9582
29.78229175361658 21.9035
29.80533020365064 21.8553
29.82836988641968 21.7118
29.85159081507472 21.6249
29.874632976355343 21.5803
29.89767637376955 21.575
29.920721008448314 21.3923
29.9439469322847 21.3607
29.96699405457564 21.2933
29.9900424175358 21.2629
30.013092022298157 21.3185
30.03632295963995 21.1987
30.059375061131373 21.3513
30.08242840783577 21.3837
30.105483000888153 21.4083
30.128718970092244 21.4372
30.151776069006917 21.4959
30.17483441768648 21.495
30.198074175317235 21.4775
30.221135036724256 21.4139
30.24419715131772 21.3444
30.267260520236203 21.198
30.290505341942243 21.2369
30.313571232750228 21.1531
30.336638381310948 21.125
30.35970678876503 21.0411
30.38295669299435 21.003
30.40602763151657 21.0579
30.429099832366074 21.0383
30.452173296685572 21.1693
30.47542830191959 21.1478
30.498504306502497 21.148000000000003
30.521581577995562 21.2042
30.544660117543582 21.1631
30.56792024229725 21.1378
30.59100133132069 21.0948
30.614083691845494 20.9772
30.637167325018545 20.9254
30.660432587840603 21.0021
30.683518779717886 20.9122
30.70660624769615 20.9114
30.729694992924372 20.877
30.75296541239743 20.8696
30.77605672557558 20.9506
30.799149319462742 20.968000000000004
30.8224236211637 21.0286
30.845518789950724 20.9985
30.868615242910597 21.0657
30.891712981195973 21.1055
30.91499247215866 21.173000000000002
30.938092794619365 21.355999999999998
30.96119440587579 21.458000000000002
30.984297307082752 21.5137
31.00758200598383 21.5327
31.030687500658694 21.4749
31.053794288760695 21.505
31.076902371446767 21.4235
31.100192296997445 21.357
31.12330298246119 21.3455
31.14641496599209 21.2578
31.169528248749216 21.2817
31.19282341969534 21.219
31.215939314557186 21.0856
31.239056512134788 20.9611
31.262175013589378 20.802
31.28547544871168 20.6706
31.30859657161541 20.5786
31.331719001892175 20.5629
31.35484274070538 20.5088
31.378148458819545 20.4469
31.401274828443725 20.47
31.424402510106933 20.4497
31.447712205419993 20.449
31.470842524931633 20.3019
31.493974159989783 20.275
31.51710711176168 20.2617
31.54042212308802 20.3317
31.563557722100917 20.3975
31.586694641341655 20.3547
31.609832881979628 20.3957
31.63315322823208 20.3919
31.656294125521327 20.4683
31.679436347728515 20.5054
31.70257989602529 20.4673
31.725905596152327 20.5332
31.74905181052835 20.4935
31.772199354521323 20.5976
31.79534822930507 20.5978
31.818679302290967 20.5464
31.84183085259981 20.4668
31.864983737233473 20.3817
31.88813795736804 20.3117
31.911474422233013 20.1681
31.934631327356435 20.1542
31.9577895715215 20.0916
31.980949155906522 19.9763
32.004291031706956 19.977999999999998
32.027453310562606 19.9378
32.05061693318573 19.9101
32.07396288236386 19.9733
32.09712920658542 20.022000000000002
32.12029687812702 20.0771
32.14346589817093 19.9729
32.166817291729984 20.0412
32.18998902288583 20.079
32.21316210610336 20.0421
32.23633654256711 20.0491
32.259693399663725 20.1291
32.282870556771144 20.0029
32.30604907069099 20.0257
32.329228942610065 19.9475
32.35259128243769 19.8205
32.375773884550505 19.7267
32.398957848235646 19.7703
32.422143174682176 19.6525
32.445511016471215 19.578
32.468699082679954 19.4948
32.49188851523011 19.4523
32.51507931531304 19.39
32.538452678331 19.2782
32.56164622776311 19.1893
32.58484114831493 19.1377
32.60803744118015 19.2126
32.631416344731896 19.1752
32.654615396551876 19.1218
32.67781582427913 19.0164
32.701198898634416 19.019000000000002
32.72440209253756 18.8876
32.747606665947124 18.9041
32.77081262006088 18.8085
32.79420126883317 18.7702
32.81740999876112 18.7745
32.840620112999424 18.7871
32.86383161274818 18.7889
32.88722585534586 18.6892
32.91044014056596 18.739
32.933655814909734 18.7329
32.95687287957963 18.8176
32.98027273544904 18.797
33.00349259526636 18.7345
33.026713849030116 18.7673
33.04993649794511 18.7818
33.073341986570746 18.7554
33.09656744032826 18.5972
33.11979429286444 18.6378
33.14302254538647 18.5995
33.166433686291185 18.5534
33.18966475336992 18.4608
33.212897224069096 18.4231
33.23613109959831 18.3867
33.259547912343415 18.3417
33.2827846121627 18.3552
33.306022720453775 18.3546
33.32926223842861 18.311
33.352684742614166 18.3854
33.37592709463173 18.4126
33.399170859982064 18.4105
33.422597648419426 18.3586
33.44584425514446 18.4055
33.46909227885668 18.4102
33.4923417207723 18.4273
33.51577423505344 18.4174
33.539026528130385 18.395
33.56228024307245 18.3709
33.585535381098246 18.3018
33.60897364093058 18.253
33.63223163992385 18.3278
33.6554910656699 18.2393
33.678751919389796 18.1709
33.702195944520106 18.1101
33.72545966903325 18.0176
33.74872482519663 17.9098
33.771991414233746 17.8448
33.79544122444841 17.8108
33.81871069412428 17.7422
33.84198160035767 17.7206
33.86525394437455 17.7513
33.88870955949969 17.7214
33.911984794020626 17.7163
33.93526147001624 17.652
33.958539588715006 17.6349
33.98200102861669 17.6311
34.0052820477047 17.5448
34.02856451319451 17.6255
34.05203033759056 17.5346
34.07531571090147 17.534000000000002
34.09860253431845 17.4898
34.121890809074316 17.4101
34.145362493118924 17.378
34.16865368561615 17.4589
34.191946333164054 17.4437
34.21524043699793 17.3754
34.23871800066799 17.3439
34.26201503218366 17.3244
34.28531352370466 17.1757
34.30861347646881 17.1725
34.33209693978188 17.233
34.3553998301885 17.1277
34.378704185565205 17.1005
34.402010007152356 17.028
34.42549939016683 17.0639
34.44880815937748 17.0063
34.472118398533134 16.9708
34.49543010887669 16.9324
34.51892543169198 16.8889
34.54224009966052 16.9263
34.56555624255917 16.8691
34.58887386163339 16.7764
34.61237514439016 16.8819
34.6356957311114 16.8895
34.65901779775809 16.8061
34.68252356662995 16.8302
34.705848608458616 16.8078
34.72917513396849 16.7743
34.75250314440949 16.7341
34.77601490857862 16.6408
34.799345904259795 16.5687
34.82267838863559 16.6173
34.846012362958525 16.5767
34.869530142679984 16.637
34.89286711232212 16.552
34.91620557568269 16.5527
34.93954553401677 16.503
34.9630693495876 16.4273
34.986412313340814 16.426
35.00975677584668 16.4027
35.033102738362956 16.3897
35.05663261012228 16.3079
35.0799815881786 16.3585
35.10333207003229 16.2804
35.12668405694369 16.335
35.150220005273056 16.2138
35.17357501786656 16.2778
35.19693153931268 16.2363
35.220289570874385 16.2028
35.24383161619786 16.2451
35.267192683604904 16.2579
35.290555264930376 16.1589
35.314101899412165 16.1675
35.33746752422433 16.2408
35.36083466676374 16.186
35.38420332829803 16.1585
35.407756095629054 16.1401
35.43112781085063 15.9968
35.45450104888391 16.0601
35.477875810999194 16.0845
35.50143473172161 15.9711
35.52481255774625 16.1078
35.54819191167777 16.105999999999998
35.57157279478914 16.0225
35.595137889488406 16.0155
35.61852184675279 16.0901
35.641907337029984 16.0785
35.665294361595684 16.127
35.68886565090076 16.0401
35.7122557598848 16.0623
35.73564740699838 16.1133
35.759040593519934 16.0808
35.78261809810353 16.1049
35.80601437933051 15.9876
35.829412203814705 15.9429
35.85281157283719 15.9694
35.876395313415884 15.9422
35.8997977874528 15.8526
35.92320180988546 15.8728
35.946790244133936 15.7644
35.97019737933222 15.7976
35.993606066789866 15.7877
36.01701630779276 15.7582
36.04061101440684 15.6166
36.06402437852291 15.6154
36.08743930005611 15.6446
36.1108557802951 15.5623
36.13445678011326 15.534
36.15787639383515 15.4886
36.18129757014299 15.455
36.20472031032821 15.4483
36.22832762423364 15.4643
36.25175350829375 15.3943
36.275180960119776 15.3721
36.298609981005924 15.4005
36.32222362992669 15.3345
36.34565580510207 15.3947
36.36908955323448 15.3115
36.39252487562093 15.2006
36.416144880530226 15.2621
36.43958336764275 15.2518
36.463023432914625 15.2763
36.486465077645676 15.2312
36.51009145956204 15.297
36.53353627947859 15.2994
36.55698268276811 15.2821
36.58043067073321 15.1582
36.60406345072071 15.1109
36.62751462435344 15.1452
36.65096738658405 15.0833
36.67460498210655 15.0453
36.69806093788647 15.05
36.72151848619297 14.9605
36.744977628333636 15.0188
36.76862165890998 14.9344
36.79208400512205 14.9896
36.81554794910557 14.9662
36.83901349217101 14.892000000000001
36.862663978991606 14.886
36.88613273667352 14.8416
36.90960309738324 14.8352
36.933075062434064 14.8131
36.95673202673572 14.8765
36.98020721697122 14.8687
37.003684015502365 14.7806
37.027162423645365 14.716
37.050825886711465 14.7732
37.07430753063053 14.6564
37.09779078812467 14.6617
37.121275660513014 14.6345
37.144945643673694 14.6432
37.16843376245278 14.6191
37.19192350009803 14.6155
37.215414857931435 14.5312
37.239091382563885 14.4998
37.262585997426164 14.4752
37.28608223645736 14.4246
37.309763684451696 14.4377
37.33326318851098 14.4192
37.356764320726555 14.3677
37.380267082425526 14.3897
37.40395510942588 14.3308
37.42746114683234 14.3525
37.45096881771841 14.2344
37.474478123414166 14.3058
37.49817275092816 14.2194
37.52168534303452 14.2756
37.54519957395567 14.2269
37.568715445024665 14.2353
37.592416694607714 14.1572
37.61593586281424 14.1535
37.63945667518264 14.2015
37.66297913304891 14.175999999999998
37.68668702630454 14.1354
37.710212792059274 14.0748
37.733740207334854 14.0153
37.757269273470364 13.9849
37.780983832050374 13.9984
37.80451621684926 13.9911
37.82805025654007 14.014000000000001
37.851585952464795 13.9601
37.8753071980695 13.83
37.89884622345676 13.8454
37.92238690911902 13.8519
37.94611318753442 13.8264
37.969657210779765 13.8494
37.99320289834801 13.8036
38.016750251586465 13.7309
38.04048325513017 13.7222
38.06403395679343 13.7442
38.087586328183946 13.7359
38.11114037065203 13.7557
38.13488012115898 13.7507
38.1584375229181 13.6591
38.181996599821 13.6031
38.205557353221124 13.6296
38.229303872575656 13.6296
38.2528679961576 13.5651
38.27643380031219 13.5005
38.30000128639589 13.5195
38.32375459653193 13.4757
38.34732546371299 13.462
38.37089801690786 13.4532
38.39447225747609 13.3945
38.418232380377425 13.3972
38.441810012983396 13.3625
38.46538933705673 13.3351
38.488970353960084 13.3656
38.51273731166058 13.3441
38.536321731567014 13.3488
38.55990784840681 13.3046
38.58367995004091 13.2489
38.60726947812959 13.2732
38.63086070726198 13.2867
38.654453638806274 13.2861
38.678232613930824 13.2155
38.70182896773327 13.1581
38.72542702806741 13.1439
38.7490267963045 13.109000000000002
38.77281266709232 13.0647
38.79641586862214 13.1018
38.8200207821842 13.0566
38.843627409152944 13.0838
38.86742019782782 13.0694
38.891030269149255 13.0074
38.914642058016156 13.0549
38.938255565806124 13.0032
38.96205529464307 12.9756
38.98567225787121 12.9661
39.00929094417078 12.9993
39.03291135492255 12.9792
39.05671804624804 12.9661
39.080341923549106 12.9422
39.103967529460334 12.8935
39.127594865365744 12.8138
39.15140854155791 12.8071
39.17503935514948 12.8177
39.19867190290282 12.8057
39.22249083587951 12.7336
39.24612686969409 12.6734
39.269764641845306 12.6915
39.293404153722804 12.6636
39.317230110864074 12.6371
39.34087311998506 12.6501
39.36451787301696 12.6286
39.388164371352595 12.6221
39.41199737518003 12.5524
39.43564738196752 12.6259
39.45929913825317 12.5313
39.48295264543308 12.5029
39.506792718520884 12.5286
39.530449745387216 12.5348
39.55410852735203 12.532
39.57776906581474 12.4793
39.60161623079 12.4382
39.625280300200025 12.4461
39.64894613032202 12.3987
39.67261372255866 12.3601
39.6964680021016 12.3466
39.72013913657293 12.3982
39.74381203738292 12.3146
39.76748670593756 12.3381
39.79134812278169 12.3197
39.81502634488497 12.3068
39.83870633896685 12.2325
39.862388106436654 12.1832
39.88625668336918 12.2164
39.90994201572829 12.1998
39.933629125719285 12.2133
39.957503091207826 12.1497
39.9811937746168 12.1763
40.00488623990914 12.0735
40.02858048850006 12.1632
40.05246165409549 12.1687
40.076159487492085 12.0697
40.099859108448875 12.0868
40.123560518384345 12.0464
40.1474489070226 12.0075
40.171153913178564 11.992
40.194860712584955 12.0107
40.2185693066637 11.9863
40.242464941335314 11.9822
40.26617714307655 11.9755
40.289891143772046 11.9619
40.3136069448471 11.9315
40.33750984859743 11.8734
40.3612292688043 11.8986
40.3849504936829 11.8522
40.40867352466194 11.870999999999999
40.43258372059144 11.8042
40.45631038219906 11.8854
40.48003885420956 11.7439
40.503769138055105 11.7858
40.52768664931955 11.7766
40.55142057531802 11.7271
40.57515631746428 11.7515
40.599079334038514 11.7066
40.62281872700477 11.6937
40.64655994043941 11.6643
40.67030297578061 11.7096
40.69423334835778 11.6748
40.71798004609188 11.618
40.74172857006355 11.5609
40.76547892171441 11.5881
40.7894166736039 11.6116
40.813170699248566 11.5508
40.83692655691388 11.5324
40.86068424804498 11.5826
40.884629402612525 11.4929
40.908390779366385 11.5006
40.932153993938 11.535
40.95591904777605 11.4586
40.979871628443995 11.4358
41.003640379561936 11.4604
41.02741097430883 11.4479
41.05118341413683 11.4081
41.075143444384416 11.3938
41.098919593177826 11.3966
41.1226975914255 11.3408
41.14647744058318 11.3409
41.170444943946755 11.3016
41.19422851378379 11.2893
41.218013938914645 11.2611
41.24198706625173 11.2658
41.26577622087193 11.2074
41.289567235177785 11.2239
41.31336011063129 11.1891
41.337340752422875 11.1306
41.361137369129835 11.195
41.38493585138705 11.1706
41.40873620066004 11.1303
41.43272438060107 11.1131
41.45652848292052 11.0625
41.48033445666918 11.0472
41.50414230331616 11.0375
41.528138045159764 11.0557
41.551949656675205 10.9922
41.575763145513235 10.9899
41.59957851314666 10.9334
41.62358184070442 10.9408
41.64740098505737 10.9705
41.6712220126409 10.9592
41.69504492493139 10.9539
41.71905586207357 10.8939
41.74288256296395 10.8587
41.766711153007456 10.8146
41.79054163368412 10.8306
41.814560204340054 10.847999999999999
41.838394485526365 10.7952
41.86223066180303 10.7744
41.88625497706819 10.715
41.910094962812 10.7376
41.93393684811168 10.7418
41.95778063445365 10.7254
41.981812625263366 10.7171
42.00566023303407 10.7132
42.029509746323676 10.6672
42.05336116662236 10.7136
42.077400857069705 10.6716
42.10125611078846 10.6691
42.12511327600405 10.6444
42.14897235421036 10.6154
42.173019768448455 10.6364
42.19688269209613 10.5755
42.22074753323349 10.5114
42.24461429335818 10.526
42.268669455600495 10.4844
42.292540073217886 10.4831
42.31641261433284 10.4678
42.34028708044675 10.4153
42.36435001496739 10.4266
42.38822835065557 10.4284
42.41210861586426 10.3732
42.4359908120986 10.3689
42.46006154323262 10.373
42.48394762115317 10.3185
42.507835634632315 10.3064
42.531912233047436 10.3248
42.55580413732265 10.3083
42.579697981698 10.277000000000001
42.60359376768525 10.2814
42.62767820545945 10.2359
42.65157789440821 10.2292
42.67547952952185 10.1991
42.699383112316 10.1859
42.72347541395347 10.1867
42.74738291190531 10.1378
42.771292362102166 10.139
42.795203766063516 10.112
42.819303956130405 10.0759
42.843219287476536 10.0635
42.86713657716324 10.0781
42.89105582671383 10.0737
42.91516392983864 10.0298
42.939087119032166 9.97856
42.963012272677304 9.97938
42.98693939230129 9.96326
43.01105543317513 9.95036
43.034986504731386 9.9346
43.05891954686589 9.896460000000001
43.08285456110972 9.94115
43.10697856448665 9.910860000000001
43.130917542983475 9.81194
43.15485849820081 9.83526
43.17880143167367 9.85378
43.20293342237094 9.832360000000001
43.226880332449 9.791260000000001
43.25082922540554 9.782910000000001
43.27496722682525 9.8113
43.29892010567796 9.770010000000001
43.32287497204102 9.74737
43.34683182745632 9.71343
43.370977859791836 9.7405
43.39493871351105 9.71442
43.41890156092628 9.69184
43.44286640358341 9.64595
43.46702049182749 9.66319
43.49098934522816 9.65042
43.51496019852649 9.61594
43.5389330532723 9.6232
43.56309522248204 9.59239
43.58707210044314 9.52468
43.61105098451946 9.54977
43.63503187626491 9.531189999999999
43.659202151562134 9.50423
43.68318707902681 9.533619999999999
43.70717401884041 9.52647
43.731162972560874 9.47753
43.75534137913236 9.47681
43.779334381108384 9.44333
43.803329401683186 9.43956
43.82732644241872 9.44174
43.8515130055166 9.40297
43.87551410707659 9.3528
43.89951723350145 9.34923
43.923709934595614 9.34383
43.94771713129917 9.35827
43.97172635758096 9.34504
43.99573761501002 9.29342
44.0199385169922 9.29707
44.04395385732619 9.31535
44.067971233533086 9.29654
44.09199064718605 9.2849
44.11619977548961 9.22593
44.14022328470671 9.21976
44.16424883610785 9.245560000000001
44.18827643127035 9.21224
44.21249381139513 9.190380000000001
44.236525514814076 9.16807
44.26055926674478 9.1418
44.28459506876863 9.14357
44.3088207262813 9.12937
44.33286064928722 9.11143
44.35690262714919 9.10113
44.38094666145278 9.090530000000001
44.4051806219871 9.0383
44.42922879003185 9.01956
44.45327901929361 8.968960000000001
44.477331311362136 8.99138
44.501573600619416 8.96307
44.525630039221795 8.95652
44.54968854541895 8.963389999999999
44.573937102200176 8.92486
44.5979997645541 8.92944
44.622064499300315 8.92035
44.64613130803592 8.90068
44.67038823869318 8.8655
44.69445921643748 8.84939
44.718532272981385 8.84344
44.742607409926194 8.8422
44.76687274034801 8.8301
44.79095205918753 8.80777
44.81503346325094 8.78162
44.839116954143876 8.767439999999999
44.86339071028742 8.82128
44.88747839599524 8.75393
44.91156817336837 8.7686
44.93566004401666 8.72715
44.959942251908146 8.71255
44.984038330325966 8.7083
45.00813650686762 8.64965
45.03223678314731 8.6377
45.05652746888232 8.6747
45.08063196592069 8.63139
45.104738567558705 8.62043
45.128847275414856 8.58911
45.15314646515866 8.55932
45.17725940679741 8.56756
45.20137445952892 8.53603
45.22568004865265 8.53924
45.24979934496396 8.56365
45.27392075725247 8.51252
45.29804428714431 8.50907
45.322358426247604 8.51465
45.346486212804315 8.51265
45.370616121861914 8.45598
45.39474815505086 8.50034
45.41907087049246 8.43223
45.4432071734666 8.40403
45.46734560548283 8.41686
45.49148616817604 8.4195
45.51581748638564 8.35961
45.5399623320197 8.378969999999999
45.56410931325473 8.33419
45.58825843173002 8.333689999999999
45.61259837920865 8.31185
45.636751793816 8.30264
45.66090735060093 8.289
45.68506505120716 8.28688
45.7094136545275 8.28767
45.73357566449271 8.2448
45.75773982322992 8.260810000000001
45.78190613238733 8.23483
45.806263418194064 8.19502
45.83043404997326 8.21278
45.85460683713677 8.17999
45.87897065658495 8.18609
45.90314777634752 8.18657
45.92732705646868 8.13696
45.9515084986045 8.137789999999999
45.97588104735473 8.130989999999999
46.00006683541565 8.126660000000001
46.02425479047904 8.085460000000001
46.04844491420549 8.1164
46.0728262191024 8.05297
46.09702070211635 8.04547
46.12121735879483 8.01833
46.14541619080294 8.03152
46.169806278764455 8.05466
46.194009483459034 8.0141
46.21821486849841 7.98809
46.24242243555223 7.9713
46.266821333570014 7.956169999999999
46.29103328674601 7.92413
46.31524742696538 7.907369999999999
46.33946375590237 7.9124300000000005
46.36387149104216 7.895460000000001
46.38809221957392 7.8774
46.41231514186606 7.87197
46.436540259597464 7.868530000000001
46.460956858999374 7.851789999999999
46.48518638983522 7.86045
46.509418121166966 7.838769999999999
46.533652054678114 7.789460000000001
46.55807754555709 7.7977300000000005
46.58231590571962 7.7985
46.60655647313217 7.739139999999999
46.630988654873654 7.74472
46.655233659129024 7.73722
46.67948087571551 7.72341
46.70373030632484 7.6825399999999995
46.72817142736393 7.687410000000001
46.752425308428684 7.70662
46.77668140861147 7.68268
46.80093972960865 7.65648
46.82538981736788 7.607260000000001
46.849652602470904 7.59615
46.87391761349769 7.60094
46.8981848521493 7.63536
46.9226439341274 7.569610000000001
46.946915650573224 7.54298
46.97118959976749 7.5281
46.99546578341598 7.52659
47.019933887188216 7.53335
47.04421456235744 7.53292
47.06849747711879 7.501060000000001
47.09278263318286 7.53832
47.11725978640143 7.4977100000000005
47.14154944775105 7.45551
47.165841355555656 7.4595199999999995
47.1901355115306 7.4256899999999995
47.214621741924994 7.40292
47.23892041698887 7.39622
47.26322134538975 7.3574600000000006
47.28771440635075 7.363739999999999
47.31201986422527 7.368710000000001
47.33632758061436 7.3356
47.360637557241866 7.31412
47.38513974410611 7.352589999999999
47.40945426407847 7.300739999999999
47.43377104948137 7.29535
47.45809010204344 7.311310000000001
47.48260144275502 7.27603
47.506925052572285 7.28713
47.53125093475548 7.229010000000001
47.55557909103813 7.2194
47.58009961361992 7.229889999999999
47.60443234110732 7.19999
47.62876734791564 7.20793
47.65310463578333 7.20517
47.6776343683373 7.18337
47.7019762413987 7.1504
47.72632040075572 7.15108
47.75066684815169 7.15055
47.77520581885936 7.1146899999999995
47.799556865477655 7.085710000000001
47.823910205386 7.107469999999999
47.84826584033272 7.06394
47.87281407745551 7.03528
47.89717432569297 7.062060000000001
47.92153687423484 7.07862
47.94609208429692 7.024030000000001
47.97045925671401 7.03523
47.99482873471275 7.013610000000001
48.01920052005013 7.01376
48.04376504619224 6.991389999999999
48.068141469543484 7.008380000000001
48.09252020552573 6.97647
48.11690125590099 6.960189999999999
48.1414751266064 6.95418
48.16586082917454 6.938960000000001
48.19024885144316 6.908939999999999
48.2146391951793 6.911010000000001
48.239222439012764 6.915939999999999
48.26361744916137 6.88213
48.28801478610016 6.88542
48.31241445160131 6.863510000000001
48.337007097209366 6.8356699999999995
48.36141144338331 6.836410000000001
48.38581812345755 6.797439999999999
48.41022713920929 6.815339999999999
48.434829215320704 6.79418
48.45924292604658 6.7682899999999995
48.48365897780325 6.779669999999999
48.50807737237308 6.771089999999999
48.532688907799276 6.74715
48.55711201168574 6.71753
48.581537463754074 6.707139999999999
48.60615611725119 6.713769999999999
48.63058628942721 6.7118199999999995
48.65501881516546 6.6962600000000005
48.6794536962573 6.660260000000001
48.70408185970339 6.676260000000001
48.72852147531801 6.6395
48.75296345168211 6.65995
48.77740779059232 6.6402
48.80204549302823 6.60838
48.82649458091802 6.60025
48.85094603676547 6.60375
48.87539986237231 6.59393
48.90004713292306 6.592060000000001
48.92450572200832 6.55892
48.94896668628025 6.54603
48.97343002754588 6.53292
48.99808689542115 6.5452900000000005
49.02255501470614 6.55439
49.04702551642794 6.53265
49.0714984023988 6.52044
49.096164896893235 6.48479
49.120642575466796 6.4752
49.145122643748394 6.43686
49.16960510355558 6.43181
49.19428125404938 6.4336199999999995
49.2187685210852 6.400119999999999
49.243258185121555 6.40963
49.26794160167084 6.3791199999999995
49.2924360839405 6.358619999999999
49.31693296869764 6.36151
49.34143225776915 6.32607
49.36612538195438 6.3495099999999995
49.39062950396021 6.3452
49.41513603578346 6.3378
49.4396449792564 6.31757
49.46434784069503 6.2863
49.488861631846454 6.2894
49.513377840166804 6.28674
49.537896467493745 6.24753
49.56260909589029 6.23398
49.587132585683285 6.23107
49.611658500018365 6.21408
49.636186840738596 6.21506
49.66090926588511 6.209280000000001
49.685442483902584 6.20598
49.70997813385706 6.1841
49.734516217597076 6.175
49.75924846937352 6.13889
49.7837914452858 6.15616
49.80833686055187 6.11987
49.83288471702571 6.128080000000001
49.85762682540054 6.13002
49.882179588965734 6.1086800000000006
49.9067347993235 6.08336
49.93129245833333 6.07256
49.95604445336378 6.0706
49.98060703442832 6.07833
50.005172069746266 6.0368
50.02993150438364 6.04336
50.05450147301533 6.03029
50.07907390151433 6.04633
50.10364879174981 6.01917
50.12841816587289 6.0182199999999995
50.1529980044635 5.99996
50.17758031042124 5.99381
50.20216508562089 5.9656199999999995
50.22694442953363 5.9509099999999995
50.25153416817468 5.97549
50.27612638170508 5.95512
50.300721072005196 5.91725
50.325510416102105 5.9248199999999995
50.350110084975064 5.88373
50.37471223628208 5.91101
50.39931687190919 5.88376
50.424116246675766 5.8625
50.44872587605249 5.84711
50.47333799543065 5.86207
50.49795260670191 5.84592
50.52276204271512 5.800619999999999
50.54738166295838 5.82177
50.57200378079314 5.829219999999999
50.596628398116835 5.8312800000000005
50.62144792604559 5.8150900000000005
50.646077567609396 5.79898
50.670709714377715 5.79904
50.69553683636198 5.7653
50.72017401885922 5.74297
50.7448137122895 5.7118
50.76945591856022 5.7249099999999995
50.79429318636823 5.73651
50.818940443716784 5.72846
50.84359021965163 5.71296
50.868242516085964 5.70303
50.893089960641895 5.65751
50.917747323549435 5.65454
50.94240721271973 5.63545
50.96706963007175 5.65153
50.99192728239342 5.661630000000001
51.01659478166073 5.64187
51.04126481489051 5.61895
51.06593738400761 5.60945
51.090805275207074 5.60003
51.11548294172845 5.62102
51.14016314993547 5.60279
51.164845901758845 5.5875
51.18972406304274 5.55666
51.21441192780656 5.54208
51.23910234200271 5.54007
51.2637953075678 5.50479
51.288683770237945 5.5219
51.31338186432707 5.51163
51.33808251561888 5.50523
51.362978729967345 5.50874
51.387684521509755 5.48198
51.41239287610203 5.47433
51.437103795691165 5.42791
51.46201036644977 5.406540000000001
51.486726441956634 5.42526
51.51144508832545 5.41825
51.536166307509156 5.37845
51.56108326624387 5.34706
51.58580965706056 5.34802
51.61053862657523 5.359380000000001
51.635270176746864 5.34733
51.66019755512065 5.34168
51.68493429268881 5.31339
51.70967361681515 5.30486
51.73441552946465 5.28883
51.759353359237934 5.29385
51.7841004750961 5.31663
51.80885018539685 5.29334
51.833602492111254 5.27497
51.8585508051424 5.25098
51.883308330926425 5.23313
51.90806845906181 5.22323
51.932831191525715 5.22372
51.95779001977161 5.22345
51.98255798721516 5.21164
52.00732856494335 5.18294
52.03229530577543 5.18164
52.057071130455945 5.16847
52.081849571391054 5.17379
52.106630630568695 5.15337
52.13160794279417 5.11789
52.15639426492067 5.1182300000000005
52.18118321127822 5.09216
52.205974783860896 5.09769
52.23096269971011 5.10991
52.255759551287994 5.07396
52.280559035098186 5.0772
52.30536115314103 5.06081
52.33035970494467 5.0888800000000005
52.35516711807904 5.0473
52.37997717147198 5.02745
52.40478986713005 5.015680000000001
52.42979908731974 5.032369999999999
52.454617094216 5.01463
52.47943774942214 5.05028
52.50426105495102 5.01015
52.529280976059844 4.96936
52.554109609024096 4.95032
52.57894089837482 4.956
52.60377484613117 4.98327
52.62880550079408 4.94996
52.65364479223379 4.9461699999999995
52.67848674816189 4.9411
52.70352547971946 4.94121
52.72837279155837 4.94989
52.753222773982785 4.8911
52.778075429022984 4.924919999999999
52.80312495150885 4.899769999999999
52.827982978797436 4.86494
52.85284368481815 4.8771
52.87770707160767 4.8676699999999995
52.90276741793998 4.86144
52.92763619336701 4.8645
52.952507655698504 4.866969999999999
52.977381806977576 4.8434
53.00245301017842 4.83305
53.02733256653592 4.82092
53.052214817996074 4.82456
53.077099766608484 4.80492
53.102181859804446 4.77104
53.127072229988265 4.76251
53.15196530349892 4.74496
53.17686108239249 4.74976
53.20195409881522 4.70659
53.22685531582556 4.7078
53.25175924441303 4.69656
53.27666588664027 4.7262
53.30176985962693 4.71166
53.3266819565689 4.691330000000001
53.35159677336455 4.67747
53.376514312083096 4.66979
53.40162927507703 4.65794
53.42655228516116 4.68764
53.45147802340193 4.64418
53.47660125628886 4.63504
53.50153247842639 4.61538
53.52646643496923 4.62297
53.55140312799818 4.57431
53.576537409691696 4.6327300000000005
53.60147960336152 4.59941
53.626424539786164 4.54875
53.65137222105307 4.5254199999999996
53.67651758529126 4.53981
53.70147078399681 4.55485
53.72642673383343 4.517930000000001
53.75138543689533 4.5294
53.776541917524526 4.50769
53.801506154876755 4.49624
53.826473151763246 4.483219999999999
53.851442910284916 4.433
53.87661054126026 4.4320900000000005
53.9015858509782 4.466019999999999
53.92656392866066 4.43617
53.95154477641532 4.4468
53.976723591801296 4.39341
54.00171000771266 4.40842
54.02669920004598 4.4045
54.051691170915745 4.38123
54.076881204886796 4.35495
54.101878760928514 4.37171
54.12687910187696 4.31738
54.152077577768296 4.33469
54.1770835166946 4.28966
54.20209224691339 4.3087
54.22710377055121 4.292269999999999
54.25231352511594 4.2377199999999995
54.27733066384342 4.25818
54.30235060239643 4.2488
54.32737334290836 4.21544
54.35259441062629 4.19455
54.377622783395324 4.20642
54.40265396455061 4.204940000000001
54.42768795623251 4.19476
54.45292037169559 4.15094
54.477960012857906 4.14688
54.50300247099511 4.14534
54.52804774825457 4.15409
54.55329154616743 4.07895
54.57834249018678 4.0581
54.6033962597977 4.0689
54.6284528571545 4.10323
54.653708072335164 4.0475900000000005
54.67877035378786 3.9921
54.70383546947698 4.01588
54.72890342156389 3.98316
54.7541700889442 3.9443
54.77924374251975 3.9841300000000004
54.8043202390049 4.00201
54.82959552413022 3.87495
54.8546777351945 3.91327
54.87976279569621 3.91285
54.90485070780914 3.91985
54.930137506558005 3.84825
54.95523115074295 3.87039
54.98032765308844 3.8236800000000004
55.005427015775496 3.83284
55.03072536339621 3.875
55.05583047570572 3.7980099999999997
55.080938454927676 3.8136
55.10604930325027 3.78845
55.131359235107396 3.7829099999999998
55.15647585066083 3.7133599999999998
55.181595341907496 3.72183
55.20671771104285 3.7011800000000004
55.232039262617704 3.67507
55.25716741665048 3.6574800000000005
55.28229845518636 3.64699
55.30743238042802 3.6083
55.33276558731939 3.6052699999999995
55.357905315183636 3.59125
55.383047936390035 3.58089
55.40819345314859 3.5316400000000003
55.433538351073295 3.55159
55.458689688238415 3.54754
55.483843927614096 3.4743699999999995
55.509197623043605 3.4607
55.53435769621134 3.4193800000000003
55.55952067826466 3.41436
55.5846865714265 3.44695
55.61005202069737 3.3930300000000004
55.63522376553902 3.44941
55.66039842818645 3.4136599999999997
55.68557601087004 3.42317
55.7109532500271 3.39941
55.73613670233794 3.4106699999999996
