TT I
1.2716486653135266 6.65262
1.2939594142134223 6.71115
1.3162702121660406 6.68942
1.3385810600174564 6.0014
1.3608919586137629 6.10612
1.383202908801069 6.333819999999999
1.405513911425503 5.92101
1.4278249673332093 5.79729
1.4501343378461518 5.82825
1.4724455028545926 5.93409
1.4947567236847858 5.66052
1.517068001182951 5.85325
1.5393793361953272 5.47178
1.5616907295681737 5.88505
1.5840021821477681 4.66394
1.60631369478041 4.96742
1.6286252683124185 4.95444
1.6509369035901333 4.10953
1.6732468618895553 4.35768
1.695558623192809 4.6424
1.7178704487808514 4.59764
1.7401823395001077 4.49582
1.7625012545597203 4.36482
1.7848028405262486 4.96815
1.8071218901122095 4.71282
1.8294236121921872 4.1752199999999995
1.8517427996910911 4.6859
1.8740620574440425 4.64617
1.8963639900671978 4.0826
1.9186833908139995 4.27096
1.9409854680117449 4.9331
1.9633050151394713 4.73307
1.9856246367570705 4.826569999999999
2.0079269371922672 4.30469
2.03024671027244 3.7370400000000004
2.0525491637446027 3.7322
2.074869091674931 4.04433
2.097171701569106 4.07357
2.1194917877373847 4.16602
2.141811954326636 4.38358
2.164114805233074 4.3811599999999995
2.186435135143035 4.46713
2.208738150935709 5.3531
2.231058647554722 6.89653
2.2533792288321184 6.604030000000001
2.275682498336085 5.40947
2.298003251406138 5.08404
2.3203066942619714 5.15635
2.3426276225136022 4.67823
2.3649486396617507 4.808269999999999
2.387252348930071 5.217969999999999
2.4095735463442893 5.85574
2.4318774374315884 5.92574
2.4541988185014043 5.9903699999999995
2.476502894794693 6.95518
2.498824462909887 7.29645
2.521146125856138 6.60578
2.5434504863470337 8.08698
2.5657723414244717 8.31906
2.588076895590662 8.62161
2.610398946189713 8.14605
2.6327210958598384 7.724239999999999
2.6550259469304716 8.06846
2.6773482972090137 8.88792
2.6996533504259 8.85665
2.7219759047039602 8.7748
2.744298562293959 8.65188
2.7666039251246595 8.42408
2.7889267918020164 8.681000000000001
2.8112323652516555 8.92435
2.833555444408179 8.4777
2.8558786311183852 7.68916
2.8781845268938557 8.70181
2.9005079311721484 9.38438
2.9228140460410397 9.158669999999999
2.9451376712799635 9.48222
2.967444008632326 9.702630000000001
2.9897678582247247 9.678980000000001
3.0120918213106695 10.0933
3.0343984987899373 10.7843
3.0567226913198637 10.9778
3.079029599759726 11.318
3.101354025127254 11.9637
3.123678568232338 12.2879
3.145985829517914 12.8138
3.16831061055229 12.9778
3.1906181112775593 14.042
3.212943133635653 14.5612
3.2352682779763207 15.0518
3.2575761442691227 14.9709
3.2799015350264273 15.2124
3.302209649240067 15.8969
3.3245352898092655 16.222
3.3468436553365257 16.4049
3.369169549113219 16.7947
3.3914955708171384 18.0126
3.413804319727358 17.7794
3.4361305997334863 18.1834
3.4584396084414553 18.8623
3.4807661501462652 19.272000000000002
3.503092824025881 19.6864
3.5254022288463154 20.3085
3.5477291695206588 20.7354
3.5700388426251948 20.8566
3.5923660534916446 21.5027
3.6146934007816114 22.6962
3.637003482731501 27.6069
3.6593311053109985 30.0415
3.681641464033634 26.8268
3.7039693653009733 23.9559
3.726297407241705 23.7783
3.7486081875460804 24.1863
3.7709365132734978 24.7078
3.793247578841633 25.0244
3.8155761917550093 25.3157
3.8378875459837216 25.5265
3.8602164494827234 26.5416
3.882545499606844 26.9428
3.9048572932539183 27.4774
3.9271866390645718 27.6893
3.9494987298666713 28.5021
3.971828374764527 28.706999999999997
3.9941581705403255 29.0946
4.016470713506008 29.9744
4.038800813471445 30.3814
4.061113662089144 30.6897
4.0834440696459176 31.4386
4.105774632334751 31.7484
4.128087945865126 32.4641
4.150418821249301 33.6316
4.172732448931298 33.8827
4.195063640413578 34.7826
4.2173775856475215 35.5257
4.239709096631102 37.428000000000004
4.262040768704612 51.7224
4.284355196706267 63.2835
4.306687193387355 55.8905
4.329001947444346 44.3802
4.35133427213731 40.2279
4.373666762177566 40.6166
4.395982011761091 41.4559
4.418314834921175 42.0654
4.44063041906622 43.2525
4.4629635787515625 44.9873
4.4852969080429785 46.0514
4.5076130004776225 46.4217
4.529946671403969 46.7698
4.552263106909177 47.4208
4.574597122877047 48.8142
4.596931312711224 49.495
4.619248269273446 50.7133
4.6415828092605835 51.8561
4.663900117405352 52.8335
4.686235010953232 54.3689
4.708552674085913 55.5506
4.730887924602802 56.8654
4.753223354952695 58.4434
4.775541557023902 59.591
4.797877349456786 61.0081
4.820195915032126 62.9383
4.842532072957498 64.1548
4.864868414979744 66.0692
4.88718753227192 68.0676
4.909524244902505 69.9968
4.931843734218147 71.8201
4.954180820867835 74.275
4.976518095879839 76.9873
4.998838149695359 79.89
5.021175803844231 82.9591
5.043496238205739 85.9683
5.065834274903528 89.6606
5.088172504230693 94.1413
5.1104935158799565 98.5893
5.132832132875765 105.605
5.155153533596801 118.335
5.1774925416746225 137.829
5.199814334878411 232.623
5.2221537374521505 811.7660000000001
5.244493338631803 2541.63
5.266815727034316 7264.86
5.289155727832427 13688.7
5.311478517248165 9628.92
5.333818921080011 3315.32
5.356159527788849 669.177
5.3784829252032536 203.798
5.400823940070432 143.675
5.423147747031976 123.353
5.445489173474152 113.381
5.467830807066149 108.18299999999999
5.490155234831516 104.265
5.512497285125229 101.45200000000001
5.534822130975162 99.3657
5.557164601388673 97.4539
5.579489868738879 94.7803
5.601832762690846 92.9759
5.6241758697774475 91.9411
5.646501775867269 91.7141
5.668845311622074 90.3824
5.691171647754637 90.2061
5.713515615597765 88.5226
5.735859800852677 87.7541
5.758186788542988 87.427
5.780531411018185 87.3056
5.802858837297399 86.5374
5.825203900414495 86.444
5.8475491852224 87.0319
5.869877275883075 87.1866
5.892223006467101 88.074
5.914551544266608 88.8252
5.936897724049891 91.2112
5.959244129804903 95.7317
5.981573344815301 107.281
6.0039202049061 165.988
6.026249875609095 399.532
6.04859719346037 896.5039999999999
6.070927323278297 2065.13
6.093275102315365 4460.42
6.115623113320588 5526.78
6.137953938319995 3713.69
6.160302415650845 1096.04
6.182633708324452 239.19099999999997
6.2049826554078376 109.37899999999999
6.227331838745022 87.1645
6.249663839443684 79.9694
6.27201349767565 76.0507
6.294345974611799 74.2842
6.316696111167083 73.2913
6.339046488263839 71.6792
6.361379686074702 68.9422
6.383730546639482 66.7085
6.406064229255215 64.9917
6.428415576718203 64.6912
6.450749747566656 63.5892
6.47310158535871 62.7949
6.495453669698332 62.0728
6.517788579421056 61.2614
6.540141159237969 60.0615
6.562476565766648 59.6357
6.5848296444934045 59.3365
6.607182974060425 58.583999999999996
6.6295191323281015 58.402
6.651872965955752 57.71
6.6742096296068985 58.7354
6.6965639707294615 63.0924
6.71891856698715 64.4252
6.741255995248479 60.388999999999996
6.763611104154477 56.8454
6.785949046381137 55.3846
6.808304671371482 54.6902
6.8306605557940046 55.066
6.852999275508618 54.3195
6.875355681171544 53.3649
6.897694923437771 53.3267
6.92005185377892 53.4578
6.9423916220322655 53.3682
6.964749080490181 52.7393
6.987106804399774 52.4587
7.009447368180821 52.7889
7.031805625367033 52.4742
7.054146723727803 52.636
7.076505517631004 52.7069
7.098864581288365 52.5295
7.121206488070854 51.9577
7.143566093607822 51.7331
7.165908543567245 51.961000000000006
7.188268694426048 51.6754
7.2106291193438095 50.8278
7.232972390625943 51.1848
7.255333366030969 51.7846
7.277677189091925 55.4806
7.300038718428332 61.8949
7.322400526130865 61.4485
7.344745183422596 55.8085
7.367107550224791 52.4135
7.389452767901992 51.8718
7.411815697249891 52.0268
7.434161478756298 51.1801
7.456524974096713 51.4221
7.478888753837185 51.6122
7.501235387657368 52.6363
7.523599738562711 57.6035
7.545946944825532 67.0227
7.568311870344528 70.8811
7.5906770845765665 63.7052
7.613025156078678 56.0845
7.635390950099687 53.6244
7.657739602662809 52.8521
7.680105979923558 52.9647
7.702472650212829 53.4163
7.724822180948224 53.0797
7.747189439655568 53.1353
7.769539560075357 53.4508
7.791907410653562 54.1631
7.81425812420825 53.653999999999996
7.836626570110925 53.9946
7.858995315087906 54.7845
7.881346924933401 54.6079
7.903716270417482 55.2264
7.926068482028405 55.5625
7.948438431475253 56.385
7.9708086843180235 56.8876
7.993161805171116 57.1571
8.015532667162402 57.6516
8.037886398416653 58.7584
8.060257873014221 59.3519
8.082629655331942 59.4527
8.104984308787587 60.1558
8.127356708900503 61.1114
8.149711981398308 62.3336
8.172085002766314 63.577
8.194458336181368 64.245
8.216814543847752 64.733
8.23918850371002 65.7779
8.26154533906492 67.0249
8.283919928836452 68.528
8.306277395339652 69.3493
8.328652618483376 70.6338
8.351028159736202 72.2701
8.373386579575245 74.4145
8.395762759396959 75.4056
8.418121819038275 78.0134
8.440498640894003 81.5791
8.462875785192262 86.3854
8.485235811156207 94.8343
8.507613602688501 129.595
8.529974277114228 232.90099999999998
8.552352719347912 382.10699999999997
8.574731488360351 625.637
8.59709314210385 1120.95
8.619472567021075 1848.87
8.64183487789147 2283.92
8.664214962183097 1956.83
8.686577933647762 1091.23
8.708958680784317 417.39099999999996
8.731339760774953 173.976
8.753703729764451 109.02
8.77608547780821 94.7439
8.798450116065078 91.5043
8.820832535634787 88.5039
8.843215292401656 86.8678
8.865580941199045 85.5261
8.887964374703538 84.525
8.910330701447199 83.9878
8.932714815164482 83.5692
8.955099270424924 82.55799999999999
8.977466620733543 81.7229
8.999851761421976 80.9515
9.022219798361645 80.2321
9.04460562795561 80.0496
9.066991803441677 80.0787
9.089360876979615 79.9661
9.111747746589993 79.6861
9.13411751544971 78.946
9.156505082664324 79.286
9.178875550323522 79.5448
9.20126381862328 81.6822
9.223652438908596 90.2757
9.246023961427412 104.27799999999999
9.26841328802173 110.13
9.290785518039224 100.367
9.313175554425882 87.8662
9.335565947154315 81.6214
9.357939245086508 80.4392
9.380330352834827 80.0485
9.40270436697103 80.2555
9.425096193225055 79.7128
9.447488380180165 80.539
9.469863475295412 80.9843
9.492256385987508 81.5075
9.514632206018318 81.8266
9.537025843935714 82.14200000000001
9.559402392368193 82.8092
9.581796761000229 83.36200000000001
9.604191496441521 83.8215
9.626569144158516 84.6094
9.648964615551032 85.6975
9.671343000390081 86.8802
9.693739211225699 87.1498
9.716135793237463 87.8879
9.738515290448102 88.7641
9.760912617143402 90.0619
9.783292860202891 91.0566
9.805690935076182 92.0
9.828089385495742 92.6586
9.850470754023561 94.5265
9.872869957865444 96.2723
9.89525208097539 99.1812
9.917652041736662 102.93799999999999
9.940052382417589 106.662
9.962435644102392 115.22200000000001
9.984836746950979 148.186
10.007220771957746 229.601
10.029622640473708 354.082
10.052007432299963 523.946
10.074410069984072 783.132
10.096813093716005 1207.72
10.119199042482517 1771.47
10.141602840636468 2078.7
10.163989564971628 1703.16
10.186394141051062 1016.75
10.208799107559706 440.665
10.231187001965623 198.72400000000002
10.253592751657669 124.939
10.275981430388155 107.846
10.298387966769793 103.23200000000001
10.320794897965431 102.15799999999999
10.343184759907361 101.184
10.36559248305461 98.895
10.387983138083852 97.7296
10.410391656691655 98.9642
10.432800574501677 108.48100000000001
10.455192425893369 130.362
10.47760214443012 163.42
10.499994797678786 205.238
10.522405320453982 275.21
10.54479877906917 388.126
10.567210109595656 517.015
10.5896218454736 595.654
10.612016518879773 576.625
10.634429067781074 401.55699999999996
10.656824555333241 229.012
10.679237920773568 139.892
10.701651695961992 102.789
10.724048411481384 91.9232
10.746463008485165 85.8303
10.768860546937125 82.6588
10.791275969274796 80.2046
10.81369180576079 78.7351
10.836090585366925 77.7931
10.858507252467449 76.8425
10.88090686379991 75.6753
10.903324365036394 74.9686
10.925724811614439 73.6286
10.948143150509463 73.7105
10.970561909719066 72.8073
10.992963615930844 72.0436
11.015383218085756 70.9716
11.037785768347074 69.8406
11.06020621697282 69.3283
11.082627090322113 68.9564
11.105030913430326 68.5606
11.12745263854165 67.9261
11.149857314510728 67.0542
11.172279894912576 67.873
11.194702904450653 67.2448
11.217108866490921 66.4414
11.239532736615194 65.6671
11.26193956033512 65.0709
11.284364294577085 64.788
11.306789462371718 64.1574
11.329197585398376 63.8513
11.351623622610898 63.8222
11.37403261614354 63.0686
11.396459526308487 63.3015
11.418869393879497 62.8431
11.441297180532617 62.4305
11.463725406927658 61.9921
11.486136592353875 62.0823
11.508565700543707 61.5411
11.530977768845315 61.5244
11.553407762368774 61.2397
11.575838200059769 61.3424
11.598251599479612 61.0812
11.620682927815501 60.6528
11.64309721895548 60.4993
11.665529441478206 60.466
11.687962112597958 60.2818
11.710377748130886 60.4531
11.732811318753434 60.1898
11.755227854859067 59.9899
11.777662328529495 59.9145
11.800079768750786 59.9501
11.822515149015453 59.825
11.844950984084935 60.035
11.867369787303163 59.8738
11.889806534289491 60.2977
11.912226250487029 61.8695
11.934663912939751 64.5807
11.9571020346363 67.257
11.979523127133968 67.4603
12.001962169624331 66.0048
12.024384183972964 63.607
12.046824150809913 64.5796
12.069264581333726 69.8036
12.091687985297767 77.1873
12.11412934550045 87.0302
12.136553680195208 100.109
12.158995973632788 121.531
12.181438735204349 147.958
12.20386447284199 179.38400000000001
12.226308172985636 203.657
12.24873485024193 210.148
12.271179492516982 174.477
12.293607112949127 134.41
12.316052700916226 96.5197
12.338498763250042 74.062
12.360927805303868 64.6568
12.383374818673879 62.3223
12.405804812803074 61.5046
12.428252780773262 61.3905
12.45070122756722 61.4069
12.473132656675375 61.3711
12.49558206341869 61.4856
12.518014453510101 61.5103
12.540464823770117 61.571999999999996
12.562915677315177 61.5621
12.58534951575545 62.2802
12.607801338171472 62.2002
12.630236146511358 63.0724
12.652688941369085 63.7888
12.675124723177234 64.1208
12.697578494048786 64.4373
12.720032754458185 63.9528
12.742470003354093 64.3151
12.764925245138771 64.7416
12.787363476431278 65.1227
12.809819703166806 65.4821
12.83227642391173 65.8637
12.854716135692716 66.8879
12.877173846755147 67.795
12.899614549869717 67.8443
12.9220732548287 69.0229
12.94453245827299 69.3002
12.966974655289818 70.2681
12.989434858002571 71.1606
13.011878055298721 71.9726
13.034339260862497 73.2207
13.056800969391883 74.415
13.079245674017244 76.6919
13.101708390774869 78.2699
13.12415410463411 82.6397
13.146617833206086 93.2102
13.169064559883248 108.855
13.191529303857127 127.111
13.213994557076367 149.365
13.236442809902437 182.632
13.258909083908291 232.07299999999998
13.28135835851934 293.791
13.30382565690295 371.181
13.326293469022952 440.35900000000004
13.348744283242008 451.801
13.371213125129904 377.014
13.39366497011003 277.04400000000004
13.416134845360597 182.31099999999998
13.438605238843131 125.346
13.46105863690397 102.26899999999999
13.483530069144786 99.5181
13.505984506951902 107.654
13.528456981549432 121.005
13.550929978879088 137.036
13.573385983253365 158.71
13.595860028340867 191.537
13.618317081455832 238.02200000000002
13.64079217790333 299.805
13.663250283359057 357.58099999999996
13.685726434770173 389.587
13.708203115221277 359.649
13.730662806148091 286.156
13.75314054697177 204.701
13.775601299246777 137.486
13.798080104050406 99.8463
13.820559442405358 84.662
13.843021793671388 79.765
13.865502201420897 77.771
13.887965623051947 77.0169
13.910447103807167 75.836
13.932929122629764 74.4057
13.955394156785959 74.2287
13.977877254034569 73.885
14.000343367582113 72.72
14.022827546871707 72.2424
14.045294743423524 71.513
14.06778000837062 70.7514
14.090265817715476 71.0467
14.112734645763819 71.609
14.13522154619454 72.9419
14.157691466286913 74.6868
14.180179461423874 74.7402
14.202668005486178 72.9984
14.22513957064374 70.5304
14.247629214846473 68.7753
14.270101881097517 67.8104
14.29259262906496 67.7707
14.315083930490205 67.6528
14.337558255389705 67.2782
14.360050666019726 67.4666
14.382526101071944 67.1393
14.405019624534942 66.5863
14.427513705993134 66.3672
14.449990813291825 66.4134
14.47248601302899 66.3916
14.49496423954951 66.532
14.517460561197822 66.5722
14.539939910570322 66.1994
14.562437357763558 66.5003
14.58493536931253 66.7534
14.607416409993311 66.8054
14.62991555254159 67.0966
14.652397725157423 67.3524
14.674898002342799 67.5161
14.697398848433282 67.4198
14.719882725991326 68.3596
14.74238471217934 68.5274
14.764869730765593 70.4929
14.787372860692983 74.7353
14.809876564079925 81.5705
14.83236330125751 89.3146
14.854868153850365 98.337
14.877356041159485 111.289
14.899862046604186 126.779
14.922351087688757 149.624
14.944858249632887 180.497
14.967365991421232 209.18400000000003
14.989856770231246 228.497
15.012365673994204 226.588
15.03485761569738 199.44
15.05736768508665 158.03799999999998
15.07987833888692 120.21799999999999
15.102372032001655 93.29700000000001
15.124883856909658 77.2676
15.14737872204565 71.1888
15.169891721717274 68.7661
15.192405310371893 68.0469
15.214901940621196 67.1977
15.237416709527137 66.4907
15.259914520936249 66.6527
15.282430473753607 66.1386
15.304947020131227 65.3428
15.327446610371178 65.07300000000001
15.349964346154254 64.423
15.372465126703139 64.2915
15.394984055556009 64.37899999999999
15.417486030076159 64.3098
15.44000615566487 64.0494
15.462526881230803 63.9527
15.485030653812652 63.6672
15.507552581617434 63.3499
15.530057557334603 63.6289
15.55258069104857 63.7829
15.575104429329837 63.8136
15.597611216864632 63.6872
15.620136166564563 63.6536
15.6426441664095 64.1735
15.665170331202765 65.4895
15.687697105158826 68.7866
15.710206930593545 74.1
15.732734925158933 80.2258
15.755245972089478 87.2385
15.77777519094324 95.4606
15.800287463046663 106.781
15.822817909869592 123.669
15.84534897229804 144.422
15.867863089299354 169.907
15.890395385222186 191.074
15.912910736597423 203.097
15.935444269699861 193.67
15.957978423016485 168.618
15.980495633101265 134.256
16.003031029129367 103.994
16.02554948280019 81.2929
16.048086125229432 69.2399
16.070623392487107 64.6781
16.09314371869582 62.7859
16.11568223789321 61.1796
16.13820381691126 60.0332
16.160743591742527 59.1202
16.183283996022084 58.542
16.205807461423195 57.6397
16.228349126881973 57.2341
16.25087385432698 56.8696
16.27341678466365 56.4081
16.29594277784926 56.1106
16.31848697676433 55.6549
16.341031811604868 55.1915
16.36355971058487 55.2256
16.3861058195587 55.1253
16.40863499352978 54.4845
16.431182380342005 54.3845
16.453730407713202 54.0004
16.476261501364792 53.8078
16.498810812136167 53.49
16.52134319004079 53.5806
16.54389378792203 53.5652
16.566445031001553 53.5561
16.588979342490088 53.2592
16.61153187824822 53.0984
16.634067483263312 53.044
16.656621315414416 53.0703
16.679175797408888 52.7454
16.701713349928728 52.7502
16.72426913389191 52.7495
16.74680798922351 52.7279
16.76936507887444 52.793
16.791905240734874 52.8638
16.814463639794468 52.8071
16.837022695210294 52.6957
16.859564824093756 52.9625
16.882125194503903 53.1452
16.904668639217885 53.5782
16.927230328348003 53.6371
16.949792678493612 54.2645
16.972338104193863 54.0953
16.994901778652235 53.9123
17.017448529496576 53.8743
17.040013531998152 53.6766
17.06257920018044 54.0319
17.0851279459922 55.0241
17.107694947817667 56.0472
17.130245028099072 57.2442
17.15281336730298 58.8887
17.17536478578733 60.4103
17.19793446610687 62.4319
17.220504818648422 65.1429
17.243058251703697 68.0618
17.265629950971032 72.3947
17.288184731571736 77.4768
17.310757781306908 82.1391
17.33333150794385 83.0377
17.355888317140174 82.5531
17.37846339986244 78.9506
17.401021565958885 72.1109
17.42359800851343 65.9682
17.44617513265564 61.3969
17.468735341390783 59.0975
17.491261035594565 57.6632
17.51396340099364 57.1105
17.536490463869136 57.2553
17.559018209820174 57.1908
17.58154663977963 57.3078
17.604251766089718 57.5852
17.626781572227713 57.8131
17.64931206518155 58.0659
17.671843245885103 58.2928
17.69455114821572 58.4667
17.717083712612634 58.8152
17.739616967569667 59.3578
17.762150914021706 60.0313
17.78486160749854 60.3241
17.807396945166804 60.8201
17.829932977143503 61.2282
17.85246970436452 61.9949
17.875183204129467 63.7583
17.897721330097664 66.8527
17.920260154126645 70.3923
17.942799677153296 73.7372
17.9655159983646 77.8119
17.988056927677544 82.6569
18.010598558807683 89.1545
18.033140892692916 97.7924
18.05586005052525 109.14
18.07840379824407 121.20299999999999
18.10094825154059 133.275
18.12366954819864 142.815
18.146215420998306 144.554
18.16876200220057 137.924
18.191309292745153 123.708
18.214033452627167 108.84100000000001
18.236582170236648 95.9222
18.259131600016456 88.3345
18.281681742907335 86.229
18.304408781233683 89.1635
18.32696035875955 94.3798
18.349512652227624 99.6301
18.372065662579683 105.506
18.394795594587553 107.32
18.41735004715306 104.62
18.43990521943684 98.3478
18.46246111238171 88.6188
18.485193953325208 78.8693
18.507751296070428 70.6016
18.530309362314178 65.6196
18.552868153000343 62.9412
18.57560391815056 61.2213
18.59816416623245 60.9157
18.620725141597372 60.0496
18.643286845190268 59.4533
18.666025549835414 59.0143
18.688588718427933 58.2586
18.711152618092243 58.0454
18.73389353884365 57.7184
18.75645890921984 57.3679
18.77902501351406 57.2624
18.801591852673102 57.1341
18.824335739722738 56.6407
18.846904057212626 56.5797
18.8694731124168 56.4512
18.89204290628315 56.3603
18.914789774966803 56.0459
18.937361054791623 55.8449
18.959933076131318 55.6586
18.982505839934877 55.5615
19.00525570560582 55.45
19.027829963004184 55.1388
19.05040496572238 55.1849
19.072980714710468 55.1878
19.095733592739563 55.3001
19.11831084296757 55.3952
19.140888842324735 55.706
19.16346759176222 56.3481
19.18622349753803 57.2962
19.208803755869358 58.1886
19.231384767143577 59.1578
19.253966532312948 60.8417
19.276725481241822 62.8432
19.29930876296784 65.8404
19.3218928014549 69.0539
19.34465404436217 71.9892
19.36723960516257 74.4947
19.389825925592426 75.9388
19.412413006605938 75.1506
19.43517731967805 72.1958
19.457765930683355 67.7784
19.48035530514408 63.254
19.50294544401556 59.3259
19.525712842708348 56.3607
19.54830451925909 54.2634
19.570896963095727 52.9365
19.593490175174704 52.43600000000001
19.616260674962184 52.5189
19.638855432416964 51.9335
19.661450960992624 52.3551
19.68404726164677 52.1259
19.706820878021247 51.9346
19.729418731756834 52.157
19.752017360452857 51.8638
19.77461676506804 52.1355
19.797393513540218 52.0491
19.819994478951667 52.0977
19.84259622316767 52.8522
19.8651987471481 53.5182
19.887978643247177 53.9193
19.91058273574792 54.5288
19.933187610901943 55.4162
19.955969879466828 56.3904
19.97857632894404 57.7971
20.00118356396599 59.1117
20.023791585494575 61.128
20.046577028914875 64.0037
20.069186632506966 66.6332
20.091797025500632 69.1843
20.114408208858933 70.4582
20.137196842715273 70.8276
20.159809615886765 69.3385
20.18242318232135 66.8191
20.20503754298326 64.1015
20.227829382875154 62.6628
20.250445341109344 61.8014
20.27306209647285 62.3447
20.29567964993108 63.763999999999996
20.31847471147704 64.8183
20.34109387027612 65.5771
20.363713830075454 65.4679
20.386334591841646 64.085
20.409132890679302 61.5371
20.431755265564437 58.424
20.454378445325528 55.1825
20.477002430930366 52.6596
20.499803982716553 51.1726
20.522429589228004 50.051
20.54505600449589 49.5658
20.567683229489194 49.4003
20.590488049900088 49.2099
20.61311690359731 48.8959
20.63574656993626 48.8637
20.658553853717297 48.5351
20.681185154618298 48.6316
20.703817271080066 48.3845
20.72645020407368 47.9985
20.749260783967177 48.0147
20.771895359337133 48.1741
20.794530754161617 48.0568
20.817166969412938 47.993
20.83998086114876 47.8246
20.86261872660049 47.8092
20.885257415405402 47.6071
20.90789692853701 47.5674
20.930714147864748 47.3282
20.953355319030678 47.3607
20.97599731745334 47.5169
20.99864014410749 47.4415
21.021460706796564 47.5085
21.044105199328826 47.9394
21.06675052302631 47.8886
21.089396678865015 48.1345
21.112220600704806 48.3826
21.134868430275347 48.7314
21.15751709492456 48.8038
21.180166595629693 48.9922
21.202993892429635 49.6966
21.22564507473034 50.1468
21.24829709602816 50.5051
21.27112693608965 50.6941
21.293780644891275 50.5932
21.316435195634053 49.9604
21.339090589297417 49.1418
21.361923832041875 48.5864
21.384580921090404 47.9949
21.407238856007325 47.4074
21.429897637773326 47.2934
21.45273429906592 47.3939
21.475394784108598 47.4048
21.498056118951983 47.3372
21.520718304578022 47.4811
21.543558400304388 47.5368
21.566222297108816 47.6373
21.58888704765135 47.7509
21.61155265291521 48.0575
21.63439619898156 48.7222
21.657063523335786 48.9466
21.67973170537063 49.7233
21.7024007460706 50.2896
21.72524775840385 50.9714
21.747918526116475 52.0601
21.770590155457388 52.8645
21.79326264741238 54.3597
21.816113141960237 56.1064
21.838787368860547 58.1565
21.861462461341976 60.4645
21.884315579735777 62.8251
21.90699241312273 64.5663
21.92967011506078 65.4272
21.95234868653799 65.357
21.9752053151131 63.8514
21.997885635446785 62.0495
22.020566828293532 60.1112
22.04324889464272 57.86600000000001
22.066109049404666 56.4239
22.088792872571794 55.8378
22.111477572219204 55.9429
22.1341631493376 56.1906
22.157026846313123 56.1386
22.179714188221507 55.4148
22.202402410582668 54.4137
22.22509151438863 52.6597
22.24795876962584 51.3402
22.270649646204486 49.8494
22.293341407213727 48.992
22.316034053646906 48.4834
22.338904883215342 48.042
22.36159931041458 47.9088
22.38429462602756 47.6927
22.40699083104897 47.6178
22.429865251039757 47.5913
22.452563244831367 47.6758
22.47526213102522 47.6209
22.49813925616515 47.4713
22.520839937143307 47.445
22.543541513520587 47.5153
22.56624398629403 47.4962
22.589124730075895 47.532
22.611829005656723 47.7988
22.63453418063466 47.6034
22.657240256008077 47.6381
22.680124634582935 47.8788
22.70283252079775 48.3857
22.725541310413075 48.7521
22.74825100442868 49.256
22.771139033969575 49.586000000000006
22.79385054687155 50.0023
22.81656296718292 50.5455
22.83927629590484 51.2078
22.862167992606945 52.1853
22.88488314827121 53.3638
22.907599215359284 54.6504
22.93031619487366 55.8257
22.953211574954405 56.915
22.975930389478226 57.8328
22.998650119445763 57.9185
23.02137076586092 57.203
23.044269845560063 56.2487
23.06699233506288 54.755
23.089715744034912 52.6438
23.112617610931565 50.9663
23.135342869061212 49.6085
23.158069049684816 48.5734
23.1807961538087 48.037
23.20370174880544 47.7864
23.226430710184808 47.7717
23.249160598093425 47.8075
23.271891413539002 47.7691
23.294800752937697 47.8657
23.31753343374794 48.3808
23.340267045128353 48.6124
23.36300158808808 49.0569
23.38591468821339 49.5437
23.408651104658304 50.0537
23.431388455719986 50.4647
23.454126742409 51.0839
23.4770436196085 52.211999999999996
23.499783787914662 53.4705
23.522524894889884 54.5594
23.54526694154616 55.9312
23.56818761219047 57.2179
23.59093154860734 57.9541
23.613676427751283 58.409
23.636422250635754 57.9204
23.659346731118656 56.4251
23.68209445191868 54.5143
23.704843119509587 52.18
23.72759273490623 50.1203
23.750521041644767 48.3764
23.77327256312355 46.9524
23.796025035462787 46.1361
23.818956224555475 45.4571
23.841710609113413 45.2994
23.86446594758979 44.9328
23.887222241002014 44.6404
23.910157285144578 44.24100000000001
23.932915498962537 44.4249
23.955674670778713 44.2356
23.978434801611975 43.9267
24.001373717286125 43.842
24.024135776723917 43.7321
24.046898798245582 43.7021
24.06966278287146 43.5759
24.092605586582614 43.5193
24.115371508023642 43.2013
24.1381383956401 43.1652
24.16090625045381 42.9943
24.183852958731244 42.9115
24.206622758582608 42.7586
24.229393528706886 42.7404
24.252165270127392 42.794
24.27511589952438 42.6719
24.297889594216997 42.4145
24.32066426328598 42.4822
24.34343990775613 42.3734
24.36639447485003 42.3139
24.38917208083877 42.2834
24.41195066531332 42.2392
24.43490819850244 42.1126
24.457688750692377 42.1902
24.48047028445616 42.1786
24.503252800821233 42.201
24.526214300784112 42.2714
24.548998793132213 42.153
24.57178427117417 42.1329
24.59457073593893 42.3083
24.617536219319863 42.2044
24.64032466834748 42.2981
24.663114107195035 42.1511
24.685904536893013 41.757
24.708874020360852 41.7116
24.731666442613744 41.7229
24.754459858818787 41.5466
24.777254270007962 41.4244
24.80022777025625 41.3934
24.82302418230472 41.2735
24.845821592443674 41.4003
24.86862000170663 41.3405
24.891597535453727 41.3076
24.914397953892728 41.5345
24.93719937456671 41.5123
24.96000179851076 41.5238
24.98298338249997 41.7726
25.00578782394922 41.9566
25.028593271784167 42.0931
25.05157790644186 42.5279
25.07438537804115 42.716
25.097193859145293 43.0487
25.120003350792075 43.2946
25.142992065061257 43.6667
25.165803588823465 43.9508
25.18861612625217 44.1701
25.211429678386736 44.2936
25.234422489079968 44.4601
25.257238081693636 44.3942
25.280054692141732 44.5548
25.3028723214652 44.6579
25.325869245420463 44.7345
25.348688923599397 44.809
25.371509623787006 44.717
25.394331347025812 44.4348
25.41733240110666 43.9643
25.440156181590016 43.24100000000001
25.46298098826268 42.7646
25.48580682216873 42.0919
25.50881202326435 41.3716
25.53163992281684 40.9404
25.55446885274561 40.5355
25.577298814096377 40.2868
25.600308179121807 40.2031
25.623140214533745 40.355
25.64597328451537 40.2095
25.66898578564376 39.8517
25.691820936010206 39.8741
25.714657124097695 39.7771
25.737494350954734 39.8278
25.760511045684957 39.7062
25.783350361364224 39.796
25.806190718969255 39.8178
25.82903211955018 39.9274
25.852053024868923 40.0654
25.874896522722523 40.033
25.897741066713106 39.8754
25.920586657892454 40.0942
25.943611790812668 40.2517
25.966459487728237 40.2724
25.989308234998564 40.3664
26.01215803367705 40.6916
26.03518741123814 40.8965
26.05803932412957 41.1291
26.080892291600094 41.0923
26.10374631470478 41.27
26.12677995397268 41.4163
26.14963609978026 41.3632
26.172493304397875 41.0669
26.19535156888223 40.8488
26.218389486949604 40.4341
26.241249882640123 40.0831
26.26411134137826 39.8906
26.28715248187403 39.6936
26.31001607820869 39.431
26.3328807407756 39.2956
26.35574647063438 39.5442
26.37879191991473 39.4923
26.401659795896734 39.5382
26.424528742360263 39.7185
26.447398760366614 39.8594
26.470448535598294 39.9922
26.49332070826805 40.0254
26.516193955675355 40.4014
26.53906827888316 40.7314
26.562122397260108 40.8976
26.584998883685063 41.2874
26.607876449110325 41.6852
26.63075509460056 41.8967
26.65381357334404 41.9605
26.67669439061878 41.9996
26.699576291163382 41.898999999999994
26.722459276044212 41.8711
26.745522132402975 41.4413
26.768407297649354 41.2927
26.791293550442003 40.9664
26.814180891848974 40.6124
26.837248143099337 40.264
26.860137673466657 40.1423
26.88302829566349 39.8361
26.90592001075963 39.7487
26.92899167420566 39.6461
26.951885586870763 39.2092
26.974780595655517 38.9714
26.99785558178161 38.673
27.020752794605112 38.5582
27.043651106772522 38.3725
27.06655051935668 38.3169
27.089629948036183 38.1595
27.112531573292053 38.1482
27.135434302194138 38.2178
27.158338135817015 37.9619
27.181422024430987 38.1084
27.204328079372566 37.9864
27.22723524226965 37.9049
27.250143514198573 38.048
27.273231880156334 37.9887
27.296142382065014 37.8881
27.319053996245536 37.9113
27.341966723775965 37.8811
27.365059584515222 37.9269
27.38797455070062 37.9233
27.410890633481237 37.8269
27.433807833936918 37.8092
27.456905206923906 38.042
27.47982465472398 38.0408
27.502745223449743 38.0423
27.525666914182825 38.0699
27.548768816912457 38.1589
27.571692763693633 37.9959
27.59461783573812 38.0308
27.617723149491244 37.77
27.640650484125285 37.6572
27.66357894728264 37.6682
27.686508540048052 37.5899
27.709618414237887 37.382
27.732550278321757 37.4342
27.755483275279115 37.3207
27.778417406196485 37.3019
27.801531858397514 37.3953
27.824468269376716 37.3052
27.847405817586786 37.4429
27.870344504116094 37.6022
27.893463551932008 37.5548
27.916404527281053 37.7929
27.93934664422563 37.9526
27.962289903855886 38.0716
27.98541356491974 38.4821
28.00835912214229 38.6109
28.03130582533231 38.775
28.054253675581805 38.8722
28.077381967556104 38.9062
28.100332124185126 38.8303
28.123283431160893 38.7655
28.146235889577238 38.6583
28.169368830154156 38.632
28.192323603752033 38.2833
28.215279532083304 38.0388
28.238415973016764 37.8829
28.261374223145094 37.7736
28.284333631303806 37.3856
28.307294198589954 37.1797
28.330435319167677 36.8451
28.353398217078915 36.7086
28.376362277420153 36.416
28.39932750129032 36.2588
28.422473319286713 36.01
28.44544088262495 35.8084
28.468409612800283 35.7858
28.491379510913497 35.4468
28.51453004413313 35.3795
28.53750229057244 35.4145
28.56047570826344 35.3248
28.583450298308804 35.4342
28.606605564586562 35.1457
28.629582511831156 35.2255
28.65256063474956 35.0848
28.675539934446338 35.1021
28.698699951647605 35.1335
28.72168161743193 34.9828
28.74466446331978 35.0192
28.767648490417624 34.8713
28.790813276438353 34.9242
28.813799678527303 34.8963
28.836787265157085 35.0151
28.859955641890075 35.0159
28.882945610203045 34.9771
28.905936766392035 34.7609
28.928929111566863 34.7823
28.952102288520145 34.7703
28.975097024308607 34.6504
28.998092952423807 34.5019
29.021090073977508 34.5499
29.04426806913204 34.4796
29.067267590245258 34.3107
29.090268308143695 34.18
29.11327022394099 33.9925
29.13645305530891 33.9084
29.159457379627167 33.8931
29.18246290519685 33.7807
29.20546963313352 33.6902
29.22865731875826 33.8321
29.25166646419296 33.7739
29.27467681535305 33.7147
29.29768837335608 33.8697
29.320880931312562 33.8869
29.34389491580634 33.8528
29.366910110507334 33.8543
29.38992651653503 33.7779
29.41312396492981 33.7613
29.436142806456754 33.7862
29.45916286268059 33.607
29.48236399319994 33.5176
29.50538649169417 33.4148
29.528410208259935 33.3507
29.55143514402014 33.0647
29.574641196749695 32.9911
29.597668583816574 32.802
29.6206971934585 32.6761
29.64372702680042 32.6625
29.666938019934474 32.538000000000004
29.689970313635285 32.5241
29.713003834422636 32.4335
29.73603858342347 32.3565
29.759254535188578 32.3509
29.78229175361658 32.1747
29.80533020365064 32.2102
29.82836988641968 32.2095
29.85159081507472 32.2071
29.874632976355343 32.2479
29.89767637376955 32.2604
29.920721008448314 32.1877
29.9439469322847 32.1806
29.96699405457564 31.9488
29.9900424175358 32.163000000000004
30.013092022298157 32.0656
30.03632295963995 31.9804
30.059375061131373 31.9214
30.08242840783577 32.0805
30.105483000888153 31.9941
30.128718970092244 31.8871
30.151776069006917 31.9367
30.17483441768648 31.929000000000002
30.198074175317235 31.9703
30.221135036724256 31.9334
30.24419715131772 32.0042
30.267260520236203 31.7435
30.290505341942243 31.8433
30.313571232750228 31.9034
30.336638381310948 31.8872
30.35970678876503 31.8162
30.38295669299435 31.7535
30.40602763151657 31.7921
30.429099832366074 31.7117
30.452173296685572 31.583000000000002
30.47542830191959 31.6345
30.498504306502497 31.5238
30.521581577995562 31.6312
30.544660117543582 31.7601
30.56792024229725 31.7461
30.59100133132069 31.7139
30.614083691845494 31.7136
30.637167325018545 31.8145
30.660432587840603 31.8395
30.683518779717886 31.8758
30.70660624769615 31.918000000000003
30.729694992924372 31.9548
30.75296541239743 31.9235
30.77605672557558 31.9375
30.799149319462742 31.7991
30.8224236211637 31.7815
30.845518789950724 31.6775
30.868615242910597 31.5283
30.891712981195973 31.4429
30.91499247215866 31.2837
30.938092794619365 31.2371
30.96119440587579 31.2165
30.984297307082752 30.9986
31.00758200598383 30.8701
31.030687500658694 30.8005
31.053794288760695 30.7495
31.076902371446767 30.6732
31.100192296997445 30.7804
31.12330298246119 30.6605
31.14641496599209 30.4783
31.169528248749216 30.5062
31.19282341969534 30.5553
31.215939314557186 30.4868
31.239056512134788 30.6599
31.262175013589378 30.5083
31.28547544871168 30.4349
31.30859657161541 30.4832
31.331719001892175 30.4175
31.35484274070538 30.6299
31.378148458819545 30.621
31.401274828443725 30.5431
31.424402510106933 30.6607
31.447712205419993 30.6467
31.470842524931633 30.5125
31.493974159989783 30.5006
31.51710711176168 30.5265
31.54042212308802 30.5378
31.563557722100917 30.4762
31.586694641341655 30.3457
31.609832881979628 30.2366
31.63315322823208 30.1361
31.656294125521327 30.0996
31.679436347728515 30.0162
31.70257989602529 29.9313
31.725905596152327 29.8405
31.74905181052835 29.8144
31.772199354521323 29.8808
31.79534822930507 29.9124
31.818679302290967 29.8741
31.84183085259981 29.7814
31.864983737233473 29.815
31.88813795736804 29.8338
31.911474422233013 29.6972
31.934631327356435 29.8843
31.9577895715215 29.7519
31.980949155906522 29.7179
32.004291031706956 29.7505
32.027453310562606 29.6253
32.05061693318573 29.4576
32.07396288236386 29.4899
32.09712920658542 29.4813
32.12029687812702 29.3511
32.14346589817093 29.2216
32.166817291729984 29.2438
32.18998902288583 29.1575
32.21316210610336 29.0616
32.23633654256711 28.9304
32.259693399663725 28.8398
32.282870556771144 28.7799
32.30604907069099 28.8287
32.329228942610065 28.7372
32.35259128243769 28.5605
32.375773884550505 28.5779
32.398957848235646 28.52
32.422143174682176 28.428
32.445511016471215 28.428
32.468699082679954 28.3517
32.49188851523011 28.2903
32.51507931531304 28.1721
32.538452678331 28.2807
32.56164622776311 28.2082
32.58484114831493 28.1635
32.60803744118015 28.0872
32.631416344731896 28.0403
32.654615396551876 28.0331
32.67781582427913 28.0426
32.701198898634416 27.8726
32.72440209253756 27.9176
32.747606665947124 27.9318
32.77081262006088 27.8077
32.79420126883317 27.8096
32.81740999876112 27.7745
32.840620112999424 27.6661
32.86383161274818 27.6913
32.88722585534586 27.7603
32.91044014056596 27.7129
32.933655814909734 27.6556
32.95687287957963 27.5947
32.98027273544904 27.5402
33.00349259526636 27.5533
33.026713849030116 27.5922
33.04993649794511 27.5404
33.073341986570746 27.4408
33.09656744032826 27.3662
33.11979429286444 27.4639
33.14302254538647 27.4507
33.166433686291185 27.4584
33.18966475336992 27.435
33.212897224069096 27.26
33.23613109959831 27.266
33.259547912343415 27.3118
33.2827846121627 27.3234
33.306022720453775 27.2505
33.32926223842861 27.0421
33.352684742614166 27.0181
33.37592709463173 27.0711
33.399170859982064 26.9414
33.422597648419426 26.9287
33.44584425514446 26.7677
33.46909227885668 26.7385
33.4923417207723 26.6761
33.51577423505344 26.7098
33.539026528130385 26.5719
33.56228024307245 26.5638
33.585535381098246 26.4337
33.60897364093058 26.4424
33.63223163992385 26.4162
33.6554910656699 26.2796
33.678751919389796 26.2895
33.702195944520106 26.201999999999998
33.72545966903325 26.3154
33.74872482519663 26.146
33.771991414233746 26.139
33.79544122444841 26.0766
33.81871069412428 26.1234
33.84198160035767 26.101
33.86525394437455 25.9931
33.88870955949969 26.0073
33.911984794020626 25.9708
33.93526147001624 25.9168
33.958539588715006 25.8625
33.98200102861669 25.7689
34.0052820477047 25.6314
34.02856451319451 25.7436
34.05203033759056 25.6386
34.07531571090147 25.5989
34.09860253431845 25.5498
34.121890809074316 25.5572
34.145362493118924 25.5689
34.16865368561615 25.4724
34.191946333164054 25.4169
34.21524043699793 25.4228
34.23871800066799 25.4604
34.26201503218366 25.3063
34.28531352370466 25.2737
34.30861347646881 25.2371
34.33209693978188 25.2042
34.3553998301885 25.1605
34.378704185565205 25.0278
34.402010007152356 25.0351
34.42549939016683 25.0388
34.44880815937748 24.9985
34.472118398533134 24.8897
34.49543010887669 24.8898
34.51892543169198 24.8249
34.54224009966052 24.8147
34.56555624255917 24.7337
34.58887386163339 24.7043
34.61237514439016 24.7071
34.6356957311114 24.6303
34.65901779775809 24.5467
34.68252356662995 24.5876
34.705848608458616 24.5407
34.72917513396849 24.4552
34.75250314440949 24.3869
34.77601490857862 24.2605
34.799345904259795 24.3822
34.82267838863559 24.4117
34.846012362958525 24.2882
34.869530142679984 24.302
34.89286711232212 24.2245
34.91620557568269 24.2031
34.93954553401677 24.254
34.9630693495876 24.1395
34.986412313340814 24.1444
35.00975677584668 24.1891
35.033102738362956 24.1018
35.05663261012228 24.0221
35.0799815881786 24.0517
35.10333207003229 23.9581
35.12668405694369 23.9815
35.150220005273056 23.962
35.17357501786656 23.8753
35.19693153931268 23.916999999999998
35.220289570874385 23.7643
35.24383161619786 23.8378
35.267192683604904 23.8556
35.290555264930376 23.7915
35.314101899412165 23.7922
35.33746752422433 23.6923
35.36083466676374 23.8071
35.38420332829803 23.6881
35.407756095629054 23.7052
35.43112781085063 23.7798
35.45450104888391 23.6654
35.477875810999194 23.724
35.50143473172161 23.5537
35.52481255774625 23.6101
35.54819191167777 23.5859
35.57157279478914 23.473000000000003
35.595137889488406 23.4644
35.61852184675279 23.3778
35.641907337029984 23.3917
35.665294361595684 23.3402
35.68886565090076 23.269000000000002
35.7122557598848 23.3185
35.73564740699838 23.2318
35.759040593519934 23.139
35.78261809810353 23.0358
35.80601437933051 23.0464
35.829412203814705 23.0454
35.85281157283719 23.0221
35.876395313415884 23.0141
35.8997977874528 22.9391
35.92320180988546 22.8588
35.946790244133936 22.7663
35.97019737933222 22.8375
35.993606066789866 22.8051
36.01701630779276 22.7513
36.04061101440684 22.6389
36.06402437852291 22.7316
36.08743930005611 22.6976
36.1108557802951 22.6354
36.13445678011326 22.6074
36.15787639383515 22.5838
36.18129757014299 22.5263
36.20472031032821 22.5161
36.22832762423364 22.4339
36.25175350829375 22.4445
36.275180960119776 22.3389
36.298609981005924 22.4422
36.32222362992669 22.4074
36.34565580510207 22.3083
36.36908955323448 22.3262
36.39252487562093 22.232
36.416144880530226 22.1577
36.43958336764275 22.1919
36.463023432914625 22.2195
36.486465077645676 22.1173
36.51009145956204 22.0992
36.53353627947859 22.0726
36.55698268276811 22.0953
36.58043067073321 21.938000000000002
36.60406345072071 21.9724
36.62751462435344 21.935
36.65096738658405 21.8625
36.67460498210655 21.84
36.69806093788647 21.8084
36.72151848619297 21.772
36.744977628333636 21.7631
36.76862165890998 21.816999999999997
36.79208400512205 21.6883
36.81554794910557 21.6895
36.83901349217101 21.6402
36.862663978991606 21.5543
36.88613273667352 21.4741
36.90960309738324 21.5072
36.933075062434064 21.456999999999997
36.95673202673572 21.4637
36.98020721697122 21.4241
37.003684015502365 21.3188
37.027162423645365 21.2618
37.050825886711465 21.2497
37.07430753063053 21.2621
37.09779078812467 21.2341
37.121275660513014 21.1567
37.144945643673694 21.1634
37.16843376245278 21.0964
37.19192350009803 21.1078
37.215414857931435 20.99
37.239091382563885 20.9666
37.262585997426164 20.996
37.28608223645736 20.9809
37.309763684451696 20.9599
37.33326318851098 20.9184
37.356764320726555 20.8644
37.380267082425526 20.9194
37.40395510942588 20.8613
37.42746114683234 20.7486
37.45096881771841 20.776999999999997
37.474478123414166 20.7012
37.49817275092816 20.6846
37.52168534303452 20.6971
37.54519957395567 20.5574
37.568715445024665 20.5574
37.592416694607714 20.502
37.61593586281424 20.5406
37.63945667518264 20.5769
37.66297913304891 20.4611
37.68668702630454 20.44
37.710212792059274 20.3433
37.733740207334854 20.3387
37.757269273470364 20.3561
37.780983832050374 20.3542
37.80451621684926 20.2955
37.82805025654007 20.253
37.851585952464795 20.173
37.8753071980695 20.1095
37.89884622345676 20.0729
37.92238690911902 20.0718
37.94611318753442 20.0254
37.969657210779765 20.0319
37.99320289834801 20.0293
38.016750251586465 19.9161
38.04048325513017 19.9033
38.06403395679343 19.8321
38.087586328183946 19.7885
38.11114037065203 19.8721
38.13488012115898 19.8195
38.1584375229181 19.7476
38.181996599821 19.7018
38.205557353221124 19.7528
38.229303872575656 19.6722
38.2528679961576 19.6512
38.27643380031219 19.6325
38.30000128639589 19.5794
38.32375459653193 19.5353
38.34732546371299 19.5221
38.37089801690786 19.3823
38.39447225747609 19.4173
38.418232380377425 19.3921
38.441810012983396 19.3853
38.46538933705673 19.4402
38.488970353960084 19.4394
38.51273731166058 19.3512
38.536321731567014 19.2661
38.55990784840681 19.1734
38.58367995004091 19.1884
38.60726947812959 19.1577
38.63086070726198 19.1697
38.654453638806274 19.1393
38.678232613930824 19.1214
38.70182896773327 19.0117
38.72542702806741 19.02
38.7490267963045 18.9667
38.77281266709232 18.9648
38.79641586862214 18.9804
38.8200207821842 18.9097
38.843627409152944 18.9104
38.86742019782782 18.9017
38.891030269149255 18.7962
38.914642058016156 18.7776
38.938255565806124 18.776
38.96205529464307 18.6992
38.98567225787121 18.7274
39.00929094417078 18.7068
39.03291135492255 18.6393
39.05671804624804 18.6117
39.080341923549106 18.5497
39.103967529460334 18.5568
39.127594865365744 18.4947
39.15140854155791 18.4299
39.17503935514948 18.4855
39.19867190290282 18.4523
39.22249083587951 18.4032
39.24612686969409 18.3589
39.269764641845306 18.357
39.293404153722804 18.3003
39.317230110864074 18.287
39.34087311998506 18.2257
39.36451787301696 18.2006
39.388164371352595 18.1988
39.41199737518003 18.1441
39.43564738196752 18.0706
39.45929913825317 18.116
39.48295264543308 18.1758
39.506792718520884 18.0491
39.530449745387216 17.9475
39.55410852735203 18.0113
39.57776906581474 18.0279
39.60161623079 17.9523
39.625280300200025 17.8862
39.64894613032202 17.8047
39.67261372255866 17.8558
39.6964680021016 17.8106
39.72013913657293 17.8668
39.74381203738292 17.7993
39.76748670593756 17.7903
39.79134812278169 17.7118
39.81502634488497 17.6762
39.83870633896685 17.6592
39.862388106436654 17.6088
39.88625668336918 17.5907
39.90994201572829 17.5647
39.933629125719285 17.54
39.957503091207826 17.5481
39.9811937746168 17.4819
40.00488623990914 17.5105
40.02858048850006 17.4085
40.05246165409549 17.408
40.076159487492085 17.3389
40.099859108448875 17.3483
40.123560518384345 17.3516
40.1474489070226 17.2991
40.171153913178564 17.2134
40.194860712584955 17.2648
40.2185693066637 17.2505
40.242464941335314 17.1386
40.26617714307655 17.1836
40.289891143772046 17.1118
40.3136069448471 17.0894
40.33750984859743 17.06
40.3612292688043 17.0809
40.3849504936829 16.9575
40.40867352466194 16.9477
40.43258372059144 16.9662
40.45631038219906 16.9772
40.48003885420956 16.8849
40.503769138055105 16.8962
40.52768664931955 16.9075
40.55142057531802 16.8634
40.57515631746428 16.8737
40.599079334038514 16.833
40.62281872700477 16.7182
40.64655994043941 16.7229
40.67030297578061 16.6719
40.69423334835778 16.6861
40.71798004609188 16.6423
40.74172857006355 16.5998
40.76547892171441 16.5923
40.7894166736039 16.6033
40.813170699248566 16.5326
40.83692655691388 16.5391
40.86068424804498 16.5399
40.884629402612525 16.502
40.908390779366385 16.4529
40.932153993938 16.435
40.95591904777605 16.4317
40.979871628443995 16.4097
41.003640379561936 16.3972
41.02741097430883 16.32
41.05118341413683 16.2839
41.075143444384416 16.2582
41.098919593177826 16.2376
41.1226975914255 16.2902
41.14647744058318 16.1838
41.170444943946755 16.1162
41.19422851378379 16.1617
41.218013938914645 16.0939
41.24198706625173 16.0285
41.26577622087193 15.9958
41.289567235177785 16.0159
41.31336011063129 16.0022
41.337340752422875 15.9511
41.361137369129835 15.9164
41.38493585138705 15.9037
41.40873620066004 15.9089
41.43272438060107 15.9029
41.45652848292052 15.8755
41.48033445666918 15.7512
41.50414230331616 15.7549
41.528138045159764 15.7076
41.551949656675205 15.6556
41.575763145513235 15.7041
41.59957851314666 15.6508
41.62358184070442 15.6123
41.64740098505737 15.6296
41.6712220126409 15.5816
41.69504492493139 15.5157
41.71905586207357 15.5254
41.74288256296395 15.4957
41.766711153007456 15.4802
41.79054163368412 15.4683
41.814560204340054 15.4354
41.838394485526365 15.4036
41.86223066180303 15.4087
41.88625497706819 15.3775
41.910094962812 15.3299
41.93393684811168 15.293
41.95778063445365 15.272
41.981812625263366 15.252
42.00566023303407 15.186
42.029509746323676 15.2165
42.05336116662236 15.1754
42.077400857069705 15.1075
42.10125611078846 15.0859
42.12511327600405 15.1178
42.14897235421036 15.1007
42.173019768448455 15.0107
42.19688269209613 15.014000000000001
42.22074753323349 15.0331
42.24461429335818 14.9772
42.268669455600495 14.915
42.292540073217886 14.9135
42.31641261433284 14.8579
42.34028708044675 14.8514
42.36435001496739 14.8038
42.38822835065557 14.7681
42.41210861586426 14.785
42.4359908120986 14.7835
42.46006154323262 14.7404
42.48394762115317 14.6841
42.507835634632315 14.7048
42.531912233047436 14.707
42.55580413732265 14.6688
42.579697981698 14.6047
42.60359376768525 14.5716
42.62767820545945 14.5642
42.65157789440821 14.5326
42.67547952952185 14.517000000000001
42.699383112316 14.5383
42.72347541395347 14.4502
42.74738291190531 14.357000000000001
42.771292362102166 14.3752
42.795203766063516 14.4038
42.819303956130405 14.3245
42.843219287476536 14.3202
42.86713657716324 14.3304
42.89105582671383 14.2628
42.91516392983864 14.3257
42.939087119032166 14.2583
42.963012272677304 14.2523
42.98693939230129 14.2243
43.01105543317513 14.2243
43.034986504731386 14.137
43.05891954686589 14.1397
43.08285456110972 14.1104
43.10697856448665 14.1026
43.130917542983475 14.0179
43.15485849820081 14.0218
43.17880143167367 14.005999999999998
43.20293342237094 13.9904
43.226880332449 13.9361
43.25082922540554 13.9765
43.27496722682525 13.9159
43.29892010567796 13.9005
43.32287497204102 13.8943
43.34683182745632 13.7788
43.370977859791836 13.7891
43.39493871351105 13.7687
43.41890156092628 13.7971
43.44286640358341 13.7884
43.46702049182749 13.7151
43.49098934522816 13.7209
43.51496019852649 13.6909
43.5389330532723 13.6537
43.56309522248204 13.6314
43.58707210044314 13.6148
43.61105098451946 13.5378
43.63503187626491 13.5552
43.659202151562134 13.522
43.68318707902681 13.501
43.70717401884041 13.4753
43.731162972560874 13.450999999999999
43.75534137913236 13.4309
43.779334381108384 13.4202
43.803329401683186 13.374
43.82732644241872 13.3804
43.8515130055166 13.3549
43.87551410707659 13.345999999999998
43.89951723350145 13.3111
43.923709934595614 13.314
43.94771713129917 13.3079
43.97172635758096 13.2452
43.99573761501002 13.2207
44.0199385169922 13.1856
44.04395385732619 13.1226
44.067971233533086 13.1475
44.09199064718605 13.112
44.11619977548961 13.095999999999998
44.14022328470671 13.0654
44.16424883610785 13.0899
44.18827643127035 13.0415
44.21249381139513 13.0017
44.236525514814076 13.0199
44.26055926674478 12.9777
44.28459506876863 12.9589
44.3088207262813 12.8591
44.33286064928722 12.8792
44.35690262714919 12.8428
44.38094666145278 12.8542
44.4051806219871 12.8192
44.42922879003185 12.7688
44.45327901929361 12.7488
44.477331311362136 12.7918
44.501573600619416 12.6787
44.525630039221795 12.7107
44.54968854541895 12.6968
44.573937102200176 12.7174
44.5979997645541 12.6954
44.622064499300315 12.5965
44.64613130803592 12.582
44.67038823869318 12.5777
44.69445921643748 12.5467
44.718532272981385 12.5443
44.742607409926194 12.5084
44.76687274034801 12.4918
44.79095205918753 12.4716
44.81503346325094 12.4836
44.839116954143876 12.4048
44.86339071028742 12.4165
44.88747839599524 12.4306
44.91156817336837 12.3462
44.93566004401666 12.3667
44.959942251908146 12.3217
44.984038330325966 12.280999999999999
45.00813650686762 12.264000000000001
45.03223678314731 12.2508
45.05652746888232 12.254000000000001
45.08063196592069 12.2133
45.104738567558705 12.1597
45.128847275414856 12.1646
45.15314646515866 12.1417
45.17725940679741 12.1175
45.20137445952892 12.1143
45.22568004865265 12.1264
45.24979934496396 12.0523
45.27392075725247 12.0376
45.29804428714431 12.019
45.322358426247604 11.9877
45.346486212804315 11.9669
45.370616121861914 12.0022
45.39474815505086 11.9842
45.41907087049246 11.8794
45.4432071734666 11.8307
45.46734560548283 11.8958
45.49148616817604 11.8998
45.51581748638564 11.8206
45.5399623320197 11.7673
45.56410931325473 11.7645
45.58825843173002 11.7925
45.61259837920865 11.74
45.636751793816 11.7654
45.66090735060093 11.7257
45.68506505120716 11.6719
45.7094136545275 11.6238
45.73357566449271 11.6214
45.75773982322992 11.5928
45.78190613238733 11.5874
45.806263418194064 11.5467
45.83043404997326 11.5349
45.85460683713677 11.5355
45.87897065658495 11.501
45.90314777634752 11.4886
45.92732705646868 11.5115
45.9515084986045 11.4952
45.97588104735473 11.4123
46.00006683541565 11.3817
46.02425479047904 11.3684
46.04844491420549 11.3471
46.0728262191024 11.3612
46.09702070211635 11.3441
46.12121735879483 11.3434
46.14541619080294 11.3115
46.169806278764455 11.2845
46.194009483459034 11.2429
46.21821486849841 11.2636
46.24242243555223 11.1935
46.266821333570014 11.1867
46.29103328674601 11.1705
46.31524742696538 11.1859
46.33946375590237 11.1352
46.36387149104216 11.118
46.38809221957392 11.0819
46.41231514186606 11.0534
46.436540259597464 11.0639
46.460956858999374 11.030999999999999
46.48518638983522 11.0237
46.509418121166966 10.9718
46.533652054678114 10.9315
46.55807754555709 10.9306
46.58231590571962 10.9693
46.60655647313217 10.9181
46.630988654873654 10.8776
46.655233659129024 10.8514
46.67948087571551 10.8542
46.70373030632484 10.8293
46.72817142736393 10.8244
46.752425308428684 10.7925
46.77668140861147 10.7554
46.80093972960865 10.6955
46.82538981736788 10.704
46.849652602470904 10.7043
46.87391761349769 10.6818
46.8981848521493 10.6631
46.9226439341274 10.6702
46.946915650573224 10.585999999999999
46.97118959976749 10.6097
46.99546578341598 10.6157
47.019933887188216 10.5725
47.04421456235744 10.585999999999999
47.06849747711879 10.5608
47.09278263318286 10.5424
47.11725978640143 10.481
47.14154944775105 10.4651
47.165841355555656 10.4914
47.1901355115306 10.4382
47.214621741924994 10.4558
47.23892041698887 10.3929
47.26322134538975 10.3622
47.28771440635075 10.3172
47.31201986422527 10.3529
47.33632758061436 10.307
47.360637557241866 10.3257
47.38513974410611 10.2376
47.40945426407847 10.2177
47.43377104948137 10.2571
47.45809010204344 10.2163
47.48260144275502 10.1904
47.506925052572285 10.164
47.53125093475548 10.1337
47.55557909103813 10.1195
47.58009961361992 10.1499
47.60443234110732 10.1369
47.62876734791564 10.1266
47.65310463578333 10.0887
47.6776343683373 10.0396
47.7019762413987 10.0191
47.72632040075572 10.0101
47.75066684815169 10.0169
47.77520581885936 9.9906
47.799556865477655 9.98272
47.823910205386 9.94074
47.84826584033272 9.92601
47.87281407745551 9.8945
47.89717432569297 9.91661
47.92153687423484 9.86859
47.94609208429692 9.86205
47.97045925671401 9.82509
47.99482873471275 9.796339999999999
48.01920052005013 9.77486
48.04376504619224 9.80917
48.068141469543484 9.760639999999999
48.09252020552573 9.789760000000001
48.11690125590099 9.76578
48.1414751266064 9.701880000000001
48.16586082917454 9.68365
48.19024885144316 9.69687
48.2146391951793 9.63518
48.239222439012764 9.62678
48.26361744916137 9.62176
48.28801478610016 9.60242
48.31241445160131 9.61158
48.337007097209366 9.56823
48.36141144338331 9.560880000000001
48.38581812345755 9.55476
48.41022713920929 9.54933
48.434829215320704 9.49593
48.45924292604658 9.49797
48.48365897780325 9.5033
48.50807737237308 9.45012
48.532688907799276 9.4867
48.55711201168574 9.44298
48.581537463754074 9.38851
48.60615611725119 9.42587
48.63058628942721 9.41806
48.65501881516546 9.33516
48.6794536962573 9.33935
48.70408185970339 9.29571
48.72852147531801 9.2972
48.75296345168211 9.29867
48.77740779059232 9.27968
48.80204549302823 9.29383
48.82649458091802 9.2608
48.85094603676547 9.20998
48.87539986237231 9.21268
48.90004713292306 9.138160000000001
48.92450572200832 9.16995
48.94896668628025 9.12455
48.97343002754588 9.10711
48.99808689542115 9.10287
49.02255501470614 9.13397
49.04702551642794 9.08713
49.0714984023988 9.0583
49.096164896893235 9.02693
49.120642575466796 9.01016
49.145122643748394 9.01287
49.16960510355558 8.97907
49.19428125404938 8.970369999999999
49.2187685210852 8.94239
49.243258185121555 8.91837
49.26794160167084 8.93175
49.2924360839405 8.89211
49.31693296869764 8.85014
49.34143225776915 8.83312
49.36612538195438 8.83394
49.39062950396021 8.86705
49.41513603578346 8.777560000000001
49.4396449792564 8.78295
49.46434784069503 8.803510000000001
49.488861631846454 8.75025
49.513377840166804 8.75142
49.537896467493745 8.72783
49.56260909589029 8.70851
49.587132585683285 8.68708
49.611658500018365 8.686
49.636186840738596 8.68074
49.66090926588511 8.673580000000001
49.685442483902584 8.62872
49.70997813385706 8.594439999999999
49.734516217597076 8.59421
49.75924846937352 8.59901
49.7837914452858 8.55824
49.80833686055187 8.52046
49.83288471702571 8.4697
49.85762682540054 8.53041
49.882179588965734 8.46017
49.9067347993235 8.455210000000001
49.93129245833333 8.49434
49.95604445336378 8.446710000000001
49.98060703442832 8.423739999999999
50.005172069746266 8.394969999999999
50.02993150438364 8.41178
50.05450147301533 8.34596
50.07907390151433 8.33292
50.10364879174981 8.33412
50.12841816587289 8.349219999999999
50.1529980044635 8.32977
50.17758031042124 8.295
50.20216508562089 8.28616
50.22694442953363 8.25495
50.25153416817468 8.26227
50.27612638170508 8.23749
50.300721072005196 8.1986
50.325510416102105 8.20012
50.350110084975064 8.22101
50.37471223628208 8.19014
50.39931687190919 8.17155
50.424116246675766 8.145760000000001
50.44872587605249 8.118910000000001
50.47333799543065 8.094610000000001
50.49795260670191 8.09967
50.52276204271512 8.07191
50.54738166295838 8.07263
50.57200378079314 8.04445
50.596628398116835 8.019730000000001
50.62144792604559 8.02645
50.646077567609396 7.9826
50.670709714377715 7.982889999999999
50.69553683636198 7.9884699999999995
50.72017401885922 7.986460000000001
50.7448137122895 7.96473
50.76945591856022 7.932860000000001
50.79429318636823 7.9097800000000005
50.818940443716784 7.872889999999999
50.84359021965163 7.8673399999999996
50.868242516085964 7.8675
50.893089960641895 7.855919999999999
50.917747323549435 7.83865
50.94240721271973 7.830210000000001
50.96706963007175 7.81152
50.99192728239342 7.78649
51.01659478166073 7.780460000000001
51.04126481489051 7.7603100000000005
51.06593738400761 7.750660000000001
51.090805275207074 7.722119999999999
51.11548294172845 7.70677
51.14016314993547 7.718719999999999
51.164845901758845 7.6973
51.18972406304274 7.6564
51.21441192780656 7.63478
51.23910234200271 7.620480000000001
51.2637953075678 7.62242
51.288683770237945 7.5667100000000005
51.31338186432707 7.5395
51.33808251561888 7.54139
51.362978729967345 7.55938
51.387684521509755 7.5360000000000005
51.41239287610203 7.5614
51.437103795691165 7.52327
51.46201036644977 7.49225
51.486726441956634 7.479419999999999
51.51144508832545 7.45653
51.536166307509156 7.4675199999999995
51.56108326624387 7.439039999999999
51.58580965706056 7.38755
51.61053862657523 7.38845
51.635270176746864 7.36102
51.66019755512065 7.386410000000001
51.68493429268881 7.364260000000001
51.70967361681515 7.363860000000001
51.73441552946465 7.32923
51.759353359237934 7.348380000000001
51.7841004750961 7.32781
51.80885018539685 7.2948
51.833602492111254 7.2758199999999995
51.8585508051424 7.23923
51.883308330926425 7.24268
51.90806845906181 7.2121699999999995
51.932831191525715 7.20528
51.95779001977161 7.163289999999999
51.98255798721516 7.145160000000001
52.00732856494335 7.1474
52.03229530577543 7.12737
52.057071130455945 7.11307
52.081849571391054 7.11865
52.106630630568695 7.11412
52.13160794279417 7.074660000000001
52.15639426492067 7.04062
52.18118321127822 7.04356
52.205974783860896 7.04355
52.23096269971011 7.02595
52.255759551287994 7.01352
52.280559035098186 6.97474
52.30536115314103 6.985710000000001
52.33035970494467 6.97915
52.35516711807904 6.97013
52.37997717147198 6.96075
52.40478986713005 6.94809
52.42979908731974 6.92462
52.454617094216 6.8921399999999995
52.47943774942214 6.85411
52.50426105495102 6.8837600000000005
52.529280976059844 6.88048
52.554109609024096 6.8352
52.57894089837482 6.80523
52.60377484613117 6.8067
52.62880550079408 6.81538
52.65364479223379 6.74684
52.67848674816189 6.7443800000000005
52.70352547971946 6.74172
52.72837279155837 6.74098
52.753222773982785 6.760110000000001
52.778075429022984 6.756710000000001
52.80312495150885 6.7102699999999995
52.827982978797436 6.68507
52.85284368481815 6.67477
52.87770707160767 6.66025
52.90276741793998 6.65218
52.92763619336701 6.612589999999999
52.952507655698504 6.639480000000001
52.977381806977576 6.61077
53.00245301017842 6.57804
53.02733256653592 6.58529
53.052214817996074 6.5594
53.077099766608484 6.5498
53.102181859804446 6.49972
53.127072229988265 6.55767
53.15196530349892 6.49989
53.17686108239249 6.4821
53.20195409881522 6.49631
53.22685531582556 6.472180000000001
53.25175924441303 6.42201
53.27666588664027 6.442480000000001
53.30176985962693 6.4111199999999995
53.3266819565689 6.4227099999999995
53.35159677336455 6.38868
53.376514312083096 6.38448
53.40162927507703 6.37568
53.42655228516116 6.3506800000000005
53.45147802340193 6.3330400000000004
53.47660125628886 6.30732
53.50153247842639 6.30198
53.52646643496923 6.25443
53.55140312799818 6.28022
53.576537409691696 6.27399
53.60147960336152 6.27602
53.626424539786164 6.252680000000001
53.65137222105307 6.2485599999999994
53.67651758529126 6.25156
53.70147078399681 6.22855
53.72642673383343 6.2043
53.75138543689533 6.18541
53.776541917524526 6.157769999999999
53.801506154876755 6.17519
53.826473151763246 6.16985
53.851442910284916 6.09735
53.87661054126026 6.079359999999999
53.9015858509782 6.09617
53.92656392866066 6.0894699999999995
53.95154477641532 6.05175
53.976723591801296 6.07086
54.00171000771266 6.0382
54.02669920004598 6.000380000000001
54.051691170915745 6.00376
54.076881204886796 6.01835
54.101878760928514 5.9819
54.12687910187696 6.01627
54.152077577768296 5.939030000000001
54.1770835166946 5.94135
54.20209224691339 5.95783
54.22710377055121 5.9327
54.25231352511594 5.91541
54.27733066384342 5.89104
54.30235060239643 5.86983
54.32737334290836 5.9322
54.35259441062629 5.8152
54.377622783395324 5.79712
54.40265396455061 5.83303
54.42768795623251 5.75868
54.45292037169559 5.77329
54.477960012857906 5.7715
54.50300247099511 5.76919
54.52804774825457 5.75024
54.55329154616743 5.69256
54.57834249018678 5.62562
54.6033962597977 5.61514
54.6284528571545 5.64014
54.653708072335164 5.62451
54.67877035378786 5.66626
54.70383546947698 5.59909
54.72890342156389 5.57966
54.7541700889442 5.60195
54.77924374251975 5.51476
54.8043202390049 5.50597
54.82959552413022 5.52405
54.8546777351945 5.50667
54.87976279569621 5.43794
54.90485070780914 5.5065599999999995
54.930137506558005 5.46019
54.95523115074295 5.454269999999999
54.98032765308844 5.3835
55.005427015775496 5.37344
55.03072536339621 5.371919999999999
55.05583047570572 5.36151
55.080938454927676 5.32635
55.10604930325027 5.25165
55.131359235107396 5.27075
55.15647585066083 5.2196
55.181595341907496 5.14774
55.20671771104285 5.1921800000000005
55.232039262617704 5.1721699999999995
55.25716741665048 5.1620099999999995
55.28229845518636 5.1634
55.30743238042802 5.058590000000001
55.33276558731939 5.11521
55.357905315183636 5.09969
55.383047936390035 5.0669699999999995
55.40819345314859 5.0347599999999995
55.433538351073295 5.00749
55.458689688238415 5.00217
55.483843927614096 4.97786
55.509197623043605 4.971769999999999
55.53435769621134 4.94345
55.55952067826466 4.90451
55.5846865714265 4.84006
55.61005202069737 4.87765
55.63522376553902 4.86369
55.66039842818645 4.80259
55.68557601087004 4.8461300000000005
55.7109532500271 4.73431
55.73613670233794 4.73424
