TT I
1.2716486653135266 7.789510000000001
1.2939594142134223 7.545839999999999
1.3162702121660406 6.85571
1.3385810600174564 6.695469999999999
1.3608919586137629 6.7885800000000005
1.383202908801069 6.4025
1.405513911425503 6.27819
1.4278249673332093 6.49175
1.4501343378461518 6.64227
1.4724455028545926 6.07227
1.4947567236847858 6.18649
1.517068001182951 6.15691
1.5393793361953272 5.86837
1.5616907295681737 5.8345199999999995
1.5840021821477681 5.54884
1.60631369478041 5.77621
1.6286252683124185 5.2430699999999995
1.6509369035901333 4.66635
1.6732468618895553 5.39843
1.695558623192809 5.36885
1.7178704487808514 5.496980000000001
1.7401823395001077 5.72883
1.7625012545597203 5.03675
1.7848028405262486 5.30819
1.8071218901122095 5.17034
1.8294236121921872 4.60952
1.8517427996910911 4.83589
1.8740620574440425 4.57532
1.8963639900671978 4.47323
1.9186833908139995 4.28964
1.9409854680117449 4.86458
1.9633050151394713 4.50481
1.9856246367570705 4.67269
2.0079269371922672 4.6894599999999995
2.03024671027244 4.273680000000001
2.0525491637446027 4.32181
2.074869091674931 4.51743
2.097171701569106 5.02271
2.1194917877373847 4.82366
2.141811954326636 5.0910400000000005
2.164114805233074 4.44992
2.186435135143035 5.93118
2.208738150935709 12.1863
2.231058647554722 24.4828
2.2533792288321184 18.9559
2.275682498336085 8.71579
2.298003251406138 5.17595
2.3203066942619714 4.93732
2.3426276225136022 4.873469999999999
2.3649486396617507 4.8716800000000005
2.387252348930071 4.8252
2.4095735463442893 5.218
2.4318774374315884 5.50925
2.4541988185014043 5.90442
2.476502894794693 5.4591
2.498824462909887 5.56995
2.521146125856138 5.5038800000000005
2.5434504863470337 5.25611
2.5657723414244717 6.17746
2.588076895590662 6.92254
2.610398946189713 7.1399
2.6327210958598384 6.99147
2.6550259469304716 6.837060000000001
2.6773482972090137 7.06113
2.6996533504259 6.79109
2.7219759047039602 7.58707
2.744298562293959 7.41237
2.7666039251246595 7.09162
2.7889267918020164 7.26567
2.8112323652516555 7.0923
2.833555444408179 7.8928899999999995
2.8558786311183852 7.777239999999999
2.8781845268938557 8.04711
2.9005079311721484 8.5214
2.9228140460410397 8.612039999999999
2.9451376712799635 9.05813
2.967444008632326 8.613719999999999
2.9897678582247247 9.05149
3.0120918213106695 9.85803
3.0343984987899373 10.4175
3.0567226913198637 10.9992
3.079029599759726 11.1476
3.101354025127254 12.0263
3.123678568232338 12.640999999999998
3.145985829517914 12.7922
3.16831061055229 13.2448
3.1906181112775593 13.8681
3.212943133635653 14.5649
3.2352682779763207 15.231
3.2575761442691227 15.325999999999999
3.2799015350264273 15.7203
3.302209649240067 16.1792
3.3245352898092655 16.97
3.3468436553365257 17.0663
3.369169549113219 17.7592
3.3914955708171384 18.6275
3.413804319727358 18.8455
3.4361305997334863 18.9391
3.4584396084414553 19.9816
3.4807661501462652 20.5483
3.503092824025881 21.4333
3.5254022288463154 21.3814
3.5477291695206588 21.8741
3.5700388426251948 22.668000000000003
3.5923660534916446 23.785
3.6146934007816114 36.9062
3.637003482731501 81.1716
3.6593311053109985 89.9365
3.681641464033634 53.8951
3.7039693653009733 29.9224
3.726297407241705 26.4182
3.7486081875460804 26.2926
3.7709365132734978 26.3757
3.793247578841633 26.9242
3.8155761917550093 26.8228
3.8378875459837216 27.5585
3.8602164494827234 27.8046
3.882545499606844 28.4306
3.9048572932539183 29.2496
3.9271866390645718 29.2007
3.9494987298666713 30.1114
3.971828374764527 30.7028
3.9941581705403255 31.2033
4.016470713506008 32.1024
4.038800813471445 32.5643
4.061113662089144 33.3215
4.0834440696459176 34.4039
4.105774632334751 35.0696
4.128087945865126 35.6021
4.150418821249301 36.2638
4.172732448931298 37.5285
4.195063640413578 39.3688
4.2173775856475215 43.2022
4.239709096631102 71.4989
4.262040768704612 216.257
4.284355196706267 289.94599999999997
4.306687193387355 188.872
4.329001947444346 77.6257
4.35133427213731 48.4071
4.373666762177566 45.7707
4.395982011761091 45.5579
4.418314834921175 46.9178
4.44063041906622 53.7805
4.4629635787515625 64.0976
4.4852969080429785 63.5816
4.5076130004776225 54.9412
4.529946671403969 52.059
4.552263106909177 52.3917
4.574597122877047 52.8645
4.596931312711224 53.7569
4.619248269273446 54.923
4.6415828092605835 56.0975
4.663900117405352 56.8779
4.686235010953232 58.3055
4.708552674085913 59.604
4.730887924602802 61.0998
4.753223354952695 62.6768
4.775541557023902 64.3505
4.797877349456786 65.8764
4.820195915032126 67.9415
4.842532072957498 69.1457
4.864868414979744 71.7376
4.88718753227192 74.2803
4.909524244902505 75.9267
4.931843734218147 77.9419
4.954180820867835 81.336
4.976518095879839 84.2693
4.998838149695359 87.431
5.021175803844231 91.7227
5.043496238205739 95.3618
5.065834274903528 100.65899999999999
5.088172504230693 106.695
5.1104935158799565 115.08
5.132832132875765 140.68
5.155153533596801 187.518
5.1774925416746225 244.331
5.199814334878411 540.7180000000001
5.2221537374521505 1480.29
5.244493338631803 3480.42
5.266815727034316 7264.41
5.289155727832427 11443.5
5.311478517248165 9261.32
5.333818921080011 3622.68
5.356159527788849 789.26
5.3784829252032536 231.19799999999998
5.400823940070432 163.71200000000002
5.423147747031976 140.10399999999998
5.445489173474152 127.741
5.467830807066149 120.90700000000001
5.490155234831516 115.788
5.512497285125229 111.87799999999999
5.534822130975162 108.98
5.557164601388673 106.221
5.579489868738879 103.175
5.601832762690846 102.789
5.6241758697774475 101.391
5.646501775867269 100.31700000000001
5.668845311622074 98.6986
5.691171647754637 97.9643
5.713515615597765 96.5069
5.735859800852677 96.0918
5.758186788542988 95.7389
5.780531411018185 96.6681
5.802858837297399 95.8869
5.825203900414495 95.9596
5.8475491852224 96.9101
5.869877275883075 97.6707
5.892223006467101 98.7314
5.914551544266608 101.637
5.936897724049891 105.545
5.959244129804903 114.056
5.981573344815301 145.425
6.0039202049061 287.26
6.026249875609095 617.424
6.04859719346037 1200.84
6.070927323278297 2250.62
6.093275102315365 3994.0
6.115623113320588 4754.36
6.137953938319995 3493.56
6.160302415650845 1249.97
6.182633708324452 301.83099999999996
6.2049826554078376 130.485
6.227331838745022 101.09700000000001
6.249663839443684 91.0594
6.27201349767565 86.6559
6.294345974611799 91.2506
6.316696111167083 100.836
6.339046488263839 95.98200000000001
6.361379686074702 81.4488
6.383730546639482 74.0242
6.406064229255215 71.2514
6.428415576718203 70.844
6.450749747566656 69.8141
6.47310158535871 68.1116
6.495453669698332 66.7792
6.517788579421056 66.8626
6.540141159237969 65.6851
6.562476565766648 64.8421
6.5848296444934045 64.3203
6.607182974060425 64.4034
6.6295191323281015 64.1817
6.651872965955752 66.8162
6.6742096296068985 89.8856
6.6965639707294615 131.217
6.71891856698715 132.346
6.741255995248479 92.5663
6.763611104154477 68.4638
6.785949046381137 61.7644
6.808304671371482 59.6661
6.8306605557940046 59.7034
6.852999275508618 59.0331
6.875355681171544 58.6803
6.897694923437771 58.4316
6.92005185377892 58.2402
6.9423916220322655 57.7933
6.964749080490181 57.2638
6.987106804399774 57.3751
7.009447368180821 57.2692
7.031805625367033 56.945
7.054146723727803 56.9129
7.076505517631004 56.4336
7.098864581288365 56.386
7.121206488070854 56.2414
7.143566093607822 56.5954
7.165908543567245 56.8674
7.188268694426048 56.6946
7.2106291193438095 56.7698
7.232972390625943 58.1186
7.255333366030969 69.0199
7.277677189091925 117.068
7.300038718428332 160.252
7.322400526130865 136.123
7.344745183422596 87.1657
7.367107550224791 62.2848
7.389452767901992 57.4824
7.411815697249891 56.5611
7.434161478756298 55.7823
7.456524974096713 55.6214
7.478888753837185 55.5143
7.501235387657368 55.8892
7.523599738562711 55.7721
7.545946944825532 56.2706
7.568311870344528 56.8865
7.5906770845765665 56.8988
7.613025156078678 58.0907
7.635390950099687 59.5582
7.657739602662809 58.2957
7.680105979923558 57.492
7.702472650212829 57.5322
7.724822180948224 57.4515
7.747189439655568 57.4079
7.769539560075357 57.5749
7.791907410653562 58.2476
7.81425812420825 57.9796
7.836626570110925 58.2256
7.858995315087906 59.2696
7.881346924933401 59.5961
7.903716270417482 60.0486
7.926068482028405 60.2768
7.948438431475253 60.9197
7.9708086843180235 61.5298
7.993161805171116 62.1728
8.015532667162402 62.667
8.037886398416653 63.7042
8.060257873014221 64.3293
8.082629655331942 64.8787
8.104984308787587 65.7225
8.127356708900503 68.6594
8.149711981398308 74.5124
8.172085002766314 76.5852
8.194458336181368 73.6333
8.216814543847752 71.428
8.23918850371002 71.8389
8.26154533906492 72.6931
8.283919928836452 74.472
8.306277395339652 75.21600000000001
8.328652618483376 76.9512
8.351028159736202 78.982
8.373386579575245 81.4378
8.395762759396959 83.914
8.418121819038275 88.676
8.440498640894003 101.73299999999999
8.462875785192262 117.126
8.485235811156207 140.256
8.507613602688501 206.514
8.529974277114228 321.772
8.552352719347912 471.655
8.574731488360351 724.679
8.59709314210385 1146.36
8.619472567021075 1678.59
8.64183487789147 2114.09
8.664214962183097 1876.78
8.686577933647762 1099.02
8.708958680784317 451.04400000000004
8.731339760774953 188.475
8.753703729764451 119.6
8.77608547780821 104.85
8.798450116065078 99.5637
8.820832535634787 96.2016
8.843215292401656 94.2405
8.865580941199045 92.7905
8.887964374703538 91.4672
8.910330701447199 92.6488
8.932714815164482 94.2005
8.955099270424924 93.0159
8.977466620733543 90.5393
8.999851761421976 87.4408
9.022219798361645 86.2868
9.04460562795561 85.9135
9.066991803441677 85.5473
9.089360876979615 85.421
9.111747746589993 84.986
9.13411751544971 84.2796
9.156505082664324 84.0523
9.178875550323522 84.556
9.20126381862328 84.8152
9.223652438908596 85.3019
9.246023961427412 84.9588
9.26841328802173 84.3264
9.290785518039224 84.4854
9.313175554425882 85.2909
9.335565947154315 85.7175
9.357939245086508 85.7242
9.380330352834827 85.3032
9.40270436697103 85.589
9.425096193225055 85.6136
9.447488380180165 86.3709
9.469863475295412 86.5369
9.492256385987508 87.2357
9.514632206018318 87.7003
9.537025843935714 87.8038
9.559402392368193 89.1158
9.581796761000229 90.1795
9.604191496441521 91.1095
9.626569144158516 94.3011
9.648964615551032 98.3805
9.671343000390081 100.184
9.693739211225699 98.0342
9.716135793237463 96.2163
9.738515290448102 96.0872
9.760912617143402 97.1031
9.783292860202891 98.1627
9.805690935076182 99.56700000000001
9.828089385495742 101.06200000000001
9.850470754023561 103.90799999999999
9.872869957865444 110.90100000000001
9.89525208097539 124.98700000000001
9.917652041736662 137.707
9.940052382417589 141.30200000000002
9.962435644102392 161.389
9.984836746950979 215.99099999999999
10.007220771957746 297.482
10.029622640473708 413.718
10.052007432299963 589.391
10.074410069984072 833.285
10.096813093716005 1183.66
10.119199042482517 1621.42
10.141602840636468 1881.46
10.163989564971628 1709.07
10.186394141051062 1074.37
10.208799107559706 495.775
10.231187001965623 228.957
10.253592751657669 140.542
10.275981430388155 120.073
10.298387966769793 117.53
10.320794897965431 118.885
10.343184759907361 117.585
10.36559248305461 112.34700000000001
10.387983138083852 109.219
10.410391656691655 115.057
10.432800574501677 131.315
10.455192425893369 152.511
10.47760214443012 180.48
10.499994797678786 222.18599999999998
10.522405320453982 286.975
10.54479877906917 380.07800000000003
10.567210109595656 478.69599999999997
10.5896218454736 544.193
10.612016518879773 523.419
10.634429067781074 377.413
10.656824555333241 223.606
10.679237920773568 133.347
10.701651695961992 101.09700000000001
10.724048411481384 92.6607
10.746463008485165 89.2914
10.768860546937125 87.6608
10.791275969274796 85.7761
10.81369180576079 84.6863
10.836090585366925 83.5005
10.858507252467449 82.1104
10.88090686379991 81.0573
10.903324365036394 80.5786
10.925724811614439 80.3149
10.948143150509463 81.7201
10.970561909719066 80.5644
10.992963615930844 78.9479
11.015383218085756 76.8019
11.037785768347074 75.5132
11.06020621697282 74.8381
11.082627090322113 74.1215
11.105030913430326 73.8896
11.12745263854165 73.9594
11.149857314510728 77.0703
11.172279894912576 82.5688
11.194702904450653 83.3886
11.217108866490921 79.3945
11.239532736615194 75.0834
11.26193956033512 73.4215
11.284364294577085 71.961
11.306789462371718 70.1915
11.329197585398376 68.9271
11.351623622610898 68.8419
11.37403261614354 67.9775
11.396459526308487 67.9751
11.418869393879497 67.4568
11.441297180532617 67.1404
11.463725406927658 66.7481
11.486136592353875 66.5871
11.508565700543707 66.8707
11.530977768845315 68.8329
11.553407762368774 69.523
11.575838200059769 68.8553
11.598251599479612 67.0139
11.620682927815501 65.9253
11.64309721895548 65.5042
11.665529441478206 64.8962
11.687962112597958 64.6696
11.710377748130886 64.7943
11.732811318753434 64.8065
11.755227854859067 64.9229
11.777662328529495 64.6106
11.800079768750786 64.3407
11.822515149015453 64.3061
11.844950984084935 64.5537
11.867369787303163 64.1556
11.889806534289491 64.0188
11.912226250487029 64.5895
11.934663912939751 64.7731
11.9571020346363 64.9074
11.979523127133968 65.0146
12.001962169624331 66.2081
12.024384183972964 67.818
12.046824150809913 72.0929
12.069264581333726 78.6633
12.091687985297767 85.4443
12.11412934550045 94.6607
12.136553680195208 107.90700000000001
12.158995973632788 125.779
12.181438735204349 148.61700000000002
12.20386447284199 175.99099999999999
12.226308172985636 201.02900000000002
12.24873485024193 206.912
12.271179492516982 180.342
12.293607112949127 135.556
12.316052700916226 102.133
12.338498763250042 81.6439
12.360927805303868 72.2332
12.383374818673879 68.566
12.405804812803074 66.3929
12.428252780773262 66.0326
12.45070122756722 66.1846
12.473132656675375 66.1724
12.49558206341869 66.3511
12.518014453510101 66.5526
12.540464823770117 66.5173
12.562915677315177 66.5703
12.58534951575545 67.0841
12.607801338171472 68.9194
12.630236146511358 73.8698
12.652688941369085 78.3953
12.675124723177234 78.7638
12.697578494048786 75.4891
12.720032754458185 71.6811
12.742470003354093 70.1515
12.764925245138771 69.6353
12.787363476431278 69.8203
12.809819703166806 70.2292
12.83227642391173 71.1266
12.854716135692716 71.7796
12.877173846755147 72.798
12.899614549869717 73.4151
12.9220732548287 74.0281
12.94453245827299 74.6376
12.966974655289818 75.6563
12.989434858002571 76.2977
13.011878055298721 77.5009
13.034339260862497 78.4601
13.056800969391883 79.6763
13.079245674017244 82.3004
13.101708390774869 85.6667
13.12415410463411 95.637
13.146617833206086 110.355
13.169064559883248 124.492
13.191529303857127 141.43
13.213994557076367 162.655
13.236442809902437 195.19
13.258909083908291 239.695
13.28135835851934 290.759
13.30382565690295 348.463
13.326293469022952 406.876
13.348744283242008 429.681
13.371213125129904 382.11800000000005
13.39366497011003 287.975
13.416134845360597 192.234
13.438605238843131 133.86700000000002
13.46105863690397 114.536
13.483530069144786 115.124
13.505984506951902 122.405
13.528456981549432 133.222
13.550929978879088 148.257
13.573385983253365 169.165
13.595860028340867 200.268
13.618317081455832 238.262
13.64079217790333 283.857
13.663250283359057 329.149
13.685726434770173 358.17800000000005
13.708203115221277 345.30199999999996
13.730662806148091 281.272
13.75314054697177 204.19799999999998
13.775601299246777 139.237
13.798080104050406 103.428
13.820559442405358 89.1338
13.843021793671388 84.6233
13.865502201420897 82.6507
13.887965623051947 82.09
13.910447103807167 80.9486
13.932929122629764 79.2118
13.955394156785959 79.324
13.977877254034569 78.0212
14.000343367582113 77.2133
14.022827546871707 76.3683
14.045294743423524 75.8416
14.06778000837062 75.0533
14.090265817715476 75.1685
14.112734645763819 74.7679
14.13522154619454 74.3987
14.157691466286913 74.531
14.180179461423874 74.1628
14.202668005486178 73.4977
14.22513957064374 72.8003
14.247629214846473 72.5961
14.270101881097517 72.3242
14.29259262906496 72.6628
14.315083930490205 73.3302
14.337558255389705 73.4507
14.360050666019726 73.3063
14.382526101071944 72.4594
14.405019624534942 71.3837
14.427513705993134 70.8688
14.449990813291825 70.8172
14.47248601302899 70.6583
14.49496423954951 70.5818
14.517460561197822 70.7864
14.539939910570322 70.6073
14.562437357763558 71.1664
14.58493536931253 72.3091
14.607416409993311 73.0337
14.62991555254159 73.6535
14.652397725157423 73.7597
14.674898002342799 73.3259
14.697398848433282 72.7879
14.719882725991326 73.9735
14.74238471217934 75.4516
14.764869730765593 79.9997
14.787372860692983 84.8204
14.809876564079925 90.2283
14.83236330125751 96.5356
14.854868153850365 104.715
14.877356041159485 117.071
14.899862046604186 132.0
14.922351087688757 151.764
14.944858249632887 173.53900000000002
14.967365991421232 198.046
14.989856770231246 217.048
15.012365673994204 220.25599999999997
15.03485761569738 196.22799999999998
15.05736768508665 157.912
15.07987833888692 121.91799999999999
15.102372032001655 95.4212
15.124883856909658 80.2682
15.14737872204565 74.8629
15.169891721717274 72.8991
15.192405310371893 72.4568
15.214901940621196 72.8564
15.237416709527137 72.8289
15.259914520936249 72.9659
15.282430473753607 72.0528
15.304947020131227 71.1385
15.327446610371178 70.0537
15.349964346154254 69.1968
15.372465126703139 69.1197
15.394984055556009 68.6992
15.417486030076159 68.3855
15.44000615566487 68.0934
15.462526881230803 68.1393
15.485030653812652 68.1431
15.507552581617434 68.2567
15.530057557334603 68.2661
15.55258069104857 68.1124
15.575104429329837 68.1255
15.597611216864632 68.0139
15.620136166564563 68.2936
15.6426441664095 69.9936
15.665170331202765 73.2339
15.687697105158826 77.439
15.710206930593545 81.4955
15.732734925158933 86.0525
15.755245972089478 92.3289
15.77777519094324 100.85700000000001
15.800287463046663 111.45200000000001
15.822817909869592 126.723
15.84534897229804 142.55
15.867863089299354 162.378
15.890395385222186 180.53599999999997
15.912910736597423 193.637
15.935444269699861 191.365
15.957978423016485 167.66
15.980495633101265 134.469
16.003031029129367 104.485
16.02554948280019 81.3328
16.048086125229432 70.6804
16.070623392487107 67.3832
16.09314371869582 66.5233
16.11568223789321 65.2893
16.13820381691126 64.3497
16.160743591742527 63.2676
16.183283996022084 62.3566
16.205807461423195 61.2471
16.228349126881973 60.5442
16.25087385432698 60.5494
16.27341678466365 60.0432
16.29594277784926 60.1713
16.31848697676433 60.2395
16.341031811604868 60.3831
16.36355971058487 60.6355
16.3861058195587 60.4394
16.40863499352978 59.2176
16.431182380342005 58.565
16.453730407713202 58.1044
16.476261501364792 57.5186
16.498810812136167 57.1909
16.52134319004079 57.4472
16.54389378792203 57.2524
16.566445031001553 57.0605
16.588979342490088 57.0046
16.61153187824822 56.8195
16.634067483263312 56.5786
16.656621315414416 56.4873
16.679175797408888 56.3164
16.701713349928728 56.5469
16.72426913389191 56.7081
16.74680798922351 56.6741
16.76936507887444 56.5291
16.791905240734874 56.5123
16.814463639794468 56.2507
16.837022695210294 56.4401
16.859564824093756 56.9183
16.882125194503903 57.5811
16.904668639217885 58.1998
16.927230328348003 58.2881
16.949792678493612 58.3978
16.972338104193863 57.8408
16.994901778652235 57.3251
17.017448529496576 57.398
17.040013531998152 57.7962
17.06257920018044 58.536
17.0851279459922 59.3865
17.107694947817667 60.4939
17.130245028099072 61.3071
17.15281336730298 62.5692
17.17536478578733 64.3432
17.19793446610687 66.4305
17.220504818648422 68.6925
17.243058251703697 71.3631
17.265629950971032 74.8726
17.288184731571736 78.5692
17.310757781306908 83.2271
17.33333150794385 84.9478
17.355888317140174 84.4469
17.37846339986244 80.7639
17.401021565958885 74.5695
17.42359800851343 68.7398
17.44617513265564 64.398
17.468735341390783 62.1895
17.491261035594565 60.9562
17.51396340099364 60.8087
17.536490463869136 60.9598
17.559018209820174 61.0697
17.58154663977963 61.0135
17.604251766089718 61.1682
17.626781572227713 61.3651
17.64931206518155 61.5775
17.671843245885103 62.3022
17.69455114821572 62.3899
17.717083712612634 62.6779
17.739616967569667 62.9775
17.762150914021706 63.3081
17.78486160749854 63.3344
17.807396945166804 64.1262
17.829932977143503 65.3758
17.85246970436452 67.3054
17.875183204129467 69.8142
17.897721330097664 72.2873
17.920260154126645 74.7604
17.942799677153296 78.0453
17.9655159983646 81.6979
17.988056927677544 86.5461
18.010598558807683 93.3511
18.033140892692916 100.935
18.05586005052525 109.163
18.07840379824407 118.819
18.10094825154059 129.618
18.12366954819864 139.767
18.146215420998306 143.75799999999998
18.16876200220057 139.033
18.191309292745153 126.04799999999999
18.214033452627167 112.132
18.236582170236648 98.3593
18.259131600016456 90.8581
18.281681742907335 88.9305
18.304408781233683 91.3971
18.32696035875955 94.9583
18.349512652227624 98.9226
18.372065662579683 104.249
18.394795594587553 107.568
18.41735004715306 106.54799999999999
18.43990521943684 100.492
18.46246111238171 91.6894
18.485193953325208 81.2305
18.507751296070428 72.8735
18.530309362314178 68.1753
18.552868153000343 65.5166
18.57560391815056 64.247
18.59816416623245 63.6217
18.620725141597372 63.015
18.643286845190268 62.5601
18.666025549835414 62.3629
18.688588718427933 61.7501
18.711152618092243 61.7523
18.73389353884365 61.3055
18.75645890921984 60.7865
18.77902501351406 60.4323
18.801591852673102 60.3542
18.824335739722738 59.7666
18.846904057212626 59.9215
18.8694731124168 59.78
18.89204290628315 59.6254
18.914789774966803 59.3996
18.937361054791623 59.082
18.959933076131318 58.7156
18.982505839934877 59.0321
19.00525570560582 59.074
19.027829963004184 58.6254
19.05040496572238 58.7532
19.072980714710468 58.7794
19.095733592739563 59.0567
19.11831084296757 59.5402
19.140888842324735 60.1476
19.16346759176222 60.4295
19.18622349753803 60.945
19.208803755869358 61.8183
19.231384767143577 62.8284
19.253966532312948 64.1121
19.276725481241822 65.85
19.29930876296784 67.8656
19.3218928014549 70.0408
19.34465404436217 72.5975
19.36723960516257 75.4033
19.389825925592426 77.6276
19.412413006605938 77.8449
19.43517731967805 75.1092
19.457765930683355 70.9199
19.48035530514408 66.0878
19.50294544401556 62.1257
19.525712842708348 59.0403
19.54830451925909 57.2936
19.570896963095727 55.9499
19.593490175174704 55.6072
19.616260674962184 55.6492
19.638855432416964 55.2648
19.661450960992624 55.3819
19.68404726164677 55.0262
19.706820878021247 54.9263
19.729418731756834 55.2135
19.752017360452857 54.8907
19.77461676506804 55.3508
19.797393513540218 55.6224
19.819994478951667 55.9758
19.84259622316767 56.4135
19.8651987471481 56.9593
19.887978643247177 57.0453
19.91058273574792 57.705
19.933187610901943 58.3302
19.955969879466828 59.4777
19.97857632894404 60.7137
20.00118356396599 61.9259
20.023791585494575 63.6186
20.046577028914875 65.9687
20.069186632506966 67.9468
20.091797025500632 69.8086
20.114408208858933 71.2426
20.137196842715273 71.9458
20.159809615886765 71.0272
20.18242318232135 68.5375
20.20503754298326 66.3099
20.227829382875154 64.4853
20.250445341109344 63.5948
20.27306209647285 63.7162
20.29567964993108 64.4096
20.31847471147704 65.485
20.34109387027612 66.8524
20.363713830075454 67.1525
20.386334591841646 66.3824
20.409132890679302 63.9542
20.431755265564437 60.8746
20.454378445325528 57.8298
20.477002430930366 55.4937
20.499803982716553 53.9581
20.522429589228004 53.2195
20.54505600449589 52.7783
20.567683229489194 52.4809
20.590488049900088 52.1186
20.61311690359731 52.0242
20.63574656993626 51.5216
20.658553853717297 51.1201
20.681185154618298 51.2365
20.703817271080066 51.1074
20.72645020407368 50.8131
20.749260783967177 50.7075
20.771895359337133 50.6754
20.794530754161617 50.523
20.817166969412938 50.327
20.83998086114876 50.3797
20.86261872660049 50.3144
20.885257415405402 50.1749
20.90789692853701 50.2303
20.930714147864748 50.0655
20.953355319030678 50.163999999999994
20.97599731745334 50.2662
20.99864014410749 50.1521
21.021460706796564 49.989
21.044105199328826 50.2884
21.06675052302631 50.568999999999996
21.089396678865015 50.6706
21.112220600704806 50.9755
21.134868430275347 51.3917
21.15751709492456 51.6662
21.180166595629693 51.6486
21.202993892429635 52.0073
21.22564507473034 52.6095
21.24829709602816 52.8832
21.27112693608965 52.9693
21.293780644891275 53.3154
21.316435195634053 52.5737
21.339090589297417 51.9065
21.361923832041875 51.4147
21.384580921090404 50.7515
21.407238856007325 50.0801
21.429897637773326 50.0471
21.45273429906592 49.9362
21.475394784108598 49.9044
21.498056118951983 49.7393
21.520718304578022 49.8153
21.543558400304388 50.1038
21.566222297108816 50.4101
21.58888704765135 50.7912
21.61155265291521 51.0446
21.63439619898156 51.6115
21.657063523335786 51.71
21.67973170537063 52.3053
21.7024007460706 52.7635
21.72524775840385 53.4857
21.747918526116475 54.5342
21.770590155457388 55.5342
21.79326264741238 56.9566
21.816113141960237 58.5205
21.838787368860547 59.99
21.861462461341976 61.6195
21.884315579735777 63.3497
21.90699241312273 65.0135
21.92967011506078 66.4226
21.95234868653799 66.829
21.9752053151131 65.8909
21.997885635446785 64.0669
22.020566828293532 62.0383
22.04324889464272 59.7322
22.066109049404666 58.003
22.088792872571794 57.3574
22.111477572219204 57.1622
22.1341631493376 57.3255
22.157026846313123 57.5169
22.179714188221507 57.2654
22.202402410582668 56.26
22.22509151438863 54.7122
22.24795876962584 53.2105
22.270649646204486 52.3619
22.293341407213727 51.6269
22.316034053646906 50.8548
22.338904883215342 50.6254
22.36159931041458 50.5082
22.38429462602756 50.5701
22.40699083104897 50.4508
22.429865251039757 50.3624
22.452563244831367 50.3929
22.47526213102522 50.3819
22.49813925616515 50.1795
22.520839937143307 50.0747
22.543541513520587 50.0427
22.56624398629403 50.0934
22.589124730075895 50.0777
22.611829005656723 50.2889
22.63453418063466 50.1081
22.657240256008077 50.4897
22.680124634582935 50.7606
22.70283252079775 51.1136
22.725541310413075 51.2427
22.74825100442868 51.6513
22.771139033969575 51.8761
22.79385054687155 52.07899999999999
22.81656296718292 52.8139
22.83927629590484 53.6931
22.862167992606945 54.3324
22.88488314827121 55.2807
22.907599215359284 55.9856
22.93031619487366 56.9215
22.953211574954405 57.9069
22.975930389478226 59.06399999999999
22.998650119445763 59.5172
23.02137076586092 59.1776
23.044269845560063 58.1756
23.06699233506288 56.6144
23.089715744034912 54.7472
23.112617610931565 52.9768
23.135342869061212 51.5306
23.158069049684816 50.6784
23.1807961538087 50.3633
23.20370174880544 50.305
23.226430710184808 50.507
23.249160598093425 50.5455
23.271891413539002 50.5989
23.294800752937697 50.6235
23.31753343374794 50.9424
23.340267045128353 50.9871
23.36300158808808 51.2798
23.38591468821339 51.5012
23.408651104658304 52.0426
23.431388455719986 52.483000000000004
23.454126742409 53.1643
23.4770436196085 53.8722
23.499783787914662 54.8328
23.522524894889884 55.5766
23.54526694154616 56.3595
23.56818761219047 57.715
23.59093154860734 58.5653
23.613676427751283 59.3432
23.636422250635754 58.9593
23.659346731118656 57.8205
23.68209445191868 55.9796
23.704843119509587 53.8085
23.72759273490623 51.7324
23.750521041644767 49.9798
23.77327256312355 48.7273
23.796025035462787 48.2457
23.818956224555475 47.4679
23.841710609113413 47.4652
23.86446594758979 47.0922
23.887222241002014 46.9494
23.910157285144578 46.6157
23.932915498962537 46.6835
23.955674670778713 46.6093
23.978434801611975 46.2461
24.001373717286125 45.9274
24.024135776723917 45.9853
24.046898798245582 45.957
24.06966278287146 45.8073
24.092605586582614 45.7028
24.115371508023642 45.3565
24.1381383956401 45.4392
24.16090625045381 45.3157
24.183852958731244 45.1606
24.206622758582608 45.1277
24.229393528706886 44.9224
24.252165270127392 44.9584
24.27511589952438 45.082
24.297889594216997 44.7039
24.32066426328598 44.6917
24.34343990775613 44.6703
24.36639447485003 44.7183
24.38917208083877 44.6886
24.41195066531332 44.4152
24.43490819850244 44.4338
24.457688750692377 44.2351
24.48047028445616 44.1252
24.503252800821233 44.3859
24.526214300784112 44.3197
24.548998793132213 44.4149
24.57178427117417 44.2628
24.59457073593893 44.2932
24.617536219319863 44.3511
24.64032466834748 44.2742
24.663114107195035 44.1782
24.685904536893013 43.8509
24.708874020360852 43.7382
24.731666442613744 43.7746
24.754459858818787 43.7109
24.777254270007962 43.6554
24.80022777025625 43.4874
24.82302418230472 43.5892
24.845821592443674 43.6169
24.86862000170663 43.5427
24.891597535453727 43.4333
24.914397953892728 43.5712
24.93719937456671 43.5554
24.96000179851076 43.7495
24.98298338249997 44.0379
25.00578782394922 44.0767
25.028593271784167 44.1923
25.05157790644186 44.4472
25.07438537804115 44.5435
25.097193859145293 44.8675
25.120003350792075 45.0641
25.142992065061257 45.4229
25.165803588823465 45.526
25.18861612625217 45.9139
25.211429678386736 46.0541
25.234422489079968 46.0943
25.257238081693636 46.0328
25.280054692141732 45.9201
25.3028723214652 45.8838
25.325869245420463 46.0702
25.348688923599397 46.2334
25.371509623787006 46.1807
25.394331347025812 46.0958
25.41733240110666 45.6283
25.440156181590016 45.1708
25.46298098826268 44.6062
25.48580682216873 43.9741
25.50881202326435 43.2306
25.53163992281684 42.8304
25.55446885274561 42.4499
25.577298814096377 42.254
25.600308179121807 42.0099
25.623140214533745 42.031000000000006
25.64597328451537 42.0391
25.66898578564376 41.7578
25.691820936010206 41.7858
25.714657124097695 41.8329
25.737494350954734 41.9103
25.760511045684957 41.6398
25.783350361364224 41.7654
25.806190718969255 41.7609
25.82903211955018 41.8739
25.852053024868923 41.9479
25.874896522722523 41.8661
25.897741066713106 41.7843
25.920586657892454 41.9264
25.943611790812668 42.0857
25.966459487728237 42.0928
25.989308234998564 42.1567
26.01215803367705 42.416000000000004
26.03518741123814 42.5514
26.05803932412957 42.6718
26.080892291600094 42.5958
26.10374631470478 42.74
26.12677995397268 42.876999999999995
26.14963609978026 42.9258
26.172493304397875 42.7311
26.19535156888223 42.5993
26.218389486949604 42.2555
26.241249882640123 41.9341
26.26411134137826 41.63
26.28715248187403 41.5924
26.31001607820869 41.3906
26.3328807407756 41.257
26.35574647063438 41.4898
26.37879191991473 41.3491
26.401659795896734 41.3163
26.424528742360263 41.4493
26.447398760366614 41.5606
26.470448535598294 41.7849
26.49332070826805 41.934
26.516193955675355 42.2795
26.53906827888316 42.3639
26.562122397260108 42.4254
26.584998883685063 42.808
26.607876449110325 43.0504
26.63075509460056 43.095
26.65381357334404 43.302
26.67669439061878 43.3922
26.699576291163382 43.5275
26.722459276044212 43.2657
26.745522132402975 42.8941
26.768407297649354 42.7374
26.791293550442003 42.2916
26.814180891848974 41.9998
26.837248143099337 41.6936
26.860137673466657 41.7219
26.88302829566349 41.448
26.90592001075963 41.3751
26.92899167420566 41.1328
26.951885586870763 40.7521
26.974780595655517 40.4741
26.99785558178161 40.3561
27.020752794605112 40.2111
27.043651106772522 40.0641
27.06655051935668 40.0672
27.089629948036183 39.9146
27.112531573292053 39.9425
27.135434302194138 39.9155
27.158338135817015 39.6387
27.181422024430987 39.7732
27.204328079372566 39.7199
27.22723524226965 39.7152
27.250143514198573 39.8415
27.273231880156334 39.7039
27.296142382065014 39.6149
27.319053996245536 39.5445
27.341966723775965 39.6031
27.365059584515222 39.6073
27.38797455070062 39.739000000000004
27.410890633481237 39.5488
27.433807833936918 39.5242
27.456905206923906 39.6604
27.47982465472398 39.6165
27.502745223449743 39.589
27.525666914182825 39.7598
27.548768816912457 39.748000000000005
27.571692763693633 39.6999
27.59461783573812 39.5892
27.617723149491244 39.3311
27.640650484125285 39.312
27.66357894728264 39.3494
27.686508540048052 39.369
27.709618414237887 39.1548
27.732550278321757 39.0185
27.755483275279115 38.9951
27.778417406196485 38.9704
27.801531858397514 38.948
27.824468269376716 38.8024
27.847405817586786 38.8911
27.870344504116094 39.0214
27.893463551932008 39.0667
27.916404527281053 39.2765
27.93934664422563 39.5434
27.962289903855886 39.428000000000004
27.98541356491974 39.7262
28.00835912214229 39.8072
28.03130582533231 39.9842
28.054253675581805 40.1519
28.077381967556104 40.0862
28.100332124185126 40.2056
28.123283431160893 40.0939
28.146235889577238 40.0005
28.169368830154156 39.7254
28.192323603752033 39.525999999999996
28.215279532083304 39.3011
28.238415973016764 39.097
28.261374223145094 39.0345
28.284333631303806 38.8182
28.307294198589954 38.7912
28.330435319167677 38.3418
28.353398217078915 38.0752
28.376362277420153 37.8101
28.39932750129032 37.7025
28.422473319286713 37.5009
28.44544088262495 37.4874
28.468409612800283 37.3404
28.491379510913497 37.1634
28.51453004413313 37.1047
28.53750229057244 36.9844
28.56047570826344 37.0437
28.583450298308804 36.9387
28.606605564586562 36.586999999999996
28.629582511831156 36.7817
28.65256063474956 36.598
28.675539934446338 36.6895
28.698699951647605 36.6244
28.72168161743193 36.4207
28.74466446331978 36.5411
28.767648490417624 36.4748
28.790813276438353 36.4028
28.813799678527303 36.482
28.836787265157085 36.4602
28.859955641890075 36.503
28.882945610203045 36.3901
28.905936766392035 36.3386
28.928929111566863 36.3784
28.952102288520145 36.2411
28.975097024308607 36.1953
28.998092952423807 36.0731
29.021090073977508 36.0593
29.04426806913204 35.9759
29.067267590245258 35.760999999999996
29.090268308143695 35.7508
29.11327022394099 35.524
29.13645305530891 35.3946
29.159457379627167 35.4249
29.18246290519685 35.4638
29.20546963313352 35.3314
29.22865731875826 35.2749
29.25166646419296 35.3659
29.27467681535305 35.2956
29.29768837335608 35.2714
29.320880931312562 35.2814
29.34389491580634 35.2611
29.366910110507334 35.1782
29.38992651653503 35.265
29.41312396492981 35.1936
29.436142806456754 35.1501
29.45916286268059 35.0459
29.48236399319994 34.9809
29.50538649169417 34.8925
29.528410208259935 34.8069
29.55143514402014 34.6126
29.574641196749695 34.4702
29.597668583816574 34.3411
29.6206971934585 34.2247
29.64372702680042 34.2823
29.666938019934474 34.1117
29.689970313635285 34.0335
29.713003834422636 33.9263
29.73603858342347 33.8565
29.759254535188578 33.8398
29.78229175361658 33.7336
29.80533020365064 33.9021
29.82836988641968 33.9208
29.85159081507472 33.7516
29.874632976355343 33.6881
29.89767637376955 33.7242
29.920721008448314 33.5642
29.9439469322847 33.5283
29.96699405457564 33.503
29.9900424175358 33.5368
30.013092022298157 33.5298
30.03632295963995 33.4939
30.059375061131373 33.5547
30.08242840783577 33.5165
30.105483000888153 33.4925
30.128718970092244 33.2973
30.151776069006917 33.2786
30.17483441768648 33.2603
30.198074175317235 33.3327
30.221135036724256 33.2878
30.24419715131772 33.3786
30.267260520236203 33.2033
30.290505341942243 33.2989
30.313571232750228 33.3874
30.336638381310948 33.3952
30.35970678876503 33.1973
30.38295669299435 33.1689
30.40602763151657 33.2412
30.429099832366074 33.157
30.452173296685572 33.0802
30.47542830191959 33.1065
30.498504306502497 33.073
30.521581577995562 33.0747
30.544660117543582 33.029
30.56792024229725 33.0834
30.59100133132069 33.0911
30.614083691845494 33.1279
30.637167325018545 33.1533
30.660432587840603 33.2623
30.683518779717886 33.1128
30.70660624769615 33.0743
30.729694992924372 33.0722
30.75296541239743 33.0664
30.77605672557558 33.2333
30.799149319462742 33.1127
30.8224236211637 33.0191
30.845518789950724 32.8298
30.868615242910597 32.8397
30.891712981195973 32.6395
30.91499247215866 32.6139
30.938092794619365 32.51
30.96119440587579 32.4209
30.984297307082752 32.2856
31.00758200598383 32.1545
31.030687500658694 32.137
31.053794288760695 32.0306
31.076902371446767 31.9295
31.100192296997445 32.1361
31.12330298246119 31.9882
31.14641496599209 31.8731
31.169528248749216 31.8527
31.19282341969534 31.9338
31.215939314557186 31.8882
31.239056512134788 31.8979
31.262175013589378 31.8671
31.28547544871168 31.7849
31.30859657161541 31.6526
31.331719001892175 31.7288
31.35484274070538 31.8835
31.378148458819545 31.8422
31.401274828443725 31.77
31.424402510106933 31.8079
31.447712205419993 31.8375
31.470842524931633 31.7173
31.493974159989783 31.8255
31.51710711176168 31.723000000000003
31.54042212308802 31.7941
31.563557722100917 31.7095
31.586694641341655 31.5378
31.609832881979628 31.3836
31.63315322823208 31.3758
31.656294125521327 31.3279
31.679436347728515 31.3886
31.70257989602529 31.129
31.725905596152327 31.0546
31.74905181052835 31.0359
31.772199354521323 31.1462
31.79534822930507 31.0397
31.818679302290967 31.0339
31.84183085259981 31.0705
31.864983737233473 30.985
31.88813795736804 30.9799
31.911474422233013 30.8809
31.934631327356435 30.9026
31.9577895715215 30.975
31.980949155906522 30.9679
32.004291031706956 31.0187
32.027453310562606 30.8692
32.05061693318573 30.6932
32.07396288236386 30.8202
32.09712920658542 30.629
32.12029687812702 30.4441
32.14346589817093 30.5573
32.166817291729984 30.4653
32.18998902288583 30.363000000000003
32.21316210610336 30.2454
32.23633654256711 30.1576
32.259693399663725 30.2078
32.282870556771144 30.0494
32.30604907069099 30.0224
32.329228942610065 29.9429
32.35259128243769 29.8336
32.375773884550505 29.8405
32.398957848235646 29.7833
32.422143174682176 29.7002
32.445511016471215 29.6162
32.468699082679954 29.6303
32.49188851523011 29.5335
32.51507931531304 29.5343
32.538452678331 29.4488
32.56164622776311 29.4393
32.58484114831493 29.2699
32.60803744118015 29.3186
32.631416344731896 29.3565
32.654615396551876 29.2652
32.67781582427913 29.2864
32.701198898634416 29.2146
32.72440209253756 29.1908
32.747606665947124 29.2047
32.77081262006088 29.0579
32.79420126883317 29.0188
32.81740999876112 29.0149
32.840620112999424 28.9336
32.86383161274818 28.9045
32.88722585534586 28.956999999999997
32.91044014056596 28.8964
32.933655814909734 28.9067
32.95687287957963 28.7979
32.98027273544904 28.717
33.00349259526636 28.750999999999998
33.026713849030116 28.7482
33.04993649794511 28.6854
33.073341986570746 28.6322
33.09656744032826 28.6273
33.11979429286444 28.579
33.14302254538647 28.6359
33.166433686291185 28.5614
33.18966475336992 28.549
33.212897224069096 28.451999999999998
33.23613109959831 28.491999999999997
33.259547912343415 28.3948
33.2827846121627 28.3314
33.306022720453775 28.3191
33.32926223842861 28.2402
33.352684742614166 28.2244
33.37592709463173 28.1874
33.399170859982064 28.1866
33.422597648419426 28.033
33.44584425514446 28.0098
33.46909227885668 27.8729
33.4923417207723 27.7299
33.51577423505344 27.8309
33.539026528130385 27.6676
33.56228024307245 27.7541
33.585535381098246 27.5963
33.60897364093058 27.5972
33.63223163992385 27.5025
33.6554910656699 27.4396
33.678751919389796 27.4497
33.702195944520106 27.4185
33.72545966903325 27.4251
33.74872482519663 27.3467
33.771991414233746 27.3704
33.79544122444841 27.2342
33.81871069412428 27.1619
33.84198160035767 27.1316
33.86525394437455 27.1278
33.88870955949969 27.0407
33.911984794020626 27.0785
33.93526147001624 27.0604
33.958539588715006 27.0649
33.98200102861669 26.9674
34.0052820477047 26.8723
34.02856451319451 26.9103
34.05203033759056 26.7661
34.07531571090147 26.7514
34.09860253431845 26.7198
34.121890809074316 26.6699
34.145362493118924 26.7545
34.16865368561615 26.6503
34.191946333164054 26.6624
34.21524043699793 26.5804
34.23871800066799 26.5551
34.26201503218366 26.4551
34.28531352370466 26.4176
34.30861347646881 26.2884
34.33209693978188 26.3093
34.3553998301885 26.2779
34.378704185565205 26.2096
34.402010007152356 26.1483
34.42549939016683 26.1967
34.44880815937748 26.0889
34.472118398533134 25.969
34.49543010887669 25.9479
34.51892543169198 25.9331
34.54224009966052 25.8578
34.56555624255917 25.9734
34.58887386163339 25.8435
34.61237514439016 25.7194
34.6356957311114 25.7886
34.65901779775809 25.728
34.68252356662995 25.71
34.705848608458616 25.6413
34.72917513396849 25.589000000000002
34.75250314440949 25.5284
34.77601490857862 25.4679
34.799345904259795 25.3615
34.82267838863559 25.4527
34.846012362958525 25.4434
34.869530142679984 25.3747
34.89286711232212 25.2689
34.91620557568269 25.3517
34.93954553401677 25.2523
34.9630693495876 25.1838
34.986412313340814 25.2054
35.00975677584668 25.2482
35.033102738362956 25.2061
35.05663261012228 25.1013
35.0799815881786 25.1078
35.10333207003229 25.0126
35.12668405694369 25.0075
35.150220005273056 25.0109
35.17357501786656 24.9732
35.19693153931268 24.933000000000003
35.220289570874385 24.866999999999997
35.24383161619786 24.8829
35.267192683604904 24.8906
35.290555264930376 24.8376
35.314101899412165 24.7907
35.33746752422433 24.7426
35.36083466676374 24.7426
35.38420332829803 24.6889
35.407756095629054 24.6915
35.43112781085063 24.6911
35.45450104888391 24.6475
35.477875810999194 24.6775
35.50143473172161 24.5379
35.52481255774625 24.5818
35.54819191167777 24.5272
35.57157279478914 24.4419
35.595137889488406 24.4474
35.61852184675279 24.4624
35.641907337029984 24.3604
35.665294361595684 24.3592
35.68886565090076 24.2293
35.7122557598848 24.1716
35.73564740699838 24.2205
35.759040593519934 24.1906
35.78261809810353 24.1053
35.80601437933051 24.0652
35.829412203814705 23.9982
35.85281157283719 23.898000000000003
35.876395313415884 23.9666
35.8997977874528 23.9316
35.92320180988546 23.8833
35.946790244133936 23.8624
35.97019737933222 23.9032
35.993606066789866 23.7496
36.01701630779276 23.6768
36.04061101440684 23.6114
36.06402437852291 23.6476
36.08743930005611 23.6584
36.1108557802951 23.552
36.13445678011326 23.5823
36.15787639383515 23.56
36.18129757014299 23.4774
36.20472031032821 23.3219
36.22832762423364 23.3516
36.25175350829375 23.4457
36.275180960119776 23.2918
36.298609981005924 23.3041
36.32222362992669 23.2975
36.34565580510207 23.2518
36.36908955323448 23.2529
36.39252487562093 23.1002
36.416144880530226 23.0449
36.43958336764275 23.0557
36.463023432914625 23.1174
36.486465077645676 23.0442
36.51009145956204 23.0398
36.53353627947859 23.0661
36.55698268276811 23.0269
36.58043067073321 22.9088
36.60406345072071 22.7987
36.62751462435344 22.8123
36.65096738658405 22.8222
36.67460498210655 22.8294
36.69806093788647 22.7561
36.72151848619297 22.656
36.744977628333636 22.7206
36.76862165890998 22.5623
36.79208400512205 22.6056
36.81554794910557 22.5779
36.83901349217101 22.5042
36.862663978991606 22.5348
36.88613273667352 22.4703
36.90960309738324 22.4134
36.933075062434064 22.4503
36.95673202673572 22.3532
36.98020721697122 22.3043
37.003684015502365 22.2697
37.027162423645365 22.2315
37.050825886711465 22.2546
37.07430753063053 22.0829
37.09779078812467 22.1251
37.121275660513014 22.1014
37.144945643673694 22.0484
37.16843376245278 22.0281
37.19192350009803 21.9905
37.215414857931435 21.9613
37.239091382563885 21.9223
37.262585997426164 21.9301
37.28608223645736 21.9545
37.309763684451696 21.8898
37.33326318851098 21.7733
37.356764320726555 21.785
37.380267082425526 21.8419
37.40395510942588 21.7397
37.42746114683234 21.7123
37.45096881771841 21.6836
37.474478123414166 21.6431
37.49817275092816 21.569000000000003
37.52168534303452 21.5354
37.54519957395567 21.4351
37.568715445024665 21.4868
37.592416694607714 21.4546
37.61593586281424 21.4916
37.63945667518264 21.4524
37.66297913304891 21.375
37.68668702630454 21.2906
37.710212792059274 21.2116
37.733740207334854 21.2358
37.757269273470364 21.2382
37.780983832050374 21.1101
37.80451621684926 21.1797
37.82805025654007 21.0587
37.851585952464795 21.0669
37.8753071980695 21.0528
37.89884622345676 20.901
37.92238690911902 20.8921
37.94611318753442 20.851
37.969657210779765 20.874000000000002
37.99320289834801 20.8824
38.016750251586465 20.8034
38.04048325513017 20.7725
38.06403395679343 20.7468
38.087586328183946 20.7094
38.11114037065203 20.7201
38.13488012115898 20.6608
38.1584375229181 20.5939
38.181996599821 20.5555
38.205557353221124 20.5572
38.229303872575656 20.506999999999998
38.2528679961576 20.5676
38.27643380031219 20.4585
38.30000128639589 20.4277
38.32375459653193 20.3988
38.34732546371299 20.4244
38.37089801690786 20.3377
38.39447225747609 20.25
38.418232380377425 20.2128
38.441810012983396 20.2336
38.46538933705673 20.2238
38.488970353960084 20.1432
38.51273731166058 20.1633
38.536321731567014 20.1244
38.55990784840681 20.115
38.58367995004091 20.0287
38.60726947812959 20.0177
38.63086070726198 19.9771
38.654453638806274 19.9866
38.678232613930824 19.9063
38.70182896773327 19.8289
38.72542702806741 19.8826
38.7490267963045 19.7885
38.77281266709232 19.7703
38.79641586862214 19.7221
38.8200207821842 19.7599
38.843627409152944 19.7473
38.86742019782782 19.688
38.891030269149255 19.5561
38.914642058016156 19.6708
38.938255565806124 19.5169
38.96205529464307 19.493
38.98567225787121 19.4733
39.00929094417078 19.4998
39.03291135492255 19.494
39.05671804624804 19.4666
39.080341923549106 19.3076
39.103967529460334 19.3127
39.127594865365744 19.3328
39.15140854155791 19.2614
39.17503935514948 19.3257
39.19867190290282 19.2326
39.22249083587951 19.2173
39.24612686969409 19.1977
39.269764641845306 19.1473
39.293404153722804 19.1697
39.317230110864074 19.0334
39.34087311998506 18.9507
39.36451787301696 18.9929
39.388164371352595 18.9644
39.41199737518003 18.91
39.43564738196752 18.8569
39.45929913825317 18.957
39.48295264543308 18.8889
39.506792718520884 18.804000000000002
39.530449745387216 18.7229
39.55410852735203 18.7496
39.57776906581474 18.7171
39.60161623079 18.725
39.625280300200025 18.6936
39.64894613032202 18.6308
39.67261372255866 18.5434
39.6964680021016 18.5581
39.72013913657293 18.5834
39.74381203738292 18.5784
39.76748670593756 18.4743
39.79134812278169 18.4727
39.81502634488497 18.5288
39.83870633896685 18.407
39.862388106436654 18.3576
39.88625668336918 18.33
39.90994201572829 18.2714
39.933629125719285 18.2747
39.957503091207826 18.2852
39.9811937746168 18.2895
40.00488623990914 18.2089
40.02858048850006 18.215999999999998
40.05246165409549 18.1547
40.076159487492085 18.156
40.099859108448875 18.0795
40.123560518384345 18.0756
40.1474489070226 18.0363
40.171153913178564 17.9199
40.194860712584955 17.9284
40.2185693066637 17.9435
40.242464941335314 17.9792
40.26617714307655 17.8857
40.289891143772046 17.877
40.3136069448471 17.8652
40.33750984859743 17.8421
40.3612292688043 17.7508
40.3849504936829 17.7587
40.40867352466194 17.7647
40.43258372059144 17.719
40.45631038219906 17.7463
40.48003885420956 17.6511
40.503769138055105 17.6038
40.52768664931955 17.6188
40.55142057531802 17.572
40.57515631746428 17.5307
40.599079334038514 17.541
40.62281872700477 17.491
40.64655994043941 17.4624
40.67030297578061 17.3743
40.69423334835778 17.465999999999998
40.71798004609188 17.3548
40.74172857006355 17.3276
40.76547892171441 17.2933
40.7894166736039 17.2261
40.813170699248566 17.219
40.83692655691388 17.2412
40.86068424804498 17.2503
40.884629402612525 17.1629
40.908390779366385 17.1676
40.932153993938 17.0479
40.95591904777605 17.1248
40.979871628443995 17.1222
41.003640379561936 17.049
41.02741097430883 17.0258
41.05118341413683 17.0088
41.075143444384416 17.0006
41.098919593177826 16.9632
41.1226975914255 16.92
41.14647744058318 16.8866
41.170444943946755 16.822
41.19422851378379 16.8449
41.218013938914645 16.8456
41.24198706625173 16.7232
41.26577622087193 16.7694
41.289567235177785 16.721
41.31336011063129 16.6129
41.337340752422875 16.644000000000002
41.361137369129835 16.6469
41.38493585138705 16.5613
41.40873620066004 16.5452
41.43272438060107 16.5333
41.45652848292052 16.4734
41.48033445666918 16.4569
41.50414230331616 16.4762
41.528138045159764 16.4499
41.551949656675205 16.3628
41.575763145513235 16.3782
41.59957851314666 16.3406
41.62358184070442 16.2928
41.64740098505737 16.2698
41.6712220126409 16.2635
41.69504492493139 16.2774
41.71905586207357 16.2267
41.74288256296395 16.1953
41.766711153007456 16.163
41.79054163368412 16.1432
41.814560204340054 16.1255
41.838394485526365 16.1487
41.86223066180303 16.0614
41.88625497706819 15.9375
41.910094962812 15.9569
41.93393684811168 15.9638
41.95778063445365 15.9039
41.981812625263366 15.9268
42.00566023303407 15.9286
42.029509746323676 15.8303
42.05336116662236 15.8355
42.077400857069705 15.8024
42.10125611078846 15.7466
42.12511327600405 15.7596
42.14897235421036 15.7157
42.173019768448455 15.7395
42.19688269209613 15.6601
42.22074753323349 15.600999999999999
42.24461429335818 15.5924
42.268669455600495 15.6429
42.292540073217886 15.6357
42.31641261433284 15.5429
42.34028708044675 15.5066
42.36435001496739 15.4824
42.38822835065557 15.4997
42.41210861586426 15.4803
42.4359908120986 15.4181
42.46006154323262 15.3868
42.48394762115317 15.3375
42.507835634632315 15.3549
42.531912233047436 15.3255
42.55580413732265 15.2655
42.579697981698 15.2376
42.60359376768525 15.1381
42.62767820545945 15.1796
42.65157789440821 15.1973
42.67547952952185 15.155
42.699383112316 15.1255
42.72347541395347 15.0601
42.74738291190531 15.0436
42.771292362102166 15.0677
42.795203766063516 15.0376
42.819303956130405 15.0299
42.843219287476536 14.9643
42.86713657716324 14.9306
42.89105582671383 14.8956
42.91516392983864 14.9223
42.939087119032166 14.8543
42.963012272677304 14.8379
42.98693939230129 14.82
43.01105543317513 14.7988
43.034986504731386 14.7753
43.05891954686589 14.7351
43.08285456110972 14.744000000000002
43.10697856448665 14.6585
43.130917542983475 14.6482
43.15485849820081 14.6545
43.17880143167367 14.593
43.20293342237094 14.6107
43.226880332449 14.5658
43.25082922540554 14.5807
43.27496722682525 14.5234
43.29892010567796 14.4623
43.32287497204102 14.4371
43.34683182745632 14.4222
43.370977859791836 14.432
43.39493871351105 14.4051
43.41890156092628 14.3805
43.44286640358341 14.3356
43.46702049182749 14.3549
43.49098934522816 14.2945
43.51496019852649 14.2801
43.5389330532723 14.2088
43.56309522248204 14.1673
43.58707210044314 14.1952
43.61105098451946 14.1956
43.63503187626491 14.1557
43.659202151562134 14.0814
43.68318707902681 14.0546
43.70717401884041 14.0824
43.731162972560874 14.0418
43.75534137913236 14.0318
43.779334381108384 13.993
43.803329401683186 13.9496
43.82732644241872 13.9526
43.8515130055166 13.9614
43.87551410707659 13.9009
43.89951723350145 13.853
43.923709934595614 13.8518
43.94771713129917 13.8281
43.97172635758096 13.8106
43.99573761501002 13.7784
44.0199385169922 13.7431
44.04395385732619 13.6865
44.067971233533086 13.7554
44.09199064718605 13.6966
44.11619977548961 13.6757
44.14022328470671 13.6522
44.16424883610785 13.6475
44.18827643127035 13.5953
44.21249381139513 13.5967
44.236525514814076 13.5667
44.26055926674478 13.5024
44.28459506876863 13.5032
44.3088207262813 13.4297
44.33286064928722 13.4197
44.35690262714919 13.4397
44.38094666145278 13.4021
44.4051806219871 13.4076
44.42922879003185 13.3986
44.45327901929361 13.3302
44.477331311362136 13.3118
44.501573600619416 13.3284
44.525630039221795 13.2489
44.54968854541895 13.2354
44.573937102200176 13.2086
44.5979997645541 13.1781
44.622064499300315 13.1503
44.64613130803592 13.0986
44.67038823869318 13.1504
44.69445921643748 13.0997
44.718532272981385 13.1
44.742607409926194 13.0262
44.76687274034801 12.9874
44.79095205918753 12.9553
44.81503346325094 12.9529
44.839116954143876 13.0103
44.86339071028742 12.9373
44.88747839599524 12.9784
44.91156817336837 12.8923
44.93566004401666 12.856
44.959942251908146 12.8374
44.984038330325966 12.7816
45.00813650686762 12.7566
45.03223678314731 12.7964
45.05652746888232 12.7662
45.08063196592069 12.7345
45.104738567558705 12.6621
45.128847275414856 12.7087
45.15314646515866 12.6683
45.17725940679741 12.6388
45.20137445952892 12.6085
45.22568004865265 12.5761
45.24979934496396 12.5895
45.27392075725247 12.5299
45.29804428714431 12.5413
45.322358426247604 12.4823
45.346486212804315 12.4388
45.370616121861914 12.5052
45.39474815505086 12.4493
45.41907087049246 12.4175
45.4432071734666 12.4506
45.46734560548283 12.447000000000001
45.49148616817604 12.409
45.51581748638564 12.3048
45.5399623320197 12.3164
45.56410931325473 12.2669
45.58825843173002 12.2633
45.61259837920865 12.2236
45.636751793816 12.2515
45.66090735060093 12.2245
45.68506505120716 12.1716
45.7094136545275 12.1485
45.73357566449271 12.139000000000001
45.75773982322992 12.0994
45.78190613238733 12.114
45.806263418194064 12.0342
45.83043404997326 12.0617
45.85460683713677 12.042
45.87897065658495 12.0366
45.90314777634752 11.9911
45.92732705646868 11.9811
45.9515084986045 11.9535
45.97588104735473 11.9361
46.00006683541565 11.9149
46.02425479047904 11.8566
46.04844491420549 11.869000000000002
46.0728262191024 11.8294
46.09702070211635 11.8541
46.12121735879483 11.8248
46.14541619080294 11.8022
46.169806278764455 11.725
46.194009483459034 11.7428
46.21821486849841 11.7372
46.24242243555223 11.7052
46.266821333570014 11.6675
46.29103328674601 11.6479
46.31524742696538 11.6519
46.33946375590237 11.6137
46.36387149104216 11.5577
46.38809221957392 11.5358
46.41231514186606 11.4909
46.436540259597464 11.5115
46.460956858999374 11.5061
46.48518638983522 11.4523
46.509418121166966 11.459000000000001
46.533652054678114 11.4567
46.55807754555709 11.4185
46.58231590571962 11.3866
46.60655647313217 11.3755
46.630988654873654 11.3583
46.655233659129024 11.2972
46.67948087571551 11.3157
46.70373030632484 11.2801
46.72817142736393 11.2833
46.752425308428684 11.2403
46.77668140861147 11.2202
46.80093972960865 11.2132
46.82538981736788 11.17
46.849652602470904 11.1536
46.87391761349769 11.1317
46.8981848521493 11.1316
46.9226439341274 11.0887
46.946915650573224 11.0512
46.97118959976749 11.0497
46.99546578341598 11.0379
47.019933887188216 11.0702
47.04421456235744 11.0443
47.06849747711879 10.9811
47.09278263318286 10.9699
47.11725978640143 10.9145
47.14154944775105 10.9436
47.165841355555656 10.9107
47.1901355115306 10.835999999999999
47.214621741924994 10.8781
47.23892041698887 10.847000000000001
47.26322134538975 10.8043
47.28771440635075 10.804
47.31201986422527 10.8155
47.33632758061436 10.7557
47.360637557241866 10.7359
47.38513974410611 10.7273
47.40945426407847 10.6617
47.43377104948137 10.6688
47.45809010204344 10.6665
47.48260144275502 10.6325
47.506925052572285 10.5938
47.53125093475548 10.5878
47.55557909103813 10.5394
47.58009961361992 10.5113
47.60443234110732 10.507
47.62876734791564 10.4864
47.65310463578333 10.4956
47.6776343683373 10.4682
47.7019762413987 10.4619
47.72632040075572 10.4216
47.75066684815169 10.4198
47.77520581885936 10.4394
47.799556865477655 10.3949
47.823910205386 10.3794
47.84826584033272 10.3752
47.87281407745551 10.3588
47.89717432569297 10.3337
47.92153687423484 10.2981
47.94609208429692 10.2827
47.97045925671401 10.2918
47.99482873471275 10.2535
48.01920052005013 10.2092
48.04376504619224 10.1773
48.068141469543484 10.2111
48.09252020552573 10.1666
48.11690125590099 10.1624
48.1414751266064 10.1433
48.16586082917454 10.0989
48.19024885144316 10.1013
48.2146391951793 10.0701
48.239222439012764 10.0985
48.26361744916137 10.06
48.28801478610016 10.0255
48.31241445160131 10.0121
48.337007097209366 9.97488
48.36141144338331 9.99613
48.38581812345755 9.93905
48.41022713920929 9.926039999999999
48.434829215320704 9.90431
48.45924292604658 9.895439999999999
48.48365897780325 9.88167
48.50807737237308 9.85936
48.532688907799276 9.866019999999999
48.55711201168574 9.83724
48.581537463754074 9.79669
48.60615611725119 9.82543
48.63058628942721 9.770669999999999
48.65501881516546 9.72082
48.6794536962573 9.736839999999999
48.70408185970339 9.717880000000001
48.72852147531801 9.699110000000001
48.75296345168211 9.69568
48.77740779059232 9.67041
48.80204549302823 9.64147
48.82649458091802 9.643939999999999
48.85094603676547 9.616060000000001
48.87539986237231 9.56436
48.90004713292306 9.55584
48.92450572200832 9.58783
48.94896668628025 9.55645
48.97343002754588 9.52937
48.99808689542115 9.49363
49.02255501470614 9.51798
49.04702551642794 9.46235
49.0714984023988 9.46302
49.096164896893235 9.430530000000001
49.120642575466796 9.406139999999999
49.145122643748394 9.37308
49.16960510355558 9.35184
49.19428125404938 9.35937
49.2187685210852 9.3548
49.243258185121555 9.33363
49.26794160167084 9.32951
49.2924360839405 9.30927
49.31693296869764 9.23353
49.34143225776915 9.27479
49.36612538195438 9.24206
49.39062950396021 9.226410000000001
49.41513603578346 9.16815
49.4396449792564 9.15908
49.46434784069503 9.174489999999999
49.488861631846454 9.148530000000001
49.513377840166804 9.14717
49.537896467493745 9.119810000000001
49.56260909589029 9.11585
49.587132585683285 9.079369999999999
49.611658500018365 9.056230000000001
49.636186840738596 9.06433
49.66090926588511 9.005239999999999
49.685442483902584 8.98102
49.70997813385706 8.94922
49.734516217597076 8.96182
49.75924846937352 8.9571
49.7837914452858 8.93718
49.80833686055187 8.8964
49.83288471702571 8.930530000000001
49.85762682540054 8.91089
49.882179588965734 8.8554
49.9067347993235 8.85463
49.93129245833333 8.85256
49.95604445336378 8.86133
49.98060703442832 8.80008
50.005172069746266 8.7845
50.02993150438364 8.79599
50.05450147301533 8.76641
50.07907390151433 8.7559
50.10364879174981 8.72023
50.12841816587289 8.7182
50.1529980044635 8.67031
50.17758031042124 8.66072
50.20216508562089 8.618910000000001
50.22694442953363 8.61725
50.25153416817468 8.60851
50.27612638170508 8.578289999999999
50.300721072005196 8.550360000000001
50.325510416102105 8.5629
50.350110084975064 8.53844
50.37471223628208 8.55596
50.39931687190919 8.515260000000001
50.424116246675766 8.484110000000001
50.44872587605249 8.49793
50.47333799543065 8.49653
50.49795260670191 8.46979
50.52276204271512 8.413910000000001
50.54738166295838 8.40072
50.57200378079314 8.3803
50.596628398116835 8.40065
50.62144792604559 8.363710000000001
50.646077567609396 8.38832
50.670709714377715 8.366430000000001
50.69553683636198 8.32235
50.72017401885922 8.31365
50.7448137122895 8.26397
50.76945591856022 8.26228
50.79429318636823 8.25308
50.818940443716784 8.24666
50.84359021965163 8.211219999999999
50.868242516085964 8.21423
50.893089960641895 8.199910000000001
50.917747323549435 8.2061
50.94240721271973 8.175930000000001
50.96706963007175 8.12181
50.99192728239342 8.13596
51.01659478166073 8.13129
51.04126481489051 8.110710000000001
51.06593738400761 8.06775
51.090805275207074 8.03185
51.11548294172845 8.02149
51.14016314993547 8.061069999999999
51.164845901758845 8.03882
51.18972406304274 8.0223
51.21441192780656 7.96281
51.23910234200271 7.956
51.2637953075678 7.936260000000001
51.288683770237945 7.94827
51.31338186432707 7.9241
51.33808251561888 7.86335
51.362978729967345 7.87772
51.387684521509755 7.893689999999999
51.41239287610203 7.8766
51.437103795691165 7.8334600000000005
51.46201036644977 7.8136600000000005
51.486726441956634 7.81767
51.51144508832545 7.829680000000001
51.536166307509156 7.773339999999999
51.56108326624387 7.758189999999999
51.58580965706056 7.73832
51.61053862657523 7.70172
51.635270176746864 7.66696
51.66019755512065 7.69923
51.68493429268881 7.62845
51.70967361681515 7.65908
51.73441552946465 7.63001
51.759353359237934 7.6413199999999994
51.7841004750961 7.62621
51.80885018539685 7.59082
51.833602492111254 7.60297
51.8585508051424 7.57538
51.883308330926425 7.5306
51.90806845906181 7.53292
51.932831191525715 7.512580000000001
51.95779001977161 7.5128
51.98255798721516 7.4884699999999995
52.00732856494335 7.453880000000001
52.03229530577543 7.49482
52.057071130455945 7.438619999999999
52.081849571391054 7.469989999999999
52.106630630568695 7.432519999999999
52.13160794279417 7.334389999999999
52.15639426492067 7.34468
52.18118321127822 7.352539999999999
52.205974783860896 7.33638
52.23096269971011 7.319
52.255759551287994 7.3233
52.280559035098186 7.29857
52.30536115314103 7.24958
52.33035970494467 7.25846
52.35516711807904 7.27332
52.37997717147198 7.26357
52.40478986713005 7.201980000000001
52.42979908731974 7.1959800000000005
52.454617094216 7.2167
52.47943774942214 7.18465
52.50426105495102 7.19707
52.529280976059844 7.1463399999999995
52.554109609024096 7.13472
52.57894089837482 7.106260000000001
52.60377484613117 7.12472
52.62880550079408 7.0926100000000005
52.65364479223379 7.06425
52.67848674816189 7.0487899999999994
52.70352547971946 7.05173
52.72837279155837 6.991060000000001
52.753222773982785 6.967410000000001
52.778075429022984 6.99182
52.80312495150885 6.96625
52.827982978797436 6.972230000000001
52.85284368481815 6.97535
52.87770707160767 6.92387
52.90276741793998 6.9478100000000005
52.92763619336701 6.91027
52.952507655698504 6.9167
52.977381806977576 6.8872800000000005
53.00245301017842 6.871860000000001
53.02733256653592 6.89712
53.052214817996074 6.85663
53.077099766608484 6.82567
53.102181859804446 6.805739999999999
53.127072229988265 6.787489999999999
53.15196530349892 6.8056399999999995
53.17686108239249 6.774189999999999
53.20195409881522 6.75295
53.22685531582556 6.77602
53.25175924441303 6.71462
53.27666588664027 6.73123
53.30176985962693 6.72157
53.3266819565689 6.72279
53.35159677336455 6.67518
53.376514312083096 6.65355
53.40162927507703 6.6364600000000005
53.42655228516116 6.6192
53.45147802340193 6.59443
53.47660125628886 6.58898
53.50153247842639 6.55141
53.52646643496923 6.558439999999999
53.55140312799818 6.5571
53.576537409691696 6.55101
53.60147960336152 6.56665
53.626424539786164 6.52073
53.65137222105307 6.49704
53.67651758529126 6.46969
53.70147078399681 6.45413
53.72642673383343 6.47612
53.75138543689533 6.48096
53.776541917524526 6.4269099999999995
53.801506154876755 6.41076
53.826473151763246 6.40107
53.851442910284916 6.35923
53.87661054126026 6.361269999999999
53.9015858509782 6.3475
53.92656392866066 6.30821
53.95154477641532 6.34025
53.976723591801296 6.33563
54.00171000771266 6.3038099999999995
54.02669920004598 6.30201
54.051691170915745 6.28534
54.076881204886796 6.2384900000000005
54.101878760928514 6.2646
54.12687910187696 6.25279
54.152077577768296 6.20945
54.1770835166946 6.18128
54.20209224691339 6.1443900000000005
54.22710377055121 6.21559
54.25231352511594 6.193569999999999
54.27733066384342 6.14585
54.30235060239643 6.13762
54.32737334290836 6.13914
54.35259441062629 6.0826
54.377622783395324 6.0893
54.40265396455061 6.05319
54.42768795623251 6.03328
54.45292037169559 6.00847
54.477960012857906 6.03827
54.50300247099511 5.98168
54.52804774825457 5.93679
54.55329154616743 5.93596
54.57834249018678 5.88753
54.6033962597977 5.95791
54.6284528571545 5.87138
54.653708072335164 5.814080000000001
54.67877035378786 5.87435
54.70383546947698 5.84018
54.72890342156389 5.8116900000000005
54.7541700889442 5.77006
54.77924374251975 5.784330000000001
54.8043202390049 5.7550099999999995
54.82959552413022 5.6599
54.8546777351945 5.70883
54.87976279569621 5.64268
54.90485070780914 5.65064
54.930137506558005 5.62145
54.95523115074295 5.65161
54.98032765308844 5.66213
55.005427015775496 5.60985
55.03072536339621 5.61196
55.05583047570572 5.513719999999999
55.080938454927676 5.538119999999999
55.10604930325027 5.5077300000000005
55.131359235107396 5.52193
55.15647585066083 5.43941
55.181595341907496 5.40603
55.20671771104285 5.40094
55.232039262617704 5.38932
55.25716741665048 5.398
55.28229845518636 5.36543
55.30743238042802 5.315169999999999
55.33276558731939 5.28987
55.357905315183636 5.26842
55.383047936390035 5.241140000000001
55.40819345314859 5.20405
55.433538351073295 5.19917
55.458689688238415 5.218459999999999
55.483843927614096 5.12788
55.509197623043605 5.1846
55.53435769621134 5.10771
55.55952067826466 5.05604
55.5846865714265 5.0483199999999995
55.61005202069737 5.02016
55.63522376553902 5.0357400000000005
55.66039842818645 4.957730000000001
55.68557601087004 4.93314
55.7109532500271 4.92389
55.73613670233794 4.9384
