TT I
1.2716486653135266 35.3144
1.2939594142134223 37.4503
1.3162702121660406 35.8308
1.3385810600174564 36.1771
1.3608919586137629 35.0219
1.383202908801069 34.4201
1.405513911425503 32.6277
1.4278249673332093 32.8477
1.4501343378461518 31.9988
1.4724455028545926 31.372
1.4947567236847858 31.4953
1.517068001182951 30.6828
1.5393793361953272 30.5069
1.5616907295681737 29.8055
1.5840021821477681 29.2943
1.60631369478041 28.9465
1.6286252683124185 28.4395
1.6509369035901333 27.8627
1.6732468618895553 27.1022
1.695558623192809 26.2293
1.7178704487808514 27.1552
1.7401823395001077 27.0859
1.7625012545597203 26.7568
1.7848028405262486 25.9448
1.8071218901122095 26.1386
1.8294236121921872 25.3979
1.8517427996910911 25.311999999999998
1.8740620574440425 25.8917
1.8963639900671978 25.1427
1.9186833908139995 25.0232
1.9409854680117449 25.7119
1.9633050151394713 25.9104
1.9856246367570705 25.8692
2.0079269371922672 25.4241
2.03024671027244 25.5843
2.0525491637446027 25.3998
2.074869091674931 25.8688
2.097171701569106 25.2184
2.1194917877373847 25.1273
2.141811954326636 26.3271
2.164114805233074 25.8528
2.186435135143035 25.8107
2.208738150935709 26.1841
2.231058647554722 26.3201
2.2533792288321184 26.6962
2.275682498336085 26.3706
2.298003251406138 26.9897
2.3203066942619714 27.1826
2.3426276225136022 25.9102
2.3649486396617507 25.576
2.387252348930071 25.8584
2.4095735463442893 25.8012
2.4318774374315884 25.8321
2.4541988185014043 26.8972
2.476502894794693 26.1312
2.498824462909887 26.0032
2.521146125856138 25.9319
2.5434504863470337 26.6356
2.5657723414244717 27.234
2.588076895590662 27.3142
2.610398946189713 27.6387
2.6327210958598384 27.9914
2.6550259469304716 28.4965
2.6773482972090137 29.2906
2.6996533504259 29.8937
2.7219759047039602 31.076999999999998
2.744298562293959 31.5438
2.7666039251246595 32.919000000000004
2.7889267918020164 33.5914
2.8112323652516555 34.6805
2.833555444408179 36.6449
2.8558786311183852 38.4762
2.8781845268938557 40.2046
2.9005079311721484 42.8763
2.9228140460410397 44.4814
2.9451376712799635 47.3395
2.967444008632326 49.6911
2.9897678582247247 53.1438
3.0120918213106695 58.1152
3.0343984987899373 62.3396
3.0567226913198637 65.738
3.079029599759726 71.1228
3.101354025127254 76.4098
3.123678568232338 80.3044
3.145985829517914 83.7022
3.16831061055229 86.2896
3.1906181112775593 86.2873
3.212943133635653 84.4288
3.2352682779763207 81.4971
3.2575761442691227 77.1772
3.2799015350264273 71.7311
3.302209649240067 66.4217
3.3245352898092655 60.3551
3.3468436553365257 55.4388
3.369169549113219 52.1372
3.3914955708171384 49.0198
3.413804319727358 45.8668
3.4361305997334863 43.6876
3.4584396084414553 42.5593
3.4807661501462652 40.9984
3.503092824025881 40.4958
3.5254022288463154 39.5551
3.5477291695206588 39.3628
3.5700388426251948 39.378
3.5923660534916446 40.375
3.6146934007816114 40.5347
3.637003482731501 40.6016
3.6593311053109985 40.6016
3.681641464033634 41.2809
3.7039693653009733 41.5736
3.726297407241705 41.9014
3.7486081875460804 41.9841
3.7709365132734978 42.1665
3.793247578841633 42.0343
3.8155761917550093 41.7394
3.8378875459837216 41.6789
3.8602164494827234 41.6625
3.882545499606844 43.1071
3.9048572932539183 43.2227
3.9271866390645718 43.3259
3.9494987298666713 44.2552
3.971828374764527 44.7093
3.9941581705403255 45.5537
4.016470713506008 46.7358
4.038800813471445 48.0735
4.061113662089144 49.2723
4.0834440696459176 51.1177
4.105774632334751 52.2303
4.128087945865126 54.6956
4.150418821249301 57.0364
4.172732448931298 59.6517
4.195063640413578 62.7845
4.2173775856475215 66.2942
4.239709096631102 69.8782
4.262040768704612 72.4569
4.284355196706267 75.6294
4.306687193387355 77.7656
4.329001947444346 79.4794
4.35133427213731 79.7477
4.373666762177566 78.7842
4.395982011761091 76.9469
4.418314834921175 74.7648
4.44063041906622 72.8546
4.4629635787515625 71.4397
4.4852969080429785 69.8826
4.5076130004776225 67.7936
4.529946671403969 66.1056
4.552263106909177 63.3003
4.574597122877047 61.0573
4.596931312711224 59.6606
4.619248269273446 58.0286
4.6415828092605835 56.8442
4.663900117405352 55.3576
4.686235010953232 55.3426
4.708552674085913 54.988
4.730887924602802 55.2263
4.753223354952695 55.9385
4.775541557023902 56.1833
4.797877349456786 57.6012
4.820195915032126 58.7624
4.842532072957498 60.358000000000004
4.864868414979744 61.8965
4.88718753227192 64.2586
4.909524244902505 66.8487
4.931843734218147 69.3509
4.954180820867835 72.7579
4.976518095879839 77.8432
4.998838149695359 81.929
5.021175803844231 90.3423
5.043496238205739 101.53200000000001
5.065834274903528 113.25399999999999
5.088172504230693 123.89
5.1104935158799565 135.259
5.132832132875765 150.784
5.155153533596801 170.541
5.1774925416746225 200.19400000000002
5.199814334878411 248.09
5.2221537374521505 332.93800000000005
5.244493338631803 471.89300000000003
5.266815727034316 674.331
5.289155727832427 971.051
5.311478517248165 1526.23
5.333818921080011 2500.68
5.356159527788849 3878.56
5.3784829252032536 4153.47
5.400823940070432 3075.35
5.423147747031976 1623.25
5.445489173474152 779.6089999999999
5.467830807066149 446.36400000000003
5.490155234831516 310.79900000000004
5.512497285125229 236.11599999999999
5.534822130975162 193.265
5.557164601388673 165.18
5.579489868738879 143.666
5.601832762690846 129.278
5.6241758697774475 119.334
5.646501775867269 112.649
5.668845311622074 107.916
5.691171647754637 105.01799999999999
5.713515615597765 101.994
5.735859800852677 99.2461
5.758186788542988 96.3828
5.780531411018185 94.8274
5.802858837297399 93.1326
5.825203900414495 93.5681
5.8475491852224 94.7764
5.869877275883075 97.2638
5.892223006467101 101.15100000000001
5.914551544266608 105.598
5.936897724049891 112.12700000000001
5.959244129804903 121.15799999999999
5.981573344815301 135.059
6.0039202049061 155.239
6.026249875609095 187.52200000000002
6.04859719346037 233.916
6.070927323278297 299.296
6.093275102315365 393.48800000000006
6.115623113320588 498.191
6.137953938319995 665.793
6.160302415650845 961.513
6.182633708324452 1232.8
6.2049826554078376 1247.5
6.227331838745022 942.862
6.249663839443684 603.063
6.27201349767565 387.464
6.294345974611799 267.23400000000004
6.316696111167083 190.19
6.339046488263839 144.69
6.361379686074702 117.649
6.383730546639482 100.23899999999999
6.406064229255215 87.4029
6.428415576718203 79.5813
6.450749747566656 74.0353
6.47310158535871 68.807
6.495453669698332 65.1512
6.517788579421056 62.0328
6.540141159237969 59.5093
6.562476565766648 57.6932
6.5848296444934045 56.3699
6.607182974060425 55.1929
6.6295191323281015 54.42
6.651872965955752 53.9405
6.6742096296068985 53.4302
6.6965639707294615 53.1223
6.71891856698715 52.641999999999996
6.741255995248479 52.6929
6.763611104154477 52.2955
6.785949046381137 52.302
6.808304671371482 51.5698
6.8306605557940046 51.4315
6.852999275508618 50.7276
6.875355681171544 50.3373
6.897694923437771 50.0128
6.92005185377892 49.879
6.9423916220322655 49.0921
6.964749080490181 48.423
6.987106804399774 48.0116
7.009447368180821 48.1406
7.031805625367033 48.1355
7.054146723727803 48.3853
7.076505517631004 48.4825
7.098864581288365 49.2944
7.121206488070854 49.8854
7.143566093607822 50.588
7.165908543567245 51.5921
7.188268694426048 52.6076
7.2106291193438095 54.0659
7.232972390625943 55.5283
7.255333366030969 57.0757
7.277677189091925 59.6866
7.300038718428332 63.1959
7.322400526130865 66.4852
7.344745183422596 69.7147
7.367107550224791 71.7812
7.389452767901992 72.017
7.411815697249891 70.8382
7.434161478756298 68.1525
7.456524974096713 65.9905
7.478888753837185 64.0096
7.501235387657368 63.2153
7.523599738562711 64.0358
7.545946944825532 69.4833
7.568311870344528 87.1423
7.5906770845765665 127.524
7.613025156078678 167.875
7.635390950099687 156.45
7.657739602662809 108.79899999999999
7.680105979923558 70.5312
7.702472650212829 53.63399999999999
7.724822180948224 46.8744
7.747189439655568 44.2513
7.769539560075357 42.2257
7.791907410653562 41.4489
7.81425812420825 40.3517
7.836626570110925 39.7281
7.858995315087906 39.7576
7.881346924933401 38.9736
7.903716270417482 39.0839
7.926068482028405 38.7736
7.948438431475253 38.9413
7.9708086843180235 38.7685
7.993161805171116 38.8971
8.015532667162402 38.9713
8.037886398416653 39.5526
8.060257873014221 39.4986
8.082629655331942 39.6152
8.104984308787587 40.016999999999996
8.127356708900503 40.3792
8.149711981398308 41.0499
8.172085002766314 41.2072
8.194458336181368 41.8194
8.216814543847752 42.7868
8.23918850371002 43.4614
8.26154533906492 44.2748
8.283919928836452 45.2758
8.306277395339652 45.827
8.328652618483376 47.1906
8.351028159736202 48.5072
8.373386579575245 50.1326
8.395762759396959 51.7928
8.418121819038275 53.8481
8.440498640894003 56.8307
8.462875785192262 60.7037
8.485235811156207 64.9747
8.507613602688501 70.6761
8.529974277114228 79.52600000000001
8.552352719347912 90.9396
8.574731488360351 109.10600000000001
8.59709314210385 136.795
8.619472567021075 167.377
8.64183487789147 193.24
8.664214962183097 226.953
8.686577933647762 292.744
8.708958680784317 417.82300000000004
8.731339760774953 597.597
8.753703729764451 782.7139999999999
8.77608547780821 785.0089999999999
8.798450116065078 612.255
8.820832535634787 402.145
8.843215292401656 253.207
8.865580941199045 172.972
8.887964374703538 131.014
8.910330701447199 107.51799999999999
8.932714815164482 91.9828
8.955099270424924 81.8699
8.977466620733543 75.4193
8.999851761421976 70.9398
9.022219798361645 67.4089
9.04460562795561 64.4828
9.066991803441677 62.284
9.089360876979615 60.5145
9.111747746589993 59.4091
9.13411751544971 58.2452
9.156505082664324 57.8301
9.178875550323522 57.8432
9.20126381862328 59.2089
9.223652438908596 62.6281
9.246023961427412 70.9179
9.26841328802173 95.1252
9.290785518039224 149.704
9.313175554425882 230.558
9.335565947154315 270.307
9.357939245086508 219.99099999999999
9.380330352834827 138.172
9.40270436697103 84.7639
9.425096193225055 62.8373
9.447488380180165 56.2277
9.469863475295412 53.0575
9.492256385987508 50.9639
9.514632206018318 49.9077
9.537025843935714 48.815
9.559402392368193 48.2434
9.581796761000229 48.2343
9.604191496441521 48.1467
9.626569144158516 48.1529
9.648964615551032 48.1528
9.671343000390081 49.0099
9.693739211225699 49.4761
9.716135793237463 49.7618
9.738515290448102 50.0932
9.760912617143402 50.7089
9.783292860202891 51.2149
9.805690935076182 52.0131
9.828089385495742 52.6297
9.850470754023561 54.2643
9.872869957865444 55.8644
9.89525208097539 57.6298
9.917652041736662 59.6002
9.940052382417589 61.7848
9.962435644102392 65.7399
9.984836746950979 70.1901
10.007220771957746 75.6214
10.029622640473708 84.7207
10.052007432299963 98.8356
10.074410069984072 116.883
10.096813093716005 141.399
10.119199042482517 164.352
10.141602840636468 182.641
10.163989564971628 204.977
10.186394141051062 256.078
10.208799107559706 351.728
10.231187001965623 504.845
10.253592751657669 710.253
10.275981430388155 836.127
10.298387966769793 760.321
10.320794897965431 573.207
10.343184759907361 372.661
10.36559248305461 237.293
10.387983138083852 165.549
10.410391656691655 127.46700000000001
10.432800574501677 105.566
10.455192425893369 91.7507
10.47760214443012 84.2733
10.499994797678786 80.9024
10.522405320453982 80.7901
10.54479877906917 84.3012
10.567210109595656 87.2471
10.5896218454736 89.0602
10.612016518879773 92.0873
10.634429067781074 100.213
10.656824555333241 119.6
10.679237920773568 157.464
10.701651695961992 218.83
10.724048411481384 282.671
10.746463008485165 304.193
10.768860546937125 274.964
10.791275969274796 208.387
10.81369180576079 143.092
10.836090585366925 96.9035
10.858507252467449 70.8744
10.88090686379991 58.8049
10.903324365036394 52.7732
10.925724811614439 49.0194
10.948143150509463 47.2976
10.970561909719066 45.214
10.992963615930844 43.9487
11.015383218085756 42.8719
11.037785768347074 42.1841
11.06020621697282 41.6513
11.082627090322113 41.2256
11.105030913430326 40.9735
11.12745263854165 40.5539
11.149857314510728 39.9999
11.172279894912576 40.2102
11.194702904450653 39.7728
11.217108866490921 39.7038
11.239532736615194 39.5164
11.26193956033512 39.4964
11.284364294577085 39.3491
11.306789462371718 39.1207
11.329197585398376 38.9298
11.351623622610898 39.0857
11.37403261614354 38.7992
11.396459526308487 38.9874
11.418869393879497 38.6755
11.441297180532617 38.1927
11.463725406927658 37.8807
11.486136592353875 37.562
11.508565700543707 37.1703
11.530977768845315 37.3353
11.553407762368774 36.9872
11.575838200059769 37.0842
11.598251599479612 37.1718
11.620682927815501 37.0214
11.64309721895548 36.9957
11.665529441478206 36.8944
11.687962112597958 36.5371
11.710377748130886 36.6902
11.732811318753434 36.7991
11.755227854859067 36.4906
11.777662328529495 36.3756
11.800079768750786 36.467
11.822515149015453 36.781
11.844950984084935 36.9737
11.867369787303163 36.8313
11.889806534289491 37.2604
11.912226250487029 38.1004
11.934663912939751 39.4501
11.9571020346363 41.9119
11.979523127133968 47.5378
12.001962169624331 60.1974
12.024384183972964 77.8701
12.046824150809913 95.1931
12.069264581333726 97.4567
12.091687985297767 81.0637
12.11412934550045 62.3102
12.136553680195208 50.5079
12.158995973632788 46.3242
12.181438735204349 45.5127
12.20386447284199 45.9249
12.226308172985636 46.9476
12.24873485024193 48.4293
12.271179492516982 50.668
12.293607112949127 54.3978
12.316052700916226 60.7834
12.338498763250042 71.0938
12.360927805303868 83.3558
12.383374818673879 94.5411
12.405804812803074 99.3298
12.428252780773262 93.1948
12.45070122756722 79.9536
12.473132656675375 66.874
12.49558206341869 57.4294
12.518014453510101 51.005
12.540464823770117 46.8098
12.562915677315177 44.0528
12.58534951575545 42.0848
12.607801338171472 40.6582
12.630236146511358 39.7563
12.652688941369085 39.1389
12.675124723177234 38.8366
12.697578494048786 38.6922
12.720032754458185 38.7057
12.742470003354093 38.7741
12.764925245138771 38.8945
12.787363476431278 39.1659
12.809819703166806 38.9399
12.83227642391173 38.9474
12.854716135692716 38.6772
12.877173846755147 38.9642
12.899614549869717 38.5402
12.9220732548287 38.5821
12.94453245827299 38.4876
12.966974655289818 38.624
12.989434858002571 38.5764
13.011878055298721 38.6201
13.034339260862497 38.9264
13.056800969391883 39.3306
13.079245674017244 40.1079
13.101708390774869 40.6801
13.12415410463411 42.4407
13.146617833206086 45.7261
13.169064559883248 50.8172
13.191529303857127 56.683
13.213994557076367 61.0568
13.236442809902437 61.6705
13.258909083908291 61.0452
13.28135835851934 61.8071
13.30382565690295 64.4919
13.326293469022952 67.0947
13.348744283242008 69.1893
13.371213125129904 72.8257
13.39366497011003 80.0555
13.416134845360597 92.234
13.438605238843131 113.15700000000001
13.46105863690397 145.643
13.483530069144786 188.108
13.505984506951902 225.454
13.528456981549432 236.65900000000002
13.550929978879088 212.668
13.573385983253365 173.489
13.595860028340867 134.292
13.618317081455832 108.412
13.64079217790333 94.0091
13.663250283359057 86.6678
13.685726434770173 81.9553
13.708203115221277 79.5308
13.730662806148091 80.4288
13.75314054697177 85.6038
13.775601299246777 98.2793
13.798080104050406 121.348
13.820559442405358 157.688
13.843021793671388 197.012
13.865502201420897 221.503
13.887965623051947 214.824
13.910447103807167 177.176
13.932929122629764 132.22899999999998
13.955394156785959 98.20200000000001
13.977877254034569 75.3374
14.000343367582113 62.1939
14.022827546871707 54.7548
14.045294743423524 49.7074
14.06778000837062 46.2889
14.090265817715476 44.5419
14.112734645763819 43.4037
14.13522154619454 42.9682
14.157691466286913 43.7367
14.180179461423874 46.5814
14.202668005486178 53.773999999999994
14.22513957064374 65.8954
14.247629214846473 81.5332
14.270101881097517 92.0154
14.29259262906496 88.2284
14.315083930490205 72.9394
14.337558255389705 56.5982
14.360050666019726 45.7421
14.382526101071944 40.4853
14.405019624534942 38.2831
14.427513705993134 36.971
14.449990813291825 36.5318
14.47248601302899 36.0647
14.49496423954951 35.8553
14.517460561197822 35.5504
14.539939910570322 35.134
14.562437357763558 35.1502
14.58493536931253 34.9543
14.607416409993311 34.9229
14.62991555254159 35.1723
14.652397725157423 35.077
14.674898002342799 35.1057
14.697398848433282 35.2058
14.719882725991326 35.5863
14.74238471217934 35.7137
14.764869730765593 35.9239
14.787372860692983 36.0953
14.809876564079925 36.924
14.83236330125751 37.3611
14.854868153850365 37.9327
14.877356041159485 39.2731
14.899862046604186 40.8783
14.922351087688757 43.1186
14.944858249632887 45.0648
14.967365991421232 46.7848
14.989856770231246 47.7869
15.012365673994204 48.831
15.03485761569738 50.5515
15.05736768508665 53.2601
15.07987833888692 58.1535
15.102372032001655 66.3139
15.124883856909658 78.4143
15.14737872204565 97.2226
15.169891721717274 118.337
15.192405310371893 133.743
15.214901940621196 136.56799999999998
15.237416709527137 123.455
15.259914520936249 102.609
15.282430473753607 82.4244
15.304947020131227 67.0514
15.327446610371178 56.3102
15.349964346154254 49.3787
15.372465126703139 45.5584
15.394984055556009 42.8605
15.417486030076159 41.0702
15.44000615566487 39.7669
15.462526881230803 38.7833
15.485030653812652 38.161
15.507552581617434 37.5813
15.530057557334603 37.0902
15.55258069104857 36.7666
15.575104429329837 36.8621
15.597611216864632 36.4455
15.620136166564563 36.2863
15.6426441664095 36.0727
15.665170331202765 36.2362
15.687697105158826 36.426
15.710206930593545 36.5732
15.732734925158933 37.0338
15.755245972089478 37.5007
15.77777519094324 38.3889
15.800287463046663 39.4668
15.822817909869592 41.1293
15.84534897229804 42.8299
15.867863089299354 44.7862
15.890395385222186 46.0846
15.912910736597423 46.6054
15.935444269699861 47.5678
15.957978423016485 49.4114
15.980495633101265 52.4458
16.003031029129367 57.4933
16.02554948280019 65.4692
16.048086125229432 77.7475
16.070623392487107 94.756
16.09314371869582 114.74700000000001
16.11568223789321 131.745
16.13820381691126 139.674
16.160743591742527 133.626
16.183283996022084 117.945
16.205807461423195 98.3251
16.228349126881973 78.8288
16.25087385432698 63.4245
16.27341678466365 52.448
16.29594277784926 45.8926
16.31848697676433 41.6654
16.341031811604868 38.7745
16.36355971058487 37.013000000000005
16.3861058195587 35.7738
16.40863499352978 34.5564
16.431182380342005 33.8161
16.453730407713202 33.241
16.476261501364792 32.6688
16.498810812136167 32.2738
16.52134319004079 32.1844
16.54389378792203 31.8465
16.566445031001553 31.4334
16.588979342490088 31.191999999999997
16.61153187824822 31.1327
16.634067483263312 30.7676
16.656621315414416 30.5035
16.679175797408888 30.4713
16.701713349928728 30.2943
16.72426913389191 30.2489
16.74680798922351 30.2506
16.76936507887444 30.1167
16.791905240734874 30.1443
16.814463639794468 29.9387
16.837022695210294 30.0383
16.859564824093756 30.1091
16.882125194503903 30.070999999999998
16.904668639217885 30.3504
16.927230328348003 30.3638
16.949792678493612 30.7778
16.972338104193863 31.3978
16.994901778652235 32.5647
17.017448529496576 34.6434
17.040013531998152 37.3668
17.06257920018044 39.4816
17.0851279459922 40.1943
17.107694947817667 38.8263
17.130245028099072 36.084
17.15281336730298 33.8222
17.17536478578733 32.3718
17.19793446610687 31.9435
17.220504818648422 31.7805
17.243058251703697 31.6904
17.265629950971032 32.205
17.288184731571736 32.5385
17.310757781306908 32.9438
17.33333150794385 32.8404
17.355888317140174 33.0886
17.37846339986244 33.4552
17.401021565958885 33.8138
17.42359800851343 34.6228
17.44617513265564 36.0347
17.468735341390783 38.2373
17.491261035594565 41.0623
17.51396340099364 45.1508
17.536490463869136 49.5171
17.559018209820174 52.5767
17.58154663977963 52.8558
17.604251766089718 50.3593
17.626781572227713 46.1089
17.64931206518155 41.5548
17.671843245885103 38.2807
17.69455114821572 36.0194
17.717083712612634 34.6548
17.739616967569667 34.0619
17.762150914021706 33.4835
17.78486160749854 33.4242
17.807396945166804 33.8389
17.829932977143503 34.6699
17.85246970436452 36.3402
17.875183204129467 38.6712
17.897721330097664 40.7949
17.920260154126645 42.026
17.942799677153296 41.4463
17.9655159983646 39.756
17.988056927677544 38.0698
18.010598558807683 37.7876
18.033140892692916 38.3206
18.05586005052525 38.9898
18.07840379824407 39.9329
18.10094825154059 40.9892
18.12366954819864 41.6388
18.146215420998306 41.9265
18.16876200220057 42.7133
18.191309292745153 43.8537
18.214033452627167 46.2223
18.236582170236648 49.4597
18.259131600016456 54.559
18.281681742907335 62.3944
18.304408781233683 73.6278
18.32696035875955 87.7762
18.349512652227624 101.95
18.372065662579683 111.948
18.394795594587553 111.196
18.41735004715306 101.765
18.43990521943684 87.7252
18.46246111238171 74.1679
18.485193953325208 63.9755
18.507751296070428 58.711000000000006
18.530309362314178 57.4474
18.552868153000343 58.9702
18.57560391815056 63.5033
18.59816416623245 70.9063
18.620725141597372 77.5621
18.643286845190268 80.8668
18.666025549835414 79.3472
18.688588718427933 73.1176
18.711152618092243 65.4651
18.73389353884365 57.25
18.75645890921984 49.7181
18.77902501351406 44.0599
18.801591852673102 40.4183
18.824335739722738 37.4412
18.846904057212626 36.0012
18.8694731124168 34.7225
18.89204290628315 34.1235
18.914789774966803 33.6111
18.937361054791623 33.0193
18.959933076131318 32.573
18.982505839934877 32.3378
19.00525570560582 32.1439
19.027829963004184 31.7776
19.05040496572238 31.7663
19.072980714710468 31.6235
19.095733592739563 31.5156
19.11831084296757 31.313000000000002
19.140888842324735 31.3691
19.16346759176222 31.4028
19.18622349753803 31.3199
19.208803755869358 31.5651
19.231384767143577 31.7189
19.253966532312948 32.1313
19.276725481241822 32.3616
19.29930876296784 32.7647
19.3218928014549 33.2506
19.34465404436217 34.0679
19.36723960516257 34.9504
19.389825925592426 36.2656
19.412413006605938 38.6519
19.43517731967805 42.226000000000006
19.457765930683355 46.2778
19.48035530514408 48.8811
19.50294544401556 49.9217
19.525712842708348 48.8195
19.54830451925909 47.0078
19.570896963095727 45.7846
19.593490175174704 46.8279
19.616260674962184 48.7407
19.638855432416964 50.5791
19.661450960992624 51.693000000000005
19.68404726164677 49.9745
19.706820878021247 46.6491
19.729418731756834 42.9996
19.752017360452857 39.1858
19.77461676506804 36.6507
19.797393513540218 34.6768
19.819994478951667 33.2906
19.84259622316767 32.4058
19.8651987471481 31.7907
19.887978643247177 31.2804
19.91058273574792 30.8477
19.933187610901943 30.6415
19.955969879466828 30.5983
19.97857632894404 30.5717
20.00118356396599 30.7042
20.023791585494575 30.7776
20.046577028914875 31.2499
20.069186632506966 31.1732
20.091797025500632 31.3878
20.114408208858933 31.1642
20.137196842715273 31.324
20.159809615886765 31.7243
20.18242318232135 31.7513
20.20503754298326 32.2187
20.227829382875154 33.2056
20.250445341109344 34.4021
20.27306209647285 36.0825
20.29567964993108 38.2488
20.31847471147704 40.9425
20.34109387027612 44.426
20.363713830075454 47.5014
20.386334591841646 49.4765
20.409132890679302 49.4147
20.431755265564437 47.2774
20.454378445325528 44.339
20.477002430930366 41.5032
20.499803982716553 39.8336
20.522429589228004 39.5055
20.54505600449589 40.3348
20.567683229489194 42.4182
20.590488049900088 44.7836
20.61311690359731 46.4714
20.63574656993626 46.9335
20.658553853717297 45.1678
20.681185154618298 42.1431
20.703817271080066 38.5098
20.72645020407368 35.3023
20.749260783967177 33.1779
20.771895359337133 31.7886
20.794530754161617 31.0403
20.817166969412938 30.5384
20.83998086114876 30.4319
20.86261872660049 30.9032
20.885257415405402 31.7212
20.90789692853701 32.7874
20.930714147864748 33.7862
20.953355319030678 34.1026
20.97599731745334 33.4949
20.99864014410749 31.8077
21.021460706796564 30.2083
21.044105199328826 29.0476
21.06675052302631 28.2321
21.089396678865015 27.7016
21.112220600704806 27.4921
21.134868430275347 27.5849
21.15751709492456 27.3142
21.180166595629693 27.226999999999997
21.202993892429635 27.1392
21.22564507473034 27.2873
21.24829709602816 27.2461
21.27112693608965 27.2884
21.293780644891275 27.2846
21.316435195634053 27.2211
21.339090589297417 27.2114
21.361923832041875 27.4165
21.384580921090404 27.4541
21.407238856007325 27.6011
21.429897637773326 27.9737
21.45273429906592 28.5488
21.475394784108598 29.1571
21.498056118951983 30.1671
21.520718304578022 31.3802
21.543558400304388 32.0757
21.566222297108816 32.4012
21.58888704765135 32.374
21.61155265291521 31.7775
21.63439619898156 31.1518
21.657063523335786 30.3248
21.67973170537063 29.6524
21.7024007460706 29.0677
21.72524775840385 28.6799
21.747918526116475 28.4131
21.770590155457388 28.4125
21.79326264741238 28.5324
21.816113141960237 28.8061
21.838787368860547 29.0539
21.861462461341976 29.4417
21.884315579735777 29.8111
21.90699241312273 29.8013
21.92967011506078 29.8434
21.95234868653799 30.2083
21.9752053151131 30.4973
21.997885635446785 31.0224
22.020566828293532 31.8714
22.04324889464272 32.5597
22.066109049404666 33.8307
22.088792872571794 35.3644
22.111477572219204 37.1889
22.1341631493376 39.8331
22.157026846313123 43.2068
22.179714188221507 47.0086
22.202402410582668 50.7542
22.22509151438863 53.1146
22.24795876962584 53.583999999999996
22.270649646204486 52.4267
22.293341407213727 50.2157
22.316034053646906 47.4425
22.338904883215342 45.0156
22.36159931041458 43.2057
22.38429462602756 41.997
22.40699083104897 41.3572
22.429865251039757 41.1324
22.452563244831367 40.8108
22.47526213102522 39.6245
22.49813925616515 37.7106
22.520839937143307 35.691
22.543541513520587 33.7722
22.56624398629403 32.2894
22.589124730075895 31.1803
22.611829005656723 30.5293
22.63453418063466 29.7276
22.657240256008077 29.4179
22.680124634582935 29.0238
22.70283252079775 28.8412
22.725541310413075 28.7906
22.74825100442868 28.6477
22.771139033969575 28.7953
22.79385054687155 28.5724
22.81656296718292 28.6551
22.83927629590484 28.7654
22.862167992606945 29.2818
22.88488314827121 29.6959
22.907599215359284 30.2976
22.93031619487366 31.0132
22.953211574954405 31.6588
22.975930389478226 31.9026
22.998650119445763 31.7301
23.02137076586092 31.1929
23.044269845560063 30.7278
23.06699233506288 30.4993
23.089715744034912 30.4746
23.112617610931565 30.7133
23.135342869061212 31.3414
23.158069049684816 32.192
23.1807961538087 33.4657
23.20370174880544 35.4603
23.226430710184808 37.9397
23.249160598093425 40.8899
23.271891413539002 43.6241
23.294800752937697 45.5727
23.31753343374794 45.833
23.340267045128353 44.255
23.36300158808808 41.7767
23.38591468821339 38.6022
23.408651104658304 36.0268
23.431388455719986 34.0506
23.454126742409 32.8872
23.4770436196085 32.3275
23.499783787914662 32.383
23.522524894889884 32.6471
23.54526694154616 33.3266
23.56818761219047 34.3306
23.59093154860734 34.9234
23.613676427751283 35.3392
23.636422250635754 34.9567
23.659346731118656 34.0984
23.68209445191868 33.2387
23.704843119509587 32.5159
23.72759273490623 32.196
23.750521041644767 32.4986
23.77327256312355 33.2627
23.796025035462787 34.6641
23.818956224555475 36.3911
23.841710609113413 38.7799
23.86446594758979 41.9707
23.887222241002014 45.2681
23.910157285144578 47.6759
23.932915498962537 48.778999999999996
23.955674670778713 47.6002
23.978434801611975 44.9171
24.001373717286125 41.2617
24.024135776723917 37.54
24.046898798245582 34.603
24.06966278287146 32.3576
24.092605586582614 30.8029
24.115371508023642 29.7664
24.1381383956401 29.1184
24.16090625045381 28.6703
24.183852958731244 28.4451
24.206622758582608 28.4242
24.229393528706886 28.0898
24.252165270127392 27.944000000000003
24.27511589952438 27.4519
24.297889594216997 26.9252
24.32066426328598 26.4851
24.34343990775613 26.1497
24.36639447485003 25.9928
24.38917208083877 25.7422
24.41195066531332 25.6568
24.43490819850244 25.5965
24.457688750692377 25.4138
24.48047028445616 25.4043
24.503252800821233 25.3346
24.526214300784112 25.3224
24.548998793132213 25.2773
24.57178427117417 25.1826
24.59457073593893 25.1696
24.617536219319863 25.1158
24.64032466834748 25.2516
24.663114107195035 25.2652
24.685904536893013 25.109
24.708874020360852 25.3373
24.731666442613744 25.6425
24.754459858818787 25.9217
24.777254270007962 26.5303
24.80022777025625 27.0698
24.82302418230472 27.4826
24.845821592443674 27.7343
24.86862000170663 27.5949
24.891597535453727 27.2579
24.914397953892728 26.9639
24.93719937456671 26.4184
24.96000179851076 26.0775
24.98298338249997 25.8475
25.00578782394922 25.671999999999997
25.028593271784167 25.5214
25.05157790644186 25.3365
25.07438537804115 25.225
25.097193859145293 25.1919
25.120003350792075 25.128
25.142992065061257 25.1174
25.165803588823465 25.1267
25.18861612625217 25.2992
25.211429678386736 25.3071
25.234422489079968 25.4563
25.257238081693636 25.5427
25.280054692141732 25.8096
25.3028723214652 26.0069
25.325869245420463 26.3034
25.348688923599397 26.6338
25.371509623787006 27.0871
25.394331347025812 27.5719
25.41733240110666 28.2006
25.440156181590016 28.8622
25.46298098826268 29.604
25.48580682216873 30.2344
25.50881202326435 30.7855
25.53163992281684 31.1058
25.55446885274561 31.1266
25.577298814096377 30.9813
25.600308179121807 30.9356
25.623140214533745 31.4538
25.64597328451537 32.0298
25.66898578564376 32.7972
25.691820936010206 33.6399
25.714657124097695 33.9873
25.737494350954734 33.625
25.760511045684957 32.3935
25.783350361364224 31.1794
25.806190718969255 29.6063
25.82903211955018 28.4756
25.852053024868923 27.3744
25.874896522722523 26.7864
25.897741066713106 26.2695
25.920586657892454 26.3529
25.943611790812668 26.2475
25.966459487728237 26.5178
25.989308234998564 26.4941
26.01215803367705 26.5957
26.03518741123814 26.4917
26.05803932412957 26.2555
26.080892291600094 25.7568
26.10374631470478 25.4197
26.12677995397268 25.1501
26.14963609978026 24.9798
26.172493304397875 24.8549
26.19535156888223 24.9132
26.218389486949604 24.8108
26.241249882640123 24.8919
26.26411134137826 25.1276
26.28715248187403 25.364
26.31001607820869 25.4471
26.3328807407756 25.7006
26.35574647063438 26.3352
26.37879191991473 26.9527
26.401659795896734 27.6406
26.424528742360263 28.4361
26.447398760366614 29.3187
26.470448535598294 29.5841
26.49332070826805 29.5441
26.516193955675355 29.2745
26.53906827888316 28.518
26.562122397260108 27.788
26.584998883685063 27.2258
26.607876449110325 26.679000000000002
26.63075509460056 26.2106
26.65381357334404 25.8398
26.67669439061878 25.6294
26.699576291163382 25.4361
26.722459276044212 25.3968
26.745522132402975 25.4791
26.768407297649354 25.4599
26.791293550442003 25.5426
26.814180891848974 25.7501
26.837248143099337 25.9919
26.860137673466657 26.4913
26.88302829566349 26.8768
26.90592001075963 27.5572
26.92899167420566 28.3935
26.951885586870763 29.2855
26.974780595655517 30.4383
26.99785558178161 31.5716
27.020752794605112 32.5108
27.043651106772522 32.8689
27.06655051935668 32.9508
27.089629948036183 32.5979
27.112531573292053 32.1987
27.135434302194138 31.7798
27.158338135817015 31.0531
27.181422024430987 30.5523
27.204328079372566 29.7703
27.22723524226965 28.9628
27.250143514198573 28.1745
27.273231880156334 27.1699
27.296142382065014 26.4393
27.319053996245536 25.7218
27.341966723775965 25.2013
27.365059584515222 24.8963
27.38797455070062 24.6496
27.410890633481237 24.3732
27.433807833936918 24.1887
27.456905206923906 24.1519
27.47982465472398 23.9493
27.502745223449743 23.9272
27.525666914182825 23.9305
27.548768816912457 23.7549
27.571692763693633 23.8699
27.59461783573812 23.8422
27.617723149491244 23.8958
27.640650484125285 23.9539
27.66357894728264 24.0146
27.686508540048052 24.2415
27.709618414237887 24.211
27.732550278321757 24.0489
27.755483275279115 24.1505
27.778417406196485 24.2669
27.801531858397514 24.2695
27.824468269376716 24.4168
27.847405817586786 24.715999999999998
27.870344504116094 25.1113
27.893463551932008 25.4808
27.916404527281053 25.8733
27.93934664422563 25.9835
27.962289903855886 25.7957
27.98541356491974 25.6576
28.00835912214229 25.3337
28.03130582533231 25.1279
28.054253675581805 24.9286
28.077381967556104 24.6928
28.100332124185126 24.7259
28.123283431160893 24.8659
28.146235889577238 25.1829
28.169368830154156 25.5981
28.192323603752033 26.0256
28.215279532083304 26.1588
28.238415973016764 26.4351
28.261374223145094 26.3465
28.284333631303806 26.2643
28.307294198589954 26.3665
28.330435319167677 26.5044
28.353398217078915 27.0237
28.376362277420153 27.7456
28.39932750129032 28.7449
28.422473319286713 29.5827
28.44544088262495 30.2381
28.468409612800283 30.6722
28.491379510913497 30.464000000000002
28.51453004413313 30.0468
28.53750229057244 29.4459
28.56047570826344 28.695999999999998
28.583450298308804 28.5823
28.606605564586562 28.246
28.629582511831156 28.1145
28.65256063474956 27.7702
28.675539934446338 27.2708
28.698699951647605 26.8986
28.72168161743193 26.0772
28.74466446331978 25.5203
28.767648490417624 24.9317
28.790813276438353 24.4229
28.813799678527303 23.9517
28.836787265157085 23.4638
28.859955641890075 23.3
28.882945610203045 23.0075
28.905936766392035 22.621
28.928929111566863 22.5155
28.952102288520145 22.3942
28.975097024308607 22.239
28.998092952423807 22.1299
29.021090073977508 22.1189
29.04426806913204 22.0735
29.067267590245258 22.0595
29.090268308143695 22.0749
29.11327022394099 22.0905
29.13645305530891 22.0389
29.159457379627167 22.153000000000002
29.18246290519685 22.2285
29.20546963313352 22.4066
29.22865731875826 22.7276
29.25166646419296 23.0034
29.27467681535305 23.1334
29.29768837335608 23.4603
29.320880931312562 23.4584
29.34389491580634 23.3252
29.366910110507334 23.1976
29.38992651653503 22.813000000000002
29.41312396492981 22.5176
29.436142806456754 22.2408
29.45916286268059 21.896
29.48236399319994 21.6939
29.50538649169417 21.5341
29.528410208259935 21.5142
29.55143514402014 21.3993
29.574641196749695 21.482
29.597668583816574 21.4353
29.6206971934585 21.5302
29.64372702680042 21.6648
29.666938019934474 21.6298
29.689970313635285 21.8217
29.713003834422636 22.0064
29.73603858342347 22.3406
29.759254535188578 22.5776
29.78229175361658 22.7997
29.80533020365064 23.084
29.82836988641968 23.221
29.85159081507472 23.0734
29.874632976355343 22.8277
29.89767637376955 22.545
29.920721008448314 22.0453
29.9439469322847 21.7051
29.96699405457564 21.4431
29.9900424175358 21.296999999999997
30.013092022298157 21.0037
30.03632295963995 20.8931
30.059375061131373 20.9455
30.08242840783577 20.8293
30.105483000888153 20.7936
30.128718970092244 20.7727
30.151776069006917 20.7114
30.17483441768648 20.826
30.198074175317235 21.0077
30.221135036724256 21.1484
30.24419715131772 21.253
30.267260520236203 21.272
30.290505341942243 21.4327
30.313571232750228 21.3985
30.336638381310948 21.2019
30.35970678876503 21.0021
30.38295669299435 20.7298
30.40602763151657 20.6336
30.429099832366074 20.5983
30.452173296685572 20.6349
30.47542830191959 20.5922
30.498504306502497 20.6093
30.521581577995562 20.7605
30.544660117543582 20.8553
30.56792024229725 21.0775
30.59100133132069 21.1523
30.614083691845494 21.2766
30.637167325018545 21.4296
30.660432587840603 21.5598
30.683518779717886 21.5745
30.70660624769615 21.4293
30.729694992924372 21.2609
30.75296541239743 21.1377
30.77605672557558 20.9564
30.799149319462742 20.8729
30.8224236211637 20.8219
30.845518789950724 20.7731
30.868615242910597 20.7945
30.891712981195973 20.735
30.91499247215866 20.8406
30.938092794619365 21.000999999999998
30.96119440587579 21.0897
30.984297307082752 21.2832
31.00758200598383 21.5274
31.030687500658694 21.8845
31.053794288760695 22.3715
31.076902371446767 22.7574
31.100192296997445 23.3597
31.12330298246119 23.7415
31.14641496599209 23.9585
31.169528248749216 24.0702
31.19282341969534 23.9959
31.215939314557186 23.9594
31.239056512134788 23.743000000000002
31.262175013589378 23.3654
31.28547544871168 23.0871
31.30859657161541 22.8533
31.331719001892175 22.4338
31.35484274070538 22.1689
31.378148458819545 21.7078
31.401274828443725 21.3416
31.424402510106933 21.0502
31.447712205419993 20.8826
31.470842524931633 20.5605
31.493974159989783 20.5254
31.51710711176168 20.3539
31.54042212308802 20.2311
31.563557722100917 20.2634
31.586694641341655 20.1947
31.609832881979628 20.1829
31.63315322823208 20.1992
31.656294125521327 20.2534
31.679436347728515 20.3337
31.70257989602529 20.4609
31.725905596152327 20.6855
31.74905181052835 20.7532
31.772199354521323 20.8074
31.79534822930507 21.0103
31.818679302290967 21.1355
31.84183085259981 21.3926
31.864983737233473 21.5623
31.88813795736804 21.8366
31.911474422233013 22.0928
31.934631327356435 22.294
31.9577895715215 22.2313
31.980949155906522 22.0491
32.004291031706956 21.7722
32.027453310562606 21.354
32.05061693318573 21.018
32.07396288236386 20.8377
32.09712920658542 20.5816
32.12029687812702 20.3439
32.14346589817093 20.3822
32.166817291729984 20.462
32.18998902288583 20.4396
32.21316210610336 20.6096
32.23633654256711 20.5146
32.259693399663725 20.6819
32.282870556771144 20.7432
32.30604907069099 20.9534
32.329228942610065 21.1548
32.35259128243769 21.3127
32.375773884550505 21.569000000000003
32.398957848235646 21.6785
32.422143174682176 21.7329
32.445511016471215 21.6268
32.468699082679954 21.4266
32.49188851523011 21.2591
32.51507931531304 20.9109
32.538452678331 20.6211
32.56164622776311 20.4927
32.58484114831493 20.2405
32.60803744118015 20.1172
32.631416344731896 20.0136
32.654615396551876 19.6925
32.67781582427913 19.5222
32.701198898634416 19.3834
32.72440209253756 19.254
32.747606665947124 19.1263
32.77081262006088 18.895
32.79420126883317 18.7433
32.81740999876112 18.7412
32.840620112999424 18.6427
32.86383161274818 18.5698
32.88722585534586 18.4955
32.91044014056596 18.5322
32.933655814909734 18.4894
32.95687287957963 18.4785
32.98027273544904 18.4125
33.00349259526636 18.4433
33.026713849030116 18.5184
33.04993649794511 18.5401
33.073341986570746 18.6231
33.09656744032826 18.6613
33.11979429286444 18.7652
33.14302254538647 18.8781
33.166433686291185 18.877
33.18966475336992 18.8584
33.212897224069096 18.6336
33.23613109959831 18.602999999999998
33.259547912343415 18.4337
33.2827846121627 18.3846
33.306022720453775 18.3257
33.32926223842861 18.1908
33.352684742614166 18.1606
33.37592709463173 18.2225
33.399170859982064 18.2322
33.422597648419426 18.302
33.44584425514446 18.3059
33.46909227885668 18.3868
33.4923417207723 18.4762
33.51577423505344 18.6194
33.539026528130385 18.7284
33.56228024307245 18.9085
33.585535381098246 19.095
33.60897364093058 19.2709
33.63223163992385 19.4549
33.6554910656699 19.5131
33.678751919389796 19.5494
33.702195944520106 19.5577
33.72545966903325 19.6146
33.74872482519663 19.6012
33.771991414233746 19.5856
33.79544122444841 19.4589
33.81871069412428 19.2134
33.84198160035767 19.0112
33.86525394437455 18.8648
33.88870955949969 18.5582
33.911984794020626 18.3229
33.93526147001624 18.1824
33.958539588715006 17.9785
33.98200102861669 17.8813
34.0052820477047 17.8388
34.02856451319451 17.7423
34.05203033759056 17.6565
34.07531571090147 17.672
34.09860253431845 17.7502
34.121890809074316 17.6582
34.145362493118924 17.5373
34.16865368561615 17.4978
34.191946333164054 17.4679
34.21524043699793 17.4744
34.23871800066799 17.4875
34.26201503218366 17.5126
34.28531352370466 17.5914
34.30861347646881 17.5774
34.33209693978188 17.730999999999998
34.3553998301885 17.7213
34.378704185565205 17.7304
34.402010007152356 17.6579
34.42549939016683 17.6517
34.44880815937748 17.4845
34.472118398533134 17.2996
34.49543010887669 17.2786
34.51892543169198 17.1537
34.54224009966052 17.0544
34.56555624255917 17.1208
34.58887386163339 17.0346
34.61237514439016 16.887
34.6356957311114 16.8824
34.65901779775809 16.858
34.68252356662995 16.8886
34.705848608458616 17.0347
34.72917513396849 17.0257
34.75250314440949 17.0245
34.77601490857862 16.997
34.799345904259795 17.0699
34.82267838863559 17.1188
34.846012362958525 17.1348
34.869530142679984 17.0668
34.89286711232212 16.9574
34.91620557568269 16.9125
34.93954553401677 16.8047
34.9630693495876 16.6499
34.986412313340814 16.6314
35.00975677584668 16.5806
35.033102738362956 16.4851
35.05663261012228 16.3139
35.0799815881786 16.3584
35.10333207003229 16.2565
35.12668405694369 16.2789
35.150220005273056 16.2246
35.17357501786656 16.1672
35.19693153931268 16.1263
35.220289570874385 16.0984
35.24383161619786 16.1501
35.267192683604904 16.1418
35.290555264930376 16.1422
35.314101899412165 16.1811
35.33746752422433 16.203
35.36083466676374 16.2265
35.38420332829803 16.2009
35.407756095629054 16.1746
35.43112781085063 16.2462
35.45450104888391 16.2357
35.477875810999194 16.2733
35.50143473172161 16.2066
35.52481255774625 16.1871
35.54819191167777 16.1742
35.57157279478914 16.2188
35.595137889488406 16.2185
35.61852184675279 16.195999999999998
35.641907337029984 16.1825
35.665294361595684 16.2503
35.68886565090076 16.19
35.7122557598848 16.1908
35.73564740699838 16.2991
35.759040593519934 16.4477
35.78261809810353 16.6347
35.80601437933051 16.6347
35.829412203814705 16.7628
35.85281157283719 16.8493
35.876395313415884 17.0372
35.8997977874528 17.1202
35.92320180988546 17.2549
35.946790244133936 17.3705
35.97019737933222 17.4164
35.993606066789866 17.4432
36.01701630779276 17.3183
36.04061101440684 17.2224
36.06402437852291 17.1058
36.08743930005611 16.9477
36.1108557802951 16.7232
36.13445678011326 16.6682
36.15787639383515 16.5387
36.18129757014299 16.3404
36.20472031032821 16.112000000000002
36.22832762423364 16.0396
36.25175350829375 15.890999999999998
36.275180960119776 15.8567
36.298609981005924 15.8576
36.32222362992669 15.7502
36.34565580510207 15.685
36.36908955323448 15.6183
36.39252487562093 15.5045
36.416144880530226 15.5471
36.43958336764275 15.5233
36.463023432914625 15.5093
36.486465077645676 15.4876
36.51009145956204 15.6293
36.53353627947859 15.6002
36.55698268276811 15.6849
36.58043067073321 15.7169
36.60406345072071 15.6946
36.62751462435344 15.8641
36.65096738658405 15.8903
36.67460498210655 15.9054
36.69806093788647 15.8728
36.72151848619297 15.7656
36.744977628333636 15.7101
36.76862165890998 15.5944
36.79208400512205 15.4842
36.81554794910557 15.4426
36.83901349217101 15.2551
36.862663978991606 15.2274
36.88613273667352 15.2339
36.90960309738324 15.2996
36.933075062434064 15.2555
36.95673202673572 15.3365
36.98020721697122 15.2928
37.003684015502365 15.3472
37.027162423645365 15.4308
37.050825886711465 15.485
37.07430753063053 15.4932
37.09779078812467 15.5163
37.121275660513014 15.5313
37.144945643673694 15.4919
37.16843376245278 15.5089
37.19192350009803 15.4726
37.215414857931435 15.2751
37.239091382563885 15.1835
37.262585997426164 15.1519
37.28608223645736 15.1026
37.309763684451696 14.9336
37.33326318851098 14.8704
37.356764320726555 14.7691
37.380267082425526 14.7755
37.40395510942588 14.6242
37.42746114683234 14.6527
37.45096881771841 14.5906
37.474478123414166 14.595999999999998
37.49817275092816 14.5918
37.52168534303452 14.6138
37.54519957395567 14.4114
37.568715445024665 14.4978
37.592416694607714 14.4751
37.61593586281424 14.4224
37.63945667518264 14.4287
37.66297913304891 14.4094
37.68668702630454 14.4542
37.710212792059274 14.3657
37.733740207334854 14.3719
37.757269273470364 14.3137
37.780983832050374 14.3426
37.80451621684926 14.2636
37.82805025654007 14.2516
37.851585952464795 14.2158
37.8753071980695 14.1647
37.89884622345676 14.1311
37.92238690911902 14.1198
37.94611318753442 14.0332
37.969657210779765 14.0028
37.99320289834801 14.0561
38.016750251586465 14.0042
38.04048325513017 14.0807
38.06403395679343 14.0393
38.087586328183946 14.0376
38.11114037065203 14.0525
38.13488012115898 14.1456
38.1584375229181 14.1425
38.181996599821 14.1064
38.205557353221124 14.1318
38.229303872575656 14.0631
38.2528679961576 14.1043
38.27643380031219 14.059000000000001
38.30000128639589 14.0145
38.32375459653193 13.9562
38.34732546371299 13.869000000000002
38.37089801690786 13.8234
38.39447225747609 13.8222
38.418232380377425 13.6761
38.441810012983396 13.6359
38.46538933705673 13.607999999999999
38.488970353960084 13.6235
38.51273731166058 13.5183
38.536321731567014 13.4983
38.55990784840681 13.5466
38.58367995004091 13.4931
38.60726947812959 13.4604
38.63086070726198 13.4826
38.654453638806274 13.5342
38.678232613930824 13.425999999999998
38.70182896773327 13.4477
38.72542702806741 13.5019
38.7490267963045 13.5311
38.77281266709232 13.5109
38.79641586862214 13.5837
38.8200207821842 13.5067
38.843627409152944 13.5146
38.86742019782782 13.5463
38.891030269149255 13.468
38.914642058016156 13.5197
38.938255565806124 13.4998
38.96205529464307 13.3364
38.98567225787121 13.2564
39.00929094417078 13.3247
39.03291135492255 13.2619
39.05671804624804 13.3067
39.080341923549106 13.2619
39.103967529460334 13.2761
39.127594865365744 13.3163
39.15140854155791 13.2991
39.17503935514948 13.3138
39.19867190290282 13.3275
39.22249083587951 13.323
39.24612686969409 13.3855
39.269764641845306 13.3521
39.293404153722804 13.2924
39.317230110864074 13.1654
39.34087311998506 13.058
39.36451787301696 13.0579
39.388164371352595 12.9146
39.41199737518003 12.845
39.43564738196752 12.8183
39.45929913825317 12.8298
39.48295264543308 12.7507
39.506792718520884 12.7336
39.530449745387216 12.7569
39.55410852735203 12.7432
39.57776906581474 12.6891
39.60161623079 12.6492
39.625280300200025 12.6521
39.64894613032202 12.5852
39.67261372255866 12.5471
39.6964680021016 12.5201
39.72013913657293 12.5621
39.74381203738292 12.5612
39.76748670593756 12.5449
39.79134812278169 12.5255
39.81502634488497 12.5403
39.83870633896685 12.4738
39.862388106436654 12.4846
39.88625668336918 12.5049
39.90994201572829 12.4792
39.933629125719285 12.4471
39.957503091207826 12.4286
39.9811937746168 12.4587
40.00488623990914 12.4222
40.02858048850006 12.3867
40.05246165409549 12.2817
40.076159487492085 12.2405
40.099859108448875 12.2857
40.123560518384345 12.3247
40.1474489070226 12.3278
40.171153913178564 12.2837
40.194860712584955 12.2877
40.2185693066637 12.3414
40.242464941335314 12.3443
40.26617714307655 12.3581
40.289891143772046 12.4112
40.3136069448471 12.4195
40.33750984859743 12.4176
40.3612292688043 12.3643
40.3849504936829 12.3789
40.40867352466194 12.4221
40.43258372059144 12.3907
40.45631038219906 12.3983
40.48003885420956 12.2726
40.503769138055105 12.2049
40.52768664931955 12.1763
40.55142057531802 12.1586
40.57515631746428 12.0772
40.599079334038514 12.1136
40.62281872700477 12.0398
40.64655994043941 12.0475
40.67030297578061 12.0332
40.69423334835778 12.0159
40.71798004609188 11.9907
40.74172857006355 12.0161
40.76547892171441 11.9358
40.7894166736039 11.9089
40.813170699248566 11.9263
40.83692655691388 11.9159
40.86068424804498 11.9622
40.884629402612525 11.9219
40.908390779366385 11.8526
40.932153993938 11.8556
40.95591904777605 11.8598
40.979871628443995 11.8881
41.003640379561936 11.87
41.02741097430883 11.8083
41.05118341413683 11.805
41.075143444384416 11.7635
41.098919593177826 11.7825
41.1226975914255 11.7112
41.14647744058318 11.6823
41.170444943946755 11.7228
41.19422851378379 11.7049
41.218013938914645 11.7473
41.24198706625173 11.7523
41.26577622087193 11.7663
41.289567235177785 11.7466
41.31336011063129 11.753
41.337340752422875 11.8015
41.361137369129835 11.7641
41.38493585138705 11.7005
41.40873620066004 11.6758
41.43272438060107 11.6113
41.45652848292052 11.5735
41.48033445666918 11.5098
41.50414230331616 11.468
41.528138045159764 11.4531
41.551949656675205 11.3368
41.575763145513235 11.3508
41.59957851314666 11.2643
41.62358184070442 11.2033
41.64740098505737 11.2173
41.6712220126409 11.2193
41.69504492493139 11.2358
41.71905586207357 11.1966
41.74288256296395 11.1899
41.766711153007456 11.0924
41.79054163368412 11.1005
41.814560204340054 11.1048
41.838394485526365 11.118
41.86223066180303 11.1352
41.88625497706819 11.1061
41.910094962812 11.1356
41.93393684811168 11.0292
41.95778063445365 11.0246
41.981812625263366 11.0678
42.00566023303407 11.0194
42.029509746323676 10.9581
42.05336116662236 10.9535
42.077400857069705 11.0007
42.10125611078846 11.0026
42.12511327600405 10.9762
42.14897235421036 10.8988
42.173019768448455 10.9603
42.19688269209613 10.9561
42.22074753323349 10.9833
42.24461429335818 10.9871
42.268669455600495 11.0262
42.292540073217886 11.0591
42.31641261433284 11.0176
42.34028708044675 10.9579
42.36435001496739 10.9987
42.38822835065557 10.9085
42.41210861586426 10.9061
42.4359908120986 10.8807
42.46006154323262 10.8294
42.48394762115317 10.824000000000002
42.507835634632315 10.7885
42.531912233047436 10.6562
42.55580413732265 10.5862
42.579697981698 10.597000000000001
42.60359376768525 10.5991
42.62767820545945 10.5616
42.65157789440821 10.5552
42.67547952952185 10.5109
42.699383112316 10.4845
42.72347541395347 10.4467
42.74738291190531 10.4388
42.771292362102166 10.4338
42.795203766063516 10.4363
42.819303956130405 10.3944
42.843219287476536 10.3591
42.86713657716324 10.3633
42.89105582671383 10.335999999999999
42.91516392983864 10.3493
42.939087119032166 10.314
42.963012272677304 10.2965
42.98693939230129 10.3191
43.01105543317513 10.2555
43.034986504731386 10.2454
43.05891954686589 10.1883
43.08285456110972 10.1799
43.10697856448665 10.1267
43.130917542983475 10.092
43.15485849820081 10.1309
43.17880143167367 10.1217
43.20293342237094 10.0947
43.226880332449 10.0571
43.25082922540554 10.0452
43.27496722682525 10.0582
43.29892010567796 10.0494
43.32287497204102 10.0024
43.34683182745632 9.97903
43.370977859791836 9.9484
43.39493871351105 9.943539999999999
43.41890156092628 9.92409
43.44286640358341 9.85895
43.46702049182749 9.8851
43.49098934522816 9.85815
43.51496019852649 9.84511
43.5389330532723 9.81601
43.56309522248204 9.837019999999999
43.58707210044314 9.820969999999999
43.61105098451946 9.723939999999999
43.63503187626491 9.7626
43.659202151562134 9.73572
43.68318707902681 9.7576
43.70717401884041 9.7253
43.731162972560874 9.69148
43.75534137913236 9.72187
43.779334381108384 9.69093
43.803329401683186 9.6559
43.82732644241872 9.65329
43.8515130055166 9.64863
43.87551410707659 9.63069
43.89951723350145 9.599160000000001
43.923709934595614 9.65593
43.94771713129917 9.57703
43.97172635758096 9.551210000000001
43.99573761501002 9.56655
44.0199385169922 9.55326
44.04395385732619 9.53167
44.067971233533086 9.52107
44.09199064718605 9.51635
44.11619977548961 9.49981
44.14022328470671 9.50887
44.16424883610785 9.54393
44.18827643127035 9.54234
44.21249381139513 9.52145
44.236525514814076 9.499039999999999
44.26055926674478 9.46146
44.28459506876863 9.49579
44.3088207262813 9.49545
44.33286064928722 9.451789999999999
44.35690262714919 9.40108
44.38094666145278 9.416319999999999
44.4051806219871 9.39762
44.42922879003185 9.36852
44.45327901929361 9.326
44.477331311362136 9.30664
44.501573600619416 9.29674
44.525630039221795 9.28042
44.54968854541895 9.2223
44.573937102200176 9.22195
44.5979997645541 9.22782
44.622064499300315 9.18652
44.64613130803592 9.202119999999999
44.67038823869318 9.17044
44.69445921643748 9.142610000000001
44.718532272981385 9.13008
44.742607409926194 9.13675
44.76687274034801 9.14025
44.79095205918753 9.13696
44.81503346325094 9.10873
44.839116954143876 9.11004
44.86339071028742 9.12125
44.88747839599524 9.11628
44.91156817336837 9.064169999999999
44.93566004401666 9.089039999999999
44.959942251908146 9.03922
44.984038330325966 9.04278
45.00813650686762 8.98676
45.03223678314731 8.97738
45.05652746888232 8.97719
45.08063196592069 8.97793
45.104738567558705 8.95548
45.128847275414856 8.97162
45.15314646515866 8.971960000000001
45.17725940679741 8.94069
45.20137445952892 8.94233
45.22568004865265 8.92044
45.24979934496396 8.899989999999999
45.27392075725247 8.861410000000001
45.29804428714431 8.86558
45.322358426247604 8.84199
45.346486212804315 8.766060000000001
45.370616121861914 8.7663
45.39474815505086 8.76138
45.41907087049246 8.735330000000001
45.4432071734666 8.69228
45.46734560548283 8.674389999999999
45.49148616817604 8.69122
45.51581748638564 8.68037
45.5399623320197 8.6654
45.56410931325473 8.61472
45.58825843173002 8.66484
45.61259837920865 8.60806
45.636751793816 8.597430000000001
45.66090735060093 8.56371
45.68506505120716 8.54169
45.7094136545275 8.53267
45.73357566449271 8.47412
45.75773982322992 8.49142
45.78190613238733 8.51812
45.806263418194064 8.45584
45.83043404997326 8.49962
45.85460683713677 8.488669999999999
45.87897065658495 8.48799
45.90314777634752 8.42718
45.92732705646868 8.4143
45.9515084986045 8.41393
45.97588104735473 8.39379
46.00006683541565 8.38528
46.02425479047904 8.37257
46.04844491420549 8.36844
46.0728262191024 8.310830000000001
46.09702070211635 8.3351
46.12121735879483 8.3579
46.14541619080294 8.38392
46.169806278764455 8.33436
46.194009483459034 8.28943
46.21821486849841 8.27519
46.24242243555223 8.29946
46.266821333570014 8.24136
46.29103328674601 8.22965
46.31524742696538 8.226989999999999
46.33946375590237 8.19764
46.36387149104216 8.166039999999999
46.38809221957392 8.1414
46.41231514186606 8.135539999999999
46.436540259597464 8.142489999999999
46.460956858999374 8.11859
46.48518638983522 8.09722
46.509418121166966 8.08887
46.533652054678114 8.08879
46.55807754555709 8.0775
46.58231590571962 8.06209
46.60655647313217 8.05645
46.630988654873654 8.04182
46.655233659129024 8.02242
46.67948087571551 8.00584
46.70373030632484 8.0069
46.72817142736393 7.98083
46.752425308428684 7.96442
46.77668140861147 7.986839999999999
46.80093972960865 7.93202
46.82538981736788 7.91207
46.849652602470904 7.91569
46.87391761349769 7.8680699999999995
46.8981848521493 7.902489999999999
46.9226439341274 7.85568
46.946915650573224 7.781969999999999
46.97118959976749 7.84001
46.99546578341598 7.827089999999999
47.019933887188216 7.79785
47.04421456235744 7.813510000000001
47.06849747711879 7.776260000000001
47.09278263318286 7.751339999999999
47.11725978640143 7.74419
47.14154944775105 7.72105
47.165841355555656 7.73533
47.1901355115306 7.70132
47.214621741924994 7.68208
47.23892041698887 7.64923
47.26322134538975 7.6508899999999995
47.28771440635075 7.6200600000000005
47.31201986422527 7.5954
47.33632758061436 7.56497
47.360637557241866 7.56255
47.38513974410611 7.56442
47.40945426407847 7.52375
47.43377104948137 7.49897
47.45809010204344 7.4727
47.48260144275502 7.48377
47.506925052572285 7.47502
47.53125093475548 7.4657
47.55557909103813 7.454219999999999
47.58009961361992 7.469010000000001
47.60443234110732 7.43193
47.62876734791564 7.4136
47.65310463578333 7.42822
47.6776343683373 7.43297
47.7019762413987 7.42387
47.72632040075572 7.39023
47.75066684815169 7.38704
47.77520581885936 7.394589999999999
47.799556865477655 7.322030000000001
47.823910205386 7.364560000000001
47.84826584033272 7.3524199999999995
47.87281407745551 7.29921
47.89717432569297 7.330760000000001
47.92153687423484 7.33372
47.94609208429692 7.30772
47.97045925671401 7.30466
47.99482873471275 7.27158
48.01920052005013 7.26014
48.04376504619224 7.23347
48.068141469543484 7.246339999999999
48.09252020552573 7.2114899999999995
48.11690125590099 7.19747
48.1414751266064 7.1965
48.16586082917454 7.162380000000001
48.19024885144316 7.14625
48.2146391951793 7.1551800000000005
48.239222439012764 7.14467
48.26361744916137 7.08361
48.28801478610016 7.085430000000001
48.31241445160131 7.064019999999999
48.337007097209366 7.047619999999999
48.36141144338331 7.06137
48.38581812345755 7.00471
48.41022713920929 7.00961
48.434829215320704 7.025189999999999
48.45924292604658 7.02853
48.48365897780325 6.99938
48.50807737237308 6.949960000000001
48.532688907799276 6.9461
48.55711201168574 6.934830000000001
48.581537463754074 6.95465
48.60615611725119 6.929180000000001
48.63058628942721 6.897
48.65501881516546 6.891380000000001
48.6794536962573 6.88737
48.70408185970339 6.863180000000001
48.72852147531801 6.86653
48.75296345168211 6.831930000000001
48.77740779059232 6.83351
48.80204549302823 6.8364899999999995
48.82649458091802 6.825639999999999
48.85094603676547 6.7854600000000005
48.87539986237231 6.78388
48.90004713292306 6.79115
48.92450572200832 6.786010000000001
48.94896668628025 6.78585
48.97343002754588 6.73503
48.99808689542115 6.7184800000000005
49.02255501470614 6.71905
49.04702551642794 6.697089999999999
49.0714984023988 6.71082
49.096164896893235 6.6652
49.120642575466796 6.656969999999999
49.145122643748394 6.6902
49.16960510355558 6.65734
49.19428125404938 6.631639999999999
49.2187685210852 6.631689999999999
49.243258185121555 6.62138
49.26794160167084 6.584410000000001
49.2924360839405 6.57458
49.31693296869764 6.58223
49.34143225776915 6.56383
49.36612538195438 6.55255
49.39062950396021 6.53153
49.41513603578346 6.51815
49.4396449792564 6.50769
49.46434784069503 6.49317
49.488861631846454 6.47642
49.513377840166804 6.47117
49.537896467493745 6.480659999999999
49.56260909589029 6.42345
49.587132585683285 6.45134
49.611658500018365 6.46644
49.636186840738596 6.45506
49.66090926588511 6.44984
49.685442483902584 6.43693
49.70997813385706 6.39328
49.734516217597076 6.3783
49.75924846937352 6.3976
49.7837914452858 6.39795
49.80833686055187 6.37101
49.83288471702571 6.36322
49.85762682540054 6.37183
49.882179588965734 6.33845
49.9067347993235 6.31038
49.93129245833333 6.31495
49.95604445336378 6.32872
49.98060703442832 6.2849
50.005172069746266 6.30739
50.02993150438364 6.2847800000000005
50.05450147301533 6.23569
50.07907390151433 6.23146
50.10364879174981 6.2154300000000005
50.12841816587289 6.19413
50.1529980044635 6.22014
50.17758031042124 6.18631
50.20216508562089 6.1939400000000004
50.22694442953363 6.19594
50.25153416817468 6.16564
50.27612638170508 6.17497
50.300721072005196 6.13736
50.325510416102105 6.13537
50.350110084975064 6.1116
50.37471223628208 6.12783
50.39931687190919 6.10553
50.424116246675766 6.0858
50.44872587605249 6.1075099999999996
50.47333799543065 6.06398
50.49795260670191 6.09287
50.52276204271512 6.06692
50.54738166295838 6.05538
50.57200378079314 6.07226
50.596628398116835 6.04057
50.62144792604559 6.0128
50.646077567609396 6.03763
50.670709714377715 5.99686
50.69553683636198 5.97463
50.72017401885922 5.9648699999999995
50.7448137122895 5.97657
50.76945591856022 5.94984
50.79429318636823 5.9246
50.818940443716784 5.91486
50.84359021965163 5.88441
50.868242516085964 5.884469999999999
50.893089960641895 5.89676
50.917747323549435 5.86954
50.94240721271973 5.8806
50.96706963007175 5.83685
50.99192728239342 5.8183300000000004
51.01659478166073 5.8077
51.04126481489051 5.80673
51.06593738400761 5.787730000000001
51.090805275207074 5.79288
51.11548294172845 5.77506
51.14016314993547 5.78212
51.164845901758845 5.75778
51.18972406304274 5.75367
51.21441192780656 5.72927
51.23910234200271 5.7203
51.2637953075678 5.71623
51.288683770237945 5.6854
51.31338186432707 5.6739999999999995
51.33808251561888 5.64968
51.362978729967345 5.6892
51.387684521509755 5.6783
51.41239287610203 5.64216
51.437103795691165 5.66447
51.46201036644977 5.64377
51.486726441956634 5.6086
51.51144508832545 5.6220300000000005
51.536166307509156 5.60767
51.56108326624387 5.5866
51.58580965706056 5.54761
51.61053862657523 5.5277199999999995
51.635270176746864 5.53866
51.66019755512065 5.55433
51.68493429268881 5.51014
51.70967361681515 5.55057
51.73441552946465 5.49913
51.759353359237934 5.50536
51.7841004750961 5.5042599999999995
51.80885018539685 5.48499
51.833602492111254 5.4623800000000005
51.8585508051424 5.45824
51.883308330926425 5.43851
51.90806845906181 5.44984
51.932831191525715 5.40917
51.95779001977161 5.4051
51.98255798721516 5.42547
52.00732856494335 5.41118
52.03229530577543 5.38355
52.057071130455945 5.34994
52.081849571391054 5.34227
52.106630630568695 5.33761
52.13160794279417 5.31682
52.15639426492067 5.3276699999999995
52.18118321127822 5.3019099999999995
52.205974783860896 5.32474
52.23096269971011 5.29934
52.255759551287994 5.27971
52.280559035098186 5.29216
52.30536115314103 5.26039
52.33035970494467 5.2317599999999995
52.35516711807904 5.2015400000000005
52.37997717147198 5.20552
52.40478986713005 5.21455
52.42979908731974 5.2018
52.454617094216 5.17199
52.47943774942214 5.167619999999999
52.50426105495102 5.17656
52.529280976059844 5.1897
52.554109609024096 5.14694
52.57894089837482 5.14731
52.60377484613117 5.149369999999999
52.62880550079408 5.1254800000000005
52.65364479223379 5.0936
52.67848674816189 5.10651
52.70352547971946 5.11764
52.72837279155837 5.06191
52.753222773982785 5.05547
52.778075429022984 5.067
52.80312495150885 5.06876
52.827982978797436 5.05048
52.85284368481815 5.03391
52.87770707160767 5.02418
52.90276741793998 4.99632
52.92763619336701 4.98364
52.952507655698504 4.97882
52.977381806977576 4.95214
53.00245301017842 4.94002
53.02733256653592 4.9511400000000005
53.052214817996074 4.97879
53.077099766608484 4.96021
53.102181859804446 4.8922300000000005
53.127072229988265 4.95898
53.15196530349892 4.92929
53.17686108239249 4.91863
53.20195409881522 4.90859
53.22685531582556 4.89516
53.25175924441303 4.86879
53.27666588664027 4.85904
53.30176985962693 4.87177
53.3266819565689 4.86682
53.35159677336455 4.82041
53.376514312083096 4.82636
53.40162927507703 4.843999999999999
53.42655228516116 4.8446
53.45147802340193 4.80578
53.47660125628886 4.78721
53.50153247842639 4.75568
53.52646643496923 4.74681
53.55140312799818 4.730230000000001
53.576537409691696 4.703469999999999
53.60147960336152 4.72569
53.626424539786164 4.6930000000000005
53.65137222105307 4.70573
53.67651758529126 4.682169999999999
53.70147078399681 4.69201
53.72642673383343 4.70282
53.75138543689533 4.66357
53.776541917524526 4.64082
53.801506154876755 4.598730000000001
53.826473151763246 4.6052599999999995
53.851442910284916 4.61699
53.87661054126026 4.61322
53.9015858509782 4.58282
53.92656392866066 4.6023
53.95154477641532 4.55853
53.976723591801296 4.56628
54.00171000771266 4.58188
54.02669920004598 4.53719
54.051691170915745 4.56151
54.076881204886796 4.52095
54.101878760928514 4.55088
54.12687910187696 4.5367
54.152077577768296 4.44833
54.1770835166946 4.46585
54.20209224691339 4.44276
54.22710377055121 4.43962
54.25231352511594 4.4066
54.27733066384342 4.40855
54.30235060239643 4.4004199999999996
54.32737334290836 4.38587
54.35259441062629 4.3753
54.377622783395324 4.36992
54.40265396455061 4.36123
54.42768795623251 4.33955
54.45292037169559 4.28428
54.477960012857906 4.2887900000000005
54.50300247099511 4.285069999999999
54.52804774825457 4.27576
54.55329154616743 4.23993
54.57834249018678 4.26124
54.6033962597977 4.21486
54.6284528571545 4.18074
54.653708072335164 4.1556
54.67877035378786 4.17932
54.70383546947698 4.12996
54.72890342156389 4.12437
54.7541700889442 4.0943
54.77924374251975 4.0755099999999995
54.8043202390049 4.08955
54.82959552413022 4.0599099999999995
54.8546777351945 4.10347
54.87976279569621 4.054119999999999
54.90485070780914 4.08865
54.930137506558005 4.03691
54.95523115074295 4.0707
54.98032765308844 3.9740800000000003
55.005427015775496 3.9710199999999998
55.03072536339621 3.99376
55.05583047570572 3.96576
55.080938454927676 3.9417800000000005
55.10604930325027 3.9438699999999995
55.131359235107396 3.85365
55.15647585066083 3.88175
55.181595341907496 3.8998699999999995
55.20671771104285 3.82332
55.232039262617704 3.8433599999999997
55.25716741665048 3.82059
55.28229845518636 3.8192199999999996
55.30743238042802 3.74879
55.33276558731939 3.75417
55.357905315183636 3.7800300000000004
55.383047936390035 3.71155
55.40819345314859 3.6840800000000002
55.433538351073295 3.6871199999999997
55.458689688238415 3.69575
55.483843927614096 3.63815
55.509197623043605 3.6335
55.53435769621134 3.60846
55.55952067826466 3.60278
55.5846865714265 3.5257400000000003
55.61005202069737 3.57825
55.63522376553902 3.62586
55.66039842818645 3.55975
55.68557601087004 3.53131
55.7109532500271 3.443
55.73613670233794 3.5186300000000004
