TT I
1.2716486653135266 6.68663
1.2939594142134223 6.35604
1.3162702121660406 6.3753400000000005
1.3385810600174564 6.22037
1.3608919586137629 6.09253
1.383202908801069 5.9493599999999995
1.405513911425503 6.50379
1.4278249673332093 5.57015
1.4501343378461518 5.47046
1.4724455028545926 5.5944199999999995
1.4947567236847858 5.422280000000001
1.517068001182951 5.84755
1.5393793361953272 5.704359999999999
1.5616907295681737 5.10188
1.5840021821477681 5.08996
1.60631369478041 4.95111
1.6286252683124185 4.7291099999999995
1.6509369035901333 4.3956599999999995
1.6732468618895553 4.5829699999999995
1.695558623192809 4.95976
1.7178704487808514 4.56815
1.7401823395001077 4.7260599999999995
1.7625012545597203 4.20942
1.7848028405262486 4.52131
1.8071218901122095 4.71249
1.8294236121921872 4.3983300000000005
1.8517427996910911 4.00442
1.8740620574440425 4.14222
1.8963639900671978 4.350569999999999
1.9186833908139995 4.0381800000000005
1.9409854680117449 4.33672
1.9633050151394713 4.3377099999999995
1.9856246367570705 4.74188
2.0079269371922672 4.19987
2.03024671027244 3.58089
2.0525491637446027 3.2366599999999996
2.074869091674931 4.23793
2.097171701569106 4.77311
2.1194917877373847 4.71509
2.141811954326636 4.55335
2.164114805233074 4.443919999999999
2.186435135143035 4.38079
2.208738150935709 4.21199
2.231058647554722 6.30307
2.2533792288321184 6.3151
2.275682498336085 4.83655
2.298003251406138 5.12196
2.3203066942619714 5.53634
2.3426276225136022 5.085030000000001
2.3649486396617507 5.53975
2.387252348930071 5.8276900000000005
2.4095735463442893 5.93342
2.4318774374315884 5.7508300000000006
2.4541988185014043 6.69168
2.476502894794693 7.37387
2.498824462909887 7.47415
2.521146125856138 6.5471699999999995
2.5434504863470337 7.02095
2.5657723414244717 7.76761
2.588076895590662 8.23655
2.610398946189713 9.03037
2.6327210958598384 8.37468
2.6550259469304716 7.676810000000001
2.6773482972090137 8.62452
2.6996533504259 8.45491
2.7219759047039602 8.43954
2.744298562293959 7.987360000000001
2.7666039251246595 8.34185
2.7889267918020164 8.067110000000001
2.8112323652516555 8.48957
2.833555444408179 8.40761
2.8558786311183852 8.589160000000001
2.8781845268938557 8.72012
2.9005079311721484 9.635010000000001
2.9228140460410397 9.23222
2.9451376712799635 9.1895
2.967444008632326 9.080160000000001
2.9897678582247247 10.2567
3.0120918213106695 10.5317
3.0343984987899373 10.2698
3.0567226913198637 10.9527
3.079029599759726 11.8687
3.101354025127254 12.0855
3.123678568232338 12.9228
3.145985829517914 13.0107
3.16831061055229 13.3117
3.1906181112775593 14.5782
3.212943133635653 14.9185
3.2352682779763207 14.4637
3.2575761442691227 14.6792
3.2799015350264273 15.2561
3.302209649240067 15.7058
3.3245352898092655 16.1677
3.3468436553365257 16.941
3.369169549113219 16.8892
3.3914955708171384 17.8823
3.413804319727358 17.9017
3.4361305997334863 18.2773
3.4584396084414553 18.764
3.4807661501462652 19.525
3.503092824025881 19.7461
3.5254022288463154 19.6968
3.5477291695206588 20.2068
3.5700388426251948 20.7688
3.5923660534916446 21.5928
3.6146934007816114 22.79
3.637003482731501 27.704
3.6593311053109985 30.3698
3.681641464033634 26.6576
3.7039693653009733 24.1022
3.726297407241705 24.4346
3.7486081875460804 23.7561
3.7709365132734978 24.3628
3.793247578841633 25.2736
3.8155761917550093 25.5995
3.8378875459837216 25.8957
3.8602164494827234 25.9976
3.882545499606844 26.5421
3.9048572932539183 27.3646
3.9271866390645718 27.4297
3.9494987298666713 28.0888
3.971828374764527 28.2695
3.9941581705403255 29.1218
4.016470713506008 29.4484
4.038800813471445 30.3028
4.061113662089144 30.52
4.0834440696459176 31.813000000000002
4.105774632334751 32.1169
4.128087945865126 32.629
4.150418821249301 32.8531
4.172732448931298 33.8204
4.195063640413578 34.4253
4.2173775856475215 35.4078
4.239709096631102 38.3381
4.262040768704612 52.2836
4.284355196706267 64.6264
4.306687193387355 56.69
4.329001947444346 44.3256
4.35133427213731 40.8704
4.373666762177566 40.7437
4.395982011761091 40.9182
4.418314834921175 41.8423
4.44063041906622 43.3304
4.4629635787515625 45.2144
4.4852969080429785 46.5568
4.5076130004776225 46.5536
4.529946671403969 46.8007
4.552263106909177 47.1386
4.574597122877047 48.7196
4.596931312711224 49.8893
4.619248269273446 50.4787
4.6415828092605835 51.5198
4.663900117405352 52.5046
4.686235010953232 53.9282
4.708552674085913 55.1752
4.730887924602802 56.5782
4.753223354952695 57.8557
4.775541557023902 59.9421
4.797877349456786 60.6499
4.820195915032126 62.8605
4.842532072957498 63.7954
4.864868414979744 66.1352
4.88718753227192 68.1208
4.909524244902505 70.3653
4.931843734218147 71.505
4.954180820867835 73.905
4.976518095879839 76.9468
4.998838149695359 80.0329
5.021175803844231 83.3618
5.043496238205739 86.0538
5.065834274903528 89.3556
5.088172504230693 93.4022
5.1104935158799565 97.8869
5.132832132875765 105.337
5.155153533596801 118.338
5.1774925416746225 137.965
5.199814334878411 233.52900000000002
5.2221537374521505 802.22
5.244493338631803 2502.1
5.266815727034316 7157.25
5.289155727832427 13478.1
5.311478517248165 9553.66
5.333818921080011 3280.54
5.356159527788849 684.872
5.3784829252032536 213.273
5.400823940070432 146.112
5.423147747031976 124.03
5.445489173474152 113.678
5.467830807066149 108.524
5.490155234831516 104.351
5.512497285125229 100.928
5.534822130975162 99.60799999999999
5.557164601388673 97.0764
5.579489868738879 94.6579
5.601832762690846 93.5518
5.6241758697774475 92.0767
5.646501775867269 91.43799999999999
5.668845311622074 90.2401
5.691171647754637 89.6314
5.713515615597765 88.5648
5.735859800852677 87.6828
5.758186788542988 86.8718
5.780531411018185 86.829
5.802858837297399 86.5425
5.825203900414495 86.685
5.8475491852224 87.146
5.869877275883075 87.2347
5.892223006467101 87.9843
5.914551544266608 89.2227
5.936897724049891 91.2051
5.959244129804903 95.0363
5.981573344815301 106.45100000000001
6.0039202049061 163.659
6.026249875609095 394.73900000000003
6.04859719346037 893.6080000000001
6.070927323278297 2054.18
6.093275102315365 4612.87
6.115623113320588 5634.26
6.137953938319995 3600.24
6.160302415650845 1070.58
6.182633708324452 238.43599999999998
6.2049826554078376 108.76299999999999
6.227331838745022 87.4221
6.249663839443684 80.0612
6.27201349767565 76.0383
6.294345974611799 73.8237
6.316696111167083 72.5227
6.339046488263839 71.3993
6.361379686074702 68.7828
6.383730546639482 66.7683
6.406064229255215 64.8008
6.428415576718203 64.3676
6.450749747566656 63.4814
6.47310158535871 62.5087
6.495453669698332 61.6613
6.517788579421056 61.2633
6.540141159237969 60.413000000000004
6.562476565766648 59.8254
6.5848296444934045 58.9608
6.607182974060425 58.4221
6.6295191323281015 57.8429
6.651872965955752 57.5118
6.6742096296068985 58.5506
6.6965639707294615 63.2683
6.71891856698715 64.2294
6.741255995248479 60.3126
6.763611104154477 56.5046
6.785949046381137 55.2598
6.808304671371482 54.3722
6.8306605557940046 54.2126
6.852999275508618 53.6304
6.875355681171544 53.4876
6.897694923437771 53.3675
6.92005185377892 53.5032
6.9423916220322655 53.2842
6.964749080490181 52.5057
6.987106804399774 52.4674
7.009447368180821 52.4436
7.031805625367033 52.5335
7.054146723727803 52.2346
7.076505517631004 52.3647
7.098864581288365 52.6468
7.121206488070854 51.746
7.143566093607822 51.4292
7.165908543567245 51.6626
7.188268694426048 51.2313
7.2106291193438095 51.1733
7.232972390625943 51.3353
7.255333366030969 51.8151
7.277677189091925 55.872
7.300038718428332 61.7253
7.322400526130865 61.2785
7.344745183422596 55.9364
7.367107550224791 52.4014
7.389452767901992 51.4677
7.411815697249891 51.3465
7.434161478756298 51.0978
7.456524974096713 51.4483
7.478888753837185 51.3808
7.501235387657368 52.92100000000001
7.523599738562711 59.2406
7.545946944825532 70.0849
7.568311870344528 73.7967
7.5906770845765665 65.5023
7.613025156078678 56.9655
7.635390950099687 53.7423
7.657739602662809 52.6963
7.680105979923558 52.7401
7.702472650212829 53.2585
7.724822180948224 53.4123
7.747189439655568 53.2621
7.769539560075357 52.9487
7.791907410653562 53.6706
7.81425812420825 53.681000000000004
7.836626570110925 54.0238
7.858995315087906 54.7172
7.881346924933401 54.7503
7.903716270417482 55.422
7.926068482028405 55.6827
7.948438431475253 56.3925
7.9708086843180235 56.7037
7.993161805171116 57.181000000000004
8.015532667162402 57.5383
8.037886398416653 58.5713
8.060257873014221 59.0007
8.082629655331942 59.5589
8.104984308787587 60.1994
8.127356708900503 60.7978
8.149711981398308 62.4592
8.172085002766314 63.6147
8.194458336181368 63.9188
8.216814543847752 64.5672
8.23918850371002 65.6015
8.26154533906492 66.3807
8.283919928836452 68.1794
8.306277395339652 69.063
8.328652618483376 70.2025
8.351028159736202 71.7747
8.373386579575245 73.6904
8.395762759396959 75.3198
8.418121819038275 77.7469
8.440498640894003 81.6198
8.462875785192262 86.0852
8.485235811156207 94.5565
8.507613602688501 128.838
8.529974277114228 229.093
8.552352719347912 370.348
8.574731488360351 616.112
8.59709314210385 1088.74
8.619472567021075 1831.33
8.64183487789147 2253.78
8.664214962183097 1959.53
8.686577933647762 1090.44
8.708958680784317 410.106
8.731339760774953 173.446
8.753703729764451 109.44200000000001
8.77608547780821 95.0411
8.798450116065078 91.1228
8.820832535634787 88.1998
8.843215292401656 86.6423
8.865580941199045 85.5992
8.887964374703538 84.3335
8.910330701447199 83.7417
8.932714815164482 83.0246
8.955099270424924 82.0744
8.977466620733543 81.3718
8.999851761421976 81.0954
9.022219798361645 80.2936
9.04460562795561 80.2188
9.066991803441677 79.9149
9.089360876979615 79.8729
9.111747746589993 79.5625
9.13411751544971 79.3032
9.156505082664324 78.9191
9.178875550323522 79.4173
9.20126381862328 81.7391
9.223652438908596 91.8278
9.246023961427412 108.79
9.26841328802173 115.10700000000001
9.290785518039224 104.016
9.313175554425882 89.7584
9.335565947154315 81.9835
9.357939245086508 79.9425
9.380330352834827 79.7906
9.40270436697103 79.9528
9.425096193225055 79.8774
9.447488380180165 81.023
9.469863475295412 80.396
9.492256385987508 80.85600000000001
9.514632206018318 81.3476
9.537025843935714 81.8518
9.559402392368193 82.1195
9.581796761000229 83.4636
9.604191496441521 83.7185
9.626569144158516 84.3667
9.648964615551032 85.5943
9.671343000390081 86.7971
9.693739211225699 87.2389
9.716135793237463 87.6858
9.738515290448102 88.4637
9.760912617143402 89.3684
9.783292860202891 90.6481
9.805690935076182 91.4061
9.828089385495742 92.5406
9.850470754023561 94.1542
9.872869957865444 95.8256
9.89525208097539 98.5442
9.917652041736662 102.75399999999999
9.940052382417589 106.304
9.962435644102392 115.039
9.984836746950979 147.428
10.007220771957746 227.845
10.029622640473708 349.32099999999997
10.052007432299963 515.21
10.074410069984072 775.457
10.096813093716005 1196.72
10.119199042482517 1756.04
10.141602840636468 2081.0
10.163989564971628 1678.56
10.186394141051062 997.434
10.208799107559706 437.80800000000005
10.231187001965623 199.99
10.253592751657669 125.119
10.275981430388155 107.359
10.298387966769793 103.36
10.320794897965431 101.919
10.343184759907361 100.874
10.36559248305461 99.0075
10.387983138083852 98.0458
10.410391656691655 98.6737
10.432800574501677 107.49799999999999
10.455192425893369 129.641
10.47760214443012 161.14600000000002
10.499994797678786 201.899
10.522405320453982 269.572
10.54479877906917 377.93199999999996
10.567210109595656 504.156
10.5896218454736 583.0509999999999
10.612016518879773 562.3480000000001
10.634429067781074 391.624
10.656824555333241 226.455
10.679237920773568 140.917
10.701651695961992 104.345
10.724048411481384 92.5048
10.746463008485165 86.1341
10.768860546937125 82.5322
10.791275969274796 79.8256
10.81369180576079 78.4846
10.836090585366925 77.6108
10.858507252467449 76.6147
10.88090686379991 75.5785
10.903324365036394 74.5887
10.925724811614439 73.44800000000001
10.948143150509463 73.2472
10.970561909719066 72.4067
10.992963615930844 71.5858
11.015383218085756 70.9248
11.037785768347074 69.5639
11.06020621697282 69.2521
11.082627090322113 68.6167
11.105030913430326 68.025
11.12745263854165 67.7085
11.149857314510728 66.855
11.172279894912576 67.76100000000001
11.194702904450653 67.2142
11.217108866490921 66.2382
11.239532736615194 65.6739
11.26193956033512 65.0882
11.284364294577085 64.5641
11.306789462371718 64.0254
11.329197585398376 63.6626
11.351623622610898 63.8214
11.37403261614354 63.0861
11.396459526308487 62.8147
11.418869393879497 62.3172
11.441297180532617 62.3529
11.463725406927658 62.0053
11.486136592353875 61.6787
11.508565700543707 61.2359
11.530977768845315 61.3857
11.553407762368774 61.1973
11.575838200059769 61.183
11.598251599479612 60.7141
11.620682927815501 60.3948
11.64309721895548 60.5262
11.665529441478206 60.2977
11.687962112597958 60.1825
11.710377748130886 60.1633
11.732811318753434 59.9749
11.755227854859067 59.9713
11.777662328529495 59.8795
11.800079768750786 59.5988
11.822515149015453 59.6288
11.844950984084935 60.1423
11.867369787303163 59.7916
11.889806534289491 60.0564
11.912226250487029 61.9994
11.934663912939751 65.2457
11.9571020346363 68.3032
11.979523127133968 69.0988
12.001962169624331 66.5404
12.024384183972964 63.8453
12.046824150809913 64.2249
12.069264581333726 69.2154
12.091687985297767 76.5812
12.11412934550045 85.8997
12.136553680195208 99.0188
12.158995973632788 119.148
12.181438735204349 146.686
12.20386447284199 180.201
12.226308172985636 204.46099999999998
12.24873485024193 215.83599999999998
12.271179492516982 176.049
12.293607112949127 134.799
12.316052700916226 99.105
12.338498763250042 74.031
12.360927805303868 64.67699999999999
12.383374818673879 62.1561
12.405804812803074 61.1136
12.428252780773262 61.1065
12.45070122756722 60.9429
12.473132656675375 61.0848
12.49558206341869 61.2478
12.518014453510101 61.2138
12.540464823770117 61.2783
12.562915677315177 61.5758
12.58534951575545 61.9313
12.607801338171472 61.6127
12.630236146511358 62.2543
12.652688941369085 63.4578
12.675124723177234 63.8868
12.697578494048786 64.072
12.720032754458185 64.046
12.742470003354093 64.1613
12.764925245138771 64.6935
12.787363476431278 65.0886
12.809819703166806 65.2735
12.83227642391173 65.7097
12.854716135692716 66.4594
12.877173846755147 67.5492
12.899614549869717 67.8947
12.9220732548287 68.5429
12.94453245827299 69.173
12.966974655289818 70.0035
12.989434858002571 70.8459
13.011878055298721 71.5288
13.034339260862497 72.7925
13.056800969391883 74.1753
13.079245674017244 76.695
13.101708390774869 78.327
13.12415410463411 82.4178
13.146617833206086 92.9286
13.169064559883248 107.846
13.191529303857127 125.75200000000001
13.213994557076367 147.458
13.236442809902437 179.71900000000002
13.258909083908291 228.42700000000002
13.28135835851934 291.184
13.30382565690295 364.505
13.326293469022952 429.543
13.348744283242008 442.847
13.371213125129904 380.29
13.39366497011003 280.241
13.416134845360597 184.635
13.438605238843131 126.962
13.46105863690397 102.92
13.483530069144786 99.211
13.505984506951902 106.958
13.528456981549432 119.97200000000001
13.550929978879088 135.10399999999998
13.573385983253365 156.142
13.595860028340867 188.49200000000002
13.618317081455832 236.674
13.64079217790333 295.279
13.663250283359057 356.931
13.685726434770173 389.62300000000005
13.708203115221277 359.279
13.730662806148091 287.406
13.75314054697177 205.294
13.775601299246777 137.496
13.798080104050406 100.40799999999999
13.820559442405358 84.6674
13.843021793671388 79.5948
13.865502201420897 77.51100000000001
13.887965623051947 76.7751
13.910447103807167 75.8793
13.932929122629764 74.6266
13.955394156785959 74.0674
13.977877254034569 73.2373
14.000343367582113 72.4851
14.022827546871707 71.9851
14.045294743423524 71.3703
14.06778000837062 70.6401
14.090265817715476 70.7807
14.112734645763819 71.6985
14.13522154619454 73.5248
14.157691466286913 75.4826
14.180179461423874 75.6231
14.202668005486178 73.7592
14.22513957064374 70.9671
14.247629214846473 68.9638
14.270101881097517 68.1386
14.29259262906496 67.4026
14.315083930490205 67.4116
14.337558255389705 67.2184
14.360050666019726 67.2825
14.382526101071944 66.943
14.405019624534942 66.3233
14.427513705993134 66.2436
14.449990813291825 66.2741
14.47248601302899 66.1325
14.49496423954951 66.4723
14.517460561197822 66.4481
14.539939910570322 66.1513
14.562437357763558 66.2861
14.58493536931253 66.6191
14.607416409993311 66.6501
14.62991555254159 67.1144
14.652397725157423 67.2204
14.674898002342799 67.2722
14.697398848433282 67.581
14.719882725991326 68.2517
14.74238471217934 68.6523
14.764869730765593 70.5508
14.787372860692983 74.5443
14.809876564079925 81.1846
14.83236330125751 88.6963
14.854868153850365 97.2233
14.877356041159485 109.682
14.899862046604186 125.691
14.922351087688757 148.218
14.944858249632887 178.44
14.967365991421232 208.138
14.989856770231246 227.34099999999998
15.012365673994204 228.114
15.03485761569738 199.861
15.05736768508665 160.628
15.07987833888692 122.08200000000001
15.102372032001655 93.5179
15.124883856909658 77.1408
15.14737872204565 70.9257
15.169891721717274 68.828
15.192405310371893 67.8968
15.214901940621196 67.1544
15.237416709527137 66.472
15.259914520936249 66.4421
15.282430473753607 65.9084
15.304947020131227 65.241
15.327446610371178 64.8881
15.349964346154254 64.3811
15.372465126703139 64.5473
15.394984055556009 64.3807
15.417486030076159 64.1172
15.44000615566487 63.6126
15.462526881230803 63.5645
15.485030653812652 63.5516
15.507552581617434 63.3342
15.530057557334603 63.4329
15.55258069104857 63.4144
15.575104429329837 63.7038
15.597611216864632 63.3102
15.620136166564563 63.4331
15.6426441664095 63.7082
15.665170331202765 64.9798
15.687697105158826 68.6775
15.710206930593545 73.8361
15.732734925158933 79.3062
15.755245972089478 86.4036
15.77777519094324 94.2931
15.800287463046663 105.64399999999999
15.822817909869592 121.906
15.84534897229804 143.078
15.867863089299354 168.995
15.890395385222186 190.355
15.912910736597423 201.976
15.935444269699861 191.815
15.957978423016485 168.342
15.980495633101265 133.045
16.003031029129367 103.316
16.02554948280019 80.9702
16.048086125229432 69.3735
16.070623392487107 64.9046
16.09314371869582 62.992
16.11568223789321 61.2341
16.13820381691126 59.8484
16.160743591742527 58.963
16.183283996022084 58.3874
16.205807461423195 57.4511
16.228349126881973 56.9851
16.25087385432698 56.8448
16.27341678466365 56.3479
16.29594277784926 55.9185
16.31848697676433 55.7541
16.341031811604868 55.0196
16.36355971058487 55.1693
16.3861058195587 55.0613
16.40863499352978 54.4516
16.431182380342005 54.177
16.453730407713202 53.8274
16.476261501364792 53.7014
16.498810812136167 53.2064
16.52134319004079 53.4014
16.54389378792203 53.3786
16.566445031001553 53.1949
16.588979342490088 53.0787
16.61153187824822 53.3797
16.634067483263312 53.0358
16.656621315414416 52.9646
16.679175797408888 52.6196
16.701713349928728 52.5993
16.72426913389191 52.6461
16.74680798922351 52.7017
16.76936507887444 52.7959
16.791905240734874 52.8249
16.814463639794468 52.6595
16.837022695210294 52.8139
16.859564824093756 52.7731
16.882125194503903 53.1272
16.904668639217885 53.5938
16.927230328348003 53.9387
16.949792678493612 54.21
16.972338104193863 54.3275
16.994901778652235 53.9807
17.017448529496576 53.9467
17.040013531998152 53.84
17.06257920018044 53.9365
17.0851279459922 54.7867
17.107694947817667 55.992
17.130245028099072 57.1472
17.15281336730298 58.4156
17.17536478578733 60.146
17.19793446610687 61.96
17.220504818648422 64.6903
17.243058251703697 67.7579
17.265629950971032 72.6659
17.288184731571736 77.1758
17.310757781306908 81.6447
17.33333150794385 83.0931
17.355888317140174 82.4826
17.37846339986244 78.6929
17.401021565958885 71.9654
17.42359800851343 65.7639
17.44617513265564 61.3812
17.468735341390783 58.8081
17.491261035594565 57.5567
17.51396340099364 56.9718
17.536490463869136 57.0244
17.559018209820174 57.1219
17.58154663977963 57.1626
17.604251766089718 57.3841
17.626781572227713 57.7278
17.64931206518155 57.8355
17.671843245885103 58.104
17.69455114821572 58.2945
17.717083712612634 58.7203
17.739616967569667 59.1912
17.762150914021706 59.8336
17.78486160749854 60.2159
17.807396945166804 60.5831
17.829932977143503 61.1924
17.85246970436452 61.7256
17.875183204129467 63.5055
17.897721330097664 66.5777
17.920260154126645 69.764
17.942799677153296 73.4199
17.9655159983646 77.1299
17.988056927677544 81.8832
18.010598558807683 88.6363
18.033140892692916 97.8897
18.05586005052525 109.196
18.07840379824407 121.51700000000001
18.10094825154059 133.30100000000002
18.12366954819864 142.168
18.146215420998306 143.558
18.16876200220057 137.156
18.191309292745153 123.238
18.214033452627167 108.48700000000001
18.236582170236648 95.682
18.259131600016456 88.0152
18.281681742907335 85.8193
18.304408781233683 88.8894
18.32696035875955 94.1086
18.349512652227624 99.3
18.372065662579683 105.15899999999999
18.394795594587553 107.49799999999999
18.41735004715306 104.55
18.43990521943684 98.43700000000001
18.46246111238171 89.3306
18.485193953325208 79.0036
18.507751296070428 71.1436
18.530309362314178 65.7394
18.552868153000343 63.0736
18.57560391815056 61.3927
18.59816416623245 60.9837
18.620725141597372 60.1986
18.643286845190268 59.4077
18.666025549835414 58.8266
18.688588718427933 58.416000000000004
18.711152618092243 58.3049
18.73389353884365 57.8373
18.75645890921984 57.308
18.77902501351406 56.981
18.801591852673102 57.0667
18.824335739722738 56.5899
18.846904057212626 56.5406
18.8694731124168 56.1517
18.89204290628315 56.089
18.914789774966803 55.8819
18.937361054791623 55.5896
18.959933076131318 55.4471
18.982505839934877 55.3115
19.00525570560582 55.1788
19.027829963004184 55.2593
19.05040496572238 55.1188
19.072980714710468 54.9845
19.095733592739563 54.9712
19.11831084296757 55.1669
19.140888842324735 55.9734
19.16346759176222 56.3675
19.18622349753803 57.0006
19.208803755869358 58.1557
19.231384767143577 59.2571
19.253966532312948 60.6931
19.276725481241822 62.7729
19.29930876296784 65.4471
19.3218928014549 69.0865
19.34465404436217 72.0947
19.36723960516257 74.8591
19.389825925592426 76.0424
19.412413006605938 75.1453
19.43517731967805 72.298
19.457765930683355 67.7873
19.48035530514408 63.4064
19.50294544401556 59.42
19.525712842708348 56.1373
19.54830451925909 54.3388
19.570896963095727 53.0044
19.593490175174704 52.4702
19.616260674962184 52.57
19.638855432416964 52.0661
19.661450960992624 52.2599
19.68404726164677 52.1161
19.706820878021247 51.831
19.729418731756834 52.0443
19.752017360452857 51.868
19.77461676506804 51.9969
19.797393513540218 51.9136
19.819994478951667 52.2383
19.84259622316767 52.7302
19.8651987471481 53.0359
19.887978643247177 53.4842
19.91058273574792 54.38399999999999
19.933187610901943 55.1238
19.955969879466828 56.1416
19.97857632894404 57.3918
20.00118356396599 58.8001
20.023791585494575 60.8024
20.046577028914875 63.8994
20.069186632506966 66.6048
20.091797025500632 69.1964
20.114408208858933 70.5143
20.137196842715273 70.8354
20.159809615886765 69.2845
20.18242318232135 66.8139
20.20503754298326 64.2169
20.227829382875154 62.3297
20.250445341109344 61.6767
20.27306209647285 62.161
20.29567964993108 63.2865
20.31847471147704 64.3656
20.34109387027612 65.493
20.363713830075454 65.3192
20.386334591841646 63.7587
20.409132890679302 61.2742
20.431755265564437 58.2309
20.454378445325528 55.1489
20.477002430930366 52.8986
20.499803982716553 51.2565
20.522429589228004 50.0473
20.54505600449589 49.3516
20.567683229489194 49.0048
20.590488049900088 49.0545
20.61311690359731 48.7957
20.63574656993626 48.828
20.658553853717297 48.3307
20.681185154618298 48.3359
20.703817271080066 48.1045
20.72645020407368 47.9469
20.749260783967177 48.1173
20.771895359337133 48.1065
20.794530754161617 48.2522
20.817166969412938 48.0927
20.83998086114876 47.864
20.86261872660049 47.7518
20.885257415405402 47.5075
20.90789692853701 47.0932
20.930714147864748 47.2542
20.953355319030678 47.3995
20.97599731745334 47.4104
20.99864014410749 47.1888
21.021460706796564 47.1532
21.044105199328826 47.5767
21.06675052302631 47.7582
21.089396678865015 47.7704
21.112220600704806 48.1662
21.134868430275347 48.4613
21.15751709492456 48.8724
21.180166595629693 49.0315
21.202993892429635 49.5651
21.22564507473034 50.0347
21.24829709602816 50.2854
21.27112693608965 50.4578
21.293780644891275 50.6591
21.316435195634053 49.9978
21.339090589297417 48.9806
21.361923832041875 48.4801
21.384580921090404 47.7645
21.407238856007325 47.3143
21.429897637773326 47.34
21.45273429906592 47.3023
21.475394784108598 47.3195
21.498056118951983 47.2096
21.520718304578022 47.2886
21.543558400304388 47.3863
21.566222297108816 47.4959
21.58888704765135 47.6056
21.61155265291521 47.9861
21.63439619898156 48.4703
21.657063523335786 48.9464
21.67973170537063 49.5976
21.7024007460706 50.1003
21.72524775840385 50.8395
21.747918526116475 51.7034
21.770590155457388 52.6443
21.79326264741238 54.1987
21.816113141960237 55.9558
21.838787368860547 57.7925
21.861462461341976 60.4151
21.884315579735777 62.7974
21.90699241312273 64.4474
21.92967011506078 65.4488
21.95234868653799 65.4428
21.9752053151131 63.9862
21.997885635446785 61.8641
22.020566828293532 59.6995
22.04324889464272 57.7062
22.066109049404666 56.2905
22.088792872571794 55.7769
22.111477572219204 55.7929
22.1341631493376 56.0477
22.157026846313123 55.9096
22.179714188221507 55.3799
22.202402410582668 54.3007
22.22509151438863 52.5017
22.24795876962584 51.0308
22.270649646204486 49.9444
22.293341407213727 48.9815
22.316034053646906 48.4505
22.338904883215342 48.1329
22.36159931041458 47.983000000000004
22.38429462602756 47.6496
22.40699083104897 47.3328
22.429865251039757 47.4463
22.452563244831367 47.4816
22.47526213102522 47.4454
22.49813925616515 47.3894
22.520839937143307 47.3769
22.543541513520587 47.526
22.56624398629403 47.2517
22.589124730075895 47.1835
22.611829005656723 47.4337
22.63453418063466 47.4073
22.657240256008077 47.6202
22.680124634582935 47.7637
22.70283252079775 48.2677
22.725541310413075 48.6908
22.74825100442868 49.0318
22.771139033969575 49.5088
22.79385054687155 49.7098
22.81656296718292 50.278999999999996
22.83927629590484 51.1396
22.862167992606945 51.9619
22.88488314827121 53.2834
22.907599215359284 54.3108
22.93031619487366 55.6147
22.953211574954405 56.9211
22.975930389478226 57.8492
22.998650119445763 58.2241
23.02137076586092 57.2147
23.044269845560063 56.2464
23.06699233506288 54.6243
23.089715744034912 52.672
23.112617610931565 50.9244
23.135342869061212 49.455
23.158069049684816 48.58
23.1807961538087 47.907
23.20370174880544 47.663999999999994
23.226430710184808 47.5507
23.249160598093425 47.6019
23.271891413539002 47.6612
23.294800752937697 47.9918
23.31753343374794 48.3122
23.340267045128353 48.446999999999996
23.36300158808808 48.8628
23.38591468821339 49.376999999999995
23.408651104658304 49.732
23.431388455719986 50.2324
23.454126742409 51.0681
23.4770436196085 52.0124
23.499783787914662 53.433
23.522524894889884 54.3785
23.54526694154616 55.6365
23.56818761219047 57.15
23.59093154860734 57.8238
23.613676427751283 58.4022
23.636422250635754 57.8424
23.659346731118656 56.3843
23.68209445191868 54.3136
23.704843119509587 51.858999999999995
23.72759273490623 49.9175
23.750521041644767 48.162
23.77327256312355 46.8556
23.796025035462787 45.9988
23.818956224555475 45.3648
23.841710609113413 45.1803
23.86446594758979 44.9397
23.887222241002014 44.5562
23.910157285144578 44.2875
23.932915498962537 44.3264
23.955674670778713 44.2125
23.978434801611975 43.927
24.001373717286125 43.8297
24.024135776723917 43.5493
24.046898798245582 43.5938
24.06966278287146 43.4265
24.092605586582614 43.2149
24.115371508023642 43.0824
24.1381383956401 42.9192
24.16090625045381 42.8702
24.183852958731244 42.847
24.206622758582608 42.7516
24.229393528706886 42.5698
24.252165270127392 42.6728
24.27511589952438 42.5461
24.297889594216997 42.4908
24.32066426328598 42.271
24.34343990775613 42.1448
24.36639447485003 42.086999999999996
24.38917208083877 42.137
24.41195066531332 41.9398
24.43490819850244 42.0289
24.457688750692377 41.8977
24.48047028445616 41.8795
24.503252800821233 42.0011
24.526214300784112 42.1173
24.548998793132213 42.1067
24.57178427117417 41.9795
24.59457073593893 42.126000000000005
24.617536219319863 42.0519
24.64032466834748 42.1899
24.663114107195035 42.0255
24.685904536893013 41.7033
24.708874020360852 41.6699
24.731666442613744 41.4837
24.754459858818787 41.4339
24.777254270007962 41.3522
24.80022777025625 41.2634
24.82302418230472 41.156000000000006
24.845821592443674 41.1518
24.86862000170663 41.3763
24.891597535453727 41.1724
24.914397953892728 41.5835
24.93719937456671 41.3579
24.96000179851076 41.4125
24.98298338249997 41.5547
25.00578782394922 41.7027
25.028593271784167 42.0198
25.05157790644186 42.3372
25.07438537804115 42.6217
25.097193859145293 42.9361
25.120003350792075 43.1579
25.142992065061257 43.5585
25.165803588823465 43.8738
25.18861612625217 43.9698
25.211429678386736 44.1479
25.234422489079968 44.4686
25.257238081693636 44.3507
25.280054692141732 44.4589
25.3028723214652 44.5188
25.325869245420463 44.6036
25.348688923599397 44.4294
25.371509623787006 44.5417
25.394331347025812 44.2851
25.41733240110666 43.8151
25.440156181590016 43.1732
25.46298098826268 42.5642
25.48580682216873 41.8443
25.50881202326435 41.3899
25.53163992281684 40.8435
25.55446885274561 40.3929
25.577298814096377 40.1743
25.600308179121807 39.9928
25.623140214533745 40.0601
25.64597328451537 39.9835
25.66898578564376 39.6691
25.691820936010206 39.6964
25.714657124097695 39.6193
25.737494350954734 39.6768
25.760511045684957 39.5424
25.783350361364224 39.6718
25.806190718969255 39.7593
25.82903211955018 39.6854
25.852053024868923 39.9317
25.874896522722523 39.9061
25.897741066713106 39.8575
25.920586657892454 39.8655
25.943611790812668 40.1655
25.966459487728237 40.305
25.989308234998564 40.2018
26.01215803367705 40.6442
26.03518741123814 40.8295
26.05803932412957 40.968
26.080892291600094 40.9991
26.10374631470478 40.989
26.12677995397268 41.1596
26.14963609978026 41.3854
26.172493304397875 40.9183
26.19535156888223 40.777
26.218389486949604 40.2966
26.241249882640123 39.9741
26.26411134137826 39.6825
26.28715248187403 39.6756
26.31001607820869 39.4956
26.3328807407756 39.222
26.35574647063438 39.5236
26.37879191991473 39.3591
26.401659795896734 39.3723
26.424528742360263 39.5582
26.447398760366614 39.7817
26.470448535598294 39.8779
26.49332070826805 40.0567
26.516193955675355 40.3809
26.53906827888316 40.7102
26.562122397260108 40.8438
26.584998883685063 41.2154
26.607876449110325 41.5256
26.63075509460056 41.6451
26.65381357334404 41.8868
26.67669439061878 41.886
26.699576291163382 41.7657
26.722459276044212 41.6495
26.745522132402975 41.42100000000001
26.768407297649354 41.2042
26.791293550442003 40.7638
26.814180891848974 40.535
26.837248143099337 40.1065
26.860137673466657 39.9982
26.88302829566349 39.7052
26.90592001075963 39.7138
26.92899167420566 39.4762
26.951885586870763 39.0469
26.974780595655517 38.7972
26.99785558178161 38.668
27.020752794605112 38.4923
27.043651106772522 38.2833
27.06655051935668 38.1152
27.089629948036183 38.0217
27.112531573292053 38.0643
27.135434302194138 38.0526
27.158338135817015 37.91
27.181422024430987 37.8973
27.204328079372566 37.7361
27.22723524226965 37.7916
27.250143514198573 37.7994
27.273231880156334 37.9521
27.296142382065014 37.6978
27.319053996245536 37.6289
27.341966723775965 37.7373
27.365059584515222 37.7385
27.38797455070062 37.8496
27.410890633481237 37.7662
27.433807833936918 37.7336
27.456905206923906 37.8922
27.47982465472398 37.9379
27.502745223449743 37.9819
27.525666914182825 37.9964
27.548768816912457 38.0517
27.571692763693633 37.8368
27.59461783573812 37.8582
27.617723149491244 37.6656
27.640650484125285 37.5392
27.66357894728264 37.5995
27.686508540048052 37.4679
27.709618414237887 37.3809
27.732550278321757 37.3525
27.755483275279115 37.2928
27.778417406196485 37.3082
27.801531858397514 37.2913
27.824468269376716 37.101
27.847405817586786 37.1813
27.870344504116094 37.3168
27.893463551932008 37.4185
27.916404527281053 37.7765
27.93934664422563 37.751
27.962289903855886 37.9225
27.98541356491974 38.0755
28.00835912214229 38.4034
28.03130582533231 38.6987
28.054253675581805 38.9336
28.077381967556104 38.9101
28.100332124185126 38.7511
28.123283431160893 38.6925
28.146235889577238 38.5646
28.169368830154156 38.4093
28.192323603752033 38.4114
28.215279532083304 38.0194
28.238415973016764 37.5591
28.261374223145094 37.4878
28.284333631303806 37.2776
28.307294198589954 37.1339
28.330435319167677 36.74
28.353398217078915 36.4963
28.376362277420153 36.2348
28.39932750129032 36.1237
28.422473319286713 35.8273
28.44544088262495 35.7799
28.468409612800283 35.5336
28.491379510913497 35.4742
28.51453004413313 35.4
28.53750229057244 35.3389
28.56047570826344 35.3239
28.583450298308804 35.2089
28.606605564586562 35.0321
28.629582511831156 35.0869
28.65256063474956 35.0832
28.675539934446338 35.0956
28.698699951647605 34.9336
28.72168161743193 34.7678
28.74466446331978 34.782
28.767648490417624 34.8508
28.790813276438353 34.7173
28.813799678527303 34.7821
28.836787265157085 34.8188
28.859955641890075 34.7962
28.882945610203045 34.8355
28.905936766392035 34.7669
28.928929111566863 34.758
28.952102288520145 34.7513
28.975097024308607 34.5809
28.998092952423807 34.4142
29.021090073977508 34.3692
29.04426806913204 34.2837
29.067267590245258 34.132
29.090268308143695 34.0962
29.11327022394099 34.0381
29.13645305530891 33.8471
29.159457379627167 33.7501
29.18246290519685 33.6917
29.20546963313352 33.6984
29.22865731875826 33.7198
29.25166646419296 33.7549
29.27467681535305 33.6506
29.29768837335608 33.6675
29.320880931312562 33.661
29.34389491580634 33.6363
29.366910110507334 33.6224
29.38992651653503 33.7428
29.41312396492981 33.8008
29.436142806456754 33.6412
29.45916286268059 33.5993
29.48236399319994 33.3767
29.50538649169417 33.2557
29.528410208259935 33.2396
29.55143514402014 32.9799
29.574641196749695 32.8772
29.597668583816574 32.751999999999995
29.6206971934585 32.5407
29.64372702680042 32.5989
29.666938019934474 32.3644
29.689970313635285 32.385999999999996
29.713003834422636 32.4208
29.73603858342347 32.3288
29.759254535188578 32.1657
29.78229175361658 32.1224
29.80533020365064 32.2327
29.82836988641968 32.2032
29.85159081507472 32.1494
29.874632976355343 32.0943
29.89767637376955 32.214
29.920721008448314 32.1356
29.9439469322847 31.9682
29.96699405457564 31.8575
29.9900424175358 32.0461
30.013092022298157 31.9702
30.03632295963995 31.9862
30.059375061131373 31.8832
30.08242840783577 31.91
30.105483000888153 31.9992
30.128718970092244 31.7711
30.151776069006917 31.728
30.17483441768648 31.7699
30.198074175317235 31.8662
30.221135036724256 31.794
30.24419715131772 31.7583
30.267260520236203 31.5789
30.290505341942243 31.7798
30.313571232750228 31.8156
30.336638381310948 31.7302
30.35970678876503 31.6349
30.38295669299435 31.6429
30.40602763151657 31.663
30.429099832366074 31.6127
30.452173296685572 31.538
30.47542830191959 31.5178
30.498504306502497 31.3869
30.521581577995562 31.4941
30.544660117543582 31.6693
30.56792024229725 31.7193
30.59100133132069 31.6767
30.614083691845494 31.5986
30.637167325018545 31.6541
30.660432587840603 31.7931
30.683518779717886 31.6703
30.70660624769615 31.6917
30.729694992924372 31.7416
30.75296541239743 31.8701
30.77605672557558 31.7702
30.799149319462742 31.6864
30.8224236211637 31.5742
30.845518789950724 31.3648
30.868615242910597 31.4118
30.891712981195973 31.2528
30.91499247215866 31.1901
30.938092794619365 31.1272
30.96119440587579 31.0323
30.984297307082752 30.9263
31.00758200598383 30.8765
31.030687500658694 30.787
31.053794288760695 30.7016
31.076902371446767 30.5942
31.100192296997445 30.6821
31.12330298246119 30.5396
31.14641496599209 30.5249
31.169528248749216 30.4034
31.19282341969534 30.3607
31.215939314557186 30.4422
31.239056512134788 30.5623
31.262175013589378 30.4797
31.28547544871168 30.3842
31.30859657161541 30.3162
31.331719001892175 30.4292
31.35484274070538 30.5252
31.378148458819545 30.4455
31.401274828443725 30.4861
31.424402510106933 30.4728
31.447712205419993 30.5185
31.470842524931633 30.3792
31.493974159989783 30.3744
31.51710711176168 30.4034
31.54042212308802 30.4666
31.563557722100917 30.4686
31.586694641341655 30.2549
31.609832881979628 30.116999999999997
31.63315322823208 30.0213
31.656294125521327 29.9159
31.679436347728515 29.8602
31.70257989602529 29.8126
31.725905596152327 29.7591
31.74905181052835 29.656999999999996
31.772199354521323 29.7344
31.79534822930507 29.8194
31.818679302290967 29.8307
31.84183085259981 29.7399
31.864983737233473 29.6897
31.88813795736804 29.715
31.911474422233013 29.7086
31.934631327356435 29.6329
31.9577895715215 29.6169
31.980949155906522 29.6517
32.004291031706956 29.5744
32.027453310562606 29.5694
32.05061693318573 29.4807
32.07396288236386 29.4737
32.09712920658542 29.4219
32.12029687812702 29.2749
32.14346589817093 29.0498
32.166817291729984 29.0322
32.18998902288583 29.04
32.21316210610336 28.9009
32.23633654256711 28.7598
32.259693399663725 28.8187
32.282870556771144 28.6961
32.30604907069099 28.717
32.329228942610065 28.6119
32.35259128243769 28.5134
32.375773884550505 28.4705
32.398957848235646 28.4629
32.422143174682176 28.4144
32.445511016471215 28.3214
32.468699082679954 28.3351
32.49188851523011 28.2764
32.51507931531304 28.1695
32.538452678331 28.2266
32.56164622776311 28.0375
32.58484114831493 28.0207
32.60803744118015 27.9966
32.631416344731896 27.9679
32.654615396551876 27.9031
32.67781582427913 27.8989
32.701198898634416 27.8017
32.72440209253756 27.8498
32.747606665947124 27.8332
32.77081262006088 27.7484
32.79420126883317 27.7366
32.81740999876112 27.7027
32.840620112999424 27.6125
32.86383161274818 27.5273
32.88722585534586 27.6118
32.91044014056596 27.5719
32.933655814909734 27.5896
32.95687287957963 27.5345
32.98027273544904 27.4849
33.00349259526636 27.4146
33.026713849030116 27.4037
33.04993649794511 27.3678
33.073341986570746 27.3593
33.09656744032826 27.3891
33.11979429286444 27.3984
33.14302254538647 27.4285
33.166433686291185 27.3234
33.18966475336992 27.1643
33.212897224069096 27.1873
33.23613109959831 27.1803
33.259547912343415 27.1166
33.2827846121627 27.1419
33.306022720453775 27.1579
33.32926223842861 26.96
33.352684742614166 27.0093
33.37592709463173 26.9003
33.399170859982064 26.9135
33.422597648419426 26.6999
33.44584425514446 26.7085
33.46909227885668 26.7129
33.4923417207723 26.5499
33.51577423505344 26.6648
33.539026528130385 26.5652
33.56228024307245 26.461
33.585535381098246 26.3553
33.60897364093058 26.3519
33.63223163992385 26.3
33.6554910656699 26.2333
33.678751919389796 26.2357
33.702195944520106 26.2055
33.72545966903325 26.1332
33.74872482519663 26.0748
33.771991414233746 26.1203
33.79544122444841 26.041
33.81871069412428 26.0153
33.84198160035767 25.9199
33.86525394437455 25.9989
33.88870955949969 25.8968
33.911984794020626 25.8522
33.93526147001624 25.8799
33.958539588715006 25.7746
33.98200102861669 25.7211
34.0052820477047 25.6828
34.02856451319451 25.636999999999997
34.05203033759056 25.5149
34.07531571090147 25.5588
34.09860253431845 25.5439
34.121890809074316 25.4115
34.145362493118924 25.4843
34.16865368561615 25.362
34.191946333164054 25.3788
34.21524043699793 25.3849
34.23871800066799 25.3576
34.26201503218366 25.2382
34.28531352370466 25.173000000000002
34.30861347646881 25.1685
34.33209693978188 25.1662
34.3553998301885 25.134
34.378704185565205 25.0849
34.402010007152356 24.9765
34.42549939016683 25.0492
34.44880815937748 24.8977
34.472118398533134 24.8284
34.49543010887669 24.7891
34.51892543169198 24.6441
34.54224009966052 24.7175
34.56555624255917 24.6598
34.58887386163339 24.6087
34.61237514439016 24.5243
34.6356957311114 24.5694
34.65901779775809 24.5033
34.68252356662995 24.4378
34.705848608458616 24.4428
34.72917513396849 24.4355
34.75250314440949 24.3817
34.77601490857862 24.3183
34.799345904259795 24.2121
34.82267838863559 24.366999999999997
34.846012362958525 24.226
34.869530142679984 24.2789
34.89286711232212 24.1806
34.91620557568269 24.1264
34.93954553401677 24.0791
34.9630693495876 24.066
34.986412313340814 24.0959
35.00975677584668 24.0924
35.033102738362956 24.0562
35.05663261012228 24.0089
35.0799815881786 24.0066
35.10333207003229 23.8797
35.12668405694369 23.9461
35.150220005273056 23.935
35.17357501786656 23.8062
35.19693153931268 23.8012
35.220289570874385 23.7564
35.24383161619786 23.8911
35.267192683604904 23.8567
35.290555264930376 23.6855
35.314101899412165 23.7203
35.33746752422433 23.7627
35.36083466676374 23.6672
35.38420332829803 23.6059
35.407756095629054 23.688000000000002
35.43112781085063 23.6677
35.45450104888391 23.6173
35.477875810999194 23.6384
35.50143473172161 23.5374
35.52481255774625 23.5858
35.54819191167777 23.6039
35.57157279478914 23.461
35.595137889488406 23.3801
35.61852184675279 23.3116
35.641907337029984 23.3467
35.665294361595684 23.250999999999998
35.68886565090076 23.2195
35.7122557598848 23.2335
35.73564740699838 23.2328
35.759040593519934 23.1645
35.78261809810353 22.9973
35.80601437933051 23.0404
35.829412203814705 22.9891
35.85281157283719 22.8847
35.876395313415884 22.9498
35.8997977874528 22.8782
35.92320180988546 22.8273
35.946790244133936 22.7675
35.97019737933222 22.8269
35.993606066789866 22.7171
36.01701630779276 22.6662
36.04061101440684 22.5819
36.06402437852291 22.6318
36.08743930005611 22.5987
36.1108557802951 22.4861
36.13445678011326 22.6112
36.15787639383515 22.4994
36.18129757014299 22.4405
36.20472031032821 22.4093
36.22832762423364 22.381999999999998
36.25175350829375 22.3565
36.275180960119776 22.3361
36.298609981005924 22.3088
36.32222362992669 22.2999
36.34565580510207 22.2426
36.36908955323448 22.2087
36.39252487562093 22.1033
36.416144880530226 22.0923
36.43958336764275 22.0843
36.463023432914625 22.0883
36.486465077645676 22.0871
36.51009145956204 22.0808
36.53353627947859 22.0555
36.55698268276811 22.0507
36.58043067073321 21.9704
36.60406345072071 21.8191
36.62751462435344 21.875999999999998
36.65096738658405 21.8636
36.67460498210655 21.84
36.69806093788647 21.8373
36.72151848619297 21.7097
36.744977628333636 21.7104
36.76862165890998 21.653000000000002
36.79208400512205 21.6027
36.81554794910557 21.6023
36.83901349217101 21.6058
36.862663978991606 21.499000000000002
36.88613273667352 21.5677
36.90960309738324 21.5127
36.933075062434064 21.4499
36.95673202673572 21.4424
36.98020721697122 21.3137
37.003684015502365 21.3106
37.027162423645365 21.2879
37.050825886711465 21.2365
37.07430753063053 21.1852
37.09779078812467 21.1704
37.121275660513014 21.1039
37.144945643673694 21.0764
37.16843376245278 21.1002
37.19192350009803 21.0522
37.215414857931435 20.9711
37.239091382563885 20.9699
37.262585997426164 20.9232
37.28608223645736 20.8912
37.309763684451696 20.883000000000003
37.33326318851098 20.8298
37.356764320726555 20.7683
37.380267082425526 20.8038
37.40395510942588 20.7699
37.42746114683234 20.6177
37.45096881771841 20.6079
37.474478123414166 20.6718
37.49817275092816 20.6657
37.52168534303452 20.5934
37.54519957395567 20.4961
37.568715445024665 20.4859
37.592416694607714 20.5212
37.61593586281424 20.4268
37.63945667518264 20.5179
37.66297913304891 20.4286
37.68668702630454 20.3758
37.710212792059274 20.3268
37.733740207334854 20.2607
37.757269273470364 20.241
37.780983832050374 20.1904
37.80451621684926 20.2448
37.82805025654007 20.2033
37.851585952464795 20.1068
37.8753071980695 20.0637
37.89884622345676 20.0638
37.92238690911902 20.0251
37.94611318753442 19.9326
37.969657210779765 19.9045
37.99320289834801 19.9535
38.016750251586465 19.8604
38.04048325513017 19.8779
38.06403395679343 19.7997
38.087586328183946 19.7633
38.11114037065203 19.7275
38.13488012115898 19.7816
38.1584375229181 19.6808
38.181996599821 19.6405
38.205557353221124 19.6065
38.229303872575656 19.5641
38.2528679961576 19.553
38.27643380031219 19.5516
38.30000128639589 19.5018
38.32375459653193 19.5216
38.34732546371299 19.5692
38.37089801690786 19.4408
38.39447225747609 19.3738
38.418232380377425 19.3473
38.441810012983396 19.3718
38.46538933705673 19.3441
38.488970353960084 19.3427
38.51273731166058 19.2349
38.536321731567014 19.192
38.55990784840681 19.1826
38.58367995004091 19.1171
38.60726947812959 19.0135
38.63086070726198 19.1037
38.654453638806274 19.0945
38.678232613930824 19.0882
38.70182896773327 19.0002
38.72542702806741 18.9619
38.7490267963045 18.9033
38.77281266709232 18.8805
38.79641586862214 18.9196
38.8200207821842 18.8065
38.843627409152944 18.8122
38.86742019782782 18.820999999999998
38.891030269149255 18.6905
38.914642058016156 18.722
38.938255565806124 18.7315
38.96205529464307 18.6902
38.98567225787121 18.6733
39.00929094417078 18.6229
39.03291135492255 18.6282
39.05671804624804 18.5575
39.080341923549106 18.5438
39.103967529460334 18.4554
39.127594865365744 18.3853
39.15140854155791 18.3634
39.17503935514948 18.3218
39.19867190290282 18.3164
39.22249083587951 18.3356
39.24612686969409 18.3367
39.269764641845306 18.3007
39.293404153722804 18.2232
39.317230110864074 18.2418
39.34087311998506 18.1982
39.36451787301696 18.1396
39.388164371352595 18.0734
39.41199737518003 18.0367
39.43564738196752 18.0693
39.45929913825317 18.0618
39.48295264543308 17.9789
39.506792718520884 18.0002
39.530449745387216 17.913
39.55410852735203 17.9125
39.57776906581474 17.9243
39.60161623079 17.949
39.625280300200025 17.8618
39.64894613032202 17.8435
39.67261372255866 17.8077
39.6964680021016 17.7906
39.72013913657293 17.7519
39.74381203738292 17.7078
39.76748670593756 17.6909
39.79134812278169 17.6741
39.81502634488497 17.6711
39.83870633896685 17.6442
39.862388106436654 17.592
39.88625668336918 17.5597
39.90994201572829 17.5745
39.933629125719285 17.5182
39.957503091207826 17.46
39.9811937746168 17.442999999999998
40.00488623990914 17.3969
40.02858048850006 17.4217
40.05246165409549 17.3103
40.076159487492085 17.2947
40.099859108448875 17.2694
40.123560518384345 17.2858
40.1474489070226 17.2302
40.171153913178564 17.2226
40.194860712584955 17.2146
40.2185693066637 17.2024
40.242464941335314 17.1153
40.26617714307655 17.1026
40.289891143772046 17.0808
40.3136069448471 17.0612
40.33750984859743 17.0398
40.3612292688043 17.0124
40.3849504936829 16.9624
40.40867352466194 16.9843
40.43258372059144 16.9055
40.45631038219906 16.9283
40.48003885420956 16.8721
40.503769138055105 16.8375
40.52768664931955 16.8427
40.55142057531802 16.7618
40.57515631746428 16.7666
40.599079334038514 16.7707
40.62281872700477 16.6632
40.64655994043941 16.6988
40.67030297578061 16.7107
40.69423334835778 16.6555
40.71798004609188 16.6458
40.74172857006355 16.5777
40.76547892171441 16.5547
40.7894166736039 16.4946
40.813170699248566 16.462
40.83692655691388 16.4525
40.86068424804498 16.4333
40.884629402612525 16.4417
40.908390779366385 16.391
40.932153993938 16.3868
40.95591904777605 16.3617
40.979871628443995 16.3484
41.003640379561936 16.3164
41.02741097430883 16.3032
41.05118341413683 16.2395
41.075143444384416 16.2909
41.098919593177826 16.2499
41.1226975914255 16.1551
41.14647744058318 16.1117
41.170444943946755 16.1456
41.19422851378379 16.0742
41.218013938914645 16.0657
41.24198706625173 15.9843
41.26577622087193 16.0081
41.289567235177785 15.9366
41.31336011063129 15.9508
41.337340752422875 15.9008
41.361137369129835 15.9252
41.38493585138705 15.8641
41.40873620066004 15.842
41.43272438060107 15.8282
41.45652848292052 15.7545
41.48033445666918 15.734000000000002
41.50414230331616 15.7199
41.528138045159764 15.6882
41.551949656675205 15.6461
41.575763145513235 15.6699
41.59957851314666 15.6364
41.62358184070442 15.6126
41.64740098505737 15.5144
41.6712220126409 15.5475
41.69504492493139 15.5154
41.71905586207357 15.5189
41.74288256296395 15.4541
41.766711153007456 15.4337
41.79054163368412 15.4136
41.814560204340054 15.4493
41.838394485526365 15.4101
41.86223066180303 15.3418
41.88625497706819 15.2979
41.910094962812 15.2419
41.93393684811168 15.2887
41.95778063445365 15.1784
41.981812625263366 15.2032
42.00566023303407 15.1531
42.029509746323676 15.097999999999999
42.05336116662236 15.100999999999999
42.077400857069705 15.0646
42.10125611078846 15.0868
42.12511327600405 15.056
42.14897235421036 15.0629
42.173019768448455 15.0319
42.19688269209613 14.9758
42.22074753323349 14.9706
42.24461429335818 14.9168
42.268669455600495 14.9212
42.292540073217886 14.9052
42.31641261433284 14.8235
42.34028708044675 14.7965
42.36435001496739 14.8409
42.38822835065557 14.8021
42.41210861586426 14.7481
42.4359908120986 14.7639
42.46006154323262 14.689
42.48394762115317 14.6126
42.507835634632315 14.6131
42.531912233047436 14.6459
42.55580413732265 14.6421
42.579697981698 14.6171
42.60359376768525 14.5724
42.62767820545945 14.5335
42.65157789440821 14.5262
42.67547952952185 14.4889
42.699383112316 14.4839
42.72347541395347 14.4156
42.74738291190531 14.4106
42.771292362102166 14.3874
42.795203766063516 14.3721
42.819303956130405 14.3661
42.843219287476536 14.3684
42.86713657716324 14.2916
42.89105582671383 14.23
42.91516392983864 14.2161
42.939087119032166 14.2261
42.963012272677304 14.1919
42.98693939230129 14.1646
43.01105543317513 14.0974
43.034986504731386 14.1199
43.05891954686589 14.0637
43.08285456110972 14.0683
43.10697856448665 14.0222
43.130917542983475 14.0163
43.15485849820081 14.012
43.17880143167367 13.9573
43.20293342237094 13.9042
43.226880332449 13.880999999999998
43.25082922540554 13.9052
43.27496722682525 13.868
43.29892010567796 13.8221
43.32287497204102 13.800999999999998
43.34683182745632 13.7808
43.370977859791836 13.755999999999998
43.39493871351105 13.786
43.41890156092628 13.7451
43.44286640358341 13.7041
43.46702049182749 13.7208
43.49098934522816 13.6997
43.51496019852649 13.6567
43.5389330532723 13.6252
43.56309522248204 13.582
43.58707210044314 13.5415
43.61105098451946 13.5321
43.63503187626491 13.5047
43.659202151562134 13.4701
43.68318707902681 13.5044
43.70717401884041 13.459000000000001
43.731162972560874 13.4172
43.75534137913236 13.4007
43.779334381108384 13.39
43.803329401683186 13.3386
43.82732644241872 13.3175
43.8515130055166 13.3388
43.87551410707659 13.3179
43.89951723350145 13.2973
43.923709934595614 13.2534
43.94771713129917 13.2406
43.97172635758096 13.2371
43.99573761501002 13.1781
44.0199385169922 13.1626
44.04395385732619 13.1169
44.067971233533086 13.1195
44.09199064718605 13.0583
44.11619977548961 13.0376
44.14022328470671 13.0225
44.16424883610785 12.9985
44.18827643127035 13.0538
44.21249381139513 13.0204
44.236525514814076 12.9242
44.26055926674478 12.9101
44.28459506876863 12.9426
44.3088207262813 12.8674
44.33286064928722 12.8005
44.35690262714919 12.8168
44.38094666145278 12.7428
44.4051806219871 12.8013
44.42922879003185 12.7541
44.45327901929361 12.7263
44.477331311362136 12.7273
44.501573600619416 12.6571
44.525630039221795 12.6433
44.54968854541895 12.6281
44.573937102200176 12.6161
44.5979997645541 12.6152
44.622064499300315 12.5435
44.64613130803592 12.5557
44.67038823869318 12.5861
44.69445921643748 12.5601
44.718532272981385 12.4749
44.742607409926194 12.5199
44.76687274034801 12.4521
44.79095205918753 12.4428
44.81503346325094 12.4096
44.839116954143876 12.4168
44.86339071028742 12.360999999999999
44.88747839599524 12.3586
44.91156817336837 12.2959
44.93566004401666 12.3296
44.959942251908146 12.3136
44.984038330325966 12.2528
45.00813650686762 12.2169
45.03223678314731 12.2391
45.05652746888232 12.2002
45.08063196592069 12.1517
45.104738567558705 12.1523
45.128847275414856 12.1289
45.15314646515866 12.0858
45.17725940679741 12.0943
45.20137445952892 12.0083
45.22568004865265 12.0409
45.24979934496396 12.0291
45.27392075725247 12.0525
45.29804428714431 11.9489
45.322358426247604 12.0007
45.346486212804315 11.9666
45.370616121861914 11.9094
45.39474815505086 11.918
45.41907087049246 11.8506
45.4432071734666 11.7943
45.46734560548283 11.8347
45.49148616817604 11.8319
45.51581748638564 11.8341
45.5399623320197 11.7603
45.56410931325473 11.7285
45.58825843173002 11.7596
45.61259837920865 11.719000000000001
45.636751793816 11.7033
45.66090735060093 11.6678
45.68506505120716 11.6199
45.7094136545275 11.5711
45.73357566449271 11.5621
45.75773982322992 11.5666
45.78190613238733 11.567
45.806263418194064 11.5024
45.83043404997326 11.5595
45.85460683713677 11.5227
45.87897065658495 11.478
45.90314777634752 11.4679
45.92732705646868 11.4401
45.9515084986045 11.3997
45.97588104735473 11.3894
46.00006683541565 11.3673
46.02425479047904 11.3762
46.04844491420549 11.3645
46.0728262191024 11.3156
46.09702070211635 11.3018
46.12121735879483 11.2847
46.14541619080294 11.2461
46.169806278764455 11.2569
46.194009483459034 11.2346
46.21821486849841 11.1948
46.24242243555223 11.1341
46.266821333570014 11.126
46.29103328674601 11.1339
46.31524742696538 11.1525
46.33946375590237 11.079
46.36387149104216 11.0879
46.38809221957392 11.03
46.41231514186606 11.0524
46.436540259597464 11.0731
46.460956858999374 11.0113
46.48518638983522 10.952
46.509418121166966 10.9234
46.533652054678114 10.9213
46.55807754555709 10.8969
46.58231590571962 10.9523
46.60655647313217 10.8473
46.630988654873654 10.8348
46.655233659129024 10.8347
46.67948087571551 10.8438
46.70373030632484 10.7919
46.72817142736393 10.7663
46.752425308428684 10.7529
46.77668140861147 10.7487
46.80093972960865 10.7052
46.82538981736788 10.6615
46.849652602470904 10.6548
46.87391761349769 10.6855
46.8981848521493 10.6222
46.9226439341274 10.5943
46.946915650573224 10.594000000000001
46.97118959976749 10.594000000000001
46.99546578341598 10.5234
47.019933887188216 10.5291
47.04421456235744 10.5131
47.06849747711879 10.5073
47.09278263318286 10.4304
47.11725978640143 10.4389
47.14154944775105 10.4196
47.165841355555656 10.4329
47.1901355115306 10.4086
47.214621741924994 10.3498
47.23892041698887 10.3903
47.26322134538975 10.3525
47.28771440635075 10.3329
47.31201986422527 10.34
47.33632758061436 10.2752
47.360637557241866 10.2401
47.38513974410611 10.2344
47.40945426407847 10.2117
47.43377104948137 10.2262
47.45809010204344 10.2181
47.48260144275502 10.1862
47.506925052572285 10.127
47.53125093475548 10.1277
47.55557909103813 10.1004
47.58009961361992 10.0929
47.60443234110732 10.0689
47.62876734791564 10.0752
47.65310463578333 10.0523
47.6776343683373 10.0445
47.7019762413987 9.98225
47.72632040075572 9.98204
47.75066684815169 9.95878
47.77520581885936 9.914480000000001
47.799556865477655 9.94333
47.823910205386 9.94213
47.84826584033272 9.88062
47.87281407745551 9.86311
47.89717432569297 9.875910000000001
47.92153687423484 9.87242
47.94609208429692 9.83724
47.97045925671401 9.81569
47.99482873471275 9.75672
48.01920052005013 9.7729
48.04376504619224 9.73329
48.068141469543484 9.76625
48.09252020552573 9.74104
48.11690125590099 9.6869
48.1414751266064 9.6523
48.16586082917454 9.67169
48.19024885144316 9.6404
48.2146391951793 9.623439999999999
48.239222439012764 9.62759
48.26361744916137 9.57644
48.28801478610016 9.58822
48.31241445160131 9.568769999999999
48.337007097209366 9.5478
48.36141144338331 9.50318
48.38581812345755 9.480210000000001
48.41022713920929 9.48259
48.434829215320704 9.490089999999999
48.45924292604658 9.4716
48.48365897780325 9.45398
48.50807737237308 9.46146
48.532688907799276 9.43926
48.55711201168574 9.38551
48.581537463754074 9.36859
48.60615611725119 9.40362
48.63058628942721 9.37031
48.65501881516546 9.32128
48.6794536962573 9.30216
48.70408185970339 9.31607
48.72852147531801 9.273610000000001
48.75296345168211 9.24901
48.77740779059232 9.23943
48.80204549302823 9.25255
48.82649458091802 9.165189999999999
48.85094603676547 9.13129
48.87539986237231 9.15185
48.90004713292306 9.16537
48.92450572200832 9.11558
48.94896668628025 9.11335
48.97343002754588 9.08991
48.99808689542115 9.08067
49.02255501470614 9.08003
49.04702551642794 9.07163
49.0714984023988 9.02045
49.096164896893235 9.01408
49.120642575466796 8.98382
49.145122643748394 8.98832
49.16960510355558 8.93435
49.19428125404938 8.93259
49.2187685210852 8.949810000000001
49.243258185121555 8.92487
49.26794160167084 8.88136
49.2924360839405 8.87583
49.31693296869764 8.86205
49.34143225776915 8.846689999999999
49.36612538195438 8.82525
49.39062950396021 8.8148
49.41513603578346 8.80759
49.4396449792564 8.7663
49.46434784069503 8.80417
49.488861631846454 8.74033
49.513377840166804 8.72875
49.537896467493745 8.70763
49.56260909589029 8.66744
49.587132585683285 8.64212
49.611658500018365 8.62969
49.636186840738596 8.621319999999999
49.66090926588511 8.6285
49.685442483902584 8.58283
49.70997813385706 8.53936
49.734516217597076 8.56354
49.75924846937352 8.56363
49.7837914452858 8.554219999999999
49.80833686055187 8.48468
49.83288471702571 8.50223
49.85762682540054 8.50409
49.882179588965734 8.46083
49.9067347993235 8.4467
49.93129245833333 8.432739999999999
49.95604445336378 8.439119999999999
49.98060703442832 8.416780000000001
50.005172069746266 8.39733
50.02993150438364 8.408760000000001
50.05450147301533 8.34031
50.07907390151433 8.332939999999999
50.10364879174981 8.36588
50.12841816587289 8.30706
50.1529980044635 8.30953
50.17758031042124 8.28099
50.20216508562089 8.247160000000001
50.22694442953363 8.25465
50.25153416817468 8.20543
50.27612638170508 8.20862
50.300721072005196 8.18174
50.325510416102105 8.156239999999999
50.350110084975064 8.16553
50.37471223628208 8.11421
50.39931687190919 8.11314
50.424116246675766 8.10197
50.44872587605249 8.11072
50.47333799543065 8.10024
50.49795260670191 8.080789999999999
50.52276204271512 8.06179
50.54738166295838 8.04296
50.57200378079314 8.05265
50.596628398116835 8.03731
50.62144792604559 8.00018
50.646077567609396 7.992369999999999
50.670709714377715 7.9784
50.69553683636198 7.97267
50.72017401885922 7.94411
50.7448137122895 7.936660000000001
50.76945591856022 7.8952100000000005
50.79429318636823 7.85894
50.818940443716784 7.85959
50.84359021965163 7.87701
50.868242516085964 7.86895
50.893089960641895 7.81928
50.917747323549435 7.82373
50.94240721271973 7.7911399999999995
50.96706963007175 7.7822
50.99192728239342 7.746760000000001
51.01659478166073 7.794
51.04126481489051 7.76825
51.06593738400761 7.7410000000000005
51.090805275207074 7.7103600000000005
51.11548294172845 7.703289999999999
51.14016314993547 7.7164600000000005
51.164845901758845 7.670960000000001
51.18972406304274 7.66913
51.21441192780656 7.61579
51.23910234200271 7.62628
51.2637953075678 7.64324
51.288683770237945 7.568460000000001
51.31338186432707 7.56312
51.33808251561888 7.5155899999999995
51.362978729967345 7.53193
51.387684521509755 7.527830000000001
51.41239287610203 7.52377
51.437103795691165 7.479830000000001
51.46201036644977 7.45938
51.486726441956634 7.42847
51.51144508832545 7.411160000000001
51.536166307509156 7.398110000000001
51.56108326624387 7.40677
51.58580965706056 7.428489999999999
51.61053862657523 7.38789
51.635270176746864 7.3613100000000005
51.66019755512065 7.35808
51.68493429268881 7.34081
51.70967361681515 7.32257
51.73441552946465 7.285419999999999
51.759353359237934 7.28567
51.7841004750961 7.2869399999999995
51.80885018539685 7.260610000000001
51.833602492111254 7.24069
51.8585508051424 7.246239999999999
51.883308330926425 7.254010000000001
51.90806845906181 7.20874
51.932831191525715 7.15556
51.95779001977161 7.11947
51.98255798721516 7.144419999999999
52.00732856494335 7.14417
52.03229530577543 7.125719999999999
52.057071130455945 7.114660000000001
52.081849571391054 7.09963
52.106630630568695 7.087689999999999
52.13160794279417 7.058839999999999
52.15639426492067 7.08783
52.18118321127822 7.04961
52.205974783860896 7.01318
52.23096269971011 7.0216
52.255759551287994 6.98947
52.280559035098186 6.9752
52.30536115314103 6.9528300000000005
52.33035970494467 6.940119999999999
52.35516711807904 6.951689999999999
52.37997717147198 6.9250300000000005
52.40478986713005 6.9408
52.42979908731974 6.894139999999999
52.454617094216 6.886839999999999
52.47943774942214 6.83401
52.50426105495102 6.83559
52.529280976059844 6.8191
52.554109609024096 6.821860000000001
52.57894089837482 6.80284
52.60377484613117 6.82171
52.62880550079408 6.77568
52.65364479223379 6.752610000000001
52.67848674816189 6.747160000000001
52.70352547971946 6.721480000000001
52.72837279155837 6.725439999999999
52.753222773982785 6.71651
52.778075429022984 6.71263
52.80312495150885 6.712210000000001
52.827982978797436 6.6904
52.85284368481815 6.62938
52.87770707160767 6.621389999999999
52.90276741793998 6.61578
52.92763619336701 6.650860000000001
52.952507655698504 6.595789999999999
52.977381806977576 6.564830000000001
53.00245301017842 6.5674600000000005
53.02733256653592 6.581930000000001
53.052214817996074 6.5748
53.077099766608484 6.5131
53.102181859804446 6.51959
53.127072229988265 6.4977
53.15196530349892 6.49149
53.17686108239249 6.449269999999999
53.20195409881522 6.47504
53.22685531582556 6.44105
53.25175924441303 6.401330000000001
53.27666588664027 6.39655
53.30176985962693 6.46132
53.3266819565689 6.3967
53.35159677336455 6.36921
53.376514312083096 6.38163
53.40162927507703 6.35302
53.42655228516116 6.326630000000001
53.45147802340193 6.31891
53.47660125628886 6.27219
53.50153247842639 6.30194
53.52646643496923 6.2398
53.55140312799818 6.2617400000000005
53.576537409691696 6.26946
53.60147960336152 6.23144
53.626424539786164 6.213769999999999
53.65137222105307 6.20937
53.67651758529126 6.22807
53.70147078399681 6.1677
53.72642673383343 6.1596400000000004
53.75138543689533 6.18724
53.776541917524526 6.1428199999999995
53.801506154876755 6.13689
53.826473151763246 6.11439
53.851442910284916 6.10618
53.87661054126026 6.0908
53.9015858509782 6.05806
53.92656392866066 6.08226
53.95154477641532 6.0294
53.976723591801296 6.00588
54.00171000771266 5.99986
54.02669920004598 6.028630000000001
54.051691170915745 5.9596599999999995
54.076881204886796 5.99934
54.101878760928514 6.02453
54.12687910187696 5.95045
54.152077577768296 5.95602
54.1770835166946 5.9080699999999995
54.20209224691339 5.94526
54.22710377055121 5.8752699999999995
54.25231352511594 5.87729
54.27733066384342 5.83135
54.30235060239643 5.82139
54.32737334290836 5.826169999999999
54.35259441062629 5.76401
54.377622783395324 5.831869999999999
54.40265396455061 5.81387
54.42768795623251 5.80971
54.45292037169559 5.75385
54.477960012857906 5.77626
54.50300247099511 5.71367
54.52804774825457 5.71036
54.55329154616743 5.68122
54.57834249018678 5.69707
54.6033962597977 5.67028
54.6284528571545 5.63445
54.653708072335164 5.61206
54.67877035378786 5.65647
54.70383546947698 5.548830000000001
54.72890342156389 5.59744
54.7541700889442 5.51922
54.77924374251975 5.49364
54.8043202390049 5.51457
54.82959552413022 5.50903
54.8546777351945 5.48683
54.87976279569621 5.4439
54.90485070780914 5.44728
54.930137506558005 5.4051
54.95523115074295 5.4189099999999994
54.98032765308844 5.40672
55.005427015775496 5.37439
55.03072536339621 5.37131
55.05583047570572 5.34129
55.080938454927676 5.27163
55.10604930325027 5.2990900000000005
55.131359235107396 5.25305
55.15647585066083 5.22684
55.181595341907496 5.20498
55.20671771104285 5.15817
55.232039262617704 5.1429599999999995
55.25716741665048 5.1742300000000006
55.28229845518636 5.096430000000001
55.30743238042802 5.01912
55.33276558731939 5.07124
55.357905315183636 5.07261
55.383047936390035 5.03828
55.40819345314859 5.01536
55.433538351073295 4.99338
55.458689688238415 4.975219999999999
55.483843927614096 4.9111
55.509197623043605 4.9166
55.53435769621134 4.86099
55.55952067826466 4.89619
55.5846865714265 4.86512
55.61005202069737 4.80612
55.63522376553902 4.82137
55.66039842818645 4.77003
55.68557601087004 4.78694
55.7109532500271 4.76039
55.73613670233794 4.79237
