TT I
1.2716486653135266 35.5443
1.2939594142134223 36.1878
1.3162702121660406 34.8502
1.3385810600174564 34.4874
1.3608919586137629 34.5196
1.383202908801069 32.9812
1.405513911425503 30.2056
1.4278249673332093 31.6445
1.4501343378461518 31.2377
1.4724455028545926 30.3119
1.4947567236847858 30.4828
1.517068001182951 28.8849
1.5393793361953272 28.7114
1.5616907295681737 28.0812
1.5840021821477681 28.458000000000002
1.60631369478041 27.7713
1.6286252683124185 27.2357
1.6509369035901333 26.206999999999997
1.6732468618895553 26.1223
1.695558623192809 25.2737
1.7178704487808514 25.9268
1.7401823395001077 25.756999999999998
1.7625012545597203 25.8553
1.7848028405262486 25.4664
1.8071218901122095 25.5768
1.8294236121921872 24.3697
1.8517427996910911 24.9481
1.8740620574440425 24.939
1.8963639900671978 24.6405
1.9186833908139995 24.4269
1.9409854680117449 24.9461
1.9633050151394713 24.5698
1.9856246367570705 24.7531
2.0079269371922672 24.9913
2.03024671027244 24.7061
2.0525491637446027 25.123
2.074869091674931 24.8646
2.097171701569106 24.4611
2.1194917877373847 25.0987
2.141811954326636 25.5376
2.164114805233074 25.2933
2.186435135143035 25.8299
2.208738150935709 26.2518
2.231058647554722 26.2073
2.2533792288321184 26.3265
2.275682498336085 26.3111
2.298003251406138 26.3203
2.3203066942619714 26.1319
2.3426276225136022 25.8439
2.3649486396617507 25.9776
2.387252348930071 26.0963
2.4095735463442893 25.4378
2.4318774374315884 25.3105
2.4541988185014043 25.6184
2.476502894794693 25.7932
2.498824462909887 26.1335
2.521146125856138 26.1713
2.5434504863470337 25.9962
2.5657723414244717 26.2857
2.588076895590662 27.5191
2.610398946189713 27.1829
2.6327210958598384 27.3104
2.6550259469304716 27.0873
2.6773482972090137 28.5168
2.6996533504259 28.3121
2.7219759047039602 29.0483
2.744298562293959 30.5978
2.7666039251246595 31.8868
2.7889267918020164 33.4046
2.8112323652516555 34.3117
2.833555444408179 35.7223
2.8558786311183852 37.9764
2.8781845268938557 39.2967
2.9005079311721484 41.2437
2.9228140460410397 43.2835
2.9451376712799635 46.483999999999995
2.967444008632326 48.9517
2.9897678582247247 53.2957
3.0120918213106695 57.5933
3.0343984987899373 61.2582
3.0567226913198637 65.6162
3.079029599759726 70.8802
3.101354025127254 76.3556
3.123678568232338 80.2432
3.145985829517914 82.8658
3.16831061055229 84.6679
3.1906181112775593 83.6967
3.212943133635653 82.5634
3.2352682779763207 78.0774
3.2575761442691227 73.7866
3.2799015350264273 67.6857
3.302209649240067 62.1811
3.3245352898092655 57.3365
3.3468436553365257 52.5873
3.369169549113219 49.0432
3.3914955708171384 46.3361
3.413804319727358 42.8449
3.4361305997334863 40.7258
3.4584396084414553 39.8175
3.4807661501462652 39.3019
3.503092824025881 38.7436
3.5254022288463154 38.1498
3.5477291695206588 38.0671
3.5700388426251948 38.1861
3.5923660534916446 38.9627
3.6146934007816114 39.2917
3.637003482731501 39.8952
3.6593311053109985 40.4165
3.681641464033634 40.7328
3.7039693653009733 40.8373
3.726297407241705 41.1743
3.7486081875460804 40.8056
3.7709365132734978 40.4271
3.793247578841633 40.4151
3.8155761917550093 39.7502
3.8378875459837216 39.6193
3.8602164494827234 38.9768
3.882545499606844 39.5607
3.9048572932539183 40.4444
3.9271866390645718 41.0611
3.9494987298666713 41.8148
3.971828374764527 42.1444
3.9941581705403255 42.4268
4.016470713506008 43.3814
4.038800813471445 44.9824
4.061113662089144 46.184
4.0834440696459176 48.7797
4.105774632334751 50.5589
4.128087945865126 52.9338
4.150418821249301 55.4353
4.172732448931298 59.2464
4.195063640413578 63.0737
4.2173775856475215 66.8248
4.239709096631102 70.8437
4.262040768704612 75.2068
4.284355196706267 78.5527
4.306687193387355 80.6257
4.329001947444346 81.9552
4.35133427213731 80.3437
4.373666762177566 77.5048
4.395982011761091 74.2774
4.418314834921175 71.1827
4.44063041906622 68.1687
4.4629635787515625 65.7994
4.4852969080429785 63.7429
4.5076130004776225 61.6797
4.529946671403969 59.2906
4.552263106909177 56.1555
4.574597122877047 54.8948
4.596931312711224 53.2039
4.619248269273446 52.1271
4.6415828092605835 51.0914
4.663900117405352 49.8588
4.686235010953232 49.5658
4.708552674085913 49.8232
4.730887924602802 50.4276
4.753223354952695 50.858999999999995
4.775541557023902 51.4102
4.797877349456786 52.3224
4.820195915032126 54.5269
4.842532072957498 55.7252
4.864868414979744 57.2498
4.88718753227192 59.7241
4.909524244902505 62.1275
4.931843734218147 65.065
4.954180820867835 68.96300000000001
4.976518095879839 74.0296
4.998838149695359 79.464
5.021175803844231 87.8744
5.043496238205739 99.5514
5.065834274903528 111.598
5.088172504230693 121.87
5.1104935158799565 133.79
5.132832132875765 150.653
5.155153533596801 173.86700000000002
5.1774925416746225 206.417
5.199814334878411 260.721
5.2221537374521505 361.89099999999996
5.244493338631803 524.073
5.266815727034316 749.051
5.289155727832427 1089.55
5.311478517248165 1798.51
5.333818921080011 2947.78
5.356159527788849 4178.92
5.3784829252032536 3933.61
5.400823940070432 2606.1
5.423147747031976 1301.92
5.445489173474152 643.331
5.467830807066149 390.376
5.490155234831516 281.873
5.512497285125229 219.56099999999998
5.534822130975162 183.25799999999998
5.557164601388673 159.113
5.579489868738879 139.607
5.601832762690846 127.238
5.6241758697774475 118.26700000000001
5.646501775867269 113.135
5.668845311622074 108.54700000000001
5.691171647754637 105.962
5.713515615597765 102.896
5.735859800852677 100.089
5.758186788542988 97.6336
5.780531411018185 95.4545
5.802858837297399 95.0977
5.825203900414495 95.8562
5.8475491852224 97.5894
5.869877275883075 100.431
5.892223006467101 104.447
5.914551544266608 109.23299999999999
5.936897724049891 116.537
5.959244129804903 126.265
5.981573344815301 142.488
6.0039202049061 166.44400000000002
6.026249875609095 204.08900000000003
6.04859719346037 256.943
6.070927323278297 330.79
6.093275102315365 434.69
6.115623113320588 555.1759999999999
6.137953938319995 762.9830000000001
6.160302415650845 1089.74
6.182633708324452 1293.22
6.2049826554078376 1186.92
6.227331838745022 825.183
6.249663839443684 512.197
6.27201349767565 332.95300000000003
6.294345974611799 236.543
6.316696111167083 173.32
6.339046488263839 135.266
6.361379686074702 111.92
6.383730546639482 96.8321
6.406064229255215 85.3577
6.428415576718203 78.6895
6.450749747566656 73.0498
6.47310158535871 68.2412
6.495453669698332 64.6094
6.517788579421056 61.8156
6.540141159237969 59.8214
6.562476565766648 57.7968
6.5848296444934045 56.6059
6.607182974060425 55.6753
6.6295191323281015 55.1815
6.651872965955752 54.863
6.6742096296068985 54.3765
6.6965639707294615 54.4954
6.71891856698715 54.3252
6.741255995248479 53.9507
6.763611104154477 54.0257
6.785949046381137 53.4134
6.808304671371482 52.3964
6.8306605557940046 51.8438
6.852999275508618 50.8236
6.875355681171544 50.3537
6.897694923437771 49.2009
6.92005185377892 48.5538
6.9423916220322655 47.678000000000004
6.964749080490181 46.8137
6.987106804399774 46.4472
7.009447368180821 46.431999999999995
7.031805625367033 46.5274
7.054146723727803 46.559
7.076505517631004 46.4948
7.098864581288365 46.9741
7.121206488070854 47.628
7.143566093607822 48.0803
7.165908543567245 49.0743
7.188268694426048 50.3267
7.2106291193438095 51.4678
7.232972390625943 53.3182
7.255333366030969 54.9841
7.277677189091925 58.185
7.300038718428332 62.3386
7.322400526130865 65.8175
7.344745183422596 68.9802
7.367107550224791 70.1944
7.389452767901992 69.7578
7.411815697249891 67.1425
7.434161478756298 64.1916
7.456524974096713 61.4705
7.478888753837185 59.3982
7.501235387657368 59.1071
7.523599738562711 60.9685
7.545946944825532 70.3345
7.568311870344528 95.6507
7.5906770845765665 138.73
7.613025156078678 160.889
7.635390950099687 130.548
7.657739602662809 86.3398
7.680105979923558 58.7569
7.702472650212829 48.5932
7.724822180948224 44.3768
7.747189439655568 42.3555
7.769539560075357 40.6207
7.791907410653562 40.0481
7.81425812420825 39.2601
7.836626570110925 39.1822
7.858995315087906 38.9923
7.881346924933401 38.4792
7.903716270417482 38.4837
7.926068482028405 38.4123
7.948438431475253 38.5658
7.9708086843180235 38.8667
7.993161805171116 39.2191
8.015532667162402 38.8435
8.037886398416653 39.3192
8.060257873014221 39.7185
8.082629655331942 39.8968
8.104984308787587 40.5402
8.127356708900503 40.9029
8.149711981398308 41.3984
8.172085002766314 42.0777
8.194458336181368 42.6966
8.216814543847752 43.2708
8.23918850371002 44.4125
8.26154533906492 44.9389
8.283919928836452 46.159
8.306277395339652 46.6322
8.328652618483376 47.894
8.351028159736202 49.3384
8.373386579575245 51.261
8.395762759396959 52.912
8.418121819038275 55.6768
8.440498640894003 59.181000000000004
8.462875785192262 62.8419
8.485235811156207 67.6741
8.507613602688501 74.3443
8.529974277114228 84.6396
8.552352719347912 97.9409
8.574731488360351 119.771
8.59709314210385 150.45600000000002
8.619472567021075 180.405
8.64183487789147 206.851
8.664214962183097 253.66099999999997
8.686577933647762 348.39099999999996
8.708958680784317 513.5930000000001
8.731339760774953 706.013
8.753703729764451 816.321
8.77608547780821 704.304
8.798450116065078 494.079
8.820832535634787 314.094
8.843215292401656 203.396
8.865580941199045 146.122
8.887964374703538 115.984
8.910330701447199 98.1708
8.932714815164482 86.6677
8.955099270424924 78.6791
8.977466620733543 73.2561
8.999851761421976 69.8847
9.022219798361645 66.9644
9.04460562795561 64.1829
9.066991803441677 62.5775
9.089360876979615 61.1139
9.111747746589993 59.5997
9.13411751544971 58.683
9.156505082664324 58.6152
9.178875550323522 59.4454
9.20126381862328 61.5149
9.223652438908596 66.4564
9.246023961427412 79.3219
9.26841328802173 115.17399999999999
9.290785518039224 182.582
9.313175554425882 249.572
9.335565947154315 244.463
9.357939245086508 172.017
9.380330352834827 106.54299999999999
9.40270436697103 72.9969
9.425096193225055 60.695
9.447488380180165 56.522
9.469863475295412 53.9523
9.492256385987508 52.6058
9.514632206018318 51.7346
9.537025843935714 51.1572
9.559402392368193 50.7526
9.581796761000229 50.7422
9.604191496441521 50.9054
9.626569144158516 50.8987
9.648964615551032 51.2649
9.671343000390081 51.6621
9.693739211225699 52.3731
9.716135793237463 52.9244
9.738515290448102 53.2491
9.760912617143402 53.8485
9.783292860202891 54.6348
9.805690935076182 55.6213
9.828089385495742 56.6377
9.850470754023561 57.897
9.872869957865444 59.7426
9.89525208097539 61.6825
9.917652041736662 64.1887
9.940052382417589 66.8434
9.962435644102392 71.1035
9.984836746950979 75.9647
10.007220771957746 82.7259
10.029622640473708 94.0082
10.052007432299963 110.999
10.074410069984072 130.904
10.096813093716005 155.205
10.119199042482517 176.09400000000002
10.141602840636468 195.36
10.163989564971628 228.195
10.186394141051062 305.066
10.208799107559706 440.843
10.231187001965623 625.636
10.253592751657669 800.2510000000001
10.275981430388155 806.684
10.298387966769793 633.863
10.320794897965431 436.52099999999996
10.343184759907361 281.276
10.36559248305461 188.30599999999998
10.387983138083852 139.6
10.410391656691655 113.41
10.432800574501677 97.8745
10.455192425893369 88.0759
10.47760214443012 83.5985
10.499994797678786 82.1659
10.522405320453982 83.7809
10.54479877906917 88.0131
10.567210109595656 90.0776
10.5896218454736 91.8009
10.612016518879773 97.2065
10.634429067781074 111.52600000000001
10.656824555333241 140.688
10.679237920773568 192.36900000000003
10.701651695961992 257.63
10.724048411481384 299.065
10.746463008485165 285.09
10.768860546937125 232.838
10.791275969274796 164.0
10.81369180576079 111.03399999999999
10.836090585366925 79.7262
10.858507252467449 63.966
10.88090686379991 56.0645
10.903324365036394 51.736999999999995
10.925724811614439 48.7615
10.948143150509463 47.3697
10.970561909719066 45.8397
10.992963615930844 44.8433
11.015383218085756 43.8745
11.037785768347074 43.331
11.06020621697282 43.0723
11.082627090322113 42.5308
11.105030913430326 42.1755
11.12745263854165 41.8246
11.149857314510728 41.326
11.172279894912576 41.3158
11.194702904450653 41.0153
11.217108866490921 40.9141
11.239532736615194 40.7117
11.26193956033512 40.6507
11.284364294577085 40.5444
11.306789462371718 40.15
11.329197585398376 40.0628
11.351623622610898 40.1315
11.37403261614354 39.5005
11.396459526308487 39.3659
11.418869393879497 39.1207
11.441297180532617 38.691
11.463725406927658 38.4206
11.486136592353875 38.0697
11.508565700543707 37.634
11.530977768845315 37.7621
11.553407762368774 37.5621
11.575838200059769 37.3607
11.598251599479612 37.1738
11.620682927815501 37.3255
11.64309721895548 37.368
11.665529441478206 37.3903
11.687962112597958 36.9247
11.710377748130886 37.0051
11.732811318753434 36.8172
11.755227854859067 36.8106
11.777662328529495 36.9045
11.800079768750786 36.7629
11.822515149015453 36.9434
11.844950984084935 37.1805
11.867369787303163 37.4039
11.889806534289491 38.0404
11.912226250487029 39.0907
11.934663912939751 41.1746
11.9571020346363 45.0338
11.979523127133968 53.9129
12.001962169624331 70.04899999999999
12.024384183972964 86.5347
12.046824150809913 93.9779
12.069264581333726 84.6063
12.091687985297767 66.5339
12.11412934550045 53.5128
12.136553680195208 47.5178
12.158995973632788 46.3825
12.181438735204349 46.4719
12.20386447284199 47.1301
12.226308172985636 48.3583
12.24873485024193 50.364
12.271179492516982 53.5997
12.293607112949127 59.1152
12.316052700916226 67.449
12.338498763250042 79.7523
12.360927805303868 91.7887
12.383374818673879 98.406
12.405804812803074 94.8568
12.428252780773262 83.1735
12.45070122756722 69.8923
12.473132656675375 59.5953
12.49558206341869 52.8125
12.518014453510101 47.97
12.540464823770117 45.1431
12.562915677315177 43.3676
12.58534951575545 41.9109
12.607801338171472 40.8502
12.630236146511358 40.4575
12.652688941369085 40.0311
12.675124723177234 39.7713
12.697578494048786 40.0712
12.720032754458185 39.6851
12.742470003354093 40.0375
12.764925245138771 40.211
12.787363476431278 40.1961
12.809819703166806 39.8789
12.83227642391173 39.9229
12.854716135692716 39.8509
12.877173846755147 40.1939
12.899614549869717 39.5684
12.9220732548287 39.5987
12.94453245827299 39.4625
12.966974655289818 39.7552
12.989434858002571 40.027
13.011878055298721 40.1428
13.034339260862497 40.3927
13.056800969391883 40.9019
13.079245674017244 42.0126
13.101708390774869 43.0256
13.12415410463411 45.3615
13.146617833206086 49.9241
13.169064559883248 55.1785
13.191529303857127 59.9289
13.213994557076367 61.6953
13.236442809902437 61.3897
13.258909083908291 62.3192
13.28135835851934 64.36
13.30382565690295 67.0181
13.326293469022952 69.4512
13.348744283242008 72.154
13.371213125129904 78.4171
13.39366497011003 89.303
13.416134845360597 106.955
13.438605238843131 136.053
13.46105863690397 175.40900000000002
13.483530069144786 214.03799999999998
13.505984506951902 230.47
13.528456981549432 212.896
13.550929978879088 174.675
13.573385983253365 138.371
13.595860028340867 111.195
13.618317081455832 95.9236
13.64079217790333 87.3302
13.663250283359057 82.7317
13.685726434770173 79.6284
13.708203115221277 80.2042
13.730662806148091 84.4898
13.75314054697177 94.5185
13.775601299246777 114.023
13.798080104050406 145.85
13.820559442405358 186.49200000000002
13.843021793671388 213.645
13.865502201420897 211.68099999999998
13.887965623051947 179.985
13.910447103807167 136.026
13.932929122629764 100.641
13.955394156785959 78.8422
13.977877254034569 64.7328
14.000343367582113 56.8614
14.022827546871707 52.1691
14.045294743423524 48.7272
14.06778000837062 46.4154
14.090265817715476 45.4882
14.112734645763819 44.8311
14.13522154619454 44.8617
14.157691466286913 46.7538
14.180179461423874 51.6931
14.202668005486178 62.5953
14.22513957064374 75.7344
14.247629214846473 86.4924
14.270101881097517 87.0797
14.29259262906496 74.8554
14.315083930490205 59.7065
14.337558255389705 49.1379
14.360050666019726 43.3279
14.382526101071944 40.6494
14.405019624534942 39.4479
14.427513705993134 38.7036
14.449990813291825 38.1859
14.47248601302899 37.7594
14.49496423954951 37.5051
14.517460561197822 37.2993
14.539939910570322 37.1631
14.562437357763558 36.8719
14.58493536931253 36.894
14.607416409993311 36.5758
14.62991555254159 36.6387
14.652397725157423 37.0336
14.674898002342799 37.1711
14.697398848433282 37.342
14.719882725991326 37.5418
14.74238471217934 37.6015
14.764869730765593 37.9032
14.787372860692983 38.1051
14.809876564079925 38.876
14.83236330125751 39.5783
14.854868153850365 40.3121
14.877356041159485 42.168
14.899862046604186 43.8292
14.922351087688757 45.861000000000004
14.944858249632887 47.7734
14.967365991421232 48.783
14.989856770231246 49.4136
15.012365673994204 50.9199
15.03485761569738 53.5168
15.05736768508665 57.6848
15.07987833888692 64.4049
15.102372032001655 75.8371
15.124883856909658 92.1952
15.14737872204565 113.046
15.169891721717274 128.407
15.192405310371893 131.65200000000002
15.214901940621196 120.88799999999999
15.237416709527137 100.985
15.259914520936249 81.5748
15.282430473753607 67.2311
15.304947020131227 57.3305
15.327446610371178 50.5165
15.349964346154254 46.5006
15.372465126703139 43.8809
15.394984055556009 42.2435
15.417486030076159 41.0496
15.44000615566487 39.9075
15.462526881230803 39.4066
15.485030653812652 38.8008
15.507552581617434 38.4634
15.530057557334603 38.213
15.55258069104857 37.9428
15.575104429329837 38.1347
15.597611216864632 37.8322
15.620136166564563 37.7139
15.6426441664095 37.6913
15.665170331202765 37.7742
15.687697105158826 37.8911
15.710206930593545 38.3071
15.732734925158933 38.7239
15.755245972089478 39.4263
15.77777519094324 40.4516
15.800287463046663 41.688
15.822817909869592 43.4114
15.84534897229804 44.8846
15.867863089299354 46.4814
15.890395385222186 47.2612
15.912910736597423 47.7631
15.935444269699861 49.4008
15.957978423016485 52.3852
15.980495633101265 56.437
16.003031029129367 63.601000000000006
16.02554948280019 74.8364
16.048086125229432 90.6843
16.070623392487107 109.542
16.09314371869582 125.215
16.11568223789321 131.817
16.13820381691126 125.992
16.160743591742527 111.236
16.183283996022084 93.8395
16.205807461423195 77.2191
16.228349126881973 62.73
16.25087385432698 52.9185
16.27341678466365 46.5532
16.29594277784926 42.5403
16.31848697676433 39.9266
16.341031811604868 38.0015
16.36355971058487 36.8951
16.3861058195587 36.1165
16.40863499352978 35.1152
16.431182380342005 34.6136
16.453730407713202 34.0998
16.476261501364792 33.6835
16.498810812136167 33.2401
16.52134319004079 33.0653
16.54389378792203 32.8794
16.566445031001553 32.4676
16.588979342490088 32.4421
16.61153187824822 32.2051
16.634067483263312 31.9114
16.656621315414416 31.6491
16.679175797408888 31.4413
16.701713349928728 31.3926
16.72426913389191 31.4999
16.74680798922351 31.340999999999998
16.76936507887444 31.221999999999998
16.791905240734874 31.2348
16.814463639794468 31.1803
16.837022695210294 31.2505
16.859564824093756 31.3829
16.882125194503903 31.5347
16.904668639217885 31.6081
16.927230328348003 31.8257
16.949792678493612 32.3859
16.972338104193863 33.3221
16.994901778652235 35.0061
17.017448529496576 37.2826
17.040013531998152 39.3349
17.06257920018044 40.0334
17.0851279459922 38.9083
17.107694947817667 36.7338
17.130245028099072 34.8485
17.15281336730298 33.5591
17.17536478578733 32.9862
17.19793446610687 32.9622
17.220504818648422 33.1049
17.243058251703697 33.1647
17.265629950971032 33.4743
17.288184731571736 33.7804
17.310757781306908 34.0494
17.33333150794385 33.9892
17.355888317140174 34.3258
17.37846339986244 34.6896
17.401021565958885 35.6034
17.42359800851343 37.05
17.44617513265564 38.7633
17.468735341390783 41.6422
17.491261035594565 45.2976
17.51396340099364 49.2508
17.536490463869136 51.9747
17.559018209820174 52.2547
17.58154663977963 49.7011
17.604251766089718 45.753
17.626781572227713 41.7386
17.64931206518155 38.8758
17.671843245885103 36.9924
17.69455114821572 35.5848
17.717083712612634 35.0229
17.739616967569667 34.7177
17.762150914021706 34.7229
17.78486160749854 34.9157
17.807396945166804 35.7467
17.829932977143503 37.2037
17.85246970436452 39.3216
17.875183204129467 40.7887
17.897721330097664 42.1559
17.920260154126645 41.7112
17.942799677153296 40.4869
17.9655159983646 39.0405
17.988056927677544 38.5911
18.010598558807683 39.0919
18.033140892692916 39.9631
18.05586005052525 40.832
18.07840379824407 41.5974
18.10094825154059 42.0925
18.12366954819864 42.4079
18.146215420998306 42.9076
18.16876200220057 44.1218
18.191309292745153 46.0751
18.214033452627167 49.4298
18.236582170236648 53.9561
18.259131600016456 61.3547
18.281681742907335 71.4307
18.304408781233683 85.1614
18.32696035875955 98.0205
18.349512652227624 105.126
18.372065662579683 104.45100000000001
18.394795594587553 94.2901
18.41735004715306 80.9742
18.43990521943684 69.775
18.46246111238171 61.894
18.485193953325208 57.4249
18.507751296070428 56.2087
18.530309362314178 58.0952
18.552868153000343 62.4008
18.57560391815056 68.4465
18.59816416623245 74.744
18.620725141597372 77.3024
18.643286845190268 75.2554
18.666025549835414 69.1951
18.688588718427933 61.5838
18.711152618092243 54.8738
18.73389353884365 48.8667
18.75645890921984 43.8077
18.77902501351406 40.454
18.801591852673102 38.5765
18.824335739722738 36.9687
18.846904057212626 36.1386
18.8694731124168 35.2151
18.89204290628315 34.8922
18.914789774966803 34.5288
18.937361054791623 34.0093
18.959933076131318 33.4916
18.982505839934877 33.6367
19.00525570560582 33.3877
19.027829963004184 33.1168
19.05040496572238 33.0067
19.072980714710468 32.8206
19.095733592739563 32.7551
19.11831084296757 32.6943
19.140888842324735 32.5755
19.16346759176222 32.6194
19.18622349753803 32.6177
19.208803755869358 33.0276
19.231384767143577 33.1954
19.253966532312948 33.5481
19.276725481241822 34.0414
19.29930876296784 34.4831
19.3218928014549 34.8899
19.34465404436217 35.6006
19.36723960516257 36.8535
19.389825925592426 38.705999999999996
19.412413006605938 41.6905
19.43517731967805 44.7842
19.457765930683355 47.3543
19.48035530514408 47.9786
19.50294544401556 47.2091
19.525712842708348 46.0721
19.54830451925909 45.4649
19.570896963095727 45.9911
19.593490175174704 48.1569
19.616260674962184 49.9986
19.638855432416964 49.9303
19.661450960992624 48.29
19.68404726164677 45.1066
19.706820878021247 41.6971
19.729418731756834 38.8858
19.752017360452857 36.57
19.77461676506804 35.1048
19.797393513540218 33.8562
19.819994478951667 33.0435
19.84259622316767 32.5411
19.8651987471481 32.0361
19.887978643247177 31.7452
19.91058273574792 31.5171
19.933187610901943 31.5023
19.955969879466828 31.3812
19.97857632894404 31.6749
20.00118356396599 31.8501
20.023791585494575 31.8866
20.046577028914875 32.193000000000005
20.069186632506966 32.1582
20.091797025500632 32.2076
20.114408208858933 32.1801
20.137196842715273 32.2035
20.159809615886765 32.6751
20.18242318232135 33.141
20.20503754298326 33.8589
20.227829382875154 34.9725
20.250445341109344 36.5206
20.27306209647285 38.4608
20.29567964993108 41.1876
20.31847471147704 44.0391
20.34109387027612 46.7584
20.363713830075454 48.0125
20.386334591841646 47.6231
20.409132890679302 45.4544
20.431755265564437 42.748999999999995
20.454378445325528 40.3534
20.477002430930366 39.1872
20.499803982716553 39.1702
20.522429589228004 40.0171
20.54505600449589 41.9107
20.567683229489194 44.3375
20.590488049900088 45.4943
20.61311690359731 45.2806
20.63574656993626 43.5141
20.658553853717297 40.5667
20.681185154618298 37.6647
20.703817271080066 35.1943
20.72645020407368 33.229
20.749260783967177 32.0515
20.771895359337133 31.3647
20.794530754161617 31.0988
20.817166969412938 31.0312
20.83998086114876 31.3273
20.86261872660049 32.0562
20.885257415405402 33.0104
20.90789692853701 33.6712
20.930714147864748 33.6781
20.953355319030678 33.1637
20.97599731745334 32.0783
20.99864014410749 30.6155
21.021460706796564 29.6778
21.044105199328826 29.1726
21.06675052302631 28.6542
21.089396678865015 28.5062
21.112220600704806 28.4723
21.134868430275347 28.4437
21.15751709492456 28.4122
21.180166595629693 28.331
21.202993892429635 28.3118
21.22564507473034 28.3018
21.24829709602816 28.2102
21.27112693608965 28.2765
21.293780644891275 28.3355
21.316435195634053 28.2051
21.339090589297417 28.3288
21.361923832041875 28.5497
21.384580921090404 28.5807
21.407238856007325 28.7035
21.429897637773326 29.3289
21.45273429906592 30.0883
21.475394784108598 30.9837
21.498056118951983 31.7879
21.520718304578022 32.4991
21.543558400304388 32.6338
21.566222297108816 32.3645
21.58888704765135 31.9334
21.61155265291521 31.2645
21.63439619898156 30.7131
21.657063523335786 29.9158
21.67973170537063 29.5024
21.7024007460706 29.2326
21.72524775840385 29.2306
21.747918526116475 29.2698
21.770590155457388 29.3656
21.79326264741238 29.6386
21.816113141960237 29.9028
21.838787368860547 30.1234
21.861462461341976 30.2406
21.884315579735777 30.5748
21.90699241312273 30.5557
21.92967011506078 30.6192
21.95234868653799 30.9819
21.9752053151131 31.4779
21.997885635446785 32.2785
22.020566828293532 33.1566
22.04324889464272 34.0579
22.066109049404666 35.330999999999996
22.088792872571794 37.3033
22.111477572219204 39.5596
22.1341631493376 42.5204
22.157026846313123 45.8096
22.179714188221507 48.6013
22.202402410582668 49.9276
22.22509151438863 49.7475
22.24795876962584 48.2919
22.270649646204486 46.3798
22.293341407213727 44.218
22.316034053646906 42.5562
22.338904883215342 41.1939
22.36159931041458 40.4311
22.38429462602756 40.2024
22.40699083104897 39.8533
22.429865251039757 39.2992
22.452563244831367 38.1251
22.47526213102522 36.6044
22.49813925616515 34.8427
22.520839937143307 33.3495
22.543541513520587 32.2781
22.56624398629403 31.3591
22.589124730075895 30.8019
22.611829005656723 30.517
22.63453418063466 30.1153
22.657240256008077 29.9517
22.680124634582935 29.8003
22.70283252079775 29.5916
22.725541310413075 29.6264
22.74825100442868 29.3995
22.771139033969575 29.6256
22.79385054687155 29.4875
22.81656296718292 29.7529
22.83927629590484 30.0894
22.862167992606945 30.4314
22.88488314827121 30.9963
22.907599215359284 31.583000000000002
22.93031619487366 31.8397
22.953211574954405 31.8302
22.975930389478226 31.8982
22.998650119445763 31.4366
23.02137076586092 30.9862
23.044269845560063 30.9723
23.06699233506288 31.0708
23.089715744034912 31.4425
23.112617610931565 31.9477
23.135342869061212 32.7609
23.158069049684816 33.9396
23.1807961538087 35.5832
23.20370174880544 37.8315
23.226430710184808 40.3274
23.249160598093425 42.3732
23.271891413539002 43.4246
23.294800752937697 43.1235
23.31753343374794 41.4628
23.340267045128353 39.0311
23.36300158808808 36.5843
23.38591468821339 34.5999
23.408651104658304 33.235
23.431388455719986 32.4191
23.454126742409 32.1603
23.4770436196085 32.4397
23.499783787914662 32.8686
23.522524894889884 33.383
23.54526694154616 33.9
23.56818761219047 34.3204
23.59093154860734 34.4341
23.613676427751283 34.141999999999996
23.636422250635754 33.5333
23.659346731118656 32.8072
23.68209445191868 32.4799
23.704843119509587 32.5114
23.72759273490623 32.7609
23.750521041644767 33.5242
23.77327256312355 34.7493
23.796025035462787 36.2428
23.818956224555475 38.4443
23.841710609113413 41.3942
23.86446594758979 43.7043
23.887222241002014 45.1626
23.910157285144578 45.1508
23.932915498962537 43.8061
23.955674670778713 41.1048
23.978434801611975 37.9795
24.001373717286125 35.3013
24.024135776723917 33.1716
24.046898798245582 31.5643
24.06966278287146 30.5687
24.092605586582614 29.7516
24.115371508023642 29.2973
24.1381383956401 29.0442
24.16090625045381 28.8776
24.183852958731244 28.6504
24.206622758582608 28.5599
24.229393528706886 28.233
24.252165270127392 28.0008
24.27511589952438 27.701999999999998
24.297889594216997 27.2157
24.32066426328598 26.864
24.34343990775613 26.7475
24.36639447485003 26.6354
24.38917208083877 26.589000000000002
24.41195066531332 26.3518
24.43490819850244 26.2937
24.457688750692377 26.1595
24.48047028445616 26.1203
24.503252800821233 26.1449
24.526214300784112 26.1901
24.548998793132213 26.1182
24.57178427117417 25.9473
24.59457073593893 26.0039
24.617536219319863 25.9753
24.64032466834748 26.0038
24.663114107195035 25.9978
24.685904536893013 26.1227
24.708874020360852 26.4066
24.731666442613744 26.7706
24.754459858818787 27.0008
24.777254270007962 27.3439
24.80022777025625 27.6591
24.82302418230472 27.8132
24.845821592443674 27.7027
24.86862000170663 27.4242
24.891597535453727 27.0484
24.914397953892728 26.9236
24.93719937456671 26.4508
24.96000179851076 26.3452
24.98298338249997 26.2973
25.00578782394922 26.1821
25.028593271784167 25.7799
25.05157790644186 25.886
25.07438537804115 25.8838
25.097193859145293 25.7502
25.120003350792075 25.7295
25.142992065061257 25.8635
25.165803588823465 25.8905
25.18861612625217 26.0246
25.211429678386736 26.0523
25.234422489079968 26.143
25.257238081693636 26.2331
25.280054692141732 26.5155
25.3028723214652 26.7685
25.325869245420463 27.2026
25.348688923599397 27.4501
25.371509623787006 27.9107
25.394331347025812 28.3498
25.41733240110666 29.1104
25.440156181590016 29.4142
25.46298098826268 29.9258
25.48580682216873 30.372
25.50881202326435 30.4622
25.53163992281684 30.3474
25.55446885274561 30.2467
25.577298814096377 30.3652
25.600308179121807 30.7815
25.623140214533745 31.5738
25.64597328451537 32.176
25.66898578564376 32.37
25.691820936010206 32.3612
25.714657124097695 31.8196
25.737494350954734 30.9817
25.760511045684957 29.5393
25.783350361364224 28.5547
25.806190718969255 27.6999
25.82903211955018 27.1197
25.852053024868923 26.5922
25.874896522722523 26.4389
25.897741066713106 26.302
25.920586657892454 26.4194
25.943611790812668 26.7004
25.966459487728237 26.7068
25.989308234998564 26.7186
26.01215803367705 26.6374
26.03518741123814 26.3271
26.05803932412957 26.0096
26.080892291600094 25.6104
26.10374631470478 25.416
26.12677995397268 25.3351
26.14963609978026 25.3618
26.172493304397875 25.3434
26.19535156888223 25.3542
26.218389486949604 25.4079
26.241249882640123 25.4876
26.26411134137826 25.653000000000002
26.28715248187403 26.0262
26.31001607820869 26.2519
26.3328807407756 26.5829
26.35574647063438 27.2205
26.37879191991473 27.7444
26.401659795896734 28.2926
26.424528742360263 28.7959
26.447398760366614 28.927
26.470448535598294 28.666
26.49332070826805 28.2001
26.516193955675355 27.7965
26.53906827888316 27.2854
26.562122397260108 26.7489
26.584998883685063 26.4764
26.607876449110325 26.2623
26.63075509460056 25.954
26.65381357334404 25.7046
26.67669439061878 25.6598
26.699576291163382 25.6675
26.722459276044212 25.7318
26.745522132402975 25.8905
26.768407297649354 26.0218
26.791293550442003 26.0701
26.814180891848974 26.3087
26.837248143099337 26.6534
26.860137673466657 27.0458
26.88302829566349 27.508000000000003
26.90592001075963 28.3055
26.92899167420566 29.1574
26.951885586870763 29.9938
26.974780595655517 30.6876
26.99785558178161 31.2059
27.020752794605112 31.2265
27.043651106772522 31.1164
27.06655051935668 30.8403
27.089629948036183 30.3678
27.112531573292053 30.0116
27.135434302194138 29.7774
27.158338135817015 29.0743
27.181422024430987 28.4834
27.204328079372566 27.9571
27.22723524226965 27.3584
27.250143514198573 26.7743
27.273231880156334 26.2033
27.296142382065014 25.6649
27.319053996245536 25.3538
27.341966723775965 25.1387
27.365059584515222 24.8945
27.38797455070062 24.7419
27.410890633481237 24.6252
27.433807833936918 24.5266
27.456905206923906 24.5129
27.47982465472398 24.4339
27.502745223449743 24.3615
27.525666914182825 24.3907
27.548768816912457 24.318
27.571692763693633 24.3765
27.59461783573812 24.3574
27.617723149491244 24.4353
27.640650484125285 24.5364
27.66357894728264 24.555
27.686508540048052 24.5444
27.709618414237887 24.5148
27.732550278321757 24.4716
27.755483275279115 24.596999999999998
27.778417406196485 24.7415
27.801531858397514 24.8566
27.824468269376716 25.0132
27.847405817586786 25.3597
27.870344504116094 25.592
27.893463551932008 25.6944
27.916404527281053 25.7405
27.93934664422563 25.506
27.962289903855886 25.3067
27.98541356491974 25.1094
28.00835912214229 24.9509
28.03130582533231 24.8987
28.054253675581805 24.8194
28.077381967556104 24.83
28.100332124185126 25.0023
28.123283431160893 25.2288
28.146235889577238 25.5532
28.169368830154156 25.7767
28.192323603752033 25.9108
28.215279532083304 25.9559
28.238415973016764 25.9781
28.261374223145094 25.9287
28.284333631303806 26.0986
28.307294198589954 26.3561
28.330435319167677 26.8192
28.353398217078915 27.421
28.376362277420153 28.0339
28.39932750129032 28.7881
28.422473319286713 29.0896
28.44544088262495 29.1125
28.468409612800283 28.7474
28.491379510913497 28.1425
28.51453004413313 27.7132
28.53750229057244 27.5174
28.56047570826344 27.3365
28.583450298308804 27.1731
28.606605564586562 26.8141
28.629582511831156 26.6476
28.65256063474956 26.127
28.675539934446338 25.7989
28.698699951647605 25.3045
28.72168161743193 24.8341
28.74466446331978 24.4369
28.767648490417624 24.0694
28.790813276438353 23.7146
28.813799678527303 23.4613
28.836787265157085 23.2512
28.859955641890075 23.0833
28.882945610203045 22.9805
28.905936766392035 22.8604
28.928929111566863 22.701999999999998
28.952102288520145 22.6322
28.975097024308607 22.6211
28.998092952423807 22.484
29.021090073977508 22.5163
29.04426806913204 22.4986
29.067267590245258 22.500999999999998
29.090268308143695 22.4763
29.11327022394099 22.5589
29.13645305530891 22.5459
29.159457379627167 22.6546
29.18246290519685 22.8302
29.20546963313352 23.0068
29.22865731875826 23.2232
29.25166646419296 23.3401
29.27467681535305 23.2799
29.29768837335608 23.3046
29.320880931312562 23.168000000000003
29.34389491580634 22.906999999999996
29.366910110507334 22.7479
29.38992651653503 22.5459
29.41312396492981 22.2912
29.436142806456754 22.1404
29.45916286268059 22.0037
29.48236399319994 21.8869
29.50538649169417 21.8182
29.528410208259935 21.7983
29.55143514402014 21.7114
29.574641196749695 21.7116
29.597668583816574 21.8031
29.6206971934585 21.7887
29.64372702680042 21.9365
29.666938019934474 22.0514
29.689970313635285 22.2198
29.713003834422636 22.4588
29.73603858342347 22.6569
29.759254535188578 22.8346
29.78229175361658 22.8064
29.80533020365064 22.84
29.82836988641968 22.7765
29.85159081507472 22.5237
29.874632976355343 22.0838
29.89767637376955 21.8959
29.920721008448314 21.5907
29.9439469322847 21.4436
29.96699405457564 21.3694
29.9900424175358 21.2446
30.013092022298157 21.1574
30.03632295963995 21.0043
30.059375061131373 21.1959
30.08242840783577 21.108
30.105483000888153 21.0312
30.128718970092244 21.0377
30.151776069006917 21.1197
30.17483441768648 21.1854
30.198074175317235 21.3307
30.221135036724256 21.3837
30.24419715131772 21.4033
30.267260520236203 21.3829
30.290505341942243 21.3114
30.313571232750228 21.1851
30.336638381310948 21.0855
30.35970678876503 21.0314
30.38295669299435 20.9205
30.40602763151657 20.8795
30.429099832366074 20.8638
30.452173296685572 20.8965
30.47542830191959 20.8929
30.498504306502497 20.9433
30.521581577995562 21.1253
30.544660117543582 21.2304
30.56792024229725 21.4112
30.59100133132069 21.3994
30.614083691845494 21.5492
30.637167325018545 21.4962
30.660432587840603 21.4961
30.683518779717886 21.2712
30.70660624769615 21.1809
30.729694992924372 21.0729
30.75296541239743 21.037
30.77605672557558 20.945999999999998
30.799149319462742 21.0234
30.8224236211637 21.0154
30.845518789950724 20.8955
30.868615242910597 20.9952
30.891712981195973 21.0574
30.91499247215866 21.0734
30.938092794619365 21.2648
30.96119440587579 21.4674
30.984297307082752 21.6452
31.00758200598383 21.8231
31.030687500658694 22.2003
31.053794288760695 22.5542
31.076902371446767 22.7887
31.100192296997445 23.0393
31.12330298246119 23.1083
31.14641496599209 22.8905
31.169528248749216 22.9435
31.19282341969534 22.7671
31.215939314557186 22.5519
31.239056512134788 22.493000000000002
31.262175013589378 22.3153
31.28547544871168 22.0519
31.30859657161541 21.6441
31.331719001892175 21.3764
31.35484274070538 21.2483
31.378148458819545 21.0735
31.401274828443725 20.9462
31.424402510106933 20.8272
31.447712205419993 20.7449
31.470842524931633 20.5844
31.493974159989783 20.4928
31.51710711176168 20.4945
31.54042212308802 20.5007
31.563557722100917 20.4307
31.586694641341655 20.3046
31.609832881979628 20.451
31.63315322823208 20.5226
31.656294125521327 20.4655
31.679436347728515 20.5627
31.70257989602529 20.6485
31.725905596152327 20.6815
31.74905181052835 20.8315
31.772199354521323 20.9742
31.79534822930507 21.0373
31.818679302290967 21.2605
31.84183085259981 21.3336
31.864983737233473 21.5534
31.88813795736804 21.6485
31.911474422233013 21.5714
31.934631327356435 21.4582
31.9577895715215 21.2798
31.980949155906522 21.0613
32.004291031706956 20.8323
32.027453310562606 20.5295
32.05061693318573 20.3842
32.07396288236386 20.3798
32.09712920658542 20.3556
32.12029687812702 20.3285
32.14346589817093 20.3062
32.166817291729984 20.3551
32.18998902288583 20.3388
32.21316210610336 20.3963
32.23633654256711 20.4452
32.259693399663725 20.5648
32.282870556771144 20.662
32.30604907069099 20.9187
32.329228942610065 21.0551
32.35259128243769 21.0536
32.375773884550505 21.0271
32.398957848235646 21.0542
32.422143174682176 20.9128
32.445511016471215 20.7072
32.468699082679954 20.5973
32.49188851523011 20.4164
32.51507931531304 20.2355
32.538452678331 20.1483
32.56164622776311 20.004
32.58484114831493 19.8157
32.60803744118015 19.6328
32.631416344731896 19.6024
32.654615396551876 19.4711
32.67781582427913 19.3939
32.701198898634416 19.2684
32.72440209253756 19.1399
32.747606665947124 19.0941
32.77081262006088 18.95
32.79420126883317 18.8752
32.81740999876112 18.8776
32.840620112999424 18.7542
32.86383161274818 18.7037
32.88722585534586 18.7044
32.91044014056596 18.8023
32.933655814909734 18.6692
32.95687287957963 18.7306
32.98027273544904 18.765
33.00349259526636 18.7087
33.026713849030116 18.7071
33.04993649794511 18.7523
33.073341986570746 18.779
33.09656744032826 18.8312
33.11979429286444 18.7949
33.14302254538647 18.789
33.166433686291185 18.7632
33.18966475336992 18.5968
33.212897224069096 18.5321
33.23613109959831 18.5014
33.259547912343415 18.4354
33.2827846121627 18.4645
33.306022720453775 18.4337
33.32926223842861 18.2571
33.352684742614166 18.3772
33.37592709463173 18.3748
33.399170859982064 18.4066
33.422597648419426 18.3832
33.44584425514446 18.397000000000002
33.46909227885668 18.5267
33.4923417207723 18.5577
33.51577423505344 18.7769
33.539026528130385 18.8726
33.56228024307245 19.0022
33.585535381098246 19.0326
33.60897364093058 19.0595
33.63223163992385 19.2032
33.6554910656699 19.0725
33.678751919389796 19.0675
33.702195944520106 19.1065
33.72545966903325 19.1002
33.74872482519663 18.987000000000002
33.771991414233746 18.8744
33.79544122444841 18.7663
33.81871069412428 18.5462
33.84198160035767 18.3728
33.86525394437455 18.1792
33.88870955949969 18.0798
33.911984794020626 17.9188
33.93526147001624 17.8937
33.958539588715006 17.8369
33.98200102861669 17.8653
34.0052820477047 17.694000000000003
34.02856451319451 17.6736
34.05203033759056 17.6735
34.07531571090147 17.6684
34.09860253431845 17.6812
34.121890809074316 17.6026
34.145362493118924 17.6243
34.16865368561615 17.4997
34.191946333164054 17.5538
34.21524043699793 17.5787
34.23871800066799 17.6654
34.26201503218366 17.5812
34.28531352370466 17.7219
34.30861347646881 17.6616
34.33209693978188 17.6682
34.3553998301885 17.5921
34.378704185565205 17.5268
34.402010007152356 17.4441
34.42549939016683 17.3261
34.44880815937748 17.264
34.472118398533134 17.2562
34.49543010887669 17.1273
34.51892543169198 17.0496
34.54224009966052 17.0645
34.56555624255917 17.0
34.58887386163339 16.9905
34.61237514439016 16.9969
34.6356957311114 16.9856
34.65901779775809 16.9726
34.68252356662995 17.0318
34.705848608458616 17.1234
34.72917513396849 17.0711
34.75250314440949 17.1394
34.77601490857862 17.1313
34.799345904259795 16.9913
34.82267838863559 17.0204
34.846012362958525 16.9953
34.869530142679984 16.9452
34.89286711232212 16.7207
34.91620557568269 16.7789
34.93954553401677 16.6994
34.9630693495876 16.6337
34.986412313340814 16.5125
35.00975677584668 16.4836
35.033102738362956 16.475
35.05663261012228 16.4168
35.0799815881786 16.3729
35.10333207003229 16.3133
35.12668405694369 16.3761
35.150220005273056 16.3577
35.17357501786656 16.3268
35.19693153931268 16.2912
35.220289570874385 16.2405
35.24383161619786 16.3203
35.267192683604904 16.378
35.290555264930376 16.2598
35.314101899412165 16.2824
35.33746752422433 16.3643
35.36083466676374 16.3959
35.38420332829803 16.2717
35.407756095629054 16.3066
35.43112781085063 16.2816
35.45450104888391 16.3324
35.477875810999194 16.2738
35.50143473172161 16.199
35.52481255774625 16.2857
35.54819191167777 16.1782
35.57157279478914 16.2009
35.595137889488406 16.1859
35.61852184675279 16.2367
35.641907337029984 16.2541
35.665294361595684 16.2254
35.68886565090076 16.3299
35.7122557598848 16.3461
35.73564740699838 16.4389
35.759040593519934 16.512999999999998
35.78261809810353 16.5841
35.80601437933051 16.6047
35.829412203814705 16.5734
35.85281157283719 16.6666
35.876395313415884 16.8155
35.8997977874528 16.8492
35.92320180988546 16.9112
35.946790244133936 16.8006
35.97019737933222 16.7464
35.993606066789866 16.6978
36.01701630779276 16.6744
36.04061101440684 16.5116
36.06402437852291 16.4101
36.08743930005611 16.2689
36.1108557802951 16.1787
36.13445678011326 16.1271
36.15787639383515 16.012999999999998
36.18129757014299 15.8967
36.20472031032821 15.8625
36.22832762423364 15.7772
36.25175350829375 15.7777
36.275180960119776 15.7155
36.298609981005924 15.714
36.32222362992669 15.6825
36.34565580510207 15.6495
36.36908955323448 15.6658
36.39252487562093 15.5873
36.416144880530226 15.5857
36.43958336764275 15.5406
36.463023432914625 15.5104
36.486465077645676 15.5169
36.51009145956204 15.6229
36.53353627947859 15.6774
36.55698268276811 15.658
36.58043067073321 15.6963
36.60406345072071 15.588
36.62751462435344 15.61
36.65096738658405 15.6655
36.67460498210655 15.5933
36.69806093788647 15.523
36.72151848619297 15.4192
36.744977628333636 15.3947
36.76862165890998 15.3103
36.79208400512205 15.3365
36.81554794910557 15.2633
36.83901349217101 15.1747
36.862663978991606 15.1997
36.88613273667352 15.1559
36.90960309738324 15.2535
36.933075062434064 15.2201
36.95673202673572 15.2524
36.98020721697122 15.2482
37.003684015502365 15.247
37.027162423645365 15.3102
37.050825886711465 15.2619
37.07430753063053 15.1815
37.09779078812467 15.238
37.121275660513014 15.2511
37.144945643673694 15.2446
37.16843376245278 15.1321
37.19192350009803 15.0966
37.215414857931435 15.0142
37.239091382563885 14.9765
37.262585997426164 14.8511
37.28608223645736 14.8241
37.309763684451696 14.720999999999998
37.33326318851098 14.7102
37.356764320726555 14.6298
37.380267082425526 14.6338
37.40395510942588 14.668
37.42746114683234 14.559000000000001
37.45096881771841 14.5544
37.474478123414166 14.5327
37.49817275092816 14.5164
37.52168534303452 14.5498
37.54519957395567 14.3903
37.568715445024665 14.4396
37.592416694607714 14.4341
37.61593586281424 14.4546
37.63945667518264 14.4855
37.66297913304891 14.3817
37.68668702630454 14.3071
37.710212792059274 14.3464
37.733740207334854 14.3599
37.757269273470364 14.3306
37.780983832050374 14.2439
37.80451621684926 14.2029
37.82805025654007 14.2627
37.851585952464795 14.2306
37.8753071980695 14.1348
37.89884622345676 14.0786
37.92238690911902 14.0441
37.94611318753442 14.0263
37.969657210779765 14.0869
37.99320289834801 14.1149
38.016750251586465 14.0767
38.04048325513017 14.0038
38.06403395679343 14.0288
38.087586328183946 13.9749
38.11114037065203 14.0861
38.13488012115898 14.0787
38.1584375229181 13.9988
38.181996599821 14.0402
38.205557353221124 13.9519
38.229303872575656 13.9322
38.2528679961576 13.9413
38.27643380031219 13.9491
38.30000128639589 13.8514
38.32375459653193 13.7977
38.34732546371299 13.7755
38.37089801690786 13.7395
38.39447225747609 13.6665
38.418232380377425 13.6151
38.441810012983396 13.5721
38.46538933705673 13.6043
38.488970353960084 13.5627
38.51273731166058 13.5168
38.536321731567014 13.4914
38.55990784840681 13.5323
38.58367995004091 13.4492
38.60726947812959 13.4773
38.63086070726198 13.5032
38.654453638806274 13.5292
38.678232613930824 13.4792
38.70182896773327 13.4252
38.72542702806741 13.4113
38.7490267963045 13.4749
38.77281266709232 13.4604
38.79641586862214 13.4321
38.8200207821842 13.4149
38.843627409152944 13.4445
38.86742019782782 13.3418
38.891030269149255 13.2546
38.914642058016156 13.2375
38.938255565806124 13.2507
38.96205529464307 13.195
38.98567225787121 13.2079
39.00929094417078 13.2427
39.03291135492255 13.2109
39.05671804624804 13.1948
39.080341923549106 13.1619
39.103967529460334 13.1665
39.127594865365744 13.1571
39.15140854155791 13.1303
39.17503935514948 13.2177
39.19867190290282 13.2033
39.22249083587951 13.1447
39.24612686969409 13.1091
39.269764641845306 13.0574
39.293404153722804 13.0141
39.317230110864074 12.9354
39.34087311998506 12.8605
39.36451787301696 12.93
39.388164371352595 12.875
39.41199737518003 12.8775
39.43564738196752 12.8861
39.45929913825317 12.7792
39.48295264543308 12.769
39.506792718520884 12.7328
39.530449745387216 12.7181
39.55410852735203 12.6646
39.57776906581474 12.6503
39.60161623079 12.648
39.625280300200025 12.5781
39.64894613032202 12.5785
39.67261372255866 12.6021
39.6964680021016 12.5902
39.72013913657293 12.6034
39.74381203738292 12.5514
39.76748670593756 12.5293
39.79134812278169 12.4599
39.81502634488497 12.5258
39.83870633896685 12.5229
39.862388106436654 12.5193
39.88625668336918 12.4665
39.90994201572829 12.4459
39.933629125719285 12.4317
39.957503091207826 12.4296
39.9811937746168 12.4341
40.00488623990914 12.3874
40.02858048850006 12.3035
40.05246165409549 12.2919
40.076159487492085 12.3199
40.099859108448875 12.3004
40.123560518384345 12.3071
40.1474489070226 12.2623
40.171153913178564 12.2617
40.194860712584955 12.2624
40.2185693066637 12.2791
40.242464941335314 12.3103
40.26617714307655 12.2765
40.289891143772046 12.3085
40.3136069448471 12.2962
40.33750984859743 12.2579
40.3612292688043 12.2694
40.3849504936829 12.1748
40.40867352466194 12.1802
40.43258372059144 12.1571
40.45631038219906 12.1181
40.48003885420956 12.0748
40.503769138055105 12.0538
40.52768664931955 12.0304
40.55142057531802 12.0329
40.57515631746428 11.9513
40.599079334038514 12.0157
40.62281872700477 11.9659
40.64655994043941 11.9183
40.67030297578061 11.9995
40.69423334835778 11.8883
40.71798004609188 11.8551
40.74172857006355 11.8828
40.76547892171441 11.8589
40.7894166736039 11.8607
40.813170699248566 11.8245
40.83692655691388 11.7818
40.86068424804498 11.8535
40.884629402612525 11.8489
40.908390779366385 11.8292
40.932153993938 11.7856
40.95591904777605 11.7236
40.979871628443995 11.7138
41.003640379561936 11.7358
41.02741097430883 11.6779
41.05118341413683 11.694
41.075143444384416 11.6716
41.098919593177826 11.6974
41.1226975914255 11.7138
41.14647744058318 11.6441
41.170444943946755 11.6776
41.19422851378379 11.6422
41.218013938914645 11.6611
41.24198706625173 11.6044
41.26577622087193 11.5727
41.289567235177785 11.5903
41.31336011063129 11.5926
41.337340752422875 11.5357
41.361137369129835 11.5
41.38493585138705 11.4768
41.40873620066004 11.4275
41.43272438060107 11.3865
41.45652848292052 11.3824
41.48033445666918 11.342
41.50414230331616 11.345999999999998
41.528138045159764 11.331
41.551949656675205 11.2789
41.575763145513235 11.2464
41.59957851314666 11.2792
41.62358184070442 11.21
41.64740098505737 11.1757
41.6712220126409 11.1525
41.69504492493139 11.1549
41.71905586207357 11.1578
41.74288256296395 11.1485
41.766711153007456 11.1036
41.79054163368412 11.1073
41.814560204340054 11.0385
41.838394485526365 11.0448
41.86223066180303 11.0476
41.88625497706819 11.0728
41.910094962812 11.0081
41.93393684811168 10.9801
41.95778063445365 10.9563
41.981812625263366 10.9571
42.00566023303407 10.9739
42.029509746323676 10.975999999999999
42.05336116662236 10.9309
42.077400857069705 10.9202
42.10125611078846 10.9069
42.12511327600405 10.9257
42.14897235421036 10.8978
42.173019768448455 10.8794
42.19688269209613 10.8816
42.22074753323349 10.9501
42.24461429335818 10.9014
42.268669455600495 10.8984
42.292540073217886 10.8754
42.31641261433284 10.8328
42.34028708044675 10.7927
42.36435001496739 10.7409
42.38822835065557 10.7695
42.41210861586426 10.7183
42.4359908120986 10.735999999999999
42.46006154323262 10.6446
42.48394762115317 10.6441
42.507835634632315 10.6278
42.531912233047436 10.5688
42.55580413732265 10.508
42.579697981698 10.4929
42.60359376768525 10.472999999999999
42.62767820545945 10.4702
42.65157789440821 10.434000000000001
42.67547952952185 10.4317
42.699383112316 10.4283
42.72347541395347 10.3947
42.74738291190531 10.3896
42.771292362102166 10.3637
42.795203766063516 10.3529
42.819303956130405 10.3843
42.843219287476536 10.329
42.86713657716324 10.2812
42.89105582671383 10.2809
42.91516392983864 10.2663
42.939087119032166 10.2477
42.963012272677304 10.2844
42.98693939230129 10.2041
43.01105543317513 10.213
43.034986504731386 10.1649
43.05891954686589 10.1725
43.08285456110972 10.1738
43.10697856448665 10.1068
43.130917542983475 10.0874
43.15485849820081 10.0915
43.17880143167367 10.0476
43.20293342237094 10.0519
43.226880332449 9.99832
43.25082922540554 10.0206
43.27496722682525 10.0153
43.29892010567796 9.943019999999999
43.32287497204102 9.95609
43.34683182745632 9.94278
43.370977859791836 9.856589999999999
43.39493871351105 9.86678
43.41890156092628 9.90094
43.44286640358341 9.91424
43.46702049182749 9.8554
43.49098934522816 9.82382
43.51496019852649 9.811589999999999
43.5389330532723 9.80367
43.56309522248204 9.79712
43.58707210044314 9.80206
43.61105098451946 9.77863
43.63503187626491 9.73723
43.659202151562134 9.73432
43.68318707902681 9.71556
43.70717401884041 9.66592
43.731162972560874 9.6215
43.75534137913236 9.65552
43.779334381108384 9.67525
43.803329401683186 9.64966
43.82732644241872 9.628739999999999
43.8515130055166 9.59731
43.87551410707659 9.56995
43.89951723350145 9.59694
43.923709934595614 9.55167
43.94771713129917 9.56703
43.97172635758096 9.542119999999999
43.99573761501002 9.53014
44.0199385169922 9.50548
44.04395385732619 9.47057
44.067971233533086 9.50274
44.09199064718605 9.4711
44.11619977548961 9.44673
44.14022328470671 9.44662
44.16424883610785 9.47369
44.18827643127035 9.44502
44.21249381139513 9.39835
44.236525514814076 9.395489999999999
44.26055926674478 9.412139999999999
44.28459506876863 9.43027
44.3088207262813 9.35089
44.33286064928722 9.285860000000001
44.35690262714919 9.302019999999999
44.38094666145278 9.29364
44.4051806219871 9.297189999999999
44.42922879003185 9.26405
44.45327901929361 9.25833
44.477331311362136 9.22567
44.501573600619416 9.15348
44.525630039221795 9.174760000000001
44.54968854541895 9.21637
44.573937102200176 9.18641
44.5979997645541 9.21386
44.622064499300315 9.17073
44.64613130803592 9.08497
44.67038823869318 9.12229
44.69445921643748 9.11257
44.718532272981385 9.05279
44.742607409926194 9.08896
44.76687274034801 9.05247
44.79095205918753 9.0787
44.81503346325094 9.08762
44.839116954143876 9.03556
44.86339071028742 9.01605
44.88747839599524 8.97015
44.91156817336837 8.97593
44.93566004401666 8.9491
44.959942251908146 8.96897
44.984038330325966 8.947560000000001
45.00813650686762 8.93403
45.03223678314731 8.92882
45.05652746888232 8.88712
45.08063196592069 8.876330000000001
45.104738567558705 8.9151
45.128847275414856 8.859060000000001
45.15314646515866 8.81971
45.17725940679741 8.82391
45.20137445952892 8.8175
45.22568004865265 8.80908
45.24979934496396 8.78459
45.27392075725247 8.74209
45.29804428714431 8.756210000000001
45.322358426247604 8.737639999999999
45.346486212804315 8.72384
45.370616121861914 8.68258
45.39474815505086 8.6472
45.41907087049246 8.6338
45.4432071734666 8.59446
45.46734560548283 8.64333
45.49148616817604 8.647789999999999
45.51581748638564 8.58264
45.5399623320197 8.61767
45.56410931325473 8.585239999999999
45.58825843173002 8.560839999999999
45.61259837920865 8.5729
45.636751793816 8.52798
45.66090735060093 8.5265
45.68506505120716 8.48097
45.7094136545275 8.48611
45.73357566449271 8.46332
45.75773982322992 8.433639999999999
45.78190613238733 8.4204
45.806263418194064 8.4001
45.83043404997326 8.43219
45.85460683713677 8.45209
45.87897065658495 8.45197
45.90314777634752 8.34186
45.92732705646868 8.39418
45.9515084986045 8.356530000000001
45.97588104735473 8.34136
46.00006683541565 8.34165
46.02425479047904 8.31507
46.04844491420549 8.27758
46.0728262191024 8.30689
46.09702070211635 8.31899
46.12121735879483 8.277239999999999
46.14541619080294 8.2541
46.169806278764455 8.25606
46.194009483459034 8.25043
46.21821486849841 8.20687
46.24242243555223 8.1777
46.266821333570014 8.17644
46.29103328674601 8.1621
46.31524742696538 8.18145
46.33946375590237 8.11501
46.36387149104216 8.09853
46.38809221957392 8.05697
46.41231514186606 8.06827
46.436540259597464 8.09768
46.460956858999374 8.09239
46.48518638983522 8.02945
46.509418121166966 8.0182
46.533652054678114 8.046339999999999
46.55807754555709 8.00239
46.58231590571962 7.99892
46.60655647313217 7.98565
46.630988654873654 7.982819999999999
46.655233659129024 7.93573
46.67948087571551 7.91696
46.70373030632484 7.92955
46.72817142736393 7.89473
46.752425308428684 7.910360000000001
46.77668140861147 7.8879
46.80093972960865 7.84244
46.82538981736788 7.81566
46.849652602470904 7.78016
46.87391761349769 7.79467
46.8981848521493 7.801810000000001
46.9226439341274 7.7862
46.946915650573224 7.767180000000001
46.97118959976749 7.771089999999999
46.99546578341598 7.71778
47.019933887188216 7.715160000000001
47.04421456235744 7.729710000000001
47.06849747711879 7.673360000000001
47.09278263318286 7.669789999999999
47.11725978640143 7.697310000000001
47.14154944775105 7.666410000000001
47.165841355555656 7.6160000000000005
47.1901355115306 7.63108
47.214621741924994 7.637630000000001
47.23892041698887 7.619389999999999
47.26322134538975 7.616039999999999
47.28771440635075 7.566839999999999
47.31201986422527 7.55713
47.33632758061436 7.552389999999999
47.360637557241866 7.53165
47.38513974410611 7.54522
47.40945426407847 7.51319
47.43377104948137 7.52738
47.45809010204344 7.473660000000001
47.48260144275502 7.447260000000001
47.506925052572285 7.48555
47.53125093475548 7.455310000000001
47.55557909103813 7.41165
47.58009961361992 7.44105
47.60443234110732 7.38695
47.62876734791564 7.36043
47.65310463578333 7.3674
47.6776343683373 7.39733
47.7019762413987 7.3444899999999995
47.72632040075572 7.33586
47.75066684815169 7.34075
47.77520581885936 7.31755
47.799556865477655 7.3014600000000005
47.823910205386 7.283689999999999
47.84826584033272 7.29385
47.87281407745551 7.2746
47.89717432569297 7.2468
47.92153687423484 7.2334
47.94609208429692 7.24788
47.97045925671401 7.225560000000001
47.99482873471275 7.20978
48.01920052005013 7.182119999999999
48.04376504619224 7.15096
48.068141469543484 7.16936
48.09252020552573 7.17697
48.11690125590099 7.1593
48.1414751266064 7.1101
48.16586082917454 7.10935
48.19024885144316 7.10312
48.2146391951793 7.08817
48.239222439012764 7.08908
48.26361744916137 7.06013
48.28801478610016 7.04246
48.31241445160131 7.045719999999999
48.337007097209366 7.0412300000000005
48.36141144338331 6.97733
48.38581812345755 6.9901800000000005
48.41022713920929 7.00885
48.434829215320704 6.95976
48.45924292604658 6.953239999999999
48.48365897780325 6.97704
48.50807737237308 6.93774
48.532688907799276 6.92665
48.55711201168574 6.8982399999999995
48.581537463754074 6.879410000000001
48.60615611725119 6.871739999999999
48.63058628942721 6.87372
48.65501881516546 6.85952
48.6794536962573 6.86499
48.70408185970339 6.8312800000000005
48.72852147531801 6.803669999999999
48.75296345168211 6.81597
48.77740779059232 6.79997
48.80204549302823 6.791339999999999
48.82649458091802 6.795730000000001
48.85094603676547 6.75594
48.87539986237231 6.75016
48.90004713292306 6.72498
48.92450572200832 6.72938
48.94896668628025 6.70631
48.97343002754588 6.69004
48.99808689542115 6.69717
49.02255501470614 6.69913
49.04702551642794 6.67674
49.0714984023988 6.70078
49.096164896893235 6.635460000000001
49.120642575466796 6.59567
49.145122643748394 6.63745
49.16960510355558 6.627489999999999
49.19428125404938 6.57765
49.2187685210852 6.5602
49.243258185121555 6.584389999999999
49.26794160167084 6.561039999999999
49.2924360839405 6.52959
49.31693296869764 6.5167
49.34143225776915 6.51647
49.36612538195438 6.53336
49.39062950396021 6.49261
49.41513603578346 6.48896
49.4396449792564 6.470680000000001
49.46434784069503 6.482559999999999
49.488861631846454 6.47018
49.513377840166804 6.42645
49.537896467493745 6.45411
49.56260909589029 6.40713
49.587132585683285 6.40604
49.611658500018365 6.38965
49.636186840738596 6.37258
49.66090926588511 6.39515
49.685442483902584 6.39278
49.70997813385706 6.35142
49.734516217597076 6.34426
49.75924846937352 6.3447
49.7837914452858 6.32115
49.80833686055187 6.307980000000001
49.83288471702571 6.31153
49.85762682540054 6.2618599999999995
49.882179588965734 6.2541400000000005
49.9067347993235 6.26282
49.93129245833333 6.24022
49.95604445336378 6.24209
49.98060703442832 6.25482
50.005172069746266 6.24536
50.02993150438364 6.22842
50.05450147301533 6.24201
50.07907390151433 6.20631
50.10364879174981 6.17092
50.12841816587289 6.16071
50.1529980044635 6.1658
50.17758031042124 6.119730000000001
50.20216508562089 6.150930000000001
50.22694442953363 6.10363
50.25153416817468 6.10503
50.27612638170508 6.09368
50.300721072005196 6.1052800000000005
50.325510416102105 6.05524
50.350110084975064 6.0439099999999994
50.37471223628208 6.0757
50.39931687190919 6.06241
50.424116246675766 6.08378
50.44872587605249 6.04795
50.47333799543065 6.03074
50.49795260670191 6.01201
50.52276204271512 6.002669999999999
50.54738166295838 5.96609
50.57200378079314 5.97462
50.596628398116835 5.92047
50.62144792604559 5.9335
50.646077567609396 5.88812
50.670709714377715 5.93406
50.69553683636198 5.91822
50.72017401885922 5.89705
50.7448137122895 5.87815
50.76945591856022 5.86508
50.79429318636823 5.89775
50.818940443716784 5.89161
50.84359021965163 5.83673
50.868242516085964 5.82711
50.893089960641895 5.8552800000000005
50.917747323549435 5.80572
50.94240721271973 5.83707
50.96706963007175 5.82181
50.99192728239342 5.807930000000001
51.01659478166073 5.78035
51.04126481489051 5.78001
51.06593738400761 5.78795
51.090805275207074 5.7415199999999995
51.11548294172845 5.73916
51.14016314993547 5.73473
51.164845901758845 5.712969999999999
51.18972406304274 5.69497
51.21441192780656 5.64452
51.23910234200271 5.67247
51.2637953075678 5.6798
51.288683770237945 5.66364
51.31338186432707 5.6513800000000005
51.33808251561888 5.6161900000000005
51.362978729967345 5.61951
51.387684521509755 5.6089400000000005
51.41239287610203 5.62406
51.437103795691165 5.59016
51.46201036644977 5.557
51.486726441956634 5.57124
51.51144508832545 5.5402
51.536166307509156 5.59246
51.56108326624387 5.52883
51.58580965706056 5.51462
51.61053862657523 5.54139
51.635270176746864 5.50431
51.66019755512065 5.5131
51.68493429268881 5.48966
51.70967361681515 5.4578
51.73441552946465 5.440519999999999
51.759353359237934 5.44629
51.7841004750961 5.4386
51.80885018539685 5.44914
51.833602492111254 5.43112
51.8585508051424 5.389419999999999
51.883308330926425 5.3946
51.90806845906181 5.41081
51.932831191525715 5.3842
51.95779001977161 5.38469
51.98255798721516 5.354030000000001
52.00732856494335 5.3264
52.03229530577543 5.31532
52.057071130455945 5.30501
52.081849571391054 5.30433
52.106630630568695 5.31625
52.13160794279417 5.27271
52.15639426492067 5.303059999999999
52.18118321127822 5.26465
52.205974783860896 5.22719
52.23096269971011 5.24567
52.255759551287994 5.20589
52.280559035098186 5.22845
52.30536115314103 5.1839
52.33035970494467 5.22089
52.35516711807904 5.207000000000001
52.37997717147198 5.18878
52.40478986713005 5.1833800000000005
52.42979908731974 5.14605
52.454617094216 5.1334
52.47943774942214 5.13272
52.50426105495102 5.12925
52.529280976059844 5.10188
52.554109609024096 5.123130000000001
52.57894089837482 5.08501
52.60377484613117 5.10196
52.62880550079408 5.07977
52.65364479223379 5.05961
52.67848674816189 5.02307
52.70352547971946 5.019019999999999
52.72837279155837 5.04071
52.753222773982785 5.03637
52.778075429022984 5.04244
52.80312495150885 5.00216
52.827982978797436 5.036919999999999
52.85284368481815 4.98134
52.87770707160767 4.98904
52.90276741793998 4.96074
52.92763619336701 4.96505
52.952507655698504 4.9229199999999995
52.977381806977576 4.93374
53.00245301017842 4.94491
53.02733256653592 4.95704
53.052214817996074 4.90003
53.077099766608484 4.89409
53.102181859804446 4.88828
53.127072229988265 4.88592
53.15196530349892 4.82864
53.17686108239249 4.83073
53.20195409881522 4.86322
53.22685531582556 4.85986
53.25175924441303 4.8513
53.27666588664027 4.80405
53.30176985962693 4.81166
53.3266819565689 4.7834699999999994
53.35159677336455 4.791580000000001
53.376514312083096 4.80238
53.40162927507703 4.80186
53.42655228516116 4.74648
53.45147802340193 4.75709
53.47660125628886 4.76115
53.50153247842639 4.72015
53.52646643496923 4.66555
53.55140312799818 4.69086
53.576537409691696 4.72653
53.60147960336152 4.67453
53.626424539786164 4.67405
53.65137222105307 4.6904
53.67651758529126 4.692419999999999
53.70147078399681 4.61486
53.72642673383343 4.63184
53.75138543689533 4.62533
53.776541917524526 4.6361
53.801506154876755 4.623480000000001
53.826473151763246 4.57587
53.851442910284916 4.59356
53.87661054126026 4.58485
53.9015858509782 4.578530000000001
53.92656392866066 4.57457
53.95154477641532 4.5309
53.976723591801296 4.52489
54.00171000771266 4.536580000000001
54.02669920004598 4.5437
54.051691170915745 4.5442800000000005
54.076881204886796 4.52099
54.101878760928514 4.4829099999999995
54.12687910187696 4.4907
54.152077577768296 4.4252400000000005
54.1770835166946 4.41215
54.20209224691339 4.40665
54.22710377055121 4.43602
54.25231352511594 4.41909
54.27733066384342 4.329680000000001
54.30235060239643 4.35502
54.32737334290836 4.37449
54.35259441062629 4.34253
54.377622783395324 4.32147
54.40265396455061 4.3012
54.42768795623251 4.3003599999999995
54.45292037169559 4.24749
54.477960012857906 4.253830000000001
54.50300247099511 4.297219999999999
54.52804774825457 4.2394
54.55329154616743 4.22697
54.57834249018678 4.1908900000000004
54.6033962597977 4.17497
54.6284528571545 4.1284
54.653708072335164 4.11032
54.67877035378786 4.129519999999999
54.70383546947698 4.17213
54.72890342156389 4.1181
54.7541700889442 4.083
54.77924374251975 4.07906
54.8043202390049 4.09081
54.82959552413022 4.04611
54.8546777351945 4.03342
54.87976279569621 4.02755
54.90485070780914 4.02273
54.930137506558005 4.01615
54.95523115074295 3.9835800000000003
54.98032765308844 3.9255199999999997
55.005427015775496 3.92699
55.03072536339621 3.93264
55.05583047570572 3.92067
55.080938454927676 3.92335
55.10604930325027 3.89859
55.131359235107396 3.9056
55.15647585066083 3.8291699999999995
55.181595341907496 3.83655
55.20671771104285 3.8101300000000005
55.232039262617704 3.80275
55.25716741665048 3.7800199999999995
55.28229845518636 3.82036
55.30743238042802 3.7505800000000002
55.33276558731939 3.73641
55.357905315183636 3.74304
55.383047936390035 3.7058199999999997
55.40819345314859 3.66465
55.433538351073295 3.6953400000000003
55.458689688238415 3.67915
55.483843927614096 3.6129800000000003
55.509197623043605 3.60705
55.53435769621134 3.5678199999999998
55.55952067826466 3.5629800000000005
55.5846865714265 3.5222
55.61005202069737 3.54429
55.63522376553902 3.5515
55.66039842818645 3.5501699999999996
55.68557601087004 3.5423400000000003
55.7109532500271 3.4634
55.73613670233794 3.5039599999999997
