TT I
1.2716486653135266 10.8945
1.2939594142134223 10.5293
1.3162702121660406 9.88004
1.3385810600174564 10.0181
1.3608919586137629 10.2041
1.383202908801069 9.30844
1.405513911425503 8.329260000000001
1.4278249673332093 8.16972
1.4501343378461518 8.75511
1.4724455028545926 8.3972
1.4947567236847858 8.70545
1.517068001182951 8.3242
1.5393793361953272 7.810110000000001
1.5616907295681737 8.321769999999999
1.5840021821477681 8.11172
1.60631369478041 8.10335
1.6286252683124185 7.31162
1.6509369035901333 6.673589999999999
1.6732468618895553 6.7758199999999995
1.695558623192809 6.819030000000001
1.7178704487808514 6.78875
1.7401823395001077 6.9417800000000005
1.7625012545597203 6.68452
1.7848028405262486 6.37937
1.8071218901122095 6.23452
1.8294236121921872 5.83836
1.8517427996910911 6.373480000000001
1.8740620574440425 6.674860000000001
1.8963639900671978 7.01693
1.9186833908139995 6.44095
1.9409854680117449 6.2832099999999995
1.9633050151394713 6.852310000000001
1.9856246367570705 6.863460000000001
2.0079269371922672 6.627610000000001
2.03024671027244 6.844869999999999
2.0525491637446027 6.40121
2.074869091674931 6.6068
2.097171701569106 6.089230000000001
2.1194917877373847 6.482069999999999
2.141811954326636 6.01825
2.164114805233074 6.49595
2.186435135143035 5.9166099999999995
2.208738150935709 6.03067
2.231058647554722 5.4955
2.2533792288321184 5.43789
2.275682498336085 5.61412
2.298003251406138 5.17441
2.3203066942619714 5.276009999999999
2.3426276225136022 5.02347
2.3649486396617507 5.73723
2.387252348930071 5.40527
2.4095735463442893 4.75725
2.4318774374315884 5.05776
2.4541988185014043 4.67929
2.476502894794693 4.93157
2.498824462909887 4.78405
2.521146125856138 4.53142
2.5434504863470337 4.84232
2.5657723414244717 4.14621
2.588076895590662 5.1883
2.610398946189713 5.62059
2.6327210958598384 5.61214
2.6550259469304716 5.12594
2.6773482972090137 5.47466
2.6996533504259 5.65723
2.7219759047039602 5.85769
2.744298562293959 6.3525
2.7666039251246595 6.13699
2.7889267918020164 6.3555
2.8112323652516555 6.83155
2.833555444408179 6.8098399999999994
2.8558786311183852 7.76923
2.8781845268938557 8.10862
2.9005079311721484 8.58677
2.9228140460410397 8.6025
2.9451376712799635 9.55585
2.967444008632326 9.577
2.9897678582247247 9.58315
3.0120918213106695 10.5943
3.0343984987899373 11.003
3.0567226913198637 11.7931
3.079029599759726 12.1939
3.101354025127254 13.1943
3.123678568232338 13.6747
3.145985829517914 13.5291
3.16831061055229 13.7642
3.1906181112775593 14.3189
3.212943133635653 15.3678
3.2352682779763207 15.3812
3.2575761442691227 15.9053
3.2799015350264273 16.2984
3.302209649240067 16.6837
3.3245352898092655 16.9565
3.3468436553365257 17.3857
3.369169549113219 17.5004
3.3914955708171384 18.3948
3.413804319727358 18.8999
3.4361305997334863 19.2373
3.4584396084414553 19.1564
3.4807661501462652 20.1889
3.503092824025881 20.4596
3.5254022288463154 20.4076
3.5477291695206588 20.7333
3.5700388426251948 21.0749
3.5923660534916446 21.8217
3.6146934007816114 21.9078
3.637003482731501 22.2051
3.6593311053109985 22.3023
3.681641464033634 22.516
3.7039693653009733 22.8586
3.726297407241705 24.2062
3.7486081875460804 24.083000000000002
3.7709365132734978 24.3437
3.793247578841633 24.6997
3.8155761917550093 24.8153
3.8378875459837216 25.1467
3.8602164494827234 25.9198
3.882545499606844 26.9656
3.9048572932539183 27.6479
3.9271866390645718 27.5528
3.9494987298666713 27.8863
3.971828374764527 28.266
3.9941581705403255 28.5493
4.016470713506008 29.5553
4.038800813471445 29.6285
4.061113662089144 30.005
4.0834440696459176 30.8483
4.105774632334751 31.2976
4.128087945865126 31.9719
4.150418821249301 32.2975
4.172732448931298 33.2437
4.195063640413578 33.4441
4.2173775856475215 34.475
4.239709096631102 35.0013
4.262040768704612 35.5704
4.284355196706267 36.0049
4.306687193387355 37.1081
4.329001947444346 38.4328
4.35133427213731 39.387
4.373666762177566 39.4217
4.395982011761091 40.1695
4.418314834921175 40.8732
4.44063041906622 42.1193
4.4629635787515625 43.0431
4.4852969080429785 43.6108
4.5076130004776225 44.9569
4.529946671403969 45.8746
4.552263106909177 46.6272
4.574597122877047 47.8278
4.596931312711224 49.4735
4.619248269273446 50.1066
4.6415828092605835 51.3994
4.663900117405352 52.5808
4.686235010953232 54.0904
4.708552674085913 55.9827
4.730887924602802 57.3784
4.753223354952695 58.4332
4.775541557023902 60.0509
4.797877349456786 61.9008
4.820195915032126 63.6946
4.842532072957498 65.6976
4.864868414979744 68.5529
4.88718753227192 70.9689
4.909524244902505 73.9688
4.931843734218147 77.1849
4.954180820867835 81.7123
4.976518095879839 86.6418
4.998838149695359 92.0145
5.021175803844231 99.4161
5.043496238205739 106.574
5.065834274903528 114.66799999999999
5.088172504230693 125.044
5.1104935158799565 139.131
5.132832132875765 162.32399999999998
5.155153533596801 201.90400000000002
5.1774925416746225 300.281
5.199814334878411 752.09
5.2221537374521505 2094.75
5.244493338631803 3151.79
5.266815727034316 3133.1
5.289155727832427 4349.12
5.311478517248165 7908.13
5.333818921080011 8221.72
5.356159527788849 4310.5
5.3784829252032536 1425.08
5.400823940070432 513.9490000000001
5.423147747031976 277.041
5.445489173474152 199.85
5.467830807066149 166.389
5.490155234831516 148.791
5.512497285125229 136.096
5.534822130975162 128.279
5.557164601388673 121.405
5.579489868738879 115.455
5.601832762690846 111.98200000000001
5.6241758697774475 109.096
5.646501775867269 107.764
5.668845311622074 105.96799999999999
5.691171647754637 104.802
5.713515615597765 103.88600000000001
5.735859800852677 102.265
5.758186788542988 101.764
5.780531411018185 102.35700000000001
5.802858837297399 102.656
5.825203900414495 104.471
5.8475491852224 106.624
5.869877275883075 110.0
5.892223006467101 115.743
5.914551544266608 123.21799999999999
5.936897724049891 135.483
5.959244129804903 158.171
5.981573344815301 211.717
6.0039202049061 382.13
6.026249875609095 811.34
6.04859719346037 1231.38
6.070927323278297 1302.29
6.093275102315365 1357.94
6.115623113320588 2101.05
6.137953938319995 3309.45
6.160302415650845 2903.51
6.182633708324452 1362.3
6.2049826554078376 481.585
6.227331838745022 211.15
6.249663839443684 140.034
6.27201349767565 112.855
6.294345974611799 98.4977
6.316696111167083 88.4888
6.339046488263839 82.1218
6.361379686074702 77.3344
6.383730546639482 73.3874
6.406064229255215 70.4209
6.428415576718203 68.9795
6.450749747566656 66.7854
6.47310158535871 65.1722
6.495453669698332 63.9673
6.517788579421056 62.5628
6.540141159237969 61.5077
6.562476565766648 60.1855
6.5848296444934045 59.3029
6.607182974060425 58.6386
6.6295191323281015 58.0436
6.651872965955752 57.4596
6.6742096296068985 56.3231
6.6965639707294615 56.1723
6.71891856698715 55.5793
6.741255995248479 55.1309
6.763611104154477 54.3014
6.785949046381137 54.1169
6.808304671371482 53.4007
6.8306605557940046 53.6784
6.852999275508618 52.8682
6.875355681171544 52.7714
6.897694923437771 52.4617
6.92005185377892 51.7221
6.9423916220322655 52.1596
6.964749080490181 51.2716
6.987106804399774 51.3119
7.009447368180821 51.2374
7.031805625367033 51.2397
7.054146723727803 51.2792
7.076505517631004 50.9344
7.098864581288365 50.7428
7.121206488070854 50.5023
7.143566093607822 50.1834
7.165908543567245 50.3521
7.188268694426048 50.2163
7.2106291193438095 50.0088
7.232972390625943 49.8142
7.255333366030969 49.5721
7.277677189091925 49.7755
7.300038718428332 50.0513
7.322400526130865 49.6904
7.344745183422596 49.9397
7.367107550224791 49.8117
7.389452767901992 50.3938
7.411815697249891 50.4245
7.434161478756298 50.4389
7.456524974096713 51.0829
7.478888753837185 52.552
7.501235387657368 56.6294
7.523599738562711 75.357
7.545946944825532 116.537
7.568311870344528 145.446
7.5906770845765665 126.495
7.613025156078678 84.9253
7.635390950099687 62.2763
7.657739602662809 54.8057
7.680105979923558 52.9065
7.702472650212829 52.7169
7.724822180948224 52.43899999999999
7.747189439655568 52.0042
7.769539560075357 51.7383
7.791907410653562 52.4482
7.81425812420825 52.4341
7.836626570110925 52.8728
7.858995315087906 53.5556
7.881346924933401 53.4509
7.903716270417482 54.0216
7.926068482028405 54.3273
7.948438431475253 54.73
7.9708086843180235 55.4584
7.993161805171116 56.1454
8.015532667162402 56.5825
8.037886398416653 57.1151
8.060257873014221 57.6276
8.082629655331942 57.9546
8.104984308787587 58.6387
8.127356708900503 59.6214
8.149711981398308 60.784
8.172085002766314 61.5657
8.194458336181368 62.2821
8.216814543847752 63.8534
8.23918850371002 65.1447
8.26154533906492 66.4056
8.283919928836452 68.0964
8.306277395339652 69.2842
8.328652618483376 71.4181
8.351028159736202 73.8479
8.373386579575245 76.9835
8.395762759396959 79.6501
8.418121819038275 84.1279
8.440498640894003 90.7538
8.462875785192262 101.69200000000001
8.485235811156207 124.165
8.507613602688501 198.86
8.529974277114228 392.41
8.552352719347912 591.812
8.574731488360351 646.663
8.59709314210385 530.625
8.619472567021075 478.05
8.64183487789147 673.563
8.664214962183097 1252.21
8.686577933647762 1738.01
8.708958680784317 1463.44
8.731339760774953 844.127
8.753703729764451 338.70300000000003
8.77608547780821 163.954
8.798450116065078 123.64399999999999
8.820832535634787 107.47
8.843215292401656 99.2142
8.865580941199045 94.1716
8.887964374703538 90.7814
8.910330701447199 87.8551
8.932714815164482 86.0725
8.955099270424924 84.5243
8.977466620733543 83.1022
8.999851761421976 82.7197
9.022219798361645 81.9302
9.04460562795561 81.5434
9.066991803441677 81.4152
9.089360876979615 81.2154
9.111747746589993 80.8705
9.13411751544971 81.0369
9.156505082664324 81.5888
9.178875550323522 83.8875
9.20126381862328 90.9825
9.223652438908596 120.292
9.246023961427412 184.888
9.26841328802173 231.94799999999998
9.290785518039224 213.33599999999998
9.313175554425882 153.143
9.335565947154315 105.137
9.357939245086508 88.5786
9.380330352834827 83.3763
9.40270436697103 81.5736
9.425096193225055 80.5733
9.447488380180165 80.9111
9.469863475295412 80.8459
9.492256385987508 80.984
9.514632206018318 81.3502
9.537025843935714 81.4443
9.559402392368193 81.9825
9.581796761000229 82.7655
9.604191496441521 82.8778
9.626569144158516 83.1202
9.648964615551032 83.7289
9.671343000390081 84.6417
9.693739211225699 85.8375
9.716135793237463 86.7115
9.738515290448102 87.7121
9.760912617143402 88.7819
9.783292860202891 90.2597
9.805690935076182 91.7272
9.828089385495742 93.2329
9.850470754023561 95.8885
9.872869957865444 99.0092
9.89525208097539 102.905
9.917652041736662 108.53200000000001
9.940052382417589 118.867
9.962435644102392 142.99
9.984836746950979 208.15
10.007220771957746 364.43800000000005
10.029622640473708 543.674
10.052007432299963 596.898
10.074410069984072 513.6469999999999
10.096813093716005 417.333
10.119199042482517 420.44599999999997
10.141602840636468 627.396
10.163989564971628 1096.41
10.186394141051062 1576.37
10.208799107559706 1455.83
10.231187001965623 921.827
10.253592751657669 418.471
10.275981430388155 195.77200000000002
10.298387966769793 136.734
10.320794897965431 120.27
10.343184759907361 112.471
10.36559248305461 107.56700000000001
10.387983138083852 106.051
10.410391656691655 108.613
10.432800574501677 124.948
10.455192425893369 168.13
10.47760214443012 215.62900000000002
10.499994797678786 230.082
10.522405320453982 203.03400000000002
10.54479877906917 171.655
10.567210109595656 168.097
10.5896218454736 207.58599999999998
10.612016518879773 319.276
10.634429067781074 463.23
10.656824555333241 490.939
10.679237920773568 385.20599999999996
10.701651695961992 238.05900000000003
10.724048411481384 153.679
10.746463008485165 116.50399999999999
10.768860546937125 96.5536
10.791275969274796 85.8155
10.81369180576079 81.1913
10.836090585366925 78.795
10.858507252467449 76.6986
10.88090686379991 75.0908
10.903324365036394 73.7465
10.925724811614439 72.4834
10.948143150509463 72.0347
10.970561909719066 71.0627
10.992963615930844 70.1194
11.015383218085756 69.311
11.037785768347074 68.2322
11.06020621697282 67.6471
11.082627090322113 67.0493
11.105030913430326 66.3769
11.12745263854165 65.9587
11.149857314510728 65.0987
11.172279894912576 65.1486
11.194702904450653 64.369
11.217108866490921 63.6232
11.239532736615194 63.4137
11.26193956033512 62.81399999999999
11.284364294577085 62.4961
11.306789462371718 62.1787
11.329197585398376 61.8777
11.351623622610898 61.9666
11.37403261614354 61.2414
11.396459526308487 61.1659
11.418869393879497 60.6374
11.441297180532617 60.4726
11.463725406927658 60.0997
11.486136592353875 59.8826
11.508565700543707 59.2187
11.530977768845315 59.2788
11.553407762368774 58.8727
11.575838200059769 58.8067
11.598251599479612 58.7095
11.620682927815501 58.7296
11.64309721895548 58.6766
11.665529441478206 58.5063
11.687962112597958 58.6037
11.710377748130886 58.2464
11.732811318753434 58.1696
11.755227854859067 58.093
11.777662328529495 58.0725
11.800079768750786 58.0345
11.822515149015453 58.5022
11.844950984084935 59.0262
11.867369787303163 59.4105
11.889806534289491 60.6851
11.912226250487029 65.0712
11.934663912939751 75.82
11.9571020346363 90.09700000000001
11.979523127133968 96.4295
12.001962169624331 92.8541
12.024384183972964 82.4952
12.046824150809913 75.5432
12.069264581333726 79.9237
12.091687985297767 89.5728
12.11412934550045 96.8185
12.136553680195208 96.0957
12.158995973632788 89.8905
12.181438735204349 83.3925
12.20386447284199 82.7787
12.226308172985636 90.1579
12.24873485024193 112.51799999999999
12.271179492516982 150.306
12.293607112949127 180.146
12.316052700916226 174.43400000000003
12.338498763250042 135.237
12.360927805303868 94.7379
12.383374818673879 73.4123
12.405804812803074 65.1073
12.428252780773262 62.1308
12.45070122756722 60.9191
12.473132656675375 60.38399999999999
12.49558206341869 60.2635
12.518014453510101 59.8554
12.540464823770117 59.6018
12.562915677315177 59.6545
12.58534951575545 59.8322
12.607801338171472 59.7138
12.630236146511358 59.9832
12.652688941369085 60.3595
12.675124723177234 60.5627
12.697578494048786 61.286
12.720032754458185 61.1543
12.742470003354093 61.6332
12.764925245138771 62.074
12.787363476431278 62.2811
12.809819703166806 62.7567
12.83227642391173 63.4103
12.854716135692716 63.7975
12.877173846755147 64.8846
12.899614549869717 65.2934
12.9220732548287 66.172
12.94453245827299 66.6341
12.966974655289818 67.7834
12.989434858002571 68.7049
13.011878055298721 69.6381
13.034339260862497 70.8303
13.056800969391883 73.4514
13.079245674017244 78.1629
13.101708390774869 83.5297
13.12415410463411 91.6997
13.146617833206086 108.42399999999999
13.169064559883248 136.339
13.191529303857127 163.96400000000003
13.213994557076367 177.179
13.236442809902437 167.919
13.258909083908291 147.38299999999998
13.28135835851934 133.14
13.30382565690295 131.795
13.326293469022952 147.618
13.348744283242008 192.46099999999998
13.371213125129904 279.497
13.39366497011003 366.88
13.416134845360597 387.461
13.438605238843131 317.89799999999997
13.46105863690397 217.91
13.483530069144786 153.877
13.505984506951902 142.602
13.528456981549432 159.347
13.550929978879088 170.805
13.573385983253365 166.709
13.595860028340867 148.07399999999998
13.618317081455832 130.276
13.64079217790333 122.86200000000001
13.663250283359057 127.045
13.685726434770173 148.8
13.708203115221277 207.579
13.730662806148091 290.857
13.75314054697177 343.675
13.775601299246777 325.16900000000004
13.798080104050406 239.61700000000002
13.820559442405358 150.238
13.843021793671388 103.09299999999999
13.865502201420897 85.4459
13.887965623051947 79.8616
13.910447103807167 77.1077
13.932929122629764 75.039
13.955394156785959 74.1622
13.977877254034569 73.043
14.000343367582113 72.2432
14.022827546871707 71.6036
14.045294743423524 70.8208
14.06778000837062 70.824
14.090265817715476 71.3785
14.112734645763819 73.9597
14.13522154619454 81.6277
14.157691466286913 91.5403
14.180179461423874 95.7193
14.202668005486178 92.7311
14.22513957064374 85.0542
14.247629214846473 75.9819
14.270101881097517 70.1836
14.29259262906496 67.6245
14.315083930490205 66.7082
14.337558255389705 66.1597
14.360050666019726 65.7116
14.382526101071944 65.1689
14.405019624534942 65.3746
14.427513705993134 64.8721
14.449990813291825 64.8035
14.47248601302899 64.5121
14.49496423954951 64.762
14.517460561197822 64.5614
14.539939910570322 64.23100000000001
14.562437357763558 64.5587
14.58493536931253 64.4807
14.607416409993311 64.6459
14.62991555254159 65.0357
14.652397725157423 65.1501
14.674898002342799 65.4186
14.697398848433282 66.0159
14.719882725991326 67.0742
14.74238471217934 68.1764
14.764869730765593 71.414
14.787372860692983 78.5525
14.809876564079925 91.27799999999999
14.83236330125751 104.40799999999999
14.854868153850365 110.585
14.877356041159485 108.09700000000001
14.899862046604186 100.053
14.922351087688757 92.2883
14.944858249632887 88.455
14.967365991421232 89.8975
14.989856770231246 97.3383
15.012365673994204 117.88799999999999
15.03485761569738 154.789
15.05736768508665 193.468
15.07987833888692 207.951
15.102372032001655 188.25400000000002
15.124883856909658 142.657
15.14737872204565 103.12899999999999
15.169891721717274 81.6252
15.192405310371893 73.5056
15.214901940621196 69.661
15.237416709527137 67.045
15.259914520936249 65.9837
15.282430473753607 64.7239
15.304947020131227 64.0422
15.327446610371178 63.6266
15.349964346154254 62.84
15.372465126703139 62.7204
15.394984055556009 62.4137
15.417486030076159 62.3651
15.44000615566487 62.0343
15.462526881230803 62.0056
15.485030653812652 61.8015
15.507552581617434 61.9943
15.530057557334603 61.7967
15.55258069104857 61.9988
15.575104429329837 62.0809
15.597611216864632 62.2248
15.620136166564563 62.5775
15.6426441664095 63.5579
15.665170331202765 65.9295
15.687697105158826 71.6177
15.710206930593545 81.6463
15.732734925158933 92.7369
15.755245972089478 98.7288
15.77777519094324 98.4679
15.800287463046663 92.6801
15.822817909869592 84.9448
15.84534897229804 79.8205
15.867863089299354 79.41199999999999
15.890395385222186 82.2379
15.912910736597423 91.3584
15.935444269699861 113.178
15.957978423016485 147.24200000000002
15.980495633101265 176.105
16.003031029129367 185.34599999999998
16.02554948280019 163.25
16.048086125229432 127.12299999999999
16.070623392487107 97.6688
16.09314371869582 80.4558
16.11568223789321 71.2709
16.13820381691126 65.9733
16.160743591742527 62.0087
16.183283996022084 59.6883
16.205807461423195 57.4828
16.228349126881973 56.6541
16.25087385432698 56.3034
16.27341678466365 55.2824
16.29594277784926 54.909
16.31848697676433 54.5132
16.341031811604868 53.9892
16.36355971058487 53.6118
16.3861058195587 53.1695
16.40863499352978 52.9176
16.431182380342005 52.9273
16.453730407713202 52.5413
16.476261501364792 52.3229
16.498810812136167 51.9944
16.52134319004079 52.1173
16.54389378792203 51.8398
16.566445031001553 51.7056
16.588979342490088 51.5912
16.61153187824822 51.475
16.634067483263312 51.1352
16.656621315414416 50.9744
16.679175797408888 50.9233
16.701713349928728 51.0651
16.72426913389191 51.1023
16.74680798922351 51.1554
16.76936507887444 50.9144
16.791905240734874 51.1228
16.814463639794468 50.9799
16.837022695210294 51.1548
16.859564824093756 51.3111
16.882125194503903 51.6031
16.904668639217885 52.7439
16.927230328348003 53.8159
16.949792678493612 55.025
16.972338104193863 55.1862
16.994901778652235 54.792
17.017448529496576 54.1973
17.040013531998152 53.3653
17.06257920018044 53.1159
17.0851279459922 53.8626
17.107694947817667 55.9539
17.130245028099072 57.9681
17.15281336730298 59.6701
17.17536478578733 60.5269
17.19793446610687 59.5763
17.220504818648422 58.1475
17.243058251703697 56.7365
17.265629950971032 56.4799
17.288184731571736 56.5164
17.310757781306908 57.9424
17.33333150794385 59.6216
17.355888317140174 63.3454
17.37846339986244 69.8041
17.401021565958885 76.4956
17.42359800851343 79.417
17.44617513265564 77.4677
17.468735341390783 70.7195
17.491261035594565 63.3758
17.51396340099364 58.6065
17.536490463869136 56.5849
17.559018209820174 55.7274
17.58154663977963 55.4121
17.604251766089718 55.5152
17.626781572227713 55.5895
17.64931206518155 55.6719
17.671843245885103 55.9897
17.69455114821572 56.0675
17.717083712612634 56.577
17.739616967569667 57.7902
17.762150914021706 59.293
17.78486160749854 60.2256
17.807396945166804 61.1906
17.829932977143503 61.5568
17.85246970436452 62.0884
17.875183204129467 64.1709
17.897721330097664 69.0387
17.920260154126645 75.3989
17.942799677153296 80.1791
17.9655159983646 81.8835
17.988056927677544 80.0985
18.010598558807683 76.569
18.033140892692916 73.154
18.05586005052525 70.958
18.07840379824407 70.8337
18.10094825154059 72.8942
18.12366954819864 77.4366
18.146215420998306 87.5765
18.16876200220057 105.05
18.191309292745153 127.579
18.214033452627167 145.076
18.236582170236648 146.451
18.259131600016456 132.645
18.281681742907335 108.978
18.304408781233683 88.4195
18.32696035875955 76.4189
18.349512652227624 71.0362
18.372065662579683 70.2687
18.394795594587553 71.9782
18.41735004715306 77.5076
18.43990521943684 86.1899
18.46246111238171 95.9072
18.485193953325208 101.22399999999999
18.507751296070428 97.8015
18.530309362314178 88.7805
18.552868153000343 77.4677
18.57560391815056 68.763
18.59816416623245 64.0727
18.620725141597372 61.706
18.643286845190268 60.1335
18.666025549835414 58.7772
18.688588718427933 57.5107
18.711152618092243 56.8819
18.73389353884365 56.4431
18.75645890921984 55.8653
18.77902501351406 55.7101
18.801591852673102 55.5185
18.824335739722738 55.0185
18.846904057212626 54.9721
18.8694731124168 54.583
18.89204290628315 54.4834
18.914789774966803 54.3594
18.937361054791623 54.0487
18.959933076131318 53.7008
18.982505839934877 53.5622
19.00525570560582 53.7029
19.027829963004184 53.6436
19.05040496572238 53.5024
19.072980714710468 53.8267
19.095733592739563 53.8996
19.11831084296757 54.2969
19.140888842324735 55.5097
19.16346759176222 56.5213
19.18622349753803 57.6104
19.208803755869358 58.4616
19.231384767143577 58.1681
19.253966532312948 57.4752
19.276725481241822 57.0978
19.29930876296784 57.148
19.3218928014549 58.1011
19.34465404436217 59.2165
19.36723960516257 60.0655
19.389825925592426 60.3494
19.412413006605938 61.2761
19.43517731967805 63.8147
19.457765930683355 67.9891
19.48035530514408 71.2329
19.50294544401556 71.6424
19.525712842708348 68.9575
19.54830451925909 63.994
19.570896963095727 58.1532
19.593490175174704 54.129
19.616260674962184 52.2674
19.638855432416964 51.2189
19.661450960992624 51.1228
19.68404726164677 50.5368
19.706820878021247 50.4394
19.729418731756834 50.6302
19.752017360452857 50.3442
19.77461676506804 50.5024
19.797393513540218 50.4393
19.819994478951667 50.5128
19.84259622316767 51.3866
19.8651987471481 52.7189
19.887978643247177 53.7214
19.91058273574792 54.4077
19.933187610901943 54.5923
19.955969879466828 54.2641
19.97857632894404 53.4557
20.00118356396599 52.4308
20.023791585494575 52.0256
20.046577028914875 52.3979
20.069186632506966 53.1851
20.091797025500632 54.3967
20.114408208858933 55.9645
20.137196842715273 58.7266
20.159809615886765 62.2511
20.18242318232135 65.2508
20.20503754298326 67.9625
20.227829382875154 68.0081
20.250445341109344 65.3122
20.27306209647285 61.2253
20.29567964993108 57.0802
20.31847471147704 54.2
20.34109387027612 52.973
20.363713830075454 53.2573
20.386334591841646 55.0885
20.409132890679302 58.0688
20.431755265564437 61.2065
20.454378445325528 62.7556
20.477002430930366 61.7662
20.499803982716553 58.7575
20.522429589228004 54.6355
20.54505600449589 51.1042
20.567683229489194 49.2032
20.590488049900088 48.1433
20.61311690359731 47.6501
20.63574656993626 47.371
20.658553853717297 47.0258
20.681185154618298 46.9972
20.703817271080066 46.7897
20.72645020407368 46.6726
20.749260783967177 47.0445
20.771895359337133 47.4368
20.794530754161617 47.6191
20.817166969412938 47.6492
20.83998086114876 47.56100000000001
20.86261872660049 47.0919
20.885257415405402 46.7176
20.90789692853701 46.2143
20.930714147864748 45.8402
20.953355319030678 45.8179
20.97599731745334 46.0274
20.99864014410749 45.766999999999996
21.021460706796564 46.0282
21.044105199328826 46.4609
21.06675052302631 46.3986
21.089396678865015 46.2114
21.112220600704806 46.1318
21.134868430275347 45.9185
21.15751709492456 45.8542
21.180166595629693 45.4459
21.202993892429635 45.5292
21.22564507473034 45.6999
21.24829709602816 45.6973
21.27112693608965 45.9614
21.293780644891275 46.5329
21.316435195634053 47.0273
21.339090589297417 47.7001
21.361923832041875 48.5307
21.384580921090404 48.5708
21.407238856007325 47.9298
21.429897637773326 47.3667
21.45273429906592 46.8652
21.475394784108598 46.2995
21.498056118951983 45.9525
21.520718304578022 45.9887
21.543558400304388 46.1797
21.566222297108816 46.1866
21.58888704765135 45.9644
21.61155265291521 46.4362
21.63439619898156 47.3419
21.657063523335786 48.1211
21.67973170537063 49.3511
21.7024007460706 49.9694
21.72524775840385 50.1932
21.747918526116475 50.031000000000006
21.770590155457388 49.4666
21.79326264741238 48.8163
21.816113141960237 48.6537
21.838787368860547 48.8132
21.861462461341976 49.1717
21.884315579735777 49.9325
21.90699241312273 50.6849
21.92967011506078 51.4447
21.95234868653799 53.2303
21.9752053151131 55.6221
21.997885635446785 58.8863
22.020566828293532 61.8316
22.04324889464272 62.7406
22.066109049404666 61.5092
22.088792872571794 58.5627
22.111477572219204 55.5227
22.1341631493376 52.8906
22.157026846313123 51.373000000000005
22.179714188221507 51.3153
22.202402410582668 52.2398
22.22509151438863 53.2257
22.24795876962584 53.8117
22.270649646204486 53.6723
22.293341407213727 52.5074
22.316034053646906 50.6767
22.338904883215342 48.9818
22.36159931041458 47.5597
22.38429462602756 46.8464
22.40699083104897 46.0261
22.429865251039757 46.0275
22.452563244831367 45.8296
22.47526213102522 45.9663
22.49813925616515 45.8099
22.520839937143307 45.7612
22.543541513520587 45.8399
22.56624398629403 45.7327
22.589124730075895 45.6386
22.611829005656723 45.8316
22.63453418063466 45.7508
22.657240256008077 46.1444
22.680124634582935 46.6784
22.70283252079775 47.2814
22.725541310413075 48.1491
22.74825100442868 48.7104
22.771139033969575 48.9191
22.79385054687155 48.7455
22.81656296718292 48.4823
22.83927629590484 47.9557
22.862167992606945 47.6829
22.88488314827121 47.465
22.907599215359284 47.2595
22.93031619487366 47.1465
22.953211574954405 47.1986
22.975930389478226 47.551
22.998650119445763 48.1205
23.02137076586092 49.0038
23.044269845560063 50.9256
23.06699233506288 53.3593
23.089715744034912 55.1514
23.112617610931565 55.7287
23.135342869061212 55.2331
23.158069049684816 53.4042
23.1807961538087 50.9564
23.20370174880544 48.8698
23.226430710184808 47.5299
23.249160598093425 46.8461
23.271891413539002 46.7604
23.294800752937697 47.1014
23.31753343374794 47.7023
23.340267045128353 48.2634
23.36300158808808 48.8114
23.38591468821339 48.913999999999994
23.408651104658304 48.9424
23.431388455719986 48.5071
23.454126742409 48.1031
23.4770436196085 47.6356
23.499783787914662 47.3398
23.522524894889884 47.0166
23.54526694154616 46.411
23.56818761219047 46.5791
23.59093154860734 46.7147
23.613676427751283 47.4935
23.636422250635754 48.3076
23.659346731118656 50.1501
23.68209445191868 52.5324
23.704843119509587 54.8767
23.72759273490623 55.7799
23.750521041644767 55.1383
23.77327256312355 53.1898
23.796025035462787 50.3777
23.818956224555475 47.4834
23.841710609113413 45.6479
23.86446594758979 44.3183
23.887222241002014 43.7079
23.910157285144578 43.1121
23.932915498962537 43.1938
23.955674670778713 42.8913
23.978434801611975 42.856
24.001373717286125 42.6269
24.024135776723917 42.4232
24.046898798245582 42.4494
24.06966278287146 42.2497
24.092605586582614 42.0133
24.115371508023642 41.9186
24.1381383956401 41.7275
24.16090625045381 41.6013
24.183852958731244 41.5774
24.206622758582608 41.4049
24.229393528706886 41.3889
24.252165270127392 41.4368
24.27511589952438 41.2382
24.297889594216997 41.0502
24.32066426328598 40.9029
24.34343990775613 40.8971
24.36639447485003 40.8495
24.38917208083877 40.7139
24.41195066531332 40.6067
24.43490819850244 40.6216
24.457688750692377 40.3693
24.48047028445616 40.2932
24.503252800821233 40.2986
24.526214300784112 40.4352
24.548998793132213 40.4115
24.57178427117417 40.2143
24.59457073593893 40.3653
24.617536219319863 40.4642
24.64032466834748 40.6289
24.663114107195035 40.7705
24.685904536893013 40.6626
24.708874020360852 40.7807
24.731666442613744 40.7958
24.754459858818787 40.6949
24.777254270007962 40.376
24.80022777025625 40.1995
24.82302418230472 40.1343
24.845821592443674 40.0925
24.86862000170663 40.0319
24.891597535453727 39.9216
24.914397953892728 40.2421
24.93719937456671 40.066
24.96000179851076 40.0105
24.98298338249997 40.1067
25.00578782394922 40.2617
25.028593271784167 40.1639
25.05157790644186 40.4807
25.07438537804115 40.505
25.097193859145293 40.4827
25.120003350792075 40.5541
25.142992065061257 40.6105
25.165803588823465 40.5142
25.18861612625217 40.6074
25.211429678386736 40.5791
25.234422489079968 40.8767
25.257238081693636 41.163999999999994
25.280054692141732 41.5223
25.3028723214652 41.8104
25.325869245420463 41.6549
25.348688923599397 41.4736
25.371509623787006 41.2891
25.394331347025812 40.9961
25.41733240110666 41.0759
25.440156181590016 41.4242
25.46298098826268 42.1046
25.48580682216873 42.5615
25.50881202326435 42.7188
25.53163992281684 42.2959
25.55446885274561 41.5547
25.577298814096377 40.5206
25.600308179121807 39.7499
25.623140214533745 39.236
25.64597328451537 38.8466
25.66898578564376 38.585
25.691820936010206 38.5621
25.714657124097695 38.396
25.737494350954734 38.3601
25.760511045684957 38.3882
25.783350361364224 38.5999
25.806190718969255 38.6608
25.82903211955018 38.84
25.852053024868923 38.8485
25.874896522722523 38.8293
25.897741066713106 38.5003
25.920586657892454 38.3779
25.943611790812668 38.367
25.966459487728237 38.1987
25.989308234998564 38.0689
26.01215803367705 38.1044
26.03518741123814 38.1104
26.05803932412957 38.0693
26.080892291600094 37.9179
26.10374631470478 37.8903
26.12677995397268 38.1685
26.14963609978026 38.4119
26.172493304397875 38.6402
26.19535156888223 39.1129
26.218389486949604 39.4528
26.241249882640123 39.7638
26.26411134137826 39.6934
26.28715248187403 39.7376
26.31001607820869 39.2344
26.3328807407756 38.7491
26.35574647063438 38.7536
26.37879191991473 38.4488
26.401659795896734 38.3328
26.424528742360263 38.4275
26.447398760366614 38.2089
26.470448535598294 38.1038
26.49332070826805 38.0128
26.516193955675355 38.0798
26.53906827888316 38.088
26.562122397260108 38.014
26.584998883685063 38.1654
26.607876449110325 38.1534
26.63075509460056 38.0026
26.65381357334404 37.9751
26.67669439061878 37.9909
26.699576291163382 38.2386
26.722459276044212 38.8452
26.745522132402975 39.1948
26.768407297649354 39.7453
26.791293550442003 40.0499
26.814180891848974 40.0713
26.837248143099337 39.6663
26.860137673466657 39.3542
26.88302829566349 38.9172
26.90592001075963 38.6669
26.92899167420566 38.5241
26.951885586870763 38.3318
26.974780595655517 38.4611
26.99785558178161 38.5415
27.020752794605112 38.211
27.043651106772522 37.6817
27.06655051935668 37.4582
27.089629948036183 37.0338
27.112531573292053 36.7599
27.135434302194138 36.8983
27.158338135817015 36.6144
27.181422024430987 36.6256
27.204328079372566 36.5891
27.22723524226965 36.6261
27.250143514198573 36.6148
27.273231880156334 36.5322
27.296142382065014 36.4296
27.319053996245536 36.1858
27.341966723775965 36.268
27.365059584515222 36.3177
27.38797455070062 36.244
27.410890633481237 36.1624
27.433807833936918 36.0709
27.456905206923906 36.1072
27.47982465472398 36.1071
27.502745223449743 36.0008
27.525666914182825 36.1216
27.548768816912457 36.1774
27.571692763693633 36.1732
27.59461783573812 36.0437
27.617723149491244 36.0679
27.640650484125285 36.2836
27.66357894728264 36.3921
27.686508540048052 36.5189
27.709618414237887 36.6101
27.732550278321757 36.4795
27.755483275279115 36.5241
27.778417406196485 36.4318
27.801531858397514 36.1564
27.824468269376716 36.0118
27.847405817586786 35.9171
27.870344504116094 35.9099
27.893463551932008 35.9386
27.916404527281053 35.9266
27.93934664422563 35.9274
27.962289903855886 35.8377
27.98541356491974 35.8842
28.00835912214229 35.8513
28.03130582533231 35.8418
28.054253675581805 35.7451
28.077381967556104 35.8055
28.100332124185126 35.7899
28.123283431160893 36.0215
28.146235889577238 36.3259
28.169368830154156 36.4654
28.192323603752033 36.7563
28.215279532083304 36.7772
28.238415973016764 36.9033
28.261374223145094 36.7695
28.284333631303806 36.3658
28.307294198589954 35.9691
28.330435319167677 35.7918
28.353398217078915 35.8202
28.376362277420153 35.7488
28.39932750129032 35.699
28.422473319286713 35.4613
28.44544088262495 35.2804
28.468409612800283 35.0217
28.491379510913497 34.5614
28.51453004413313 34.3221
28.53750229057244 34.242
28.56047570826344 34.1388
28.583450298308804 34.0926
28.606605564586562 33.9298
28.629582511831156 34.0162
28.65256063474956 33.8682
28.675539934446338 33.8584
28.698699951647605 33.6837
28.72168161743193 33.4766
28.74466446331978 33.516
28.767648490417624 33.5029
28.790813276438353 33.4005
28.813799678527303 33.3538
28.836787265157085 33.2883
28.859955641890075 33.2504
28.882945610203045 33.1205
28.905936766392035 33.0578
28.928929111566863 33.2074
28.952102288520145 33.0914
28.975097024308607 33.0742
28.998092952423807 33.0805
29.021090073977508 33.1114
29.04426806913204 33.201
29.067267590245258 33.1603
29.090268308143695 33.2087
29.11327022394099 33.126
29.13645305530891 32.9365
29.159457379627167 32.8424
29.18246290519685 32.5602
29.20546963313352 32.4496
29.22865731875826 32.321999999999996
29.25166646419296 32.2347
29.27467681535305 32.2005
29.29768837335608 32.1817
29.320880931312562 32.11
29.34389491580634 31.9764
29.366910110507334 31.9716
29.38992651653503 32.0088
29.41312396492981 31.9102
29.436142806456754 31.8725
29.45916286268059 31.6962
29.48236399319994 31.8989
29.50538649169417 31.9898
29.528410208259935 32.0535
29.55143514402014 32.0131
29.574641196749695 32.0238
29.597668583816574 31.8769
29.6206971934585 31.7578
29.64372702680042 31.6633
29.666938019934474 31.4131
29.689970313635285 31.2265
29.713003834422636 31.0925
29.73603858342347 31.1071
29.759254535188578 31.0348
29.78229175361658 30.7793
29.80533020365064 31.0596
29.82836988641968 31.0373
29.85159081507472 30.9427
29.874632976355343 30.8141
29.89767637376955 30.9036
29.920721008448314 30.7488
29.9439469322847 30.6972
29.96699405457564 30.7059
29.9900424175358 30.7321
30.013092022298157 30.683000000000003
30.03632295963995 30.6821
30.059375061131373 30.6884
30.08242840783577 30.6542
30.105483000888153 30.7398
30.128718970092244 30.4477
30.151776069006917 30.4461
30.17483441768648 30.386999999999997
30.198074175317235 30.4257
30.221135036724256 30.4225
30.24419715131772 30.1666
30.267260520236203 30.2957
30.290505341942243 30.4268
30.313571232750228 30.4877
30.336638381310948 30.521
30.35970678876503 30.6754
30.38295669299435 30.5973
30.40602763151657 30.586
30.429099832366074 30.5912
30.452173296685572 30.4089
30.47542830191959 30.3352
30.498504306502497 30.2392
30.521581577995562 30.2559
30.544660117543582 30.2745
30.56792024229725 30.2429
30.59100133132069 30.0397
30.614083691845494 30.0526
30.637167325018545 30.0618
30.660432587840603 30.0479
30.683518779717886 29.926
30.70660624769615 29.8727
30.729694992924372 29.8776
30.75296541239743 29.9887
30.77605672557558 30.0312
30.799149319462742 30.1699
30.8224236211637 30.1653
30.845518789950724 30.1621
30.868615242910597 30.2866
30.891712981195973 30.3085
30.91499247215866 30.1724
30.938092794619365 30.1894
30.96119440587579 30.1079
30.984297307082752 29.9719
31.00758200598383 29.8557
31.030687500658694 29.7015
31.053794288760695 29.6112
31.076902371446767 29.6147
31.100192296997445 29.574
31.12330298246119 29.5915
31.14641496599209 29.4366
31.169528248749216 29.2973
31.19282341969534 29.3191
31.215939314557186 29.2902
31.239056512134788 29.2636
31.262175013589378 29.116999999999997
31.28547544871168 29.0471
31.30859657161541 29.0493
31.331719001892175 28.9548
31.35484274070538 29.069000000000003
31.378148458819545 28.9843
31.401274828443725 28.9627
31.424402510106933 28.9252
31.447712205419993 28.9199
31.470842524931633 28.8497
31.493974159989783 28.8641
31.51710711176168 28.8446
31.54042212308802 28.8636
31.563557722100917 28.9823
31.586694641341655 28.9114
31.609832881979628 28.9344
31.63315322823208 29.0195
31.656294125521327 28.9933
31.679436347728515 28.9702
31.70257989602529 28.9119
31.725905596152327 28.776
31.74905181052835 28.5894
31.772199354521323 28.6148
31.79534822930507 28.4816
31.818679302290967 28.3669
31.84183085259981 28.3353
31.864983737233473 28.2624
31.88813795736804 28.2866
31.911474422233013 28.061999999999998
31.934631327356435 28.1994
31.9577895715215 28.0186
31.980949155906522 28.0536
32.004291031706956 28.1442
32.027453310562606 28.0344
32.05061693318573 28.0057
32.07396288236386 28.1092
32.09712920658542 28.2074
32.12029687812702 28.1946
32.14346589817093 28.037
32.166817291729984 28.1026
32.18998902288583 27.953000000000003
32.21316210610336 27.901
32.23633654256711 27.8297
32.259693399663725 27.6863
32.282870556771144 27.7682
32.30604907069099 27.7593
32.329228942610065 27.6502
32.35259128243769 27.4235
32.375773884550505 27.3744
32.398957848235646 27.3364
32.422143174682176 27.1773
32.445511016471215 27.2094
32.468699082679954 27.1223
32.49188851523011 27.109
32.51507931531304 26.9939
32.538452678331 27.0842
32.56164622776311 26.9558
32.58484114831493 26.8192
32.60803744118015 26.8114
32.631416344731896 26.9187
32.654615396551876 26.7951
32.67781582427913 26.7833
32.701198898634416 26.711
32.72440209253756 26.691999999999997
32.747606665947124 26.6966
32.77081262006088 26.5761
32.79420126883317 26.593000000000004
32.81740999876112 26.6531
32.840620112999424 26.541999999999998
32.86383161274818 26.4138
32.88722585534586 26.4317
32.91044014056596 26.4499
32.933655814909734 26.3612
32.95687287957963 26.3281
32.98027273544904 26.272
33.00349259526636 26.229
33.026713849030116 26.254
33.04993649794511 26.2348
33.073341986570746 26.1566
33.09656744032826 26.1128
33.11979429286444 26.0921
33.14302254538647 26.0212
33.166433686291185 25.9272
33.18966475336992 25.9172
33.212897224069096 25.8078
33.23613109959831 25.9005
33.259547912343415 25.9157
33.2827846121627 25.8637
33.306022720453775 25.7849
33.32926223842861 25.7483
33.352684742614166 25.823
33.37592709463173 25.8767
33.399170859982064 25.8627
33.422597648419426 25.7559
33.44584425514446 25.8014
33.46909227885668 25.6608
33.4923417207723 25.6032
33.51577423505344 25.7121
33.539026528130385 25.6336
33.56228024307245 25.5609
33.585535381098246 25.3283
33.60897364093058 25.2745
33.63223163992385 25.3286
33.6554910656699 25.1574
33.678751919389796 25.1928
33.702195944520106 24.9963
33.72545966903325 24.9887
33.74872482519663 24.9527
33.771991414233746 24.9738
33.79544122444841 24.8153
33.81871069412428 24.8813
33.84198160035767 24.9024
33.86525394437455 24.8207
33.88870955949969 24.7774
33.911984794020626 24.6958
33.93526147001624 24.6542
33.958539588715006 24.6861
33.98200102861669 24.5895
34.0052820477047 24.5623
34.02856451319451 24.5756
34.05203033759056 24.5321
34.07531571090147 24.5183
34.09860253431845 24.4459
34.121890809074316 24.4156
34.145362493118924 24.4499
34.16865368561615 24.326
34.191946333164054 24.2949
34.21524043699793 24.1926
34.23871800066799 24.185
34.26201503218366 24.0942
34.28531352370466 24.0874
34.30861347646881 24.0703
34.33209693978188 23.9745
34.3553998301885 23.9163
34.378704185565205 23.8542
34.402010007152356 23.8275
34.42549939016683 23.9104
34.44880815937748 23.7733
34.472118398533134 23.8411
34.49543010887669 23.8617
34.51892543169198 23.7062
34.54224009966052 23.7849
34.56555624255917 23.7426
34.58887386163339 23.6471
34.61237514439016 23.5537
34.6356957311114 23.5839
34.65901779775809 23.4748
34.68252356662995 23.4783
34.705848608458616 23.4066
34.72917513396849 23.3192
34.75250314440949 23.3205
34.77601490857862 23.2253
34.799345904259795 23.2336
34.82267838863559 23.305999999999997
34.846012362958525 23.2235
34.869530142679984 23.168000000000003
34.89286711232212 23.1821
34.91620557568269 23.0987
34.93954553401677 23.1298
34.9630693495876 23.0758
34.986412313340814 23.0612
35.00975677584668 22.9605
35.033102738362956 22.8806
35.05663261012228 22.9384
35.0799815881786 22.9841
35.10333207003229 22.8633
35.12668405694369 22.7965
35.150220005273056 22.8254
35.17357501786656 22.7967
35.19693153931268 22.7182
35.220289570874385 22.6686
35.24383161619786 22.7021
35.267192683604904 22.709
35.290555264930376 22.6182
35.314101899412165 22.6161
35.33746752422433 22.5344
35.36083466676374 22.4965
35.38420332829803 22.4791
35.407756095629054 22.4878
35.43112781085063 22.4744
35.45450104888391 22.386
35.477875810999194 22.4104
35.50143473172161 22.3492
35.52481255774625 22.4391
35.54819191167777 22.406999999999996
35.57157279478914 22.3747
35.595137889488406 22.3703
35.61852184675279 22.3644
35.641907337029984 22.2328
35.665294361595684 22.3067
35.68886565090076 22.1552
35.7122557598848 22.2241
35.73564740699838 22.1421
35.759040593519934 22.1292
35.78261809810353 22.0679
35.80601437933051 22.0812
35.829412203814705 21.9907
35.85281157283719 21.8597
35.876395313415884 21.9324
35.8997977874528 21.8412
35.92320180988546 21.8759
35.946790244133936 21.7864
35.97019737933222 21.7907
35.993606066789866 21.7144
36.01701630779276 21.6463
36.04061101440684 21.6462
36.06402437852291 21.6332
36.08743930005611 21.6167
36.1108557802951 21.5061
36.13445678011326 21.5177
36.15787639383515 21.475
36.18129757014299 21.3977
36.20472031032821 21.4289
36.22832762423364 21.4175
36.25175350829375 21.3342
36.275180960119776 21.3132
36.298609981005924 21.2733
36.32222362992669 21.2918
36.34565580510207 21.3352
36.36908955323448 21.3145
36.39252487562093 21.1476
36.416144880530226 21.1449
36.43958336764275 21.0565
36.463023432914625 21.1429
36.486465077645676 21.0304
36.51009145956204 21.0687
36.53353627947859 20.9939
36.55698268276811 20.9702
36.58043067073321 20.9707
36.60406345072071 20.9038
36.62751462435344 20.9146
36.65096738658405 20.9082
36.67460498210655 20.8207
36.69806093788647 20.8277
36.72151848619297 20.7212
36.744977628333636 20.7815
36.76862165890998 20.6776
36.79208400512205 20.7315
36.81554794910557 20.747
36.83901349217101 20.6054
36.862663978991606 20.6095
36.88613273667352 20.576
36.90960309738324 20.5253
36.933075062434064 20.5009
36.95673202673572 20.4548
36.98020721697122 20.4364
37.003684015502365 20.4054
37.027162423645365 20.3739
37.050825886711465 20.2366
37.07430753063053 20.171
37.09779078812467 20.2254
37.121275660513014 20.1588
37.144945643673694 20.1711
37.16843376245278 20.1215
37.19192350009803 20.1441
37.215414857931435 20.0835
37.239091382563885 20.0372
37.262585997426164 20.0076
37.28608223645736 19.9544
37.309763684451696 19.9055
37.33326318851098 19.8984
37.356764320726555 19.8754
37.380267082425526 19.9016
37.40395510942588 19.8439
37.42746114683234 19.7604
37.45096881771841 19.7367
37.474478123414166 19.7416
37.49817275092816 19.6966
37.52168534303452 19.6728
37.54519957395567 19.6659
37.568715445024665 19.6336
37.592416694607714 19.6164
37.61593586281424 19.5595
37.63945667518264 19.5985
37.66297913304891 19.5102
37.68668702630454 19.482
37.710212792059274 19.4078
37.733740207334854 19.442
37.757269273470364 19.3145
37.780983832050374 19.365
37.80451621684926 19.3428
37.82805025654007 19.3256
37.851585952464795 19.2621
37.8753071980695 19.2329
37.89884622345676 19.1104
37.92238690911902 19.1364
37.94611318753442 19.1498
37.969657210779765 19.1344
37.99320289834801 19.099
38.016750251586465 19.0515
38.04048325513017 19.0096
38.06403395679343 18.9822
38.087586328183946 18.8756
38.11114037065203 18.9163
38.13488012115898 18.9414
38.1584375229181 18.8068
38.181996599821 18.7796
38.205557353221124 18.7535
38.229303872575656 18.8023
38.2528679961576 18.7446
38.27643380031219 18.7177
38.30000128639589 18.6297
38.32375459653193 18.6829
38.34732546371299 18.649
38.37089801690786 18.6153
38.39447225747609 18.5047
38.418232380377425 18.5001
38.441810012983396 18.4689
38.46538933705673 18.3694
38.488970353960084 18.3863
38.51273731166058 18.4321
38.536321731567014 18.3442
38.55990784840681 18.3392
38.58367995004091 18.3205
38.60726947812959 18.305
38.63086070726198 18.2744
38.654453638806274 18.293
38.678232613930824 18.1785
38.70182896773327 18.137
38.72542702806741 18.1363
38.7490267963045 18.146
38.77281266709232 18.0824
38.79641586862214 18.0821
38.8200207821842 17.979
38.843627409152944 18.0715
38.86742019782782 18.0245
38.891030269149255 17.9152
38.914642058016156 17.9289
38.938255565806124 17.8375
38.96205529464307 17.8604
38.98567225787121 17.8478
39.00929094417078 17.8177
39.03291135492255 17.8172
39.05671804624804 17.7516
39.080341923549106 17.6409
39.103967529460334 17.6693
39.127594865365744 17.6183
39.15140854155791 17.6005
39.17503935514948 17.5379
39.19867190290282 17.6159
39.22249083587951 17.5783
39.24612686969409 17.5596
39.269764641845306 17.5016
39.293404153722804 17.4827
39.317230110864074 17.4106
39.34087311998506 17.3582
39.36451787301696 17.4291
39.388164371352595 17.284000000000002
39.41199737518003 17.3149
39.43564738196752 17.3124
39.45929913825317 17.2396
39.48295264543308 17.2565
39.506792718520884 17.2522
39.530449745387216 17.2304
39.55410852735203 17.2316
39.57776906581474 17.1802
39.60161623079 17.1443
39.625280300200025 17.0161
39.64894613032202 17.0342
39.67261372255866 17.0193
39.6964680021016 16.9648
39.72013913657293 17.0005
39.74381203738292 16.9387
39.76748670593756 16.8909
39.79134812278169 16.9059
39.81502634488497 16.862000000000002
39.83870633896685 16.9052
39.862388106436654 16.8074
39.88625668336918 16.8233
39.90994201572829 16.8261
39.933629125719285 16.7643
39.957503091207826 16.7241
39.9811937746168 16.7561
40.00488623990914 16.6474
40.02858048850006 16.615
40.05246165409549 16.6166
40.076159487492085 16.5745
40.099859108448875 16.5393
40.123560518384345 16.5575
40.1474489070226 16.4516
40.171153913178564 16.4361
40.194860712584955 16.452
40.2185693066637 16.4147
40.242464941335314 16.35
40.26617714307655 16.3998
40.289891143772046 16.3611
40.3136069448471 16.3424
40.33750984859743 16.3314
40.3612292688043 16.2367
40.3849504936829 16.2444
40.40867352466194 16.249000000000002
40.43258372059144 16.24
40.45631038219906 16.2015
40.48003885420956 16.1325
40.503769138055105 16.1314
40.52768664931955 16.1381
40.55142057531802 16.052
40.57515631746428 16.0585
40.599079334038514 16.0906
40.62281872700477 15.9832
40.64655994043941 15.9607
40.67030297578061 15.9555
40.69423334835778 15.9858
40.71798004609188 15.9284
40.74172857006355 15.8422
40.76547892171441 15.8262
40.7894166736039 15.8061
40.813170699248566 15.7832
40.83692655691388 15.8081
40.86068424804498 15.793
40.884629402612525 15.7081
40.908390779366385 15.7816
40.932153993938 15.7054
40.95591904777605 15.6794
40.979871628443995 15.6974
41.003640379561936 15.6431
41.02741097430883 15.6639
41.05118341413683 15.5957
41.075143444384416 15.5386
41.098919593177826 15.5752
41.1226975914255 15.5107
41.14647744058318 15.5082
41.170444943946755 15.4961
41.19422851378379 15.4542
41.218013938914645 15.3847
41.24198706625173 15.3856
41.26577622087193 15.323
41.289567235177785 15.2884
41.31336011063129 15.3078
41.337340752422875 15.2367
41.361137369129835 15.2365
41.38493585138705 15.2225
41.40873620066004 15.1996
41.43272438060107 15.1153
41.45652848292052 15.0422
41.48033445666918 15.0251
41.50414230331616 15.0486
41.528138045159764 15.0239
41.551949656675205 14.9534
41.575763145513235 14.9333
41.59957851314666 14.8998
41.62358184070442 14.9453
41.64740098505737 14.8735
41.6712220126409 14.9235
41.69504492493139 14.8338
41.71905586207357 14.8586
41.74288256296395 14.7922
41.766711153007456 14.7751
41.79054163368412 14.7992
41.814560204340054 14.7657
41.838394485526365 14.7111
41.86223066180303 14.7126
41.88625497706819 14.6496
41.910094962812 14.6902
41.93393684811168 14.6466
41.95778063445365 14.5698
41.981812625263366 14.5779
42.00566023303407 14.5511
42.029509746323676 14.5019
42.05336116662236 14.453
42.077400857069705 14.5001
42.10125611078846 14.4634
42.12511327600405 14.3902
42.14897235421036 14.4245
42.173019768448455 14.4146
42.19688269209613 14.3603
42.22074753323349 14.3205
42.24461429335818 14.3326
42.268669455600495 14.3062
42.292540073217886 14.2528
42.31641261433284 14.2668
42.34028708044675 14.2542
42.36435001496739 14.2389
42.38822835065557 14.1598
42.41210861586426 14.145999999999999
42.4359908120986 14.172
42.46006154323262 14.0904
42.48394762115317 14.0566
42.507835634632315 14.0835
42.531912233047436 14.0195
42.55580413732265 14.0378
42.579697981698 13.9842
42.60359376768525 13.9632
42.62767820545945 13.9224
42.65157789440821 13.9504
42.67547952952185 13.9063
42.699383112316 13.7996
42.72347541395347 13.7937
42.74738291190531 13.8141
42.771292362102166 13.8085
42.795203766063516 13.8039
42.819303956130405 13.7819
42.843219287476536 13.6873
42.86713657716324 13.7145
42.89105582671383 13.6907
42.91516392983864 13.6998
42.939087119032166 13.6761
42.963012272677304 13.6077
42.98693939230129 13.5941
43.01105543317513 13.5458
43.034986504731386 13.5172
43.05891954686589 13.4888
43.08285456110972 13.522
43.10697856448665 13.4639
43.130917542983475 13.4272
43.15485849820081 13.4509
43.17880143167367 13.408
43.20293342237094 13.3423
43.226880332449 13.3504
43.25082922540554 13.3713
43.27496722682525 13.3269
43.29892010567796 13.3199
43.32287497204102 13.2896
43.34683182745632 13.261
43.370977859791836 13.2195
43.39493871351105 13.1863
43.41890156092628 13.1814
43.44286640358341 13.1577
43.46702049182749 13.1376
43.49098934522816 13.0973
43.51496019852649 13.0538
43.5389330532723 13.0854
43.56309522248204 13.0104
43.58707210044314 13.0468
43.61105098451946 12.959000000000001
43.63503187626491 12.9814
43.659202151562134 12.9223
43.68318707902681 12.9421
43.70717401884041 12.879000000000001
43.731162972560874 12.8618
43.75534137913236 12.7956
43.779334381108384 12.7886
43.803329401683186 12.8173
43.82732644241872 12.7883
43.8515130055166 12.8061
43.87551410707659 12.769
43.89951723350145 12.7448
43.923709934595614 12.6639
43.94771713129917 12.7164
43.97172635758096 12.7075
43.99573761501002 12.6589
44.0199385169922 12.613
44.04395385732619 12.5956
44.067971233533086 12.614
44.09199064718605 12.5891
44.11619977548961 12.508
44.14022328470671 12.4736
44.16424883610785 12.5401
44.18827643127035 12.511
44.21249381139513 12.5091
44.236525514814076 12.4332
44.26055926674478 12.3953
44.28459506876863 12.3749
44.3088207262813 12.3159
44.33286064928722 12.3201
44.35690262714919 12.3513
44.38094666145278 12.2539
44.4051806219871 12.3124
44.42922879003185 12.2784
44.45327901929361 12.2341
44.477331311362136 12.2064
44.501573600619416 12.1643
44.525630039221795 12.1267
44.54968854541895 12.14
44.573937102200176 12.1045
44.5979997645541 12.0628
44.622064499300315 12.099
44.64613130803592 12.0691
44.67038823869318 12.0454
44.69445921643748 12.0413
44.718532272981385 11.9702
44.742607409926194 11.9757
44.76687274034801 11.9408
44.79095205918753 11.9273
44.81503346325094 11.9135
44.839116954143876 11.8701
44.86339071028742 11.8851
44.88747839599524 11.8486
44.91156817336837 11.7989
44.93566004401666 11.800999999999998
44.959942251908146 11.8129
44.984038330325966 11.7853
45.00813650686762 11.7046
45.03223678314731 11.6948
45.05652746888232 11.6884
45.08063196592069 11.6624
45.104738567558705 11.6784
45.128847275414856 11.6735
45.15314646515866 11.5673
45.17725940679741 11.5943
45.20137445952892 11.5879
45.22568004865265 11.5652
45.24979934496396 11.5272
45.27392075725247 11.5372
45.29804428714431 11.497
45.322358426247604 11.4641
45.346486212804315 11.4386
45.370616121861914 11.4469
45.39474815505086 11.4251
45.41907087049246 11.3733
45.4432071734666 11.3303
45.46734560548283 11.3792
45.49148616817604 11.3503
45.51581748638564 11.3626
45.5399623320197 11.2851
45.56410931325473 11.2878
45.58825843173002 11.2319
45.61259837920865 11.2294
45.636751793816 11.2299
45.66090735060093 11.2129
45.68506505120716 11.1928
45.7094136545275 11.1504
45.73357566449271 11.1201
45.75773982322992 11.1322
45.78190613238733 11.0886
45.806263418194064 11.0998
45.83043404997326 11.0923
45.85460683713677 11.044
45.87897065658495 11.0805
45.90314777634752 10.9952
45.92732705646868 11.0029
45.9515084986045 10.9722
45.97588104735473 10.9503
46.00006683541565 10.8909
46.02425479047904 10.8489
46.04844491420549 10.8531
46.0728262191024 10.8768
46.09702070211635 10.8091
46.12121735879483 10.8274
46.14541619080294 10.8193
46.169806278764455 10.8015
46.194009483459034 10.7666
46.21821486849841 10.747
46.24242243555223 10.6953
46.266821333570014 10.7261
46.29103328674601 10.6776
46.31524742696538 10.6991
46.33946375590237 10.6291
46.36387149104216 10.6233
46.38809221957392 10.5879
46.41231514186606 10.6423
46.436540259597464 10.5953
46.460956858999374 10.5302
46.48518638983522 10.5295
46.509418121166966 10.5126
46.533652054678114 10.4888
46.55807754555709 10.4628
46.58231590571962 10.4686
46.60655647313217 10.4408
46.630988654873654 10.4142
46.655233659129024 10.3591
46.67948087571551 10.3526
46.70373030632484 10.3501
46.72817142736393 10.3515
46.752425308428684 10.3497
46.77668140861147 10.327
46.80093972960865 10.2561
46.82538981736788 10.2554
46.849652602470904 10.2096
46.87391761349769 10.2013
46.8981848521493 10.1464
46.9226439341274 10.151
46.946915650573224 10.1635
46.97118959976749 10.1758
46.99546578341598 10.1288
47.019933887188216 10.1232
47.04421456235744 10.1025
47.06849747711879 10.0885
47.09278263318286 10.0558
47.11725978640143 10.0509
47.14154944775105 9.998330000000001
47.165841355555656 10.0273
47.1901355115306 10.0024
47.214621741924994 9.98917
47.23892041698887 9.942739999999999
47.26322134538975 9.89825
47.28771440635075 9.94042
47.31201986422527 9.91213
47.33632758061436 9.85818
47.360637557241866 9.8577
47.38513974410611 9.8441
47.40945426407847 9.8312
47.43377104948137 9.77914
47.45809010204344 9.76778
47.48260144275502 9.7399
47.506925052572285 9.77275
47.53125093475548 9.70712
47.55557909103813 9.68721
47.58009961361992 9.70607
47.60443234110732 9.65238
47.62876734791564 9.653319999999999
47.65310463578333 9.67424
47.6776343683373 9.63057
47.7019762413987 9.60111
47.72632040075572 9.58437
47.75066684815169 9.56826
47.77520581885936 9.58203
47.799556865477655 9.51262
47.823910205386 9.54014
47.84826584033272 9.53425
47.87281407745551 9.463280000000001
47.89717432569297 9.45992
47.92153687423484 9.4847
47.94609208429692 9.46318
47.97045925671401 9.42182
47.99482873471275 9.3902
48.01920052005013 9.414639999999999
48.04376504619224 9.380939999999999
48.068141469543484 9.40982
48.09252020552573 9.365789999999999
48.11690125590099 9.30326
48.1414751266064 9.30207
48.16586082917454 9.304160000000001
48.19024885144316 9.26532
48.2146391951793 9.27173
48.239222439012764 9.24435
48.26361744916137 9.21167
48.28801478610016 9.21718
48.31241445160131 9.18411
48.337007097209366 9.1662
48.36141144338331 9.15686
48.38581812345755 9.13724
48.41022713920929 9.123660000000001
48.434829215320704 9.10665
48.45924292604658 9.0786
48.48365897780325 9.08258
48.50807737237308 9.0847
48.532688907799276 9.0627
48.55711201168574 9.041780000000001
48.581537463754074 9.03121
48.60615611725119 9.01441
48.63058628942721 8.98376
48.65501881516546 8.9882
48.6794536962573 8.95379
48.70408185970339 8.9556
48.72852147531801 8.899280000000001
48.75296345168211 8.899469999999999
48.77740779059232 8.88675
48.80204549302823 8.9127
48.82649458091802 8.8611
48.85094603676547 8.85007
48.87539986237231 8.810830000000001
48.90004713292306 8.81126
48.92450572200832 8.8044
48.94896668628025 8.75822
48.97343002754588 8.7045
48.99808689542115 8.78351
49.02255501470614 8.76051
49.04702551642794 8.70225
49.0714984023988 8.6902
49.096164896893235 8.66467
49.120642575466796 8.62593
49.145122643748394 8.6302
49.16960510355558 8.60661
49.19428125404938 8.640310000000001
49.2187685210852 8.599089999999999
49.243258185121555 8.6284
49.26794160167084 8.58458
49.2924360839405 8.56397
49.31693296869764 8.55224
49.34143225776915 8.49652
49.36612538195438 8.47397
49.39062950396021 8.500630000000001
49.41513603578346 8.47765
49.4396449792564 8.40302
49.46434784069503 8.44401
49.488861631846454 8.43352
49.513377840166804 8.43366
49.537896467493745 8.38461
49.56260909589029 8.37839
49.587132585683285 8.39124
49.611658500018365 8.34742
49.636186840738596 8.28855
49.66090926588511 8.325339999999999
49.685442483902584 8.27332
49.70997813385706 8.25714
49.734516217597076 8.24952
49.75924846937352 8.25168
49.7837914452858 8.24439
49.80833686055187 8.23057
49.83288471702571 8.20482
49.85762682540054 8.21928
49.882179588965734 8.19007
49.9067347993235 8.128260000000001
49.93129245833333 8.112110000000001
49.95604445336378 8.13306
49.98060703442832 8.10871
50.005172069746266 8.07057
50.02993150438364 8.060319999999999
50.05450147301533 8.0942
50.07907390151433 8.07506
50.10364879174981 7.9969
50.12841816587289 7.99632
50.1529980044635 7.98908
50.17758031042124 7.9480699999999995
50.20216508562089 7.9618899999999995
50.22694442953363 7.95095
50.25153416817468 7.962839999999999
50.27612638170508 7.90601
50.300721072005196 7.906630000000001
50.325510416102105 7.906339999999999
50.350110084975064 7.87155
50.37471223628208 7.85463
50.39931687190919 7.82799
50.424116246675766 7.82533
50.44872587605249 7.8183300000000004
50.47333799543065 7.7826699999999995
50.49795260670191 7.7999600000000004
50.52276204271512 7.7743199999999995
50.54738166295838 7.784669999999999
50.57200378079314 7.750210000000001
50.596628398116835 7.70645
50.62144792604559 7.68934
50.646077567609396 7.677639999999999
50.670709714377715 7.70858
50.69553683636198 7.68147
50.72017401885922 7.66487
50.7448137122895 7.650530000000001
50.76945591856022 7.64445
50.79429318636823 7.6084
50.818940443716784 7.59691
50.84359021965163 7.60153
50.868242516085964 7.581110000000001
50.893089960641895 7.55036
50.917747323549435 7.54064
50.94240721271973 7.5394
50.96706963007175 7.49832
50.99192728239342 7.48988
51.01659478166073 7.49348
51.04126481489051 7.462680000000001
51.06593738400761 7.461930000000001
51.090805275207074 7.41869
51.11548294172845 7.39783
51.14016314993547 7.414510000000001
51.164845901758845 7.38858
51.18972406304274 7.3645
51.21441192780656 7.366410000000001
51.23910234200271 7.37078
51.2637953075678 7.32883
51.288683770237945 7.30116
51.31338186432707 7.31508
51.33808251561888 7.2775300000000005
51.362978729967345 7.30837
51.387684521509755 7.2580100000000005
51.41239287610203 7.23803
51.437103795691165 7.22306
51.46201036644977 7.21847
51.486726441956634 7.19567
51.51144508832545 7.20108
51.536166307509156 7.18315
51.56108326624387 7.1486
51.58580965706056 7.125310000000001
51.61053862657523 7.13138
51.635270176746864 7.09208
51.66019755512065 7.0700199999999995
51.68493429268881 7.075130000000001
51.70967361681515 7.08188
51.73441552946465 7.069719999999999
51.759353359237934 7.03909
51.7841004750961 7.0300199999999995
51.80885018539685 7.02025
51.833602492111254 6.97618
51.8585508051424 6.93467
51.883308330926425 6.9716
51.90806845906181 6.92952
51.932831191525715 6.92985
51.95779001977161 6.89715
51.98255798721516 6.88467
52.00732856494335 6.8702
52.03229530577543 6.86809
52.057071130455945 6.844939999999999
52.081849571391054 6.86192
52.106630630568695 6.8502
52.13160794279417 6.78879
52.15639426492067 6.797039999999999
52.18118321127822 6.786639999999999
52.205974783860896 6.773339999999999
52.23096269971011 6.749460000000001
52.255759551287994 6.73088
52.280559035098186 6.73763
52.30536115314103 6.7112300000000005
52.33035970494467 6.70639
52.35516711807904 6.66977
52.37997717147198 6.721439999999999
52.40478986713005 6.6675
52.42979908731974 6.62895
52.454617094216 6.61078
52.47943774942214 6.60813
52.50426105495102 6.618310000000001
52.529280976059844 6.59788
52.554109609024096 6.5873800000000005
52.57894089837482 6.55921
52.60377484613117 6.544580000000001
52.62880550079408 6.56761
52.65364479223379 6.506819999999999
52.67848674816189 6.49817
52.70352547971946 6.48888
52.72837279155837 6.47265
52.753222773982785 6.47622
52.778075429022984 6.47815
52.80312495150885 6.44104
52.827982978797436 6.431109999999999
52.85284368481815 6.39496
52.87770707160767 6.40868
52.90276741793998 6.40137
52.92763619336701 6.388240000000001
52.952507655698504 6.38699
52.977381806977576 6.36771
53.00245301017842 6.375780000000001
53.02733256653592 6.33066
53.052214817996074 6.32607
53.077099766608484 6.30844
53.102181859804446 6.28301
53.127072229988265 6.29535
53.15196530349892 6.2784
53.17686108239249 6.2237599999999995
53.20195409881522 6.21734
53.22685531582556 6.1916
53.25175924441303 6.20406
53.27666588664027 6.20688
53.30176985962693 6.18771
53.3266819565689 6.17581
53.35159677336455 6.14821
53.376514312083096 6.13305
53.40162927507703 6.0986400000000005
53.42655228516116 6.12564
53.45147802340193 6.09053
53.47660125628886 6.07745
53.50153247842639 6.07434
53.52646643496923 6.01548
53.55140312799818 6.04092
53.576537409691696 6.04597
53.60147960336152 6.02585
53.626424539786164 5.99885
53.65137222105307 5.94968
53.67651758529126 5.97098
53.70147078399681 5.94857
53.72642673383343 5.96654
53.75138543689533 5.955030000000001
53.776541917524526 5.91964
53.801506154876755 5.92914
53.826473151763246 5.883030000000001
53.851442910284916 5.85568
53.87661054126026 5.89341
53.9015858509782 5.86868
53.92656392866066 5.84539
53.95154477641532 5.81519
53.976723591801296 5.79402
54.00171000771266 5.8193
54.02669920004598 5.81195
54.051691170915745 5.79039
54.076881204886796 5.75511
54.101878760928514 5.7362
54.12687910187696 5.72824
54.152077577768296 5.71946
54.1770835166946 5.6441099999999995
54.20209224691339 5.6729
54.22710377055121 5.6851199999999995
54.25231352511594 5.62907
54.27733066384342 5.57787
54.30235060239643 5.62519
54.32737334290836 5.58175
54.35259441062629 5.51992
54.377622783395324 5.5103800000000005
54.40265396455061 5.50994
54.42768795623251 5.46627
54.45292037169559 5.46396
54.477960012857906 5.46641
54.50300247099511 5.45695
54.52804774825457 5.42375
54.55329154616743 5.3958
54.57834249018678 5.343999999999999
54.6033962597977 5.33554
54.6284528571545 5.28696
54.653708072335164 5.304069999999999
54.67877035378786 5.33058
54.70383546947698 5.26901
54.72890342156389 5.24785
54.7541700889442 5.19948
54.77924374251975 5.21474
54.8043202390049 5.16702
54.82959552413022 5.13971
54.8546777351945 5.11154
54.87976279569621 5.08115
54.90485070780914 5.14915
54.930137506558005 5.02628
54.95523115074295 5.08694
54.98032765308844 5.06657
55.005427015775496 5.0111300000000005
55.03072536339621 5.00712
55.05583047570572 5.00073
55.080938454927676 4.926740000000001
55.10604930325027 4.92581
55.131359235107396 4.940919999999999
55.15647585066083 4.90713
55.181595341907496 4.86686
55.20671771104285 4.81251
55.232039262617704 4.833419999999999
55.25716741665048 4.83936
55.28229845518636 4.80981
55.30743238042802 4.72881
55.33276558731939 4.70521
55.357905315183636 4.68529
55.383047936390035 4.65266
55.40819345314859 4.640280000000001
55.433538351073295 4.62571
55.458689688238415 4.65873
55.483843927614096 4.60032
55.509197623043605 4.63581
55.53435769621134 4.580030000000001
55.55952067826466 4.48335
55.5846865714265 4.50131
55.61005202069737 4.49003
55.63522376553902 4.466880000000001
55.66039842818645 4.43155
55.68557601087004 4.48666
55.7109532500271 4.41186
55.73613670233794 4.43586
