TT I
1.2716486653135266 7.48314
1.2939594142134223 7.036239999999999
1.3162702121660406 7.25661
1.3385810600174564 7.50765
1.3608919586137629 6.99135
1.383202908801069 6.73038
1.405513911425503 6.03186
1.4278249673332093 6.25217
1.4501343378461518 6.14352
1.4724455028545926 5.93312
1.4947567236847858 6.22762
1.517068001182951 6.14043
1.5393793361953272 5.50598
1.5616907295681737 5.55806
1.5840021821477681 5.90656
1.60631369478041 6.01009
1.6286252683124185 5.4297
1.6509369035901333 5.33114
1.6732468618895553 5.74774
1.695558623192809 5.0126599999999994
1.7178704487808514 5.08628
1.7401823395001077 4.96517
1.7625012545597203 5.05852
1.7848028405262486 5.24306
1.8071218901122095 5.25283
1.8294236121921872 4.9041
1.8517427996910911 5.0248099999999996
1.8740620574440425 5.0016300000000005
1.8963639900671978 5.21591
1.9186833908139995 4.75065
1.9409854680117449 4.513780000000001
1.9633050151394713 5.165030000000001
1.9856246367570705 4.93348
2.0079269371922672 5.27872
2.03024671027244 4.50324
2.0525491637446027 4.5704199999999995
2.074869091674931 4.668159999999999
2.097171701569106 5.05804
2.1194917877373847 5.02174
2.141811954326636 4.81265
2.164114805233074 4.61362
2.186435135143035 6.651789999999999
2.208738150935709 17.3904
2.231058647554722 39.0372
2.2533792288321184 30.1334
2.275682498336085 12.5482
2.298003251406138 6.29135
2.3203066942619714 5.246659999999999
2.3426276225136022 5.22609
2.3649486396617507 5.358709999999999
2.387252348930071 5.19222
2.4095735463442893 5.21791
2.4318774374315884 4.90672
2.4541988185014043 5.35145
2.476502894794693 5.61212
2.498824462909887 5.6187
2.521146125856138 5.50336
2.5434504863470337 5.46515
2.5657723414244717 5.91482
2.588076895590662 6.375369999999999
2.610398946189713 6.7297899999999995
2.6327210958598384 6.54154
2.6550259469304716 7.41172
2.6773482972090137 7.14077
2.6996533504259 7.1711100000000005
2.7219759047039602 6.871810000000001
2.744298562293959 7.1453
2.7666039251246595 7.26577
2.7889267918020164 7.28832
2.8112323652516555 8.18501
2.833555444408179 8.22693
2.8558786311183852 7.869280000000001
2.8781845268938557 8.30668
2.9005079311721484 8.5577
2.9228140460410397 8.51055
2.9451376712799635 9.31988
2.967444008632326 9.099269999999999
2.9897678582247247 9.29804
3.0120918213106695 10.1362
3.0343984987899373 11.3583
3.0567226913198637 11.0581
3.079029599759726 11.6088
3.101354025127254 12.6016
3.123678568232338 12.8883
3.145985829517914 13.2504
3.16831061055229 13.6478
3.1906181112775593 14.2893
3.212943133635653 14.7202
3.2352682779763207 15.4443
3.2575761442691227 15.1601
3.2799015350264273 16.0749
3.302209649240067 16.5542
3.3245352898092655 17.2853
3.3468436553365257 17.6541
3.369169549113219 17.6083
3.3914955708171384 19.0677
3.413804319727358 19.3091
3.4361305997334863 19.6008
3.4584396084414553 19.9245
3.4807661501462652 20.9067
3.503092824025881 21.4951
3.5254022288463154 21.5601
3.5477291695206588 22.1431
3.5700388426251948 23.2453
3.5923660534916446 25.3384
3.6146934007816114 45.1794
3.637003482731501 120.266
3.6593311053109985 137.238
3.681641464033634 74.5665
3.7039693653009733 34.3824
3.726297407241705 27.2801
3.7486081875460804 26.5676
3.7709365132734978 26.6936
3.793247578841633 27.4328
3.8155761917550093 27.1831
3.8378875459837216 27.6572
3.8602164494827234 28.1806
3.882545499606844 29.0531
3.9048572932539183 29.7189
3.9271866390645718 30.2151
3.9494987298666713 30.7633
3.971828374764527 31.2677
3.9941581705403255 31.3996
4.016470713506008 32.0899
4.038800813471445 32.7388
4.061113662089144 33.302
4.0834440696459176 34.6954
4.105774632334751 34.4737
4.128087945865126 35.4404
4.150418821249301 36.8261
4.172732448931298 38.9561
4.195063640413578 41.2422
4.2173775856475215 46.1404
4.239709096631102 88.7374
4.262040768704612 329.644
4.284355196706267 463.705
4.306687193387355 295.567
4.329001947444346 103.367
4.35133427213731 52.1723
4.373666762177566 46.7629
4.395982011761091 46.5087
4.418314834921175 47.7163
4.44063041906622 58.0049
4.4629635787515625 74.5729
4.4852969080429785 74.6049
4.5076130004776225 58.8918
4.529946671403969 52.6926
4.552263106909177 52.406000000000006
4.574597122877047 52.8551
4.596931312711224 53.4776
4.619248269273446 54.4213
4.6415828092605835 55.1608
4.663900117405352 56.3962
4.686235010953232 58.1689
4.708552674085913 59.9877
4.730887924602802 60.8963
4.753223354952695 62.2807
4.775541557023902 63.6907
4.797877349456786 65.373
4.820195915032126 67.2574
4.842532072957498 68.5184
4.864868414979744 71.3205
4.88718753227192 73.289
4.909524244902505 75.3554
4.931843734218147 77.1957
4.954180820867835 80.4517
4.976518095879839 83.6676
4.998838149695359 86.6875
5.021175803844231 90.5922
5.043496238205739 94.0349
5.065834274903528 98.9667
5.088172504230693 105.462
5.1104935158799565 113.476
5.132832132875765 146.309
5.155153533596801 212.332
5.1774925416746225 262.265
5.199814334878411 479.231
5.2221537374521505 1253.18
5.244493338631803 2960.54
5.266815727034316 6513.94
5.289155727832427 11283.4
5.311478517248165 9779.6
5.333818921080011 3951.93
5.356159527788849 852.2360000000001
5.3784829252032536 239.66400000000002
5.400823940070432 167.012
5.423147747031976 141.555
5.445489173474152 128.08100000000002
5.467830807066149 121.184
5.490155234831516 115.814
5.512497285125229 110.82700000000001
5.534822130975162 108.475
5.557164601388673 106.001
5.579489868738879 102.741
5.601832762690846 102.12200000000001
5.6241758697774475 101.833
5.646501775867269 100.652
5.668845311622074 98.5034
5.691171647754637 97.5336
5.713515615597765 96.3043
5.735859800852677 94.9107
5.758186788542988 94.9294
5.780531411018185 95.5218
5.802858837297399 95.0914
5.825203900414495 95.4529
5.8475491852224 96.3704
5.869877275883075 96.656
5.892223006467101 97.6647
5.914551544266608 99.6937
5.936897724049891 103.354
5.959244129804903 110.265
5.981573344815301 135.406
6.0039202049061 248.767
6.026249875609095 533.508
6.04859719346037 1023.35
6.070927323278297 1978.39
6.093275102315365 3789.89
6.115623113320588 4942.47
6.137953938319995 3742.06
6.160302415650845 1330.36
6.182633708324452 326.655
6.2049826554078376 137.066
6.227331838745022 103.37
6.249663839443684 92.4478
6.27201349767565 88.5719
6.294345974611799 96.8788
6.316696111167083 116.37100000000001
6.339046488263839 109.84700000000001
6.361379686074702 87.4561
6.383730546639482 75.4522
6.406064229255215 71.8418
6.428415576718203 70.9955
6.450749747566656 69.7547
6.47310158535871 68.3289
6.495453669698332 67.5458
6.517788579421056 66.8676
6.540141159237969 65.8112
6.562476565766648 65.148
6.5848296444934045 65.294
6.607182974060425 64.9493
6.6295191323281015 65.4424
6.651872965955752 69.8481
6.6742096296068985 106.271
6.6965639707294615 177.722
6.71891856698715 182.26
6.741255995248479 116.74799999999999
6.763611104154477 75.2534
6.785949046381137 63.5188
6.808304671371482 60.8606
6.8306605557940046 60.4904
6.852999275508618 59.6161
6.875355681171544 58.9632
6.897694923437771 58.8168
6.92005185377892 58.9432
6.9423916220322655 58.3651
6.964749080490181 57.6351
6.987106804399774 57.8557
7.009447368180821 57.7577
7.031805625367033 57.3059
7.054146723727803 57.293
7.076505517631004 57.2566
7.098864581288365 57.0695
7.121206488070854 57.2628
7.143566093607822 57.4685
7.165908543567245 58.0622
7.188268694426048 57.7607
7.2106291193438095 58.0425
7.232972390625943 59.7858
7.255333366030969 77.1205
7.277677189091925 155.812
7.300038718428332 231.203
7.322400526130865 195.708
7.344745183422596 111.43799999999999
7.367107550224791 67.5928
7.389452767901992 59.0411
7.411815697249891 57.8024
7.434161478756298 56.4737
7.456524974096713 56.4148
7.478888753837185 56.553000000000004
7.501235387657368 56.6526
7.523599738562711 56.6509
7.545946944825532 56.9748
7.568311870344528 57.0687
7.5906770845765665 57.6163
7.613025156078678 59.5065
7.635390950099687 61.5076
7.657739602662809 60.295
7.680105979923558 58.2886
7.702472650212829 57.8738
7.724822180948224 57.8777
7.747189439655568 57.7076
7.769539560075357 57.7338
7.791907410653562 58.2813
7.81425812420825 58.3154
7.836626570110925 58.8368
7.858995315087906 59.3044
7.881346924933401 59.2948
7.903716270417482 60.1635
7.926068482028405 60.496
7.948438431475253 60.935
7.9708086843180235 61.5599
7.993161805171116 61.9953
8.015532667162402 62.4464
8.037886398416653 63.766000000000005
8.060257873014221 64.1686
8.082629655331942 64.6892
8.104984308787587 65.8405
8.127356708900503 70.0089
8.149711981398308 78.464
8.172085002766314 82.2249
8.194458336181368 77.1573
8.216814543847752 72.127
8.23918850371002 71.4438
8.26154533906492 72.5037
8.283919928836452 73.9249
8.306277395339652 74.6453
8.328652618483376 76.2848
8.351028159736202 78.3277
8.373386579575245 80.9179
8.395762759396959 82.9994
8.418121819038275 89.1075
8.440498640894003 107.348
8.462875785192262 128.463
8.485235811156207 143.092
8.507613602688501 186.053
8.529974277114228 283.014
8.552352719347912 417.3
8.574731488360351 626.087
8.59709314210385 1015.35
8.619472567021075 1593.45
8.64183487789147 2097.58
8.664214962183097 1980.53
8.686577933647762 1201.74
8.708958680784317 489.156
8.731339760774953 202.28599999999997
8.753703729764451 124.083
8.77608547780821 105.941
8.798450116065078 100.53299999999999
8.820832535634787 96.3708
8.843215292401656 94.7425
8.865580941199045 92.7716
8.887964374703538 91.5794
8.910330701447199 93.3272
8.932714815164482 97.3734
8.955099270424924 96.9868
8.977466620733543 92.3931
8.999851761421976 87.9872
9.022219798361645 85.8294
9.04460562795561 85.6499
9.066991803441677 85.1987
9.089360876979615 85.1965
9.111747746589993 84.4125
9.13411751544971 83.9079
9.156505082664324 83.8655
9.178875550323522 84.3101
9.20126381862328 84.6818
9.223652438908596 85.0612
9.246023961427412 84.8781
9.26841328802173 84.3428
9.290785518039224 84.1385
9.313175554425882 85.3239
9.335565947154315 85.3219
9.357939245086508 85.2063
9.380330352834827 85.2079
9.40270436697103 85.1441
9.425096193225055 85.1374
9.447488380180165 86.0453
9.469863475295412 86.0361
9.492256385987508 86.6113
9.514632206018318 87.3976
9.537025843935714 87.4934
9.559402392368193 88.355
9.581796761000229 90.0209
9.604191496441521 91.4142
9.626569144158516 95.8135
9.648964615551032 102.53299999999999
9.671343000390081 105.376
9.693739211225699 101.427
9.716135793237463 97.1112
9.738515290448102 95.6365
9.760912617143402 96.9487
9.783292860202891 98.1629
9.805690935076182 99.4108
9.828089385495742 100.323
9.850470754023561 103.01799999999999
9.872869957865444 112.979
9.89525208097539 134.565
9.917652041736662 154.077
9.940052382417589 152.879
9.962435644102392 156.62
9.984836746950979 193.044
10.007220771957746 265.217
10.029622640473708 366.361
10.052007432299963 507.57599999999996
10.074410069984072 715.3969999999999
10.096813093716005 1065.81
10.119199042482517 1547.78
10.141602840636468 1922.97
10.163989564971628 1805.76
10.186394141051062 1175.28
10.208799107559706 534.247
10.231187001965623 242.28
10.253592751657669 144.237
10.275981430388155 121.781
10.298387966769793 120.973
10.320794897965431 125.40299999999999
10.343184759907361 123.595
10.36559248305461 115.603
10.387983138083852 109.387
10.410391656691655 111.839
10.432800574501677 124.98700000000001
10.455192425893369 143.049
10.47760214443012 168.043
10.499994797678786 201.396
10.522405320453982 256.603
10.54479877906917 349.416
10.567210109595656 466.022
10.5896218454736 562.3430000000001
10.612016518879773 546.636
10.634429067781074 408.278
10.656824555333241 241.54
10.679237920773568 141.17
10.701651695961992 103.32
10.724048411481384 93.5503
10.746463008485165 89.9437
10.768860546937125 88.0799
10.791275969274796 86.1316
10.81369180576079 84.6366
10.836090585366925 83.5521
10.858507252467449 81.9989
10.88090686379991 81.4696
10.903324365036394 80.7241
10.925724811614439 81.1837
10.948143150509463 83.5924
10.970561909719066 83.2577
10.992963615930844 80.2397
11.015383218085756 77.6662
11.037785768347074 75.9313
11.06020621697282 75.1192
11.082627090322113 74.5323
11.105030913430326 74.0127
11.12745263854165 75.1004
11.149857314510728 80.4624
11.172279894912576 89.3917
11.194702904450653 91.7852
11.217108866490921 86.1228
11.239532736615194 79.3433
11.26193956033512 75.8256
11.284364294577085 73.5664
11.306789462371718 71.0987
11.329197585398376 69.6692
11.351623622610898 69.1963
11.37403261614354 67.7994
11.396459526308487 67.9519
11.418869393879497 67.6638
11.441297180532617 67.3617
11.463725406927658 66.73899999999999
11.486136592353875 66.855
11.508565700543707 67.6512
11.530977768845315 70.4488
11.553407762368774 72.2068
11.575838200059769 71.4976
11.598251599479612 68.4438
11.620682927815501 66.2719
11.64309721895548 65.5427
11.665529441478206 65.2752
11.687962112597958 65.0462
11.710377748130886 65.179
11.732811318753434 64.8804
11.755227854859067 65.0886
11.777662328529495 65.1082
11.800079768750786 64.6562
11.822515149015453 64.5828
11.844950984084935 64.6173
11.867369787303163 64.4133
11.889806534289491 64.4168
11.912226250487029 64.5795
11.934663912939751 64.7635
11.9571020346363 64.8832
11.979523127133968 64.82
12.001962169624331 65.7699
12.024384183972964 67.0601
12.046824150809913 70.6903
12.069264581333726 76.2228
12.091687985297767 82.9282
12.11412934550045 91.1736
12.136553680195208 101.564
12.158995973632788 117.29799999999999
12.181438735204349 139.651
12.20386447284199 171.697
12.226308172985636 201.12099999999998
12.24873485024193 212.923
12.271179492516982 190.456
12.293607112949127 147.38299999999998
12.316052700916226 111.166
12.338498763250042 88.7804
12.360927805303868 76.112
12.383374818673879 70.168
12.405804812803074 67.1014
12.428252780773262 66.4202
12.45070122756722 66.48899999999999
12.473132656675375 66.3076
12.49558206341869 66.4844
12.518014453510101 66.3057
12.540464823770117 66.5898
12.562915677315177 66.9296
12.58534951575545 67.7406
12.607801338171472 70.475
12.630236146511358 77.9903
12.652688941369085 85.7872
12.675124723177234 86.721
12.697578494048786 80.7384
12.720032754458185 73.8296
12.742470003354093 70.4618
12.764925245138771 70.0423
12.787363476431278 70.1054
12.809819703166806 70.3884
12.83227642391173 71.0015
12.854716135692716 71.8813
12.877173846755147 72.8917
12.899614549869717 73.0094
12.9220732548287 73.6693
12.94453245827299 74.2648
12.966974655289818 75.2519
12.989434858002571 76.4149
13.011878055298721 76.8464
13.034339260862497 78.0427
13.056800969391883 79.3762
13.079245674017244 81.2069
13.101708390774869 83.8236
13.12415410463411 91.8716
13.146617833206086 105.574
13.169064559883248 119.39200000000001
13.191529303857127 134.21
13.213994557076367 151.159
13.236442809902437 176.018
13.258909083908291 215.017
13.28135835851934 266.203
13.30382565690295 335.505
13.326293469022952 411.284
13.348744283242008 446.287
13.371213125129904 409.37699999999995
13.39366497011003 310.421
13.416134845360597 207.704
13.438605238843131 140.874
13.46105863690397 114.551
13.483530069144786 112.198
13.505984506951902 117.559
13.528456981549432 127.137
13.550929978879088 138.569
13.573385983253365 154.946
13.595860028340867 179.899
13.618317081455832 217.733
13.64079217790333 268.193
13.663250283359057 324.32
13.685726434770173 371.401
13.708203115221277 370.221
13.730662806148091 307.277
13.75314054697177 221.334
13.775601299246777 149.56
13.798080104050406 106.727
13.820559442405358 90.0423
13.843021793671388 84.9343
13.865502201420897 82.7665
13.887965623051947 82.3227
13.910447103807167 80.8059
13.932929122629764 79.3753
13.955394156785959 78.953
13.977877254034569 78.124
14.000343367582113 77.0309
14.022827546871707 76.5082
14.045294743423524 75.9162
14.06778000837062 75.0326
14.090265817715476 74.8929
14.112734645763819 74.8289
14.13522154619454 74.696
14.157691466286913 75.0258
14.180179461423874 74.6516
14.202668005486178 73.8145
14.22513957064374 73.3549
14.247629214846473 72.6457
14.270101881097517 72.2765
14.29259262906496 72.6928
14.315083930490205 74.0806
14.337558255389705 74.7099
14.360050666019726 74.2581
14.382526101071944 72.8938
14.405019624534942 71.4848
14.427513705993134 70.9577
14.449990813291825 70.8995
14.47248601302899 70.8156
14.49496423954951 70.7175
14.517460561197822 70.7174
14.539939910570322 70.733
14.562437357763558 71.0847
14.58493536931253 72.6205
14.607416409993311 73.7477
14.62991555254159 75.0688
14.652397725157423 74.7313
14.674898002342799 73.4682
14.697398848433282 72.7891
14.719882725991326 73.1343
14.74238471217934 74.3359
14.764869730765593 77.7548
14.787372860692983 81.959
14.809876564079925 86.9047
14.83236330125751 92.6767
14.854868153850365 99.1372
14.877356041159485 108.69
14.899862046604186 121.448
14.922351087688757 140.269
14.944858249632887 164.71
14.967365991421232 192.176
14.989856770231246 218.63400000000001
15.012365673994204 229.628
15.03485761569738 208.356
15.05736768508665 168.59900000000002
15.07987833888692 129.644
15.102372032001655 99.6075
15.124883856909658 81.9083
15.14737872204565 75.5148
15.169891721717274 73.2323
15.192405310371893 72.8494
15.214901940621196 73.7257
15.237416709527137 74.4415
15.259914520936249 74.872
15.282430473753607 73.6408
15.304947020131227 71.9896
15.327446610371178 70.7536
15.349964346154254 69.5942
15.372465126703139 68.8972
15.394984055556009 68.5715
15.417486030076159 68.4947
15.44000615566487 68.1801
15.462526881230803 68.3716
15.485030653812652 68.2536
15.507552581617434 68.5204
15.530057557334603 68.7624
15.55258069104857 68.3649
15.575104429329837 68.3654
15.597611216864632 67.8192
15.620136166564563 67.9931
15.6426441664095 68.9044
15.665170331202765 71.4927
15.687697105158826 75.1805
15.710206930593545 79.2188
15.732734925158933 83.3135
15.755245972089478 88.2479
15.77777519094324 94.4101
15.800287463046663 103.59
15.822817909869592 117.064
15.84534897229804 134.221
15.867863089299354 157.624
15.890395385222186 181.50799999999998
15.912910736597423 198.68599999999998
15.935444269699861 200.389
15.957978423016485 177.66099999999997
15.980495633101265 143.526
16.003031029129367 110.59299999999999
16.02554948280019 85.0365
16.048086125229432 72.84100000000001
16.070623392487107 69.0065
16.09314371869582 68.2572
16.11568223789321 67.2339
16.13820381691126 65.824
16.160743591742527 64.3223
16.183283996022084 62.8493
16.205807461423195 61.5276
16.228349126881973 61.0164
16.25087385432698 60.9357
16.27341678466365 60.2098
16.29594277784926 60.3315
16.31848697676433 61.0173
16.341031811604868 61.8023
16.36355971058487 62.3661
16.3861058195587 62.2252
16.40863499352978 60.7166
16.431182380342005 59.103
16.453730407713202 58.1997
16.476261501364792 57.8224
16.498810812136167 57.2816
16.52134319004079 57.423
16.54389378792203 57.3276
16.566445031001553 57.1515
16.588979342490088 57.038000000000004
16.61153187824822 56.7776
16.634067483263312 56.7759
16.656621315414416 56.8237
16.679175797408888 56.3228
16.701713349928728 56.5589
16.72426913389191 56.6035
16.74680798922351 56.7533
16.76936507887444 56.7033
16.791905240734874 56.8082
16.814463639794468 56.5931
16.837022695210294 56.5603
16.859564824093756 57.2698
16.882125194503903 58.0886
16.904668639217885 59.1296
16.927230328348003 59.6333
16.949792678493612 59.6999
16.972338104193863 58.7011
16.994901778652235 57.6426
17.017448529496576 57.5095
17.040013531998152 57.6875
17.06257920018044 58.1247
17.0851279459922 58.913000000000004
17.107694947817667 59.8507
17.130245028099072 60.6906
17.15281336730298 62.1654
17.17536478578733 63.5972
17.19793446610687 65.1513
17.220504818648422 66.7989
17.243058251703697 69.2163
17.265629950971032 73.3087
17.288184731571736 77.4021
17.310757781306908 82.4689
17.33333150794385 85.2757
17.355888317140174 85.5642
17.37846339986244 82.0226
17.401021565958885 76.3023
17.42359800851343 69.8191
17.44617513265564 65.3057
17.468735341390783 62.6514
17.491261035594565 61.5291
17.51396340099364 60.9452
17.536490463869136 60.9067
17.559018209820174 61.0318
17.58154663977963 61.0894
17.604251766089718 61.1736
17.626781572227713 61.3727
17.64931206518155 61.7948
17.671843245885103 62.2918
17.69455114821572 62.6269
17.717083712612634 62.7939
17.739616967569667 63.1191
17.762150914021706 63.1015
17.78486160749854 62.9884
17.807396945166804 63.5452
17.829932977143503 64.4808
17.85246970436452 66.3086
17.875183204129467 68.4769
17.897721330097664 70.9276
17.920260154126645 73.4571
17.942799677153296 76.1887
17.9655159983646 79.0082
17.988056927677544 82.7862
18.010598558807683 88.0826
18.033140892692916 95.3073
18.05586005052525 103.74799999999999
18.07840379824407 114.90299999999999
18.10094825154059 127.75399999999999
18.12366954819864 140.80200000000002
18.146215420998306 146.885
18.16876200220057 142.787
18.191309292745153 130.446
18.214033452627167 115.041
18.236582170236648 99.2068
18.259131600016456 90.0911
18.281681742907335 86.9007
18.304408781233683 89.0118
18.32696035875955 92.6593
18.349512652227624 98.0607
18.372065662579683 104.359
18.394795594587553 109.008
18.41735004715306 109.404
18.43990521943684 104.635
18.46246111238171 94.9249
18.485193953325208 83.9484
18.507751296070428 74.8538
18.530309362314178 69.3984
18.552868153000343 66.1439
18.57560391815056 64.3904
18.59816416623245 63.8432
18.620725141597372 63.3179
18.643286845190268 62.8366
18.666025549835414 62.5713
18.688588718427933 61.8299
18.711152618092243 61.6111
18.73389353884365 61.3555
18.75645890921984 60.8374
18.77902501351406 60.5616
18.801591852673102 60.6455
18.824335739722738 59.9518
18.846904057212626 59.7744
18.8694731124168 59.5769
18.89204290628315 59.6325
18.914789774966803 59.3118
18.937361054791623 59.0541
18.959933076131318 58.8857
18.982505839934877 59.0622
19.00525570560582 59.0613
19.027829963004184 58.8611
19.05040496572238 58.8804
19.072980714710468 58.9904
19.095733592739563 59.0154
19.11831084296757 59.6107
19.140888842324735 60.1851
19.16346759176222 60.6175
19.18622349753803 60.9901
19.208803755869358 61.5135
19.231384767143577 62.0632
19.253966532312948 63.0374
19.276725481241822 64.4716
19.29930876296784 66.3034
19.3218928014549 68.7904
19.34465404436217 72.5432
19.36723960516257 76.1661
19.389825925592426 78.7242
19.412413006605938 79.4672
19.43517731967805 77.1083
19.457765930683355 72.8846
19.48035530514408 67.8079
19.50294544401556 63.3109
19.525712842708348 59.5374
19.54830451925909 57.4639
19.570896963095727 56.1619
19.593490175174704 55.6998
19.616260674962184 55.7162
19.638855432416964 55.3054
19.661450960992624 55.4707
19.68404726164677 55.3252
19.706820878021247 55.0294
19.729418731756834 55.3416
19.752017360452857 55.0088
19.77461676506804 55.0488
19.797393513540218 55.343999999999994
19.819994478951667 55.9046
19.84259622316767 56.3754
19.8651987471481 56.663999999999994
19.887978643247177 57.1197
19.91058273574792 57.3089
19.933187610901943 57.9528
19.955969879466828 58.6091
19.97857632894404 59.5935
20.00118356396599 60.7246
20.023791585494575 62.4256
20.046577028914875 64.8999
20.069186632506966 67.3572
20.091797025500632 69.944
20.114408208858933 71.8194
20.137196842715273 72.7446
20.159809615886765 71.6313
20.18242318232135 68.9022
20.20503754298326 66.4195
20.227829382875154 64.286
20.250445341109344 63.1655
20.27306209647285 63.068000000000005
20.29567964993108 63.9669
20.31847471147704 65.4681
20.34109387027612 67.1571
20.363713830075454 67.907
20.386334591841646 67.4256
20.409132890679302 65.1226
20.431755265564437 61.8532
20.454378445325528 58.8576
20.477002430930366 56.2511
20.499803982716553 54.795
20.522429589228004 53.9099
20.54505600449589 53.1491
20.567683229489194 52.9392
20.590488049900088 52.4509
20.61311690359731 51.9316
20.63574656993626 51.7488
20.658553853717297 51.3768
20.681185154618298 51.3155
20.703817271080066 51.1835
20.72645020407368 50.9997
20.749260783967177 50.7164
20.771895359337133 50.8358
20.794530754161617 50.5109
20.817166969412938 50.4092
20.83998086114876 50.4789
20.86261872660049 50.4547
20.885257415405402 50.1363
20.90789692853701 50.2401
20.930714147864748 50.0923
20.953355319030678 50.2971
20.97599731745334 50.3923
20.99864014410749 50.2717
21.021460706796564 50.2743
21.044105199328826 50.5412
21.06675052302631 50.5732
21.089396678865015 50.6825
21.112220600704806 51.0072
21.134868430275347 51.3066
21.15751709492456 51.2668
21.180166595629693 51.6181
21.202993892429635 52.167
21.22564507473034 52.5441
21.24829709602816 53.0336
21.27112693608965 53.385
21.293780644891275 53.6743
21.316435195634053 52.9103
21.339090589297417 52.0987
21.361923832041875 51.6853
21.384580921090404 50.9168
21.407238856007325 50.1709
21.429897637773326 50.0571
21.45273429906592 50.0732
21.475394784108598 49.9627
21.498056118951983 49.8196
21.520718304578022 50.0751
21.543558400304388 50.26
21.566222297108816 50.3556
21.58888704765135 50.5406
21.61155265291521 50.7047
21.63439619898156 51.3113
21.657063523335786 51.6738
21.67973170537063 52.1367
21.7024007460706 52.4955
21.72524775840385 52.9617
21.747918526116475 53.8414
21.770590155457388 54.628
21.79326264741238 55.8394
21.816113141960237 57.3648
21.838787368860547 58.9737
21.861462461341976 60.7167
21.884315579735777 62.9916
21.90699241312273 65.0534
21.92967011506078 66.5951
21.95234868653799 67.494
21.9752053151131 66.8612
21.997885635446785 64.7437
22.020566828293532 62.7493
22.04324889464272 60.0876
22.066109049404666 58.2325
22.088792872571794 57.4084
22.111477572219204 57.4333
22.1341631493376 57.7927
22.157026846313123 57.8956
22.179714188221507 57.6211
22.202402410582668 56.8942
22.22509151438863 55.4849
22.24795876962584 53.8799
22.270649646204486 52.8282
22.293341407213727 51.8095
22.316034053646906 51.1359
22.338904883215342 50.6933
22.36159931041458 50.8434
22.38429462602756 50.7826
22.40699083104897 50.6562
22.429865251039757 50.6308
22.452563244831367 50.6918
22.47526213102522 50.6894
22.49813925616515 50.4667
22.520839937143307 50.2188
22.543541513520587 50.2082
22.56624398629403 50.0456
22.589124730075895 50.0122
22.611829005656723 50.1343
22.63453418063466 50.2581
22.657240256008077 50.4814
22.680124634582935 50.7284
22.70283252079775 50.9788
22.725541310413075 51.2687
22.74825100442868 51.2889
22.771139033969575 51.6514
22.79385054687155 51.7725
22.81656296718292 52.3273
22.83927629590484 52.9247
22.862167992606945 53.6113
22.88488314827121 54.5774
22.907599215359284 55.3922
22.93031619487366 56.6462
22.953211574954405 57.8498
22.975930389478226 59.2798
22.998650119445763 60.1355
23.02137076586092 60.0799
23.044269845560063 59.1124
23.06699233506288 57.5211
23.089715744034912 55.5724
23.112617610931565 53.483999999999995
23.135342869061212 51.9423
23.158069049684816 51.1592
23.1807961538087 50.6071
23.20370174880544 50.4028
23.226430710184808 50.4308
23.249160598093425 50.633
23.271891413539002 50.6074
23.294800752937697 50.5557
23.31753343374794 50.8427
23.340267045128353 50.6984
23.36300158808808 51.091
23.38591468821339 51.4089
23.408651104658304 51.6282
23.431388455719986 51.9667
23.454126742409 52.5017
23.4770436196085 53.2483
23.499783787914662 54.3201
23.522524894889884 55.078
23.54526694154616 56.1964
23.56818761219047 57.7087
23.59093154860734 58.6804
23.613676427751283 59.8349
23.636422250635754 59.5971
23.659346731118656 58.6138
23.68209445191868 56.7988
23.704843119509587 54.5208
23.72759273490623 52.1127
23.750521041644767 50.4324
23.77327256312355 49.2071
23.796025035462787 48.3163
23.818956224555475 47.6857
23.841710609113413 47.6838
23.86446594758979 47.3477
23.887222241002014 47.075
23.910157285144578 46.6275
23.932915498962537 46.7548
23.955674670778713 46.513999999999996
23.978434801611975 46.4416
24.001373717286125 46.2651
24.024135776723917 46.3188
24.046898798245582 46.193000000000005
24.06966278287146 45.9337
24.092605586582614 45.6577
24.115371508023642 45.6072
24.1381383956401 45.5972
24.16090625045381 45.5074
24.183852958731244 45.4528
24.206622758582608 45.3567
24.229393528706886 45.1758
24.252165270127392 45.2513
24.27511589952438 45.2153
24.297889594216997 44.9768
24.32066426328598 44.6415
24.34343990775613 44.8271
24.36639447485003 44.6594
24.38917208083877 44.5869
24.41195066531332 44.4354
24.43490819850244 44.5211
24.457688750692377 44.4128
24.48047028445616 44.321999999999996
24.503252800821233 44.4393
24.526214300784112 44.4097
24.548998793132213 44.3364
24.57178427117417 44.2693
24.59457073593893 44.4339
24.617536219319863 44.3257
24.64032466834748 44.4549
24.663114107195035 44.2281
24.685904536893013 44.1159
24.708874020360852 43.8668
24.731666442613744 43.9285
24.754459858818787 43.8727
24.777254270007962 43.8717
24.80022777025625 43.8527
24.82302418230472 43.6479
24.845821592443674 43.4252
24.86862000170663 43.4694
24.891597535453727 43.4235
24.914397953892728 43.716
24.93719937456671 43.6014
24.96000179851076 43.67
24.98298338249997 43.797
25.00578782394922 43.9982
25.028593271784167 44.0315
25.05157790644186 44.3008
25.07438537804115 44.5199
25.097193859145293 44.6611
25.120003350792075 44.7466
25.142992065061257 45.1382
25.165803588823465 45.6775
25.18861612625217 45.9161
25.211429678386736 46.0502
25.234422489079968 45.9643
25.257238081693636 46.0167
25.280054692141732 46.0742
25.3028723214652 45.9799
25.325869245420463 46.1173
25.348688923599397 46.3381
25.371509623787006 46.4524
25.394331347025812 46.29
25.41733240110666 46.0047
25.440156181590016 45.3915
25.46298098826268 44.9748
25.48580682216873 44.3092
25.50881202326435 43.6326
25.53163992281684 43.015
25.55446885274561 42.688
25.577298814096377 42.2915
25.600308179121807 42.0166
25.623140214533745 42.3988
25.64597328451537 42.29600000000001
25.66898578564376 41.9096
25.691820936010206 42.0551
25.714657124097695 41.8497
25.737494350954734 41.9535
25.760511045684957 41.7822
25.783350361364224 41.9398
25.806190718969255 41.9728
25.82903211955018 42.0029
25.852053024868923 41.9922
25.874896522722523 41.9408
25.897741066713106 41.8548
25.920586657892454 41.9982
25.943611790812668 42.0614
25.966459487728237 41.9819
25.989308234998564 42.0474
26.01215803367705 42.4661
26.03518741123814 42.5892
26.05803932412957 42.6875
26.080892291600094 42.7398
26.10374631470478 42.9562
26.12677995397268 43.1224
26.14963609978026 43.2005
26.172493304397875 42.8862
26.19535156888223 42.7711
26.218389486949604 42.4015
26.241249882640123 42.0441
26.26411134137826 41.7768
26.28715248187403 41.6891
26.31001607820869 41.5099
26.3328807407756 41.3311
26.35574647063438 41.5284
26.37879191991473 41.3888
26.401659795896734 41.4239
26.424528742360263 41.6121
26.447398760366614 41.7663
26.470448535598294 41.8098
26.49332070826805 41.9952
26.516193955675355 42.2519
26.53906827888316 42.506
26.562122397260108 42.5446
26.584998883685063 42.7278
26.607876449110325 42.9922
26.63075509460056 43.1141
26.65381357334404 43.4809
26.67669439061878 43.5331
26.699576291163382 43.5487
26.722459276044212 43.5329
26.745522132402975 43.2336
26.768407297649354 42.9924
26.791293550442003 42.5755
26.814180891848974 42.2328
26.837248143099337 41.8971
26.860137673466657 41.9708
26.88302829566349 41.6282
26.90592001075963 41.3493
26.92899167420566 41.1905
26.951885586870763 40.6881
26.974780595655517 40.6305
26.99785558178161 40.4751
27.020752794605112 40.2604
27.043651106772522 40.2202
27.06655051935668 40.0057
27.089629948036183 40.0493
27.112531573292053 40.0684
27.135434302194138 40.0986
27.158338135817015 39.7758
27.181422024430987 39.8443
27.204328079372566 39.6556
27.22723524226965 39.7965
27.250143514198573 39.9201
27.273231880156334 39.8896
27.296142382065014 39.6771
27.319053996245536 39.6376
27.341966723775965 39.6488
27.365059584515222 39.686
27.38797455070062 39.7778
27.410890633481237 39.6222
27.433807833936918 39.6863
27.456905206923906 39.6789
27.47982465472398 39.5965
27.502745223449743 39.7284
27.525666914182825 39.7069
27.548768816912457 39.8892
27.571692763693633 39.7667
27.59461783573812 39.6276
27.617723149491244 39.4415
27.640650484125285 39.402
27.66357894728264 39.3665
27.686508540048052 39.3885
27.709618414237887 39.211999999999996
27.732550278321757 39.1648
27.755483275279115 39.1854
27.778417406196485 39.1017
27.801531858397514 38.977
27.824468269376716 39.0693
27.847405817586786 38.9961
27.870344504116094 39.0776
27.893463551932008 39.0973
27.916404527281053 39.4453
27.93934664422563 39.3583
27.962289903855886 39.4236
27.98541356491974 39.827
28.00835912214229 39.8711
28.03130582533231 39.9726
28.054253675581805 40.2318
28.077381967556104 40.2526
28.100332124185126 40.3566
28.123283431160893 40.3739
28.146235889577238 40.1487
28.169368830154156 39.946999999999996
28.192323603752033 39.791
28.215279532083304 39.5774
28.238415973016764 39.2956
28.261374223145094 39.1388
28.284333631303806 39.0098
28.307294198589954 38.9727
28.330435319167677 38.4949
28.353398217078915 38.2692
28.376362277420153 38.0976
28.39932750129032 37.9432
28.422473319286713 37.7023
28.44544088262495 37.5891
28.468409612800283 37.4958
28.491379510913497 37.2616
28.51453004413313 37.069
28.53750229057244 37.1459
28.56047570826344 37.0685
28.583450298308804 37.0298
28.606605564586562 36.8078
28.629582511831156 36.8995
28.65256063474956 36.726
28.675539934446338 36.7455
28.698699951647605 36.7522
28.72168161743193 36.6891
28.74466446331978 36.5803
28.767648490417624 36.5608
28.790813276438353 36.5691
28.813799678527303 36.6336
28.836787265157085 36.6271
28.859955641890075 36.6063
28.882945610203045 36.5938
28.905936766392035 36.6064
28.928929111566863 36.6646
28.952102288520145 36.5268
28.975097024308607 36.3182
28.998092952423807 36.2902
29.021090073977508 36.2947
29.04426806913204 36.0861
29.067267590245258 35.7537
29.090268308143695 35.7464
29.11327022394099 35.8011
29.13645305530891 35.5397
29.159457379627167 35.6156
29.18246290519685 35.5299
29.20546963313352 35.4429
29.22865731875826 35.3914
29.25166646419296 35.3943
29.27467681535305 35.2891
29.29768837335608 35.4059
29.320880931312562 35.3384
29.34389491580634 35.2597
29.366910110507334 35.2432
29.38992651653503 35.3139
29.41312396492981 35.339
29.436142806456754 35.3149
29.45916286268059 35.181999999999995
29.48236399319994 35.1977
29.50538649169417 35.0824
29.528410208259935 34.8936
29.55143514402014 34.5926
29.574641196749695 34.5815
29.597668583816574 34.4115
29.6206971934585 34.2019
29.64372702680042 34.3956
29.666938019934474 34.2291
29.689970313635285 34.1845
29.713003834422636 34.1025
29.73603858342347 33.9366
29.759254535188578 33.9879
29.78229175361658 34.0735
29.80533020365064 33.94
29.82836988641968 33.9712
29.85159081507472 33.945
29.874632976355343 33.8767
29.89767637376955 33.924
29.920721008448314 33.7311
29.9439469322847 33.7444
29.96699405457564 33.4966
29.9900424175358 33.65
30.013092022298157 33.6055
30.03632295963995 33.4985
30.059375061131373 33.6098
30.08242840783577 33.5744
30.105483000888153 33.514
30.128718970092244 33.4631
30.151776069006917 33.4096
30.17483441768648 33.4607
30.198074175317235 33.4693
30.221135036724256 33.464
30.24419715131772 33.3786
30.267260520236203 33.2516
30.290505341942243 33.4114
30.313571232750228 33.3878
30.336638381310948 33.4735
30.35970678876503 33.3992
30.38295669299435 33.3315
30.40602763151657 33.2948
30.429099832366074 33.3246
30.452173296685572 33.1727
30.47542830191959 33.1402
30.498504306502497 33.0329
30.521581577995562 33.0674
30.544660117543582 33.1197
30.56792024229725 33.0806
30.59100133132069 33.0129
30.614083691845494 33.1931
30.637167325018545 33.0555
30.660432587840603 33.1888
30.683518779717886 33.0958
30.70660624769615 33.292
30.729694992924372 33.3236
30.75296541239743 33.3715
30.77605672557558 33.2665
30.799149319462742 33.1746
30.8224236211637 33.1311
30.845518789950724 33.0098
30.868615242910597 32.8542
30.891712981195973 32.7265
30.91499247215866 32.6549
30.938092794619365 32.611999999999995
30.96119440587579 32.5527
30.984297307082752 32.4767
31.00758200598383 32.3945
31.030687500658694 32.329
31.053794288760695 32.2493
31.076902371446767 31.9943
31.100192296997445 32.098
31.12330298246119 32.1141
31.14641496599209 32.001999999999995
31.169528248749216 32.0947
31.19282341969534 31.8578
31.215939314557186 31.8737
31.239056512134788 31.8822
31.262175013589378 31.8056
31.28547544871168 31.8032
31.30859657161541 31.8143
31.331719001892175 31.8953
31.35484274070538 31.9769
31.378148458819545 31.8389
31.401274828443725 31.8864
31.424402510106933 31.933000000000003
31.447712205419993 31.9678
31.470842524931633 31.8871
31.493974159989783 31.8956
31.51710711176168 31.8141
31.54042212308802 31.8808
31.563557722100917 31.9539
31.586694641341655 31.6872
31.609832881979628 31.5936
31.63315322823208 31.5312
31.656294125521327 31.3984
31.679436347728515 31.3418
31.70257989602529 31.3082
31.725905596152327 31.125999999999998
31.74905181052835 31.0614
31.772199354521323 31.1599
31.79534822930507 31.1925
31.818679302290967 31.1469
31.84183085259981 31.1198
31.864983737233473 31.0774
31.88813795736804 31.0561
31.911474422233013 31.0116
31.934631327356435 31.0146
31.9577895715215 30.9735
31.980949155906522 31.0317
32.004291031706956 30.9414
32.027453310562606 30.8568
32.05061693318573 30.7712
32.07396288236386 30.7957
32.09712920658542 30.7353
32.12029687812702 30.535
32.14346589817093 30.5485
32.166817291729984 30.6253
32.18998902288583 30.4478
32.21316210610336 30.4286
32.23633654256711 30.2814
32.259693399663725 30.2089
32.282870556771144 30.1509
32.30604907069099 30.1062
32.329228942610065 30.0706
32.35259128243769 29.9274
32.375773884550505 29.9457
32.398957848235646 29.912
32.422143174682176 29.8485
32.445511016471215 29.7631
32.468699082679954 29.6479
32.49188851523011 29.7629
32.51507931531304 29.6937
32.538452678331 29.541
32.56164622776311 29.5237
32.58484114831493 29.4542
32.60803744118015 29.5182
32.631416344731896 29.448
32.654615396551876 29.4081
32.67781582427913 29.4031
32.701198898634416 29.3035
32.72440209253756 29.2126
32.747606665947124 29.2785
32.77081262006088 29.0827
32.79420126883317 29.1462
32.81740999876112 29.1818
32.840620112999424 29.0478
32.86383161274818 28.9837
32.88722585534586 29.0045
32.91044014056596 29.003
32.933655814909734 28.9895
32.95687287957963 28.8998
32.98027273544904 28.8568
33.00349259526636 28.7941
33.026713849030116 28.7633
33.04993649794511 28.7197
33.073341986570746 28.7965
33.09656744032826 28.7564
33.11979429286444 28.6491
33.14302254538647 28.75
33.166433686291185 28.6494
33.18966475336992 28.6054
33.212897224069096 28.561999999999998
33.23613109959831 28.5354
33.259547912343415 28.4347
33.2827846121627 28.4617
33.306022720453775 28.5191
33.32926223842861 28.3381
33.352684742614166 28.4278
33.37592709463173 28.3032
33.399170859982064 28.1938
33.422597648419426 28.1649
33.44584425514446 27.9738
33.46909227885668 28.0141
33.4923417207723 27.9859
33.51577423505344 27.9976
33.539026528130385 27.8174
33.56228024307245 27.7668
33.585535381098246 27.6477
33.60897364093058 27.6213
33.63223163992385 27.5919
33.6554910656699 27.5794
33.678751919389796 27.5832
33.702195944520106 27.4803
33.72545966903325 27.3985
33.74872482519663 27.3901
33.771991414233746 27.3747
33.79544122444841 27.4581
33.81871069412428 27.3024
33.84198160035767 27.2351
33.86525394437455 27.2727
33.88870955949969 27.2584
33.911984794020626 27.2171
33.93526147001624 27.1215
33.958539588715006 27.0919
33.98200102861669 27.0513
34.0052820477047 26.8853
34.02856451319451 26.9752
34.05203033759056 26.8414
34.07531571090147 26.8178
34.09860253431845 26.8282
34.121890809074316 26.8055
34.145362493118924 26.8105
34.16865368561615 26.7007
34.191946333164054 26.6168
34.21524043699793 26.6574
34.23871800066799 26.5966
34.26201503218366 26.5642
34.28531352370466 26.5747
34.30861347646881 26.4532
34.33209693978188 26.4647
34.3553998301885 26.3397
34.378704185565205 26.2851
34.402010007152356 26.2307
34.42549939016683 26.2572
34.44880815937748 26.1675
34.472118398533134 26.1095
34.49543010887669 26.1159
34.51892543169198 26.0175
34.54224009966052 26.0504
34.56555624255917 26.0198
34.58887386163339 25.8804
34.61237514439016 25.8794
34.6356957311114 25.7505
34.65901779775809 25.7622
34.68252356662995 25.7908
34.705848608458616 25.8217
34.72917513396849 25.6836
34.75250314440949 25.6387
34.77601490857862 25.5186
34.799345904259795 25.5369
34.82267838863559 25.5406
34.846012362958525 25.5168
34.869530142679984 25.5255
34.89286711232212 25.3831
34.91620557568269 25.3651
34.93954553401677 25.348000000000003
34.9630693495876 25.2913
34.986412313340814 25.4254
35.00975677584668 25.2799
35.033102738362956 25.2451
35.05663261012228 25.107
35.0799815881786 25.1903
35.10333207003229 25.0972
35.12668405694369 25.1557
35.150220005273056 25.1119
35.17357501786656 25.1247
35.19693153931268 25.0012
35.220289570874385 24.9458
35.24383161619786 25.0163
35.267192683604904 24.9343
35.290555264930376 24.8273
35.314101899412165 24.8757
35.33746752422433 24.8968
35.36083466676374 24.9161
35.38420332829803 24.8383
35.407756095629054 24.7595
35.43112781085063 24.7431
35.45450104888391 24.7334
35.477875810999194 24.7137
35.50143473172161 24.5725
35.52481255774625 24.6445
35.54819191167777 24.6019
35.57157279478914 24.6042
35.595137889488406 24.5285
35.61852184675279 24.5023
35.641907337029984 24.4453
35.665294361595684 24.4015
35.68886565090076 24.3246
35.7122557598848 24.3803
35.73564740699838 24.3156
35.759040593519934 24.2004
35.78261809810353 24.2152
35.80601437933051 24.109
35.829412203814705 24.1541
35.85281157283719 23.9701
35.876395313415884 24.1315
35.8997977874528 24.0126
35.92320180988546 23.9569
35.946790244133936 23.8823
35.97019737933222 23.803
35.993606066789866 23.8125
36.01701630779276 23.8352
36.04061101440684 23.7707
36.06402437852291 23.7007
36.08743930005611 23.6542
36.1108557802951 23.6298
36.13445678011326 23.6663
36.15787639383515 23.583000000000002
36.18129757014299 23.5332
36.20472031032821 23.5568
36.22832762423364 23.526999999999997
36.25175350829375 23.5046
36.275180960119776 23.4696
36.298609981005924 23.3704
36.32222362992669 23.4194
36.34565580510207 23.3471
36.36908955323448 23.3539
36.39252487562093 23.2093
36.416144880530226 23.2138
36.43958336764275 23.1847
36.463023432914625 23.1868
36.486465077645676 23.0516
36.51009145956204 23.2558
36.53353627947859 23.1244
36.55698268276811 22.9676
36.58043067073321 23.0677
36.60406345072071 22.9566
36.62751462435344 23.0061
36.65096738658405 22.9901
36.67460498210655 22.8869
36.69806093788647 22.8372
36.72151848619297 22.7599
36.744977628333636 22.8023
36.76862165890998 22.65
36.79208400512205 22.7153
36.81554794910557 22.7203
36.83901349217101 22.5346
36.862663978991606 22.6111
36.88613273667352 22.5745
36.90960309738324 22.6095
36.933075062434064 22.5568
36.95673202673572 22.4954
36.98020721697122 22.3765
37.003684015502365 22.3101
37.027162423645365 22.302
37.050825886711465 22.2747
37.07430753063053 22.1823
37.09779078812467 22.1493
37.121275660513014 22.1377
37.144945643673694 22.1465
37.16843376245278 22.096999999999998
37.19192350009803 22.0765
37.215414857931435 22.0718
37.239091382563885 22.0316
37.262585997426164 21.9848
37.28608223645736 21.9829
37.309763684451696 21.9173
37.33326318851098 21.8353
37.356764320726555 21.8195
37.380267082425526 21.8833
37.40395510942588 21.746
37.42746114683234 21.8023
37.45096881771841 21.7475
37.474478123414166 21.7553
37.49817275092816 21.6451
37.52168534303452 21.6467
37.54519957395567 21.4895
37.568715445024665 21.5683
37.592416694607714 21.5072
37.61593586281424 21.5369
37.63945667518264 21.6004
37.66297913304891 21.4219
37.68668702630454 21.4202
37.710212792059274 21.381
37.733740207334854 21.3244
37.757269273470364 21.1927
37.780983832050374 21.2042
37.80451621684926 21.209
37.82805025654007 21.1752
37.851585952464795 21.0694
37.8753071980695 21.0743
37.89884622345676 21.0847
37.92238690911902 21.0227
37.94611318753442 20.9487
37.969657210779765 20.9771
37.99320289834801 20.9233
38.016750251586465 20.8941
38.04048325513017 20.8457
38.06403395679343 20.8467
38.087586328183946 20.7625
38.11114037065203 20.7796
38.13488012115898 20.7357
38.1584375229181 20.636999999999997
38.181996599821 20.5868
38.205557353221124 20.6544
38.229303872575656 20.5964
38.2528679961576 20.5696
38.27643380031219 20.5653
38.30000128639589 20.4959
38.32375459653193 20.5475
38.34732546371299 20.511999999999997
38.37089801690786 20.42
38.39447225747609 20.3645
38.418232380377425 20.3796
38.441810012983396 20.3021
38.46538933705673 20.2969
38.488970353960084 20.3525
38.51273731166058 20.2086
38.536321731567014 20.1414
38.55990784840681 20.09
38.58367995004091 20.1255
38.60726947812959 19.9992
38.63086070726198 20.0264
38.654453638806274 20.0002
38.678232613930824 19.9534
38.70182896773327 19.8596
38.72542702806741 19.9015
38.7490267963045 19.881
38.77281266709232 19.8536
38.79641586862214 19.8632
38.8200207821842 19.8123
38.843627409152944 19.8532
38.86742019782782 19.6957
38.891030269149255 19.7524
38.914642058016156 19.6598
38.938255565806124 19.6139
38.96205529464307 19.5852
38.98567225787121 19.558
39.00929094417078 19.5796
39.03291135492255 19.5223
39.05671804624804 19.549
39.080341923549106 19.4906
39.103967529460334 19.455
39.127594865365744 19.3285
39.15140854155791 19.3174
39.17503935514948 19.3077
39.19867190290282 19.264
39.22249083587951 19.2361
39.24612686969409 19.2873
39.269764641845306 19.2584
39.293404153722804 19.199
39.317230110864074 19.1507
39.34087311998506 19.1011
39.36451787301696 19.0733
39.388164371352595 19.022000000000002
39.41199737518003 19.0132
39.43564738196752 19.0029
39.45929913825317 18.9305
39.48295264543308 18.9798
39.506792718520884 18.8758
39.530449745387216 18.8728
39.55410852735203 18.8195
39.57776906581474 18.8209
39.60161623079 18.8257
39.625280300200025 18.7149
39.64894613032202 18.7125
39.67261372255866 18.7
39.6964680021016 18.7013
39.72013913657293 18.715999999999998
39.74381203738292 18.633
39.76748670593756 18.6343
39.79134812278169 18.5775
39.81502634488497 18.535999999999998
39.83870633896685 18.5053
39.862388106436654 18.4704
39.88625668336918 18.4423
39.90994201572829 18.4119
39.933629125719285 18.3742
39.957503091207826 18.2681
39.9811937746168 18.35
40.00488623990914 18.2575
40.02858048850006 18.2029
40.05246165409549 18.2146
40.076159487492085 18.2248
40.099859108448875 18.2114
40.123560518384345 18.164
40.1474489070226 18.1087
40.171153913178564 18.0728
40.194860712584955 18.0429
40.2185693066637 18.0616
40.242464941335314 17.8968
40.26617714307655 17.9264
40.289891143772046 17.9953
40.3136069448471 17.9286
40.33750984859743 17.9155
40.3612292688043 17.8104
40.3849504936829 17.865
40.40867352466194 17.7666
40.43258372059144 17.7931
40.45631038219906 17.8383
40.48003885420956 17.7339
40.503769138055105 17.6642
40.52768664931955 17.6395
40.55142057531802 17.6951
40.57515631746428 17.6007
40.599079334038514 17.5893
40.62281872700477 17.4993
40.64655994043941 17.5064
40.67030297578061 17.4742
40.69423334835778 17.4121
40.71798004609188 17.3857
40.74172857006355 17.3985
40.76547892171441 17.3751
40.7894166736039 17.3763
40.813170699248566 17.2845
40.83692655691388 17.2461
40.86068424804498 17.3796
40.884629402612525 17.2954
40.908390779366385 17.3279
40.932153993938 17.1975
40.95591904777605 17.1803
40.979871628443995 17.1741
41.003640379561936 17.1549
41.02741097430883 17.0876
41.05118341413683 17.0166
41.075143444384416 16.9776
41.098919593177826 16.9715
41.1226975914255 16.9738
41.14647744058318 16.9483
41.170444943946755 16.8604
41.19422851378379 16.9034
41.218013938914645 16.8179
41.24198706625173 16.8164
41.26577622087193 16.7528
41.289567235177785 16.7216
41.31336011063129 16.747
41.337340752422875 16.6455
41.361137369129835 16.6599
41.38493585138705 16.6402
41.40873620066004 16.6326
41.43272438060107 16.6139
41.45652848292052 16.5671
41.48033445666918 16.5003
41.50414230331616 16.4653
41.528138045159764 16.4877
41.551949656675205 16.4244
41.575763145513235 16.4216
41.59957851314666 16.4302
41.62358184070442 16.4036
41.64740098505737 16.3572
41.6712220126409 16.3599
41.69504492493139 16.2898
41.71905586207357 16.2652
41.74288256296395 16.2067
41.766711153007456 16.207
41.79054163368412 16.1582
41.814560204340054 16.1662
41.838394485526365 16.1574
41.86223066180303 16.0764
41.88625497706819 16.1167
41.910094962812 16.0721
41.93393684811168 16.0425
41.95778063445365 15.9582
41.981812625263366 15.9842
42.00566023303407 15.9566
42.029509746323676 15.9377
42.05336116662236 15.9061
42.077400857069705 15.935
42.10125611078846 15.8615
42.12511327600405 15.8391
42.14897235421036 15.8203
42.173019768448455 15.7374
42.19688269209613 15.7073
42.22074753323349 15.7195
42.24461429335818 15.6721
42.268669455600495 15.6619
42.292540073217886 15.637
42.31641261433284 15.6193
42.34028708044675 15.5789
42.36435001496739 15.5647
42.38822835065557 15.5509
42.41210861586426 15.5183
42.4359908120986 15.4695
42.46006154323262 15.41
42.48394762115317 15.3602
42.507835634632315 15.405999999999999
42.531912233047436 15.3989
42.55580413732265 15.4038
42.579697981698 15.3164
42.60359376768525 15.2878
42.62767820545945 15.2864
42.65157789440821 15.2537
42.67547952952185 15.222999999999999
42.699383112316 15.1751
42.72347541395347 15.1288
42.74738291190531 15.1008
42.771292362102166 15.0937
42.795203766063516 15.1184
42.819303956130405 15.1148
42.843219287476536 15.0339
42.86713657716324 14.997
42.89105582671383 14.9779
42.91516392983864 14.9701
42.939087119032166 14.9482
42.963012272677304 14.9341
42.98693939230129 14.9065
43.01105543317513 14.8187
43.034986504731386 14.8017
43.05891954686589 14.815999999999999
43.08285456110972 14.71
43.10697856448665 14.7611
43.130917542983475 14.6758
43.15485849820081 14.7035
43.17880143167367 14.6085
43.20293342237094 14.6123
43.226880332449 14.6413
43.25082922540554 14.6255
43.27496722682525 14.5718
43.29892010567796 14.5361
43.32287497204102 14.5668
43.34683182745632 14.5095
43.370977859791836 14.4367
43.39493871351105 14.4399
43.41890156092628 14.4608
43.44286640358341 14.4038
43.46702049182749 14.380999999999998
43.49098934522816 14.2984
43.51496019852649 14.3478
43.5389330532723 14.2844
43.56309522248204 14.2688
43.58707210044314 14.2566
43.61105098451946 14.1983
43.63503187626491 14.1986
43.659202151562134 14.2212
43.68318707902681 14.1824
43.70717401884041 14.1294
43.731162972560874 14.0454
43.75534137913236 14.0913
43.779334381108384 14.0959
43.803329401683186 14.0699
43.82732644241872 14.0675
43.8515130055166 14.0079
43.87551410707659 13.9893
43.89951723350145 13.9042
43.923709934595614 13.8817
43.94771713129917 13.8553
43.97172635758096 13.8723
43.99573761501002 13.828
44.0199385169922 13.7924
44.04395385732619 13.7745
44.067971233533086 13.8206
44.09199064718605 13.8177
44.11619977548961 13.7546
44.14022328470671 13.6702
44.16424883610785 13.6752
44.18827643127035 13.6679
44.21249381139513 13.6756
44.236525514814076 13.6467
44.26055926674478 13.6005
44.28459506876863 13.6189
44.3088207262813 13.565999999999999
44.33286064928722 13.5071
44.35690262714919 13.4927
44.38094666145278 13.4898
44.4051806219871 13.4185
44.42922879003185 13.3937
44.45327901929361 13.3925
44.477331311362136 13.3737
44.501573600619416 13.3301
44.525630039221795 13.3301
44.54968854541895 13.2734
44.573937102200176 13.2566
44.5979997645541 13.2609
44.622064499300315 13.2136
44.64613130803592 13.1932
44.67038823869318 13.2161
44.69445921643748 13.177
44.718532272981385 13.1177
44.742607409926194 13.1395
44.76687274034801 13.0808
44.79095205918753 13.0589
44.81503346325094 13.026
44.839116954143876 13.0154
44.86339071028742 13.017999999999999
44.88747839599524 12.9127
44.91156817336837 12.914000000000001
44.93566004401666 12.9548
44.959942251908146 12.8993
44.984038330325966 12.8769
45.00813650686762 12.8784
45.03223678314731 12.8559
45.05652746888232 12.8134
45.08063196592069 12.790999999999999
45.104738567558705 12.7972
45.128847275414856 12.7607
45.15314646515866 12.68
45.17725940679741 12.7149
45.20137445952892 12.6925
45.22568004865265 12.6404
45.24979934496396 12.6628
45.27392075725247 12.6221
45.29804428714431 12.5868
45.322358426247604 12.5668
45.346486212804315 12.5658
45.370616121861914 12.5401
45.39474815505086 12.4879
45.41907087049246 12.4864
45.4432071734666 12.4341
45.46734560548283 12.4228
45.49148616817604 12.4557
45.51581748638564 12.369000000000002
45.5399623320197 12.3725
45.56410931325473 12.3424
45.58825843173002 12.3187
45.61259837920865 12.3103
45.636751793816 12.3072
45.66090735060093 12.2837
45.68506505120716 12.2464
45.7094136545275 12.1957
45.73357566449271 12.1377
45.75773982322992 12.1688
45.78190613238733 12.1751
45.806263418194064 12.1128
45.83043404997326 12.1269
45.85460683713677 12.0883
45.87897065658495 12.1027
45.90314777634752 12.0503
45.92732705646868 11.9965
45.9515084986045 11.9769
45.97588104735473 11.9636
46.00006683541565 11.9149
46.02425479047904 11.9094
46.04844491420549 11.9488
46.0728262191024 11.8808
46.09702070211635 11.8484
46.12121735879483 11.8822
46.14541619080294 11.8503
46.169806278764455 11.8448
46.194009483459034 11.7904
46.21821486849841 11.7725
46.24242243555223 11.7254
46.266821333570014 11.706
46.29103328674601 11.699000000000002
46.31524742696538 11.7111
46.33946375590237 11.6568
46.36387149104216 11.629000000000001
46.38809221957392 11.6222
46.41231514186606 11.6196
46.436540259597464 11.5987
46.460956858999374 11.5399
46.48518638983522 11.5402
46.509418121166966 11.5087
46.533652054678114 11.4436
46.55807754555709 11.4185
46.58231590571962 11.4295
46.60655647313217 11.4148
46.630988654873654 11.3941
46.655233659129024 11.3673
46.67948087571551 11.3415
46.70373030632484 11.3408
46.72817142736393 11.3373
46.752425308428684 11.2912
46.77668140861147 11.2837
46.80093972960865 11.2081
46.82538981736788 11.215
46.849652602470904 11.1881
46.87391761349769 11.177999999999999
46.8981848521493 11.1877
46.9226439341274 11.1523
46.946915650573224 11.1278
46.97118959976749 11.0953
46.99546578341598 11.0658
47.019933887188216 11.0375
47.04421456235744 11.034
47.06849747711879 11.0379
47.09278263318286 10.9975
47.11725978640143 10.9862
47.14154944775105 10.9738
47.165841355555656 10.9395
47.1901355115306 10.9242
47.214621741924994 10.9082
47.23892041698887 10.9132
47.26322134538975 10.8547
47.28771440635075 10.8846
47.31201986422527 10.8602
47.33632758061436 10.8111
47.360637557241866 10.799000000000001
47.38513974410611 10.7701
47.40945426407847 10.7046
47.43377104948137 10.7282
47.45809010204344 10.685
47.48260144275502 10.6838
47.506925052572285 10.699000000000002
47.53125093475548 10.6439
47.55557909103813 10.6502
47.58009961361992 10.5804
47.60443234110732 10.556
47.62876734791564 10.5302
47.65310463578333 10.5155
47.6776343683373 10.5252
47.7019762413987 10.4919
47.72632040075572 10.4257
47.75066684815169 10.4415
47.77520581885936 10.4217
47.799556865477655 10.4116
47.823910205386 10.4162
47.84826584033272 10.4069
47.87281407745551 10.36
47.89717432569297 10.4049
47.92153687423484 10.3692
47.94609208429692 10.328
47.97045925671401 10.2993
47.99482873471275 10.2665
48.01920052005013 10.2748
48.04376504619224 10.2247
48.068141469543484 10.2194
48.09252020552573 10.1839
48.11690125590099 10.1999
48.1414751266064 10.1946
48.16586082917454 10.1927
48.19024885144316 10.1404
48.2146391951793 10.1004
48.239222439012764 10.1077
48.26361744916137 10.0733
48.28801478610016 10.0632
48.31241445160131 10.0496
48.337007097209366 10.0271
48.36141144338331 10.013
48.38581812345755 9.9998
48.41022713920929 9.95394
48.434829215320704 9.94988
48.45924292604658 9.93999
48.48365897780325 9.95928
48.50807737237308 9.93755
48.532688907799276 9.886239999999999
48.55711201168574 9.86014
48.581537463754074 9.82415
48.60615611725119 9.89149
48.63058628942721 9.81423
48.65501881516546 9.798060000000001
48.6794536962573 9.76608
48.70408185970339 9.775210000000001
48.72852147531801 9.74033
48.75296345168211 9.70537
48.77740779059232 9.70391
48.80204549302823 9.703380000000001
48.82649458091802 9.66961
48.85094603676547 9.612919999999999
48.87539986237231 9.62297
48.90004713292306 9.606819999999999
48.92450572200832 9.615689999999999
48.94896668628025 9.56597
48.97343002754588 9.56862
48.99808689542115 9.56763
49.02255501470614 9.56625
49.04702551642794 9.45904
49.0714984023988 9.462060000000001
49.096164896893235 9.47971
49.120642575466796 9.4239
49.145122643748394 9.42147
49.16960510355558 9.39299
49.19428125404938 9.36841
49.2187685210852 9.34853
49.243258185121555 9.37422
49.26794160167084 9.35126
49.2924360839405 9.2956
49.31693296869764 9.29448
49.34143225776915 9.31594
49.36612538195438 9.23966
49.39062950396021 9.25238
49.41513603578346 9.20147
49.4396449792564 9.2124
49.46434784069503 9.22322
49.488861631846454 9.20138
49.513377840166804 9.16142
49.537896467493745 9.14114
49.56260909589029 9.09228
49.587132585683285 9.09897
49.611658500018365 9.07958
49.636186840738596 9.04256
49.66090926588511 9.047189999999999
49.685442483902584 9.042769999999999
49.70997813385706 9.03766
49.734516217597076 9.024519999999999
49.75924846937352 8.98367
49.7837914452858 8.94474
49.80833686055187 8.90017
49.83288471702571 8.91584
49.85762682540054 8.89938
49.882179588965734 8.90831
49.9067347993235 8.88
49.93129245833333 8.85575
49.95604445336378 8.8487
49.98060703442832 8.806280000000001
50.005172069746266 8.83951
50.02993150438364 8.813410000000001
50.05450147301533 8.81295
50.07907390151433 8.75314
50.10364879174981 8.74568
50.12841816587289 8.694989999999999
50.1529980044635 8.69293
50.17758031042124 8.63782
50.20216508562089 8.64622
50.22694442953363 8.63383
50.25153416817468 8.66924
50.27612638170508 8.6537
50.300721072005196 8.632060000000001
50.325510416102105 8.62765
50.350110084975064 8.55535
50.37471223628208 8.60375
50.39931687190919 8.54722
50.424116246675766 8.53814
50.44872587605249 8.51854
50.47333799543065 8.5152
50.49795260670191 8.465589999999999
50.52276204271512 8.46932
50.54738166295838 8.435839999999999
50.57200378079314 8.43651
50.596628398116835 8.38861
50.62144792604559 8.38679
50.646077567609396 8.40905
50.670709714377715 8.3937
50.69553683636198 8.34085
50.72017401885922 8.32777
50.7448137122895 8.35625
50.76945591856022 8.28802
50.79429318636823 8.2871
50.818940443716784 8.26913
50.84359021965163 8.23426
50.868242516085964 8.2388
50.893089960641895 8.201260000000001
50.917747323549435 8.19559
50.94240721271973 8.155710000000001
50.96706963007175 8.17075
50.99192728239342 8.1309
51.01659478166073 8.17494
51.04126481489051 8.14857
51.06593738400761 8.09345
51.090805275207074 8.138060000000001
51.11548294172845 8.06134
51.14016314993547 8.0847
51.164845901758845 8.055860000000001
51.18972406304274 8.02068
51.21441192780656 8.0206
51.23910234200271 8.0014
51.2637953075678 8.0075
51.288683770237945 7.94407
51.31338186432707 7.94272
51.33808251561888 7.93885
51.362978729967345 7.950819999999999
51.387684521509755 7.899760000000001
51.41239287610203 7.91683
51.437103795691165 7.851710000000001
51.46201036644977 7.88214
51.486726441956634 7.832439999999999
51.51144508832545 7.80005
51.536166307509156 7.80342
51.56108326624387 7.756639999999999
51.58580965706056 7.769830000000001
51.61053862657523 7.7652600000000005
51.635270176746864 7.726660000000001
51.66019755512065 7.72456
51.68493429268881 7.694560000000001
51.70967361681515 7.7156
51.73441552946465 7.719010000000001
51.759353359237934 7.659
51.7841004750961 7.64584
51.80885018539685 7.6477699999999995
51.833602492111254 7.63503
51.8585508051424 7.61275
51.883308330926425 7.59917
51.90806845906181 7.5557300000000005
51.932831191525715 7.53945
51.95779001977161 7.519660000000001
51.98255798721516 7.5077300000000005
52.00732856494335 7.459289999999999
52.03229530577543 7.481330000000001
52.057071130455945 7.49338
52.081849571391054 7.452310000000001
52.106630630568695 7.42205
52.13160794279417 7.4029300000000005
52.15639426492067 7.38536
52.18118321127822 7.387169999999999
52.205974783860896 7.34882
52.23096269971011 7.3342600000000004
52.255759551287994 7.342039999999999
52.280559035098186 7.354410000000001
52.30536115314103 7.32875
52.33035970494467 7.3029399999999995
52.35516711807904 7.2897300000000005
52.37997717147198 7.26088
52.40478986713005 7.279160000000001
52.42979908731974 7.26585
52.454617094216 7.2129199999999996
52.47943774942214 7.2145399999999995
52.50426105495102 7.21736
52.529280976059844 7.12823
52.554109609024096 7.13333
52.57894089837482 7.1691899999999995
52.60377484613117 7.16545
52.62880550079408 7.123880000000001
52.65364479223379 7.072310000000001
52.67848674816189 7.10735
52.70352547971946 7.100280000000001
52.72837279155837 7.079610000000001
52.753222773982785 7.078060000000001
52.778075429022984 7.052919999999999
52.80312495150885 7.03262
52.827982978797436 6.98415
52.85284368481815 6.955430000000001
52.87770707160767 6.961239999999999
52.90276741793998 6.9363600000000005
52.92763619336701 6.91862
52.952507655698504 6.957739999999999
52.977381806977576 6.927039999999999
53.00245301017842 6.87316
53.02733256653592 6.914969999999999
53.052214817996074 6.83948
53.077099766608484 6.86913
53.102181859804446 6.842510000000001
53.127072229988265 6.828310000000001
53.15196530349892 6.82649
53.17686108239249 6.78748
53.20195409881522 6.82685
53.22685531582556 6.761489999999999
53.25175924441303 6.7274
53.27666588664027 6.755660000000001
53.30176985962693 6.74982
53.3266819565689 6.72935
53.35159677336455 6.710939999999999
53.376514312083096 6.6971300000000005
53.40162927507703 6.67714
53.42655228516116 6.64098
53.45147802340193 6.652189999999999
53.47660125628886 6.64122
53.50153247842639 6.61978
53.52646643496923 6.5976
53.55140312799818 6.57972
53.576537409691696 6.56498
53.60147960336152 6.57322
53.626424539786164 6.52148
53.65137222105307 6.54275
53.67651758529126 6.53061
53.70147078399681 6.4824
53.72642673383343 6.45015
53.75138543689533 6.48832
53.776541917524526 6.45518
53.801506154876755 6.41977
53.826473151763246 6.4487
53.851442910284916 6.41242
53.87661054126026 6.31595
53.9015858509782 6.37564
53.92656392866066 6.35986
53.95154477641532 6.3739300000000005
53.976723591801296 6.32946
54.00171000771266 6.32279
54.02669920004598 6.32429
54.051691170915745 6.29889
54.076881204886796 6.27804
54.101878760928514 6.2379999999999995
54.12687910187696 6.1843699999999995
54.152077577768296 6.21858
54.1770835166946 6.18075
54.20209224691339 6.1965900000000005
54.22710377055121 6.1855199999999995
54.25231352511594 6.18658
54.27733066384342 6.15123
54.30235060239643 6.13201
54.32737334290836 6.107559999999999
54.35259441062629 6.08394
54.377622783395324 6.09806
54.40265396455061 6.0788199999999994
54.42768795623251 6.09422
54.45292037169559 6.0346
54.477960012857906 6.04478
54.50300247099511 5.99466
54.52804774825457 5.997269999999999
54.55329154616743 5.97904
54.57834249018678 5.91434
54.6033962597977 5.93746
54.6284528571545 5.892869999999999
54.653708072335164 5.86143
54.67877035378786 5.84436
54.70383546947698 5.8295
54.72890342156389 5.89227
54.7541700889442 5.8013900000000005
54.77924374251975 5.79486
54.8043202390049 5.72122
54.82959552413022 5.74239
54.8546777351945 5.749709999999999
54.87976279569621 5.70153
54.90485070780914 5.71191
54.930137506558005 5.6481900000000005
54.95523115074295 5.6311599999999995
54.98032765308844 5.62535
55.005427015775496 5.5919
55.03072536339621 5.60263
55.05583047570572 5.54398
55.080938454927676 5.53566
55.10604930325027 5.52594
55.131359235107396 5.5109900000000005
55.15647585066083 5.50593
55.181595341907496 5.41866
55.20671771104285 5.44055
55.232039262617704 5.396780000000001
55.25716741665048 5.39392
55.28229845518636 5.40309
55.30743238042802 5.30946
55.33276558731939 5.3311
55.357905315183636 5.330019999999999
55.383047936390035 5.23205
55.40819345314859 5.24775
55.433538351073295 5.16913
55.458689688238415 5.17812
55.483843927614096 5.13553
55.509197623043605 5.12445
55.53435769621134 5.133769999999999
55.55952067826466 5.09084
55.5846865714265 5.086130000000001
55.61005202069737 5.08605
55.63522376553902 5.04065
55.66039842818645 4.98605
55.68557601087004 4.97731
55.7109532500271 4.923
55.73613670233794 5.00941
