TT I
1.2716486653135266 7.63052
1.2939594142134223 6.4502
1.3162702121660406 6.55496
1.3385810600174564 6.43941
1.3608919586137629 6.54087
1.383202908801069 5.88259
1.405513911425503 5.87436
1.4278249673332093 6.24076
1.4501343378461518 6.4273
1.4724455028545926 6.20294
1.4947567236847858 6.4107
1.517068001182951 6.04779
1.5393793361953272 5.576569999999999
1.5616907295681737 4.841880000000001
1.5840021821477681 4.95846
1.60631369478041 5.798019999999999
1.6286252683124185 5.27379
1.6509369035901333 4.48484
1.6732468618895553 4.75515
1.695558623192809 4.73335
1.7178704487808514 4.85421
1.7401823395001077 4.86635
1.7625012545597203 4.84526
1.7848028405262486 5.07132
1.8071218901122095 5.40379
1.8294236121921872 4.79294
1.8517427996910911 4.6628099999999995
1.8740620574440425 4.72101
1.8963639900671978 4.64541
1.9186833908139995 4.02787
1.9409854680117449 5.013780000000001
1.9633050151394713 4.32734
1.9856246367570705 3.82493
2.0079269371922672 4.94152
2.03024671027244 4.67932
2.0525491637446027 4.30662
2.074869091674931 4.4263900000000005
2.097171701569106 4.6483300000000005
2.1194917877373847 5.14348
2.141811954326636 5.01121
2.164114805233074 4.49189
2.186435135143035 5.6851400000000005
2.208738150935709 8.1035
2.231058647554722 12.5195
2.2533792288321184 10.2356
2.275682498336085 6.4695
2.298003251406138 5.78784
2.3203066942619714 5.42059
2.3426276225136022 5.31105
2.3649486396617507 5.99373
2.387252348930071 6.0736099999999995
2.4095735463442893 6.04793
2.4318774374315884 6.0878
2.4541988185014043 6.4295
2.476502894794693 7.058260000000001
2.498824462909887 6.85577
2.521146125856138 7.2023399999999995
2.5434504863470337 7.397010000000001
2.5657723414244717 8.31638
2.588076895590662 8.41036
2.610398946189713 8.406080000000001
2.6327210958598384 8.71402
2.6550259469304716 8.38985
2.6773482972090137 9.00384
2.6996533504259 8.97149
2.7219759047039602 8.60779
2.744298562293959 7.963139999999999
2.7666039251246595 8.37704
2.7889267918020164 8.1408
2.8112323652516555 8.33806
2.833555444408179 8.49974
2.8558786311183852 8.41467
2.8781845268938557 8.80813
2.9005079311721484 8.93268
2.9228140460410397 8.87932
2.9451376712799635 9.47761
2.967444008632326 9.73361
2.9897678582247247 9.71186
3.0120918213106695 10.6696
3.0343984987899373 10.975
3.0567226913198637 11.0249
3.079029599759726 11.5825
3.101354025127254 11.8904
3.123678568232338 12.139000000000001
3.145985829517914 13.1099
3.16831061055229 13.5148
3.1906181112775593 14.7257
3.212943133635653 15.2193
3.2352682779763207 15.2471
3.2575761442691227 15.2434
3.2799015350264273 15.4645
3.302209649240067 16.1043
3.3245352898092655 16.7432
3.3468436553365257 17.1971
3.369169549113219 17.67
3.3914955708171384 18.7186
3.413804319727358 18.8161
3.4361305997334863 18.9475
3.4584396084414553 19.2073
3.4807661501462652 20.0149
3.503092824025881 20.6797
3.5254022288463154 20.7413
3.5477291695206588 21.0742
3.5700388426251948 22.2786
3.5923660534916446 23.3175
3.6146934007816114 28.5146
3.637003482731501 44.8939
3.6593311053109985 46.9335
3.681641464033634 34.0651
3.7039693653009733 26.2031
3.726297407241705 25.2501
3.7486081875460804 24.9227
3.7709365132734978 25.8256
3.793247578841633 26.0624
3.8155761917550093 26.291999999999998
3.8378875459837216 26.7766
3.8602164494827234 27.0378
3.882545499606844 27.5407
3.9048572932539183 28.2665
3.9271866390645718 28.5825
3.9494987298666713 29.8145
3.971828374764527 30.0771
3.9941581705403255 30.2439
4.016470713506008 30.6716
4.038800813471445 31.4684
4.061113662089144 32.217
4.0834440696459176 32.8443
4.105774632334751 32.9076
4.128087945865126 34.1735
4.150418821249301 34.7463
4.172732448931298 35.7236
4.195063640413578 36.9651
4.2173775856475215 38.8034
4.239709096631102 51.7437
4.262040768704612 106.061
4.284355196706267 130.851
4.306687193387355 93.0509
4.329001947444346 53.4439
4.35133427213731 43.7632
4.373666762177566 42.9725
4.395982011761091 43.4615
4.418314834921175 44.2187
4.44063041906622 47.7493
4.4629635787515625 51.2436
4.4852969080429785 52.2858
4.5076130004776225 52.6505
4.529946671403969 58.8755
4.552263106909177 63.1736
4.574597122877047 58.9581
4.596931312711224 54.8771
4.619248269273446 53.3608
4.6415828092605835 53.9606
4.663900117405352 55.1285
4.686235010953232 56.5117
4.708552674085913 57.7851
4.730887924602802 59.2479
4.753223354952695 61.7802
4.775541557023902 65.5542
4.797877349456786 68.9596
4.820195915032126 69.7092
4.842532072957498 68.595
4.864868414979744 70.91199999999999
4.88718753227192 75.6802
4.909524244902505 76.9642
4.931843734218147 76.4611
4.954180820867835 78.0133
4.976518095879839 80.8758
4.998838149695359 83.6857
5.021175803844231 86.9701
5.043496238205739 89.9115
5.065834274903528 94.0859
5.088172504230693 99.3004
5.1104935158799565 105.766
5.132832132875765 125.414
5.155153533596801 155.082
5.1774925416746225 195.96400000000003
5.199814334878411 407.14
5.2221537374521505 1023.25
5.244493338631803 2907.53
5.266815727034316 8022.32
5.289155727832427 12359.7
5.311478517248165 8153.65
5.333818921080011 2470.25
5.356159527788849 481.397
5.3784829252032536 195.585
5.400823940070432 154.852
5.423147747031976 130.22
5.445489173474152 119.603
5.467830807066149 120.829
5.490155234831516 121.444
5.512497285125229 113.82600000000001
5.534822130975162 106.15799999999999
5.557164601388673 101.21700000000001
5.579489868738879 97.9768
5.601832762690846 96.8826
5.6241758697774475 95.9812
5.646501775867269 95.3254
5.668845311622074 94.4518
5.691171647754637 93.8311
5.713515615597765 92.4966
5.735859800852677 92.3801
5.758186788542988 95.0709
5.780531411018185 99.6178
5.802858837297399 99.9517
5.825203900414495 99.5192
5.8475491852224 103.611
5.869877275883075 102.306
5.892223006467101 97.1585
5.914551544266608 95.1011
5.936897724049891 96.9926
5.959244129804903 103.887
5.981573344815301 132.809
6.0039202049061 242.40200000000002
6.026249875609095 477.471
6.04859719346037 976.2239999999999
6.070927323278297 2265.75
6.093275102315365 4554.13
6.115623113320588 5242.06
6.137953938319995 2962.78
6.160302415650845 818.258
6.182633708324452 196.979
6.2049826554078376 106.44
6.227331838745022 88.8202
6.249663839443684 82.7479
6.27201349767565 79.4877
6.294345974611799 80.0339
6.316696111167083 81.7335
6.339046488263839 79.124
6.361379686074702 73.3054
6.383730546639482 70.0296
6.406064229255215 69.5763
6.428415576718203 71.4098
6.450749747566656 69.9052
6.47310158535871 66.7344
6.495453669698332 64.8567
6.517788579421056 63.8689
6.540141159237969 62.7951
6.562476565766648 62.3578
6.5848296444934045 62.6923
6.607182974060425 62.8168
6.6295191323281015 62.8001
6.651872965955752 62.8771
6.6742096296068985 70.3612
6.6965639707294615 84.0994
6.71891856698715 83.0599
6.741255995248479 69.4484
6.763611104154477 60.7031
6.785949046381137 58.2939
6.808304671371482 59.2643
6.8306605557940046 61.0508
6.852999275508618 60.2678
6.875355681171544 57.6104
6.897694923437771 56.1726
6.92005185377892 55.6865
6.9423916220322655 55.8964
6.964749080490181 54.9571
6.987106804399774 55.0209
7.009447368180821 55.9851
7.031805625367033 55.8245
7.054146723727803 55.3128
7.076505517631004 54.831
7.098864581288365 54.6209
7.121206488070854 54.4762
7.143566093607822 54.748999999999995
7.165908543567245 56.1236
7.188268694426048 56.0347
7.2106291193438095 55.1697
7.232972390625943 54.7975
7.255333366030969 59.5699
7.277677189091925 76.0398
7.300038718428332 90.322
7.322400526130865 81.86
7.344745183422596 64.2729
7.367107550224791 55.934
7.389452767901992 54.3456
7.411815697249891 53.9577
7.434161478756298 53.36
7.456524974096713 53.0933
7.478888753837185 53.1564
7.501235387657368 53.4797
7.523599738562711 53.5552
7.545946944825532 53.7911
7.568311870344528 54.2446
7.5906770845765665 54.4349
7.613025156078678 54.8927
7.635390950099687 55.6573
7.657739602662809 55.2801
7.680105979923558 55.7777
7.702472650212829 57.113
7.724822180948224 56.5459
7.747189439655568 56.2392
7.769539560075357 55.7479
7.791907410653562 55.7762
7.81425812420825 56.0039
7.836626570110925 56.105
7.858995315087906 56.7227
7.881346924933401 57.1619
7.903716270417482 57.7084
7.926068482028405 57.9165
7.948438431475253 58.4489
7.9708086843180235 59.2977
7.993161805171116 59.6461
8.015532667162402 60.4648
8.037886398416653 61.4869
8.060257873014221 62.3427
8.082629655331942 62.9457
8.104984308787587 63.3832
8.127356708900503 66.39699999999999
8.149711981398308 70.6005
8.172085002766314 72.7219
8.194458336181368 70.4474
8.216814543847752 68.7639
8.23918850371002 68.9281
8.26154533906492 69.722
8.283919928836452 71.0778
8.306277395339652 71.9633
8.328652618483376 73.3113
8.351028159736202 75.5632
8.373386579575245 77.9002
8.395762759396959 79.8077
8.418121819038275 83.1371
8.440498640894003 90.1062
8.462875785192262 101.046
8.485235811156207 126.85700000000001
8.507613602688501 179.463
8.529974277114228 259.974
8.552352719347912 383.76099999999997
8.574731488360351 660.1080000000001
8.59709314210385 1218.52
8.619472567021075 1941.74
8.64183487789147 2181.39
8.664214962183097 1720.4
8.686577933647762 835.3839999999999
8.708958680784317 318.436
8.731339760774953 147.219
8.753703729764451 106.46
8.77608547780821 97.1321
8.798450116065078 93.85600000000001
8.820832535634787 91.8606
8.843215292401656 92.1528
8.865580941199045 92.9608
8.887964374703538 92.4097
8.910330701447199 92.4805
8.932714815164482 91.96600000000001
8.955099270424924 88.8939
8.977466620733543 86.0003
8.999851761421976 84.6734
9.022219798361645 83.5167
9.04460562795561 83.23700000000001
9.066991803441677 83.7479
9.089360876979615 84.2486
9.111747746589993 84.0023
9.13411751544971 82.6446
9.156505082664324 81.3392
9.178875550323522 81.5961
9.20126381862328 81.3617
9.223652438908596 81.4051
9.246023961427412 81.543
9.26841328802173 81.4404
9.290785518039224 82.1137
9.313175554425882 85.041
9.335565947154315 86.9355
9.357939245086508 86.8948
9.380330352834827 86.3078
9.40270436697103 85.9508
9.425096193225055 85.2561
9.447488380180165 84.9712
9.469863475295412 84.4739
9.492256385987508 84.8828
9.514632206018318 84.7183
9.537025843935714 84.9558
9.559402392368193 86.3572
9.581796761000229 89.4992
9.604191496441521 91.8328
9.626569144158516 94.8135
9.648964615551032 95.7316
9.671343000390081 95.0482
9.693739211225699 93.1109
9.716135793237463 92.1317
9.738515290448102 92.4099
9.760912617143402 94.5136
9.783292860202891 97.4105
9.805690935076182 99.3762
9.828089385495742 100.289
9.850470754023561 101.28399999999999
9.872869957865444 104.178
9.89525208097539 109.999
9.917652041736662 116.71
9.940052382417589 125.334
9.962435644102392 151.636
9.984836746950979 190.99900000000002
10.007220771957746 247.268
10.029622640473708 345.036
10.052007432299963 526.572
10.074410069984072 841.15
10.096813093716005 1325.17
10.119199042482517 1834.09
10.141602840636468 1996.47
10.163989564971628 1510.0
10.186394141051062 804.492
10.208799107559706 349.9
10.231187001965623 169.487
10.253592751657669 119.75299999999999
10.275981430388155 109.781
10.298387966769793 107.76799999999999
10.320794897965431 108.084
10.343184759907361 106.436
10.36559248305461 104.265
10.387983138083852 104.31299999999999
10.410391656691655 110.60700000000001
10.432800574501677 121.693
10.455192425893369 136.35299999999998
10.47760214443012 162.934
10.499994797678786 210.83900000000003
10.522405320453982 298.002
10.54479877906917 430.87300000000005
10.567210109595656 538.091
10.5896218454736 582.646
10.612016518879773 491.233
10.634429067781074 320.151
10.656824555333241 182.49099999999999
10.679237920773568 114.67399999999999
10.701651695961992 93.5865
10.724048411481384 87.9395
10.746463008485165 85.464
10.768860546937125 83.9051
10.791275969274796 82.6432
10.81369180576079 81.5917
10.836090585366925 80.4545
10.858507252467449 78.8381
10.88090686379991 78.3707
10.903324365036394 77.9758
10.925724811614439 77.1784
10.948143150509463 77.8848
10.970561909719066 77.5125
10.992963615930844 76.3872
11.015383218085756 74.8322
11.037785768347074 73.4722
11.06020621697282 72.1897
11.082627090322113 71.194
11.105030913430326 70.78399999999999
11.12745263854165 70.3328
11.149857314510728 71.3167
11.172279894912576 72.9963
11.194702904450653 72.6624
11.217108866490921 70.7392
11.239532736615194 69.1811
11.26193956033512 68.1065
11.284364294577085 67.4567
11.306789462371718 66.508
11.329197585398376 66.2572
11.351623622610898 66.5097
11.37403261614354 65.6046
11.396459526308487 65.3038
11.418869393879497 65.1569
11.441297180532617 64.6634
11.463725406927658 64.1551
11.486136592353875 63.9991
11.508565700543707 63.976000000000006
11.530977768845315 64.6548
11.553407762368774 64.4609
11.575838200059769 64.5806
11.598251599479612 63.3832
11.620682927815501 62.9071
11.64309721895548 62.8231
11.665529441478206 62.5118
11.687962112597958 62.1816
11.710377748130886 62.5485
11.732811318753434 62.1933
11.755227854859067 62.053000000000004
11.777662328529495 62.2673
11.800079768750786 62.3345
11.822515149015453 62.2966
11.844950984084935 62.5193
11.867369787303163 61.8878
11.889806534289491 61.7238
11.912226250487029 62.0845
11.934663912939751 62.2926
11.9571020346363 62.6062
11.979523127133968 62.8593
12.001962169624331 64.0676
12.024384183972964 65.6276
12.046824150809913 68.5834
12.069264581333726 72.6281
12.091687985297767 78.2795
12.11412934550045 87.0547
12.136553680195208 103.846
12.158995973632788 129.279
12.181438735204349 161.743
12.20386447284199 195.451
12.226308172985636 214.171
12.24873485024193 201.282
12.271179492516982 160.727
12.293607112949127 115.885
12.316052700916226 85.3072
12.338498763250042 71.2204
12.360927805303868 65.7418
12.383374818673879 64.2306
12.405804812803074 63.361000000000004
12.428252780773262 63.4414
12.45070122756722 63.7167
12.473132656675375 63.7682
12.49558206341869 64.2161
12.518014453510101 64.4084
12.540464823770117 64.433
12.562915677315177 64.4858
12.58534951575545 64.4802
12.607801338171472 65.1171
12.630236146511358 67.1169
12.652688941369085 68.9393
12.675124723177234 69.5192
12.697578494048786 68.7661
12.720032754458185 67.3476
12.742470003354093 66.8636
12.764925245138771 67.0108
12.787363476431278 67.6178
12.809819703166806 67.859
12.83227642391173 68.9568
12.854716135692716 69.3424
12.877173846755147 70.6273
12.899614549869717 71.0201
12.9220732548287 72.0964
12.94453245827299 72.5706
12.966974655289818 73.6241
12.989434858002571 74.2581
13.011878055298721 74.6084
13.034339260862497 75.5788
13.056800969391883 77.0007
13.079245674017244 79.6918
13.101708390774869 84.2957
13.12415410463411 92.374
13.146617833206086 102.00399999999999
13.169064559883248 111.507
13.191529303857127 125.88799999999999
13.213994557076367 149.895
13.236442809902437 189.732
13.258909083908291 249.729
13.28135835851934 315.35900000000004
13.30382565690295 392.53
13.326293469022952 424.994
13.348744283242008 413.23699999999997
13.371213125129904 329.126
13.39366497011003 232.485
13.416134845360597 155.205
13.438605238843131 117.262
13.46105863690397 105.066
13.483530069144786 105.785
13.505984506951902 110.51
13.528456981549432 120.32799999999999
13.550929978879088 135.42600000000002
13.573385983253365 162.067
13.595860028340867 201.769
13.618317081455832 259.425
13.64079217790333 317.99
13.663250283359057 364.38199999999995
13.685726434770173 375.718
13.708203115221277 326.233
13.730662806148091 244.05
13.75314054697177 168.06099999999998
13.775601299246777 117.991
13.798080104050406 93.4526
13.820559442405358 83.7716
13.843021793671388 80.6892
13.865502201420897 79.2796
13.887965623051947 78.9003
13.910447103807167 78.0467
13.932929122629764 76.4198
13.955394156785959 76.2797
13.977877254034569 75.0789
14.000343367582113 74.0702
14.022827546871707 73.6713
14.045294743423524 73.2498
14.06778000837062 72.6306
14.090265817715476 72.1084
14.112734645763819 71.8028
14.13522154619454 71.1461
14.157691466286913 71.187
14.180179461423874 70.7795
14.202668005486178 70.5205
14.22513957064374 70.0011
14.247629214846473 69.4861
14.270101881097517 69.4173
14.29259262906496 69.0001
14.315083930490205 69.5469
14.337558255389705 69.5411
14.360050666019726 69.4896
14.382526101071944 69.0876
14.405019624534942 68.6213
14.427513705993134 68.4991
14.449990813291825 68.3492
14.47248601302899 68.0508
14.49496423954951 68.1444
14.517460561197822 68.2985
14.539939910570322 67.9779
14.562437357763558 68.3797
14.58493536931253 69.001
14.607416409993311 69.2418
14.62991555254159 69.4728
14.652397725157423 69.7725
14.674898002342799 69.7317
14.697398848433282 69.9969
14.719882725991326 71.4892
14.74238471217934 73.2781
14.764869730765593 76.7418
14.787372860692983 79.4334
14.809876564079925 82.755
14.83236330125751 88.7231
14.854868153850365 97.7715
14.877356041159485 112.14299999999999
14.899862046604186 132.80200000000002
14.922351087688757 160.433
14.944858249632887 190.101
14.967365991421232 218.236
14.989856770231246 228.745
15.012365673994204 218.68
15.03485761569738 185.813
15.05736768508665 139.90200000000002
15.07987833888692 106.834
15.102372032001655 85.4282
15.124883856909658 74.7221
15.14737872204565 71.3246
15.169891721717274 69.9427
15.192405310371893 69.51899999999999
15.214901940621196 69.2397
15.237416709527137 68.4883
15.259914520936249 68.52199999999999
15.282430473753607 67.8742
15.304947020131227 67.1861
15.327446610371178 66.7533
15.349964346154254 66.2021
15.372465126703139 65.9139
15.394984055556009 65.7994
15.417486030076159 65.4006
15.44000615566487 65.1929
15.462526881230803 65.0662
15.485030653812652 65.312
15.507552581617434 65.1318
15.530057557334603 65.1944
15.55258069104857 65.2051
15.575104429329837 65.4432
15.597611216864632 65.2907
15.620136166564563 66.1346
15.6426441664095 67.5962
15.665170331202765 70.1308
15.687697105158826 72.852
15.710206930593545 75.4533
15.732734925158933 79.4736
15.755245972089478 85.9043
15.77777519094324 95.7675
15.800287463046663 109.9
15.822817909869592 130.41899999999998
15.84534897229804 153.106
15.867863089299354 177.12599999999998
15.890395385222186 194.82299999999998
15.912910736597423 195.926
15.935444269699861 178.843
15.957978423016485 146.141
15.980495633101265 112.958
16.003031029129367 88.8909
16.02554948280019 72.3519
16.048086125229432 65.4244
16.070623392487107 63.1238
16.09314371869582 62.0546
16.11568223789321 61.1691
16.13820381691126 60.6342
16.160743591742527 60.056000000000004
16.183283996022084 59.3056
16.205807461423195 58.5909
16.228349126881973 58.0641
16.25087385432698 58.1142
16.27341678466365 57.5866
16.29594277784926 57.4079
16.31848697676433 57.2916
16.341031811604868 56.8715
16.36355971058487 57.0775
16.3861058195587 56.8427
16.40863499352978 56.1461
16.431182380342005 55.3962
16.453730407713202 55.4169
16.476261501364792 55.2857
16.498810812136167 54.8049
16.52134319004079 54.945
16.54389378792203 54.6183
16.566445031001553 54.6139
16.588979342490088 54.6495
16.61153187824822 54.5164
16.634067483263312 54.2869
16.656621315414416 54.2825
16.679175797408888 53.7658
16.701713349928728 53.8581
16.72426913389191 54.2527
16.74680798922351 54.203
16.76936507887444 54.1907
16.791905240734874 54.1257
16.814463639794468 53.9782
16.837022695210294 54.1525
16.859564824093756 54.4667
16.882125194503903 54.4994
16.904668639217885 54.776
16.927230328348003 54.808
16.949792678493612 54.9761
16.972338104193863 54.9786
16.994901778652235 54.846000000000004
17.017448529496576 54.9491
17.040013531998152 55.3119
17.06257920018044 56.011
17.0851279459922 56.608000000000004
17.107694947817667 57.4999
17.130245028099072 58.3057
17.15281336730298 59.5452
17.17536478578733 61.2116
17.19793446610687 63.5665
17.220504818648422 66.8746
17.243058251703697 70.4028
17.265629950971032 75.3562
17.288184731571736 80.3639
17.310757781306908 83.8488
17.33333150794385 83.6929
17.355888317140174 80.8987
17.37846339986244 74.6912
17.401021565958885 68.4244
17.42359800851343 63.6045
17.44617513265564 60.8102
17.468735341390783 59.3361
17.491261035594565 58.8754
17.51396340099364 58.5716
17.536490463869136 58.5713
17.559018209820174 58.3785
17.58154663977963 58.736000000000004
17.604251766089718 58.9305
17.626781572227713 59.2684
17.64931206518155 59.2899
17.671843245885103 59.5143
17.69455114821572 59.54600000000001
17.717083712612634 59.9867
17.739616967569667 60.2574
17.762150914021706 60.7988
17.78486160749854 61.1018
17.807396945166804 61.8125
17.829932977143503 63.4393
17.85246970436452 64.6567
17.875183204129467 66.381
17.897721330097664 67.82
17.920260154126645 70.1758
17.942799677153296 73.1867
17.9655159983646 77.0804
17.988056927677544 82.8754
18.010598558807683 91.5759
18.033140892692916 101.838
18.05586005052525 113.624
18.07840379824407 125.48700000000001
18.10094825154059 135.721
18.12366954819864 141.39600000000002
18.146215420998306 137.326
18.16876200220057 126.54899999999999
18.191309292745153 111.40899999999999
18.214033452627167 98.8415
18.236582170236648 88.6807
18.259131600016456 84.6741
18.281681742907335 86.3838
18.304408781233683 91.5894
18.32696035875955 97.1429
18.349512652227624 101.92200000000001
18.372065662579683 105.13799999999999
18.394795594587553 104.915
18.41735004715306 99.6719
18.43990521943684 91.3405
18.46246111238171 82.23200000000001
18.485193953325208 73.4816
18.507751296070428 67.3927
18.530309362314178 64.1368
18.552868153000343 62.5017
18.57560391815056 61.3799
18.59816416623245 61.0313
18.620725141597372 60.3316
18.643286845190268 60.1137
18.666025549835414 59.5969
18.688588718427933 59.0629
18.711152618092243 58.9331
18.73389353884365 58.6649
18.75645890921984 58.2628
18.77902501351406 57.9194
18.801591852673102 57.9415
18.824335739722738 57.4353
18.846904057212626 57.5524
18.8694731124168 57.2722
18.89204290628315 57.2044
18.914789774966803 56.9314
18.937361054791623 56.6076
18.959933076131318 56.3589
18.982505839934877 56.3134
19.00525570560582 56.3041
19.027829963004184 56.1278
19.05040496572238 56.5101
19.072980714710468 56.3909
19.095733592739563 56.4354
19.11831084296757 56.6906
19.140888842324735 56.7743
19.16346759176222 57.0426
19.18622349753803 57.7607
19.208803755869358 58.5863
19.231384767143577 59.9177
19.253966532312948 61.8579
19.276725481241822 64.0753
19.29930876296784 66.5979
19.3218928014549 69.73899999999999
19.34465404436217 72.6706
19.36723960516257 75.2335
19.389825925592426 75.3188
19.412413006605938 73.9767
19.43517731967805 69.6925
19.457765930683355 65.3177
19.48035530514408 60.8043
19.50294544401556 57.6668
19.525712842708348 55.2969
19.54830451925909 54.3245
19.570896963095727 53.4789
19.593490175174704 53.321000000000005
19.616260674962184 53.2144
19.638855432416964 52.9529
19.661450960992624 52.9597
19.68404726164677 52.8071
19.706820878021247 52.7207
19.729418731756834 52.8889
19.752017360452857 52.8477
19.77461676506804 53.2088
19.797393513540218 53.2413
19.819994478951667 53.3166
19.84259622316767 54.0354
19.8651987471481 54.2003
19.887978643247177 54.4509
19.91058273574792 54.9903
19.933187610901943 55.8981
19.955969879466828 56.9045
19.97857632894404 58.5936
20.00118356396599 60.4392
20.023791585494575 62.7001
20.046577028914875 65.6393
20.069186632506966 67.7857
20.091797025500632 69.5211
20.114408208858933 69.807
20.137196842715273 68.9311
20.159809615886765 66.7608
20.18242318232135 63.9724
20.20503754298326 62.1826
20.227829382875154 61.4549
20.250445341109344 61.7941
20.27306209647285 62.5586
20.29567964993108 64.1409
20.31847471147704 64.8132
20.34109387027612 65.2412
20.363713830075454 64.4202
20.386334591841646 62.5594
20.409132890679302 59.8954
20.431755265564437 56.5476
20.454378445325528 54.0177
20.477002430930366 52.4367
20.499803982716553 51.2716
20.522429589228004 50.5488
20.54505600449589 50.1785
20.567683229489194 50.093999999999994
20.590488049900088 49.6901
20.61311690359731 49.4399
20.63574656993626 49.4464
20.658553853717297 49.1146
20.681185154618298 49.1254
20.703817271080066 48.9339
20.72645020407368 48.6111
20.749260783967177 48.2636
20.771895359337133 48.4621
20.794530754161617 48.4146
20.817166969412938 48.3277
20.83998086114876 48.3143
20.86261872660049 48.2872
20.885257415405402 48.1742
20.90789692853701 48.0717
20.930714147864748 48.1193
20.953355319030678 48.1196
20.97599731745334 48.2771
20.99864014410749 48.0297
21.021460706796564 47.9998
21.044105199328826 48.2502
21.06675052302631 48.3314
21.089396678865015 48.8164
21.112220600704806 48.9341
21.134868430275347 49.1956
21.15751709492456 49.5779
21.180166595629693 49.813
21.202993892429635 50.4099
21.22564507473034 50.9112
21.24829709602816 51.0896
21.27112693608965 50.848
21.293780644891275 50.7154
21.316435195634053 50.0237
21.339090589297417 49.3754
21.361923832041875 48.8999
21.384580921090404 48.2753
21.407238856007325 47.8087
21.429897637773326 47.7718
21.45273429906592 47.8389
21.475394784108598 47.873000000000005
21.498056118951983 47.7707
21.520718304578022 48.1669
21.543558400304388 48.2492
21.566222297108816 48.4872
21.58888704765135 48.5436
21.61155265291521 48.8801
21.63439619898156 49.3955
21.657063523335786 49.461999999999996
21.67973170537063 49.9754
21.7024007460706 50.3647
21.72524775840385 51.2781
21.747918526116475 52.2088
21.770590155457388 53.7975
21.79326264741238 55.349
21.816113141960237 57.239
21.838787368860547 59.1937
21.861462461341976 61.0347
21.884315579735777 62.7877
21.90699241312273 63.6556
21.92967011506078 63.8623
21.95234868653799 63.2436
21.9752053151131 61.5415
21.997885635446785 59.6921
22.020566828293532 57.8432
22.04324889464272 56.4568
22.066109049404666 55.6032
22.088792872571794 55.4368
22.111477572219204 55.61
22.1341631493376 55.5948
22.157026846313123 55.0457
22.179714188221507 54.2215
22.202402410582668 53.1813
22.22509151438863 51.603
22.24795876962584 50.3195
22.270649646204486 49.5827
22.293341407213727 49.1625
22.316034053646906 48.735
22.338904883215342 48.5207
22.36159931041458 48.333
22.38429462602756 48.3471
22.40699083104897 48.0485
22.429865251039757 48.0835
22.452563244831367 48.2312
22.47526213102522 48.2076
22.49813925616515 48.0845
22.520839937143307 48.0715
22.543541513520587 48.1783
22.56624398629403 48.0619
22.589124730075895 48.1489
22.611829005656723 48.2949
22.63453418063466 48.2865
22.657240256008077 48.6159
22.680124634582935 48.7286
22.70283252079775 48.7936
22.725541310413075 49.0145
22.74825100442868 49.2156
22.771139033969575 49.7377
22.79385054687155 50.058
22.81656296718292 50.7771
22.83927629590484 51.7448
22.862167992606945 52.8236
22.88488314827121 53.9701
22.907599215359284 54.961999999999996
22.93031619487366 55.935
22.953211574954405 56.8799
22.975930389478226 57.5211
22.998650119445763 57.5094
23.02137076586092 56.4807
23.044269845560063 54.8892
23.06699233506288 53.2045
23.089715744034912 51.4918
23.112617610931565 50.0239
23.135342869061212 49.0684
23.158069049684816 48.4977
23.1807961538087 48.1868
23.20370174880544 48.308
23.226430710184808 48.412
23.249160598093425 48.4069
23.271891413539002 48.2825
23.294800752937697 48.2284
23.31753343374794 48.5708
23.340267045128353 48.5727
23.36300158808808 48.971000000000004
23.38591468821339 49.3248
23.408651104658304 49.7915
23.431388455719986 50.3603
23.454126742409 51.1212
23.4770436196085 52.2264
23.499783787914662 53.7459
23.522524894889884 54.7411
23.54526694154616 55.7973
23.56818761219047 56.967
23.59093154860734 57.4917
23.613676427751283 57.3683
23.636422250635754 56.1917
23.659346731118656 54.1
23.68209445191868 52.2161
23.704843119509587 50.1686
23.72759273490623 48.365
23.750521041644767 47.3942
23.77327256312355 46.5046
23.796025035462787 45.993
23.818956224555475 45.5962
23.841710609113413 45.4476
23.86446594758979 45.1907
23.887222241002014 45.0944
23.910157285144578 44.7084
23.932915498962537 44.7245
23.955674670778713 44.483999999999995
23.978434801611975 44.3922
24.001373717286125 44.2718
24.024135776723917 44.1781
24.046898798245582 43.9541
24.06966278287146 43.9337
24.092605586582614 43.7496
24.115371508023642 43.7012
24.1381383956401 43.7165
24.16090625045381 43.3589
24.183852958731244 43.3122
24.206622758582608 43.3735
24.229393528706886 43.0788
24.252165270127392 43.11600000000001
24.27511589952438 43.0939
24.297889594216997 42.8137
24.32066426328598 42.8578
24.34343990775613 42.8317
24.36639447485003 42.7329
24.38917208083877 42.6077
24.41195066531332 42.5611
24.43490819850244 42.6739
24.457688750692377 42.4297
24.48047028445616 42.4459
24.503252800821233 42.6908
24.526214300784112 42.7707
24.548998793132213 42.6759
24.57178427117417 42.519
24.59457073593893 42.5389
24.617536219319863 42.4537
24.64032466834748 42.4897
24.663114107195035 42.2764
24.685904536893013 42.0375
24.708874020360852 41.9718
24.731666442613744 42.0089
24.754459858818787 41.8929
24.777254270007962 41.9406
24.80022777025625 41.733999999999995
24.82302418230472 41.6252
24.845821592443674 41.7648
24.86862000170663 41.7274
24.891597535453727 41.7868
24.914397953892728 41.8324
24.93719937456671 41.7841
24.96000179851076 41.9028
24.98298338249997 42.165
25.00578782394922 42.4464
25.028593271784167 42.4683
25.05157790644186 42.7049
25.07438537804115 42.9541
25.097193859145293 43.1015
25.120003350792075 43.4121
25.142992065061257 43.7201
25.165803588823465 44.0533
25.18861612625217 44.1342
25.211429678386736 44.1858
25.234422489079968 44.2622
25.257238081693636 44.2918
25.280054692141732 44.3872
25.3028723214652 44.4156
25.325869245420463 44.5554
25.348688923599397 44.4426
25.371509623787006 44.4025
25.394331347025812 43.9467
25.41733240110666 43.5448
25.440156181590016 42.8103
25.46298098826268 42.2064
25.48580682216873 41.6886
25.50881202326435 41.1928
25.53163992281684 40.9112
25.55446885274561 40.7006
25.577298814096377 40.4485
25.600308179121807 40.3955
25.623140214533745 40.4738
25.64597328451537 40.2247
25.66898578564376 40.0036
25.691820936010206 40.0679
25.714657124097695 39.9658
25.737494350954734 40.1154
25.760511045684957 39.9761
25.783350361364224 39.9631
25.806190718969255 39.9199
25.82903211955018 40.1594
25.852053024868923 40.1298
25.874896522722523 40.0945
25.897741066713106 40.0402
25.920586657892454 40.2778
25.943611790812668 40.5572
25.966459487728237 40.6444
25.989308234998564 40.6084
26.01215803367705 40.9476
26.03518741123814 41.0044
26.05803932412957 41.1237
26.080892291600094 41.2045
26.10374631470478 41.2175
26.12677995397268 41.278999999999996
26.14963609978026 41.2354
26.172493304397875 40.7863
26.19535156888223 40.4983
26.218389486949604 40.1031
26.241249882640123 39.9981
26.26411134137826 39.7478
26.28715248187403 39.8573
26.31001607820869 39.5678
26.3328807407756 39.4011
26.35574647063438 39.6442
26.37879191991473 39.5817
26.401659795896734 39.6465
26.424528742360263 39.8063
26.447398760366614 40.0269
26.470448535598294 40.1527
26.49332070826805 40.3722
26.516193955675355 40.5713
26.53906827888316 40.8633
26.562122397260108 41.1353
26.584998883685063 41.4867
26.607876449110325 41.6199
26.63075509460056 41.7279
26.65381357334404 41.8373
26.67669439061878 41.797
26.699576291163382 41.7038
26.722459276044212 41.4652
26.745522132402975 41.0709
26.768407297649354 40.876
26.791293550442003 40.5513
26.814180891848974 40.3116
26.837248143099337 40.1218
26.860137673466657 40.0113
26.88302829566349 39.5901
26.90592001075963 39.4897
26.92899167420566 39.3482
26.951885586870763 39.0631
26.974780595655517 38.861999999999995
26.99785558178161 38.6913
27.020752794605112 38.7036
27.043651106772522 38.4695
27.06655051935668 38.376999999999995
27.089629948036183 38.2371
27.112531573292053 38.251
27.135434302194138 38.2505
27.158338135817015 38.1038
27.181422024430987 38.1021
27.204328079372566 37.9789
27.22723524226965 38.0903
27.250143514198573 38.2292
27.273231880156334 38.1209
27.296142382065014 37.9667
27.319053996245536 37.9479
27.341966723775965 38.0662
27.365059584515222 38.0579
27.38797455070062 38.1344
27.410890633481237 38.0322
27.433807833936918 37.9221
27.456905206923906 38.2042
27.47982465472398 38.1647
27.502745223449743 38.2145
27.525666914182825 38.2596
27.548768816912457 38.2344
27.571692763693633 38.1252
27.59461783573812 37.8835
27.617723149491244 37.8333
27.640650484125285 37.7139
27.66357894728264 37.6798
27.686508540048052 37.6124
27.709618414237887 37.5667
27.732550278321757 37.4608
27.755483275279115 37.5285
27.778417406196485 37.4649
27.801531858397514 37.4741
27.824468269376716 37.4749
27.847405817586786 37.4218
27.870344504116094 37.7144
27.893463551932008 37.7652
27.916404527281053 38.0858
27.93934664422563 37.9585
27.962289903855886 38.0509
27.98541356491974 38.3091
28.00835912214229 38.461999999999996
28.03130582533231 38.7031
28.054253675581805 38.6943
28.077381967556104 38.7114
28.100332124185126 38.4881
28.123283431160893 38.4361
28.146235889577238 38.4037
28.169368830154156 38.14
28.192323603752033 37.8769
28.215279532083304 37.7176
28.238415973016764 37.499
28.261374223145094 37.4244
28.284333631303806 37.1521
28.307294198589954 37.0713
28.330435319167677 36.6356
28.353398217078915 36.3619
28.376362277420153 36.1427
28.39932750129032 35.9641
28.422473319286713 35.9177
28.44544088262495 35.902
28.468409612800283 35.8131
28.491379510913497 35.6857
28.51453004413313 35.5869
28.53750229057244 35.5477
28.56047570826344 35.4533
28.583450298308804 35.4817
28.606605564586562 35.2754
28.629582511831156 35.3804
28.65256063474956 35.3334
28.675539934446338 35.2858
28.698699951647605 35.2629
28.72168161743193 35.1469
28.74466446331978 35.1294
28.767648490417624 35.1963
28.790813276438353 35.0279
28.813799678527303 35.0416
28.836787265157085 35.0892
28.859955641890075 35.2765
28.882945610203045 35.069
28.905936766392035 34.9638
28.928929111566863 35.0143
28.952102288520145 34.8129
28.975097024308607 34.8823
28.998092952423807 34.6184
29.021090073977508 34.4839
29.04426806913204 34.4499
29.067267590245258 34.2597
29.090268308143695 34.1272
29.11327022394099 34.1101
29.13645305530891 34.0208
29.159457379627167 34.0672
29.18246290519685 34.015
29.20546963313352 33.9104
29.22865731875826 33.9129
29.25166646419296 33.9321
29.27467681535305 33.9312
29.29768837335608 33.9701
29.320880931312562 33.98
29.34389491580634 33.9035
29.366910110507334 33.8251
29.38992651653503 33.9261
29.41312396492981 33.8734
29.436142806456754 33.7494
29.45916286268059 33.742
29.48236399319994 33.5423
29.50538649169417 33.3754
29.528410208259935 33.3148
29.55143514402014 33.2122
29.574641196749695 32.9686
29.597668583816574 32.8606
29.6206971934585 32.6721
29.64372702680042 32.6761
29.666938019934474 32.7053
29.689970313635285 32.5743
29.713003834422636 32.5866
29.73603858342347 32.5342
29.759254535188578 32.3996
29.78229175361658 32.4152
29.80533020365064 32.5112
29.82836988641968 32.4904
29.85159081507472 32.3814
29.874632976355343 32.3839
29.89767637376955 32.3546
29.920721008448314 32.2832
29.9439469322847 32.2577
29.96699405457564 32.16
29.9900424175358 32.1818
30.013092022298157 32.2262
30.03632295963995 32.1605
30.059375061131373 32.0789
30.08242840783577 32.1654
30.105483000888153 32.159
30.128718970092244 32.0552
30.151776069006917 32.0953
30.17483441768648 32.0569
30.198074175317235 32.0231
30.221135036724256 32.0983
30.24419715131772 32.0873
30.267260520236203 31.9427
30.290505341942243 31.963
30.313571232750228 32.0182
30.336638381310948 31.9427
30.35970678876503 31.8531
30.38295669299435 31.709
30.40602763151657 31.8506
30.429099832366074 31.8281
30.452173296685572 31.6633
30.47542830191959 31.7173
30.498504306502497 31.6144
30.521581577995562 31.8664
30.544660117543582 31.8008
30.56792024229725 31.7697
30.59100133132069 31.8133
30.614083691845494 31.8901
30.637167325018545 31.8573
30.660432587840603 31.8635
30.683518779717886 31.8496
30.70660624769615 31.7922
30.729694992924372 31.8718
30.75296541239743 31.8189
30.77605672557558 31.8785
30.799149319462742 31.641
30.8224236211637 31.5617
30.845518789950724 31.4325
30.868615242910597 31.4702
30.891712981195973 31.3414
30.91499247215866 31.2736
30.938092794619365 31.2247
30.96119440587579 31.2085
30.984297307082752 31.1068
31.00758200598383 30.8693
31.030687500658694 30.9011
31.053794288760695 30.846999999999998
31.076902371446767 30.7327
31.100192296997445 30.7844
31.12330298246119 30.753
31.14641496599209 30.5891
31.169528248749216 30.655
31.19282341969534 30.5792
31.215939314557186 30.5594
31.239056512134788 30.5995
31.262175013589378 30.6667
31.28547544871168 30.5635
31.30859657161541 30.4405
31.331719001892175 30.4053
31.35484274070538 30.5782
31.378148458819545 30.6362
31.401274828443725 30.4928
31.424402510106933 30.5803
31.447712205419993 30.5966
31.470842524931633 30.517
31.493974159989783 30.5219
31.51710711176168 30.3861
31.54042212308802 30.463
31.563557722100917 30.3941
31.586694641341655 30.2425
31.609832881979628 30.1134
31.63315322823208 30.0737
31.656294125521327 29.956
31.679436347728515 30.0155
31.70257989602529 29.8995
31.725905596152327 29.874000000000002
31.74905181052835 29.8546
31.772199354521323 29.8378
31.79534822930507 29.8737
31.818679302290967 29.9438
31.84183085259981 29.781999999999996
31.864983737233473 29.7444
31.88813795736804 29.822
31.911474422233013 29.7076
31.934631327356435 29.7645
31.9577895715215 29.7538
31.980949155906522 29.7232
32.004291031706956 29.7425
32.027453310562606 29.605
32.05061693318573 29.4897
32.07396288236386 29.521
32.09712920658542 29.4124
32.12029687812702 29.2698
32.14346589817093 29.1697
32.166817291729984 29.1418
32.18998902288583 29.0337
32.21316210610336 29.0291
32.23633654256711 28.8804
32.259693399663725 28.8921
32.282870556771144 28.7554
32.30604907069099 28.7903
32.329228942610065 28.7808
32.35259128243769 28.7244
32.375773884550505 28.7073
32.398957848235646 28.6443
32.422143174682176 28.5982
32.445511016471215 28.4609
32.468699082679954 28.5242
32.49188851523011 28.3037
32.51507931531304 28.2839
32.538452678331 28.2852
32.56164622776311 28.2618
32.58484114831493 28.1158
32.60803744118015 28.1175
32.631416344731896 28.2538
32.654615396551876 28.1972
32.67781582427913 28.0729
32.701198898634416 28.0289
32.72440209253756 27.9856
32.747606665947124 27.9992
32.77081262006088 27.8162
32.79420126883317 27.7542
32.81740999876112 27.833000000000002
32.840620112999424 27.8018
32.86383161274818 27.6233
32.88722585534586 27.7002
32.91044014056596 27.6892
32.933655814909734 27.6969
32.95687287957963 27.7035
32.98027273544904 27.521
33.00349259526636 27.4824
33.026713849030116 27.5868
33.04993649794511 27.5851
33.073341986570746 27.4868
33.09656744032826 27.4514
33.11979429286444 27.6255
33.14302254538647 27.5799
33.166433686291185 27.4481
33.18966475336992 27.3996
33.212897224069096 27.2031
33.23613109959831 27.2209
33.259547912343415 27.2045
33.2827846121627 27.233
33.306022720453775 27.182
33.32926223842861 27.0652
33.352684742614166 27.0866
33.37592709463173 27.148000000000003
33.399170859982064 27.0245
33.422597648419426 26.9663
33.44584425514446 26.8082
33.46909227885668 26.8328
33.4923417207723 26.6473
33.51577423505344 26.7129
33.539026528130385 26.5704
33.56228024307245 26.6242
33.585535381098246 26.3757
33.60897364093058 26.5063
33.63223163992385 26.471
33.6554910656699 26.3788
33.678751919389796 26.3794
33.702195944520106 26.2507
33.72545966903325 26.2557
33.74872482519663 26.1706
33.771991414233746 26.2678
33.79544122444841 26.2004
33.81871069412428 26.1087
33.84198160035767 26.0489
33.86525394437455 26.0027
33.88870955949969 25.9892
33.911984794020626 25.9937
33.93526147001624 25.9725
33.958539588715006 25.9179
33.98200102861669 25.8175
34.0052820477047 25.6982
34.02856451319451 25.7045
34.05203033759056 25.6917
34.07531571090147 25.7033
34.09860253431845 25.6445
34.121890809074316 25.6201
34.145362493118924 25.5681
34.16865368561615 25.5185
34.191946333164054 25.4372
34.21524043699793 25.4429
34.23871800066799 25.4008
34.26201503218366 25.2771
34.28531352370466 25.3234
34.30861347646881 25.3114
34.33209693978188 25.256999999999998
34.3553998301885 25.2384
34.378704185565205 25.109
34.402010007152356 25.0773
34.42549939016683 25.1267
34.44880815937748 24.8761
34.472118398533134 24.9659
34.49543010887669 24.9517
34.51892543169198 24.7696
34.54224009966052 24.9361
34.56555624255917 24.8875
34.58887386163339 24.83
34.61237514439016 24.7034
34.6356957311114 24.6777
34.65901779775809 24.6399
34.68252356662995 24.7095
34.705848608458616 24.6713
34.72917513396849 24.5407
34.75250314440949 24.5207
34.77601490857862 24.3932
34.799345904259795 24.4135
34.82267838863559 24.3985
34.846012362958525 24.3682
34.869530142679984 24.3941
34.89286711232212 24.3574
34.91620557568269 24.2674
34.93954553401677 24.2377
34.9630693495876 24.1422
34.986412313340814 24.2408
35.00975677584668 24.1681
35.033102738362956 24.0755
35.05663261012228 24.0972
35.0799815881786 24.1348
35.10333207003229 23.9752
35.12668405694369 23.9879
35.150220005273056 24.0399
35.17357501786656 24.0145
35.19693153931268 23.9496
35.220289570874385 23.8373
35.24383161619786 23.8603
35.267192683604904 23.8369
35.290555264930376 23.7514
35.314101899412165 23.8866
35.33746752422433 23.7469
35.36083466676374 23.7078
35.38420332829803 23.7546
35.407756095629054 23.7038
35.43112781085063 23.7993
35.45450104888391 23.7107
35.477875810999194 23.6684
35.50143473172161 23.6058
35.52481255774625 23.5373
35.54819191167777 23.5154
35.57157279478914 23.5238
35.595137889488406 23.4047
35.61852184675279 23.5082
35.641907337029984 23.3272
35.665294361595684 23.3036
35.68886565090076 23.3208
35.7122557598848 23.2536
35.73564740699838 23.2894
35.759040593519934 23.2313
35.78261809810353 23.1417
35.80601437933051 23.0667
35.829412203814705 23.0647
35.85281157283719 23.0368
35.876395313415884 23.0281
35.8997977874528 22.9856
35.92320180988546 22.9048
35.946790244133936 22.894000000000002
35.97019737933222 22.9242
35.993606066789866 22.8517
36.01701630779276 22.7862
36.04061101440684 22.7796
36.06402437852291 22.7343
36.08743930005611 22.6917
36.1108557802951 22.6174
36.13445678011326 22.6118
36.15787639383515 22.5458
36.18129757014299 22.6015
36.20472031032821 22.5868
36.22832762423364 22.4617
36.25175350829375 22.4948
36.275180960119776 22.3956
36.298609981005924 22.3901
36.32222362992669 22.4433
36.34565580510207 22.4029
36.36908955323448 22.3406
36.39252487562093 22.189
36.416144880530226 22.1764
36.43958336764275 22.2413
36.463023432914625 22.199
36.486465077645676 22.1625
36.51009145956204 22.1777
36.53353627947859 22.1654
36.55698268276811 22.089000000000002
36.58043067073321 22.0542
36.60406345072071 21.9302
36.62751462435344 21.9046
36.65096738658405 21.9768
36.67460498210655 21.8684
36.69806093788647 21.8201
36.72151848619297 21.8189
36.744977628333636 21.8187
36.76862165890998 21.7298
36.79208400512205 21.7061
36.81554794910557 21.7039
36.83901349217101 21.5928
36.862663978991606 21.6189
36.88613273667352 21.5334
36.90960309738324 21.508000000000003
36.933075062434064 21.4489
36.95673202673572 21.4612
36.98020721697122 21.3811
37.003684015502365 21.4008
37.027162423645365 21.3122
37.050825886711465 21.3666
37.07430753063053 21.269000000000002
37.09779078812467 21.24
37.121275660513014 21.2027
37.144945643673694 21.1556
37.16843376245278 21.1697
37.19192350009803 21.1586
37.215414857931435 21.1154
37.239091382563885 21.0077
37.262585997426164 20.9308
37.28608223645736 20.9652
37.309763684451696 20.9364
37.33326318851098 20.8557
37.356764320726555 20.8601
37.380267082425526 20.8662
37.40395510942588 20.899
37.42746114683234 20.7714
37.45096881771841 20.7225
37.474478123414166 20.8032
37.49817275092816 20.7693
37.52168534303452 20.7038
37.54519957395567 20.6141
37.568715445024665 20.6663
37.592416694607714 20.5623
37.61593586281424 20.5935
37.63945667518264 20.5728
37.66297913304891 20.486
37.68668702630454 20.4444
37.710212792059274 20.4142
37.733740207334854 20.347
37.757269273470364 20.2973
37.780983832050374 20.2535
37.80451621684926 20.2252
37.82805025654007 20.2257
37.851585952464795 20.1865
37.8753071980695 20.1184
37.89884622345676 20.1037
37.92238690911902 20.1431
37.94611318753442 20.0627
37.969657210779765 20.034000000000002
37.99320289834801 20.0828
38.016750251586465 20.0009
38.04048325513017 19.9883
38.06403395679343 19.8784
38.087586328183946 19.9081
38.11114037065203 19.8435
38.13488012115898 19.8928
38.1584375229181 19.7417
38.181996599821 19.7614
38.205557353221124 19.7286
38.229303872575656 19.6827
38.2528679961576 19.6731
38.27643380031219 19.6509
38.30000128639589 19.6312
38.32375459653193 19.5841
38.34732546371299 19.5776
38.37089801690786 19.4423
38.39447225747609 19.4236
38.418232380377425 19.4256
38.441810012983396 19.3906
38.46538933705673 19.3757
38.488970353960084 19.3935
38.51273731166058 19.3134
38.536321731567014 19.2936
38.55990784840681 19.2912
38.58367995004091 19.2897
38.60726947812959 19.1736
38.63086070726198 19.2129
38.654453638806274 19.1537
38.678232613930824 19.0904
38.70182896773327 19.0661
38.72542702806741 19.035999999999998
38.7490267963045 19.0013
38.77281266709232 18.9964
38.79641586862214 18.9664
38.8200207821842 18.9319
38.843627409152944 18.9392
38.86742019782782 18.9261
38.891030269149255 18.7851
38.914642058016156 18.7927
38.938255565806124 18.7614
38.96205529464307 18.6821
38.98567225787121 18.7307
39.00929094417078 18.7166
39.03291135492255 18.7018
39.05671804624804 18.6268
39.080341923549106 18.553
39.103967529460334 18.5554
39.127594865365744 18.5604
39.15140854155791 18.4967
39.17503935514948 18.4264
39.19867190290282 18.425
39.22249083587951 18.4131
39.24612686969409 18.399
39.269764641845306 18.4144
39.293404153722804 18.4367
39.317230110864074 18.2843
39.34087311998506 18.1641
39.36451787301696 18.2159
39.388164371352595 18.1585
39.41199737518003 18.1737
39.43564738196752 18.2326
39.45929913825317 18.1895
39.48295264543308 18.0979
39.506792718520884 18.0072
39.530449745387216 18.0667
39.55410852735203 18.0034
39.57776906581474 18.0275
39.60161623079 17.9501
39.625280300200025 17.8647
39.64894613032202 17.8413
39.67261372255866 17.8672
39.6964680021016 17.8547
39.72013913657293 17.8413
39.74381203738292 17.8121
39.76748670593756 17.7999
39.79134812278169 17.7227
39.81502634488497 17.7592
39.83870633896685 17.6682
39.862388106436654 17.6585
39.88625668336918 17.6195
39.90994201572829 17.6017
39.933629125719285 17.5668
39.957503091207826 17.5544
39.9811937746168 17.5988
40.00488623990914 17.5296
40.02858048850006 17.4086
40.05246165409549 17.3949
40.076159487492085 17.3327
40.099859108448875 17.3799
40.123560518384345 17.3316
40.1474489070226 17.3616
40.171153913178564 17.3006
40.194860712584955 17.2557
40.2185693066637 17.2442
40.242464941335314 17.1365
40.26617714307655 17.1663
40.289891143772046 17.2011
40.3136069448471 17.1309
40.33750984859743 17.0718
40.3612292688043 17.0707
40.3849504936829 17.0237
40.40867352466194 16.9786
40.43258372059144 16.9504
40.45631038219906 16.9877
40.48003885420956 16.8979
40.503769138055105 16.955
40.52768664931955 16.9071
40.55142057531802 16.9187
40.57515631746428 16.8077
40.599079334038514 16.7576
40.62281872700477 16.7343
40.64655994043941 16.7313
40.67030297578061 16.7024
40.69423334835778 16.7245
40.71798004609188 16.6375
40.74172857006355 16.6196
40.76547892171441 16.6262
40.7894166736039 16.6259
40.813170699248566 16.567999999999998
40.83692655691388 16.5237
40.86068424804498 16.5513
40.884629402612525 16.4818
40.908390779366385 16.5008
40.932153993938 16.4378
40.95591904777605 16.416
40.979871628443995 16.4181
41.003640379561936 16.3679
41.02741097430883 16.3498
41.05118341413683 16.3143
41.075143444384416 16.305
41.098919593177826 16.2885
41.1226975914255 16.1971
41.14647744058318 16.1313
41.170444943946755 16.1439
41.19422851378379 16.1521
41.218013938914645 16.0982
41.24198706625173 16.1238
41.26577622087193 16.0469
41.289567235177785 16.0608
41.31336011063129 16.011
41.337340752422875 15.9461
41.361137369129835 15.9791
41.38493585138705 15.9402
41.40873620066004 15.890999999999998
41.43272438060107 15.8676
41.45652848292052 15.844000000000001
41.48033445666918 15.8325
41.50414230331616 15.7377
41.528138045159764 15.7744
41.551949656675205 15.7734
41.575763145513235 15.7162
41.59957851314666 15.6912
41.62358184070442 15.6565
41.64740098505737 15.6143
41.6712220126409 15.6199
41.69504492493139 15.5702
41.71905586207357 15.5619
41.74288256296395 15.4865
41.766711153007456 15.5054
41.79054163368412 15.4642
41.814560204340054 15.4616
41.838394485526365 15.4535
41.86223066180303 15.4403
41.88625497706819 15.3736
41.910094962812 15.3687
41.93393684811168 15.3524
41.95778063445365 15.2657
41.981812625263366 15.254000000000001
42.00566023303407 15.2411
42.029509746323676 15.2047
42.05336116662236 15.2051
42.077400857069705 15.1717
42.10125611078846 15.1608
42.12511327600405 15.157
42.14897235421036 15.0995
42.173019768448455 15.0867
42.19688269209613 15.0662
42.22074753323349 15.0317
42.24461429335818 14.972000000000001
42.268669455600495 14.9971
42.292540073217886 14.9487
42.31641261433284 14.8864
42.34028708044675 14.9106
42.36435001496739 14.8977
42.38822835065557 14.8435
42.41210861586426 14.8321
42.4359908120986 14.8286
42.46006154323262 14.828
42.48394762115317 14.73
42.507835634632315 14.6731
42.531912233047436 14.6652
42.55580413732265 14.6504
42.579697981698 14.6217
42.60359376768525 14.6039
42.62767820545945 14.5776
42.65157789440821 14.6028
42.67547952952185 14.5954
42.699383112316 14.5193
42.72347541395347 14.4047
42.74738291190531 14.4231
42.771292362102166 14.4306
42.795203766063516 14.4087
42.819303956130405 14.4258
42.843219287476536 14.4059
42.86713657716324 14.3645
42.89105582671383 14.357000000000001
42.91516392983864 14.3279
42.939087119032166 14.2742
42.963012272677304 14.2558
42.98693939230129 14.2295
43.01105543317513 14.1339
43.034986504731386 14.1698
43.05891954686589 14.1333
43.08285456110972 14.1215
43.10697856448665 14.0559
43.130917542983475 14.0274
43.15485849820081 14.033
43.17880143167367 14.009
43.20293342237094 13.9626
43.226880332449 13.9976
43.25082922540554 14.0411
43.27496722682525 13.9248
43.29892010567796 13.8701
43.32287497204102 13.9167
43.34683182745632 13.8552
43.370977859791836 13.7712
43.39493871351105 13.8083
43.41890156092628 13.7938
43.44286640358341 13.8231
43.46702049182749 13.7678
43.49098934522816 13.7486
43.51496019852649 13.6691
43.5389330532723 13.6665
43.56309522248204 13.6141
43.58707210044314 13.5896
43.61105098451946 13.5309
43.63503187626491 13.5385
43.659202151562134 13.5543
43.68318707902681 13.540999999999999
43.70717401884041 13.4914
43.731162972560874 13.4538
43.75534137913236 13.4486
43.779334381108384 13.4549
43.803329401683186 13.4474
43.82732644241872 13.3588
43.8515130055166 13.3622
43.87551410707659 13.3258
43.89951723350145 13.3019
43.923709934595614 13.2992
43.94771713129917 13.2401
43.97172635758096 13.2694
43.99573761501002 13.2184
44.0199385169922 13.2075
44.04395385732619 13.1576
44.067971233533086 13.186
44.09199064718605 13.1342
44.11619977548961 13.1009
44.14022328470671 13.0785
44.16424883610785 13.1014
44.18827643127035 13.0764
44.21249381139513 13.0638
44.236525514814076 13.0007
44.26055926674478 12.9661
44.28459506876863 12.9921
44.3088207262813 12.9127
44.33286064928722 12.9237
44.35690262714919 12.9064
44.38094666145278 12.8502
44.4051806219871 12.9066
44.42922879003185 12.8776
44.45327901929361 12.815
44.477331311362136 12.8213
44.501573600619416 12.737
44.525630039221795 12.7052
44.54968854541895 12.6751
44.573937102200176 12.7302
44.5979997645541 12.7086
44.622064499300315 12.6826
44.64613130803592 12.6443
44.67038823869318 12.6594
44.69445921643748 12.6102
44.718532272981385 12.5529
44.742607409926194 12.5288
44.76687274034801 12.5112
44.79095205918753 12.4389
44.81503346325094 12.4727
44.839116954143876 12.4264
44.86339071028742 12.4181
44.88747839599524 12.4438
44.91156817336837 12.3932
44.93566004401666 12.3722
44.959942251908146 12.3349
44.984038330325966 12.3224
45.00813650686762 12.2588
45.03223678314731 12.3147
45.05652746888232 12.2497
45.08063196592069 12.241
45.104738567558705 12.1903
45.128847275414856 12.1675
45.15314646515866 12.1287
45.17725940679741 12.1017
45.20137445952892 12.1284
45.22568004865265 12.1398
45.24979934496396 12.0864
45.27392075725247 12.0318
45.29804428714431 12.0276
45.322358426247604 12.0067
45.346486212804315 11.9735
45.370616121861914 11.9847
45.39474815505086 11.929
45.41907087049246 11.9359
45.4432071734666 11.8241
45.46734560548283 11.8769
45.49148616817604 11.8824
45.51581748638564 11.8614
45.5399623320197 11.8064
45.56410931325473 11.7781
45.58825843173002 11.7823
45.61259837920865 11.7685
45.636751793816 11.79
45.66090735060093 11.7104
45.68506505120716 11.6435
45.7094136545275 11.6455
45.73357566449271 11.6267
45.75773982322992 11.6499
45.78190613238733 11.6581
45.806263418194064 11.545
45.83043404997326 11.5756
45.85460683713677 11.5881
45.87897065658495 11.5306
45.90314777634752 11.5112
45.92732705646868 11.4886
45.9515084986045 11.4685
45.97588104735473 11.4491
46.00006683541565 11.4368
46.02425479047904 11.3965
46.04844491420549 11.3949
46.0728262191024 11.3992
46.09702070211635 11.3488
46.12121735879483 11.3159
46.14541619080294 11.3209
46.169806278764455 11.3108
46.194009483459034 11.2421
46.21821486849841 11.2719
46.24242243555223 11.2533
46.266821333570014 11.2259
46.29103328674601 11.2317
46.31524742696538 11.1953
46.33946375590237 11.1963
46.36387149104216 11.1358
46.38809221957392 11.0983
46.41231514186606 11.0909
46.436540259597464 11.0934
46.460956858999374 11.0555
46.48518638983522 11.0148
46.509418121166966 10.9963
46.533652054678114 11.0053
46.55807754555709 10.9612
46.58231590571962 10.9603
46.60655647313217 10.9167
46.630988654873654 10.8863
46.655233659129024 10.8779
46.67948087571551 10.8371
46.70373030632484 10.7947
46.72817142736393 10.8286
46.752425308428684 10.7647
46.77668140861147 10.789000000000001
46.80093972960865 10.74
46.82538981736788 10.7409
46.849652602470904 10.7184
46.87391761349769 10.7119
46.8981848521493 10.6559
46.9226439341274 10.6414
46.946915650573224 10.6374
46.97118959976749 10.612
46.99546578341598 10.5534
47.019933887188216 10.6011
47.04421456235744 10.5572
47.06849747711879 10.5335
47.09278263318286 10.5263
47.11725978640143 10.489
47.14154944775105 10.4892
47.165841355555656 10.4903
47.1901355115306 10.4595
47.214621741924994 10.4016
47.23892041698887 10.383
47.26322134538975 10.3871
47.28771440635075 10.3894
47.31201986422527 10.3685
47.33632758061436 10.302
47.360637557241866 10.2796
47.38513974410611 10.3006
47.40945426407847 10.2521
47.43377104948137 10.2628
47.45809010204344 10.2345
47.48260144275502 10.2161
47.506925052572285 10.1924
47.53125093475548 10.1474
47.55557909103813 10.1695
47.58009961361992 10.1494
47.60443234110732 10.1134
47.62876734791564 10.0985
47.65310463578333 10.0967
47.6776343683373 10.0877
47.7019762413987 10.0484
47.72632040075572 9.99129
47.75066684815169 9.98758
47.77520581885936 9.941939999999999
47.799556865477655 9.93032
47.823910205386 9.9552
47.84826584033272 9.95336
47.87281407745551 9.93255
47.89717432569297 9.91717
47.92153687423484 9.89311
47.94609208429692 9.85484
47.97045925671401 9.83301
47.99482873471275 9.83057
48.01920052005013 9.82363
48.04376504619224 9.79312
48.068141469543484 9.774239999999999
48.09252020552573 9.7697
48.11690125590099 9.73291
48.1414751266064 9.74196
48.16586082917454 9.70462
48.19024885144316 9.68677
48.2146391951793 9.66044
48.239222439012764 9.647160000000001
48.26361744916137 9.654639999999999
48.28801478610016 9.65127
48.31241445160131 9.60923
48.337007097209366 9.58132
48.36141144338331 9.57967
48.38581812345755 9.5406
48.41022713920929 9.55475
48.434829215320704 9.49635
48.45924292604658 9.52634
48.48365897780325 9.53466
48.50807737237308 9.47766
48.532688907799276 9.44699
48.55711201168574 9.422039999999999
48.581537463754074 9.39557
48.60615611725119 9.41358
48.63058628942721 9.35083
48.65501881516546 9.35777
48.6794536962573 9.35046
48.70408185970339 9.35355
48.72852147531801 9.32268
48.75296345168211 9.28335
48.77740779059232 9.29327
48.80204549302823 9.27176
48.82649458091802 9.2315
48.85094603676547 9.2184
48.87539986237231 9.1595
48.90004713292306 9.14681
48.92450572200832 9.12566
48.94896668628025 9.12636
48.97343002754588 9.12036
48.99808689542115 9.10276
49.02255501470614 9.09277
49.04702551642794 9.071589999999999
49.0714984023988 9.07606
49.096164896893235 9.036669999999999
49.120642575466796 9.0401
49.145122643748394 9.017380000000001
49.16960510355558 9.012780000000001
49.19428125404938 8.98143
49.2187685210852 8.95963
49.243258185121555 8.93267
49.26794160167084 8.94632
49.2924360839405 8.91098
49.31693296869764 8.90542
49.34143225776915 8.869489999999999
49.36612538195438 8.83535
49.39062950396021 8.87037
49.41513603578346 8.84298
49.4396449792564 8.81219
49.46434784069503 8.80214
49.488861631846454 8.78582
49.513377840166804 8.7862
49.537896467493745 8.75085
49.56260909589029 8.67403
49.587132585683285 8.70845
49.611658500018365 8.71725
49.636186840738596 8.69155
49.66090926588511 8.67595
49.685442483902584 8.64326
49.70997813385706 8.60638
49.734516217597076 8.61316
49.75924846937352 8.61072
49.7837914452858 8.60506
49.80833686055187 8.54241
49.83288471702571 8.51543
49.85762682540054 8.536430000000001
49.882179588965734 8.51622
49.9067347993235 8.46654
49.93129245833333 8.46151
49.95604445336378 8.459019999999999
49.98060703442832 8.466000000000001
50.005172069746266 8.44255
50.02993150438364 8.43559
50.05450147301533 8.439860000000001
50.07907390151433 8.41359
50.10364879174981 8.37607
50.12841816587289 8.35542
50.1529980044635 8.3421
50.17758031042124 8.29904
50.20216508562089 8.316130000000001
50.22694442953363 8.27187
50.25153416817468 8.23611
50.27612638170508 8.26105
50.300721072005196 8.22653
50.325510416102105 8.21612
50.350110084975064 8.20924
50.37471223628208 8.19323
50.39931687190919 8.201789999999999
50.424116246675766 8.144919999999999
50.44872587605249 8.13772
50.47333799543065 8.13372
50.49795260670191 8.113339999999999
50.52276204271512 8.087660000000001
50.54738166295838 8.09005
50.57200378079314 8.04986
50.596628398116835 8.03571
50.62144792604559 8.02678
50.646077567609396 8.03215
50.670709714377715 7.99538
50.69553683636198 7.98677
50.72017401885922 7.9814
50.7448137122895 7.982189999999999
50.76945591856022 7.93645
50.79429318636823 7.91776
50.818940443716784 7.90905
50.84359021965163 7.864839999999999
50.868242516085964 7.880389999999999
50.893089960641895 7.85467
50.917747323549435 7.875310000000001
50.94240721271973 7.8368199999999995
50.96706963007175 7.794969999999999
50.99192728239342 7.80762
51.01659478166073 7.81968
51.04126481489051 7.81153
51.06593738400761 7.78397
51.090805275207074 7.71897
51.11548294172845 7.745489999999999
51.14016314993547 7.764819999999999
51.164845901758845 7.7313600000000005
51.18972406304274 7.688389999999999
51.21441192780656 7.635160000000001
51.23910234200271 7.639810000000001
51.2637953075678 7.62643
51.288683770237945 7.60835
51.31338186432707 7.58795
51.33808251561888 7.58599
51.362978729967345 7.59145
51.387684521509755 7.5692
51.41239287610203 7.5563
51.437103795691165 7.51859
51.46201036644977 7.46877
51.486726441956634 7.461110000000001
51.51144508832545 7.482760000000001
51.536166307509156 7.46612
51.56108326624387 7.430960000000001
51.58580965706056 7.43986
51.61053862657523 7.401260000000001
51.635270176746864 7.35704
51.66019755512065 7.389589999999999
51.68493429268881 7.399769999999999
51.70967361681515 7.3528899999999995
51.73441552946465 7.31941
51.759353359237934 7.31163
51.7841004750961 7.322030000000001
51.80885018539685 7.29903
51.833602492111254 7.2800199999999995
51.8585508051424 7.27735
51.883308330926425 7.2182
51.90806845906181 7.21782
51.932831191525715 7.22213
51.95779001977161 7.201919999999999
51.98255798721516 7.156000000000001
52.00732856494335 7.13536
52.03229530577543 7.16217
52.057071130455945 7.1445
52.081849571391054 7.164610000000001
52.106630630568695 7.14235
52.13160794279417 7.09157
52.15639426492067 7.091
52.18118321127822 7.110460000000001
52.205974783860896 7.0594
52.23096269971011 7.00851
52.255759551287994 7.035260000000001
52.280559035098186 7.00685
52.30536115314103 6.9772
52.33035970494467 6.96161
52.35516711807904 6.976260000000001
52.37997717147198 6.96425
52.40478986713005 6.966239999999999
52.42979908731974 6.91863
52.454617094216 6.868710000000001
52.47943774942214 6.8861300000000005
52.50426105495102 6.88037
52.529280976059844 6.84583
52.554109609024096 6.81602
52.57894089837482 6.82021
52.60377484613117 6.81935
52.62880550079408 6.85434
52.65364479223379 6.793019999999999
52.67848674816189 6.782839999999999
52.70352547971946 6.77729
52.72837279155837 6.77505
52.753222773982785 6.76548
52.778075429022984 6.75315
52.80312495150885 6.69988
52.827982978797436 6.691319999999999
52.85284368481815 6.677980000000001
52.87770707160767 6.6584699999999994
52.90276741793998 6.6529
52.92763619336701 6.64699
52.952507655698504 6.649939999999999
52.977381806977576 6.641369999999999
53.00245301017842 6.62391
53.02733256653592 6.59823
53.052214817996074 6.5751800000000005
53.077099766608484 6.554930000000001
53.102181859804446 6.5014
53.127072229988265 6.5345
53.15196530349892 6.543769999999999
53.17686108239249 6.51363
53.20195409881522 6.51282
53.22685531582556 6.47454
53.25175924441303 6.4421
53.27666588664027 6.42531
53.30176985962693 6.42138
53.3266819565689 6.44095
53.35159677336455 6.3872
53.376514312083096 6.39838
53.40162927507703 6.39729
53.42655228516116 6.36929
53.45147802340193 6.32784
53.47660125628886 6.30799
53.50153247842639 6.3120199999999995
53.52646643496923 6.29291
53.55140312799818 6.29845
53.576537409691696 6.30711
53.60147960336152 6.249140000000001
53.626424539786164 6.27581
53.65137222105307 6.21579
53.67651758529126 6.20365
53.70147078399681 6.16613
53.72642673383343 6.20865
53.75138543689533 6.211790000000001
53.776541917524526 6.20567
53.801506154876755 6.14317
53.826473151763246 6.11145
53.851442910284916 6.07305
53.87661054126026 6.1237699999999995
53.9015858509782 6.1506
53.92656392866066 6.11446
53.95154477641532 6.105230000000001
53.976723591801296 6.08244
54.00171000771266 6.03492
54.02669920004598 6.00994
54.051691170915745 6.00349
54.076881204886796 6.00979
54.101878760928514 5.987480000000001
54.12687910187696 5.98613
54.152077577768296 5.96208
54.1770835166946 5.95645
54.20209224691339 5.9928300000000005
54.22710377055121 5.93595
54.25231352511594 5.93441
54.27733066384342 5.9313400000000005
54.30235060239643 5.88984
54.32737334290836 5.91066
54.35259441062629 5.82946
54.377622783395324 5.825019999999999
54.40265396455061 5.81299
54.42768795623251 5.79743
54.45292037169559 5.74394
54.477960012857906 5.7661
54.50300247099511 5.76083
54.52804774825457 5.73707
54.55329154616743 5.69791
54.57834249018678 5.66084
54.6033962597977 5.68242
54.6284528571545 5.62265
54.653708072335164 5.638719999999999
54.67877035378786 5.62574
54.70383546947698 5.60433
54.72890342156389 5.58148
54.7541700889442 5.51956
54.77924374251975 5.51431
54.8043202390049 5.52299
54.82959552413022 5.483969999999999
54.8546777351945 5.485530000000001
54.87976279569621 5.45421
54.90485070780914 5.42515
54.930137506558005 5.39882
54.95523115074295 5.46305
54.98032765308844 5.39199
55.005427015775496 5.38545
55.03072536339621 5.33155
55.05583047570572 5.2817
55.080938454927676 5.30046
55.10604930325027 5.2331900000000005
55.131359235107396 5.29591
55.15647585066083 5.24057
55.181595341907496 5.21948
55.20671771104285 5.192880000000001
55.232039262617704 5.17986
55.25716741665048 5.15492
55.28229845518636 5.1317
55.30743238042802 5.10538
55.33276558731939 5.15388
55.357905315183636 5.08815
55.383047936390035 5.0484800000000005
55.40819345314859 5.06454
55.433538351073295 5.00304
55.458689688238415 4.9657
55.483843927614096 4.88355
55.509197623043605 4.92745
55.53435769621134 4.91585
55.55952067826466 4.83094
55.5846865714265 4.84203
55.61005202069737 4.8545
55.63522376553902 4.87216
55.66039842818645 4.79274
55.68557601087004 4.81094
55.7109532500271 4.7322
55.73613670233794 4.742380000000001
