TT I
1.2716486653135266 6.90888
1.2939594142134223 7.2928
1.3162702121660406 6.80857
1.3385810600174564 6.9908399999999995
1.3608919586137629 6.877460000000001
1.383202908801069 6.6657399999999996
1.405513911425503 5.9488
1.4278249673332093 5.98131
1.4501343378461518 6.07035
1.4724455028545926 6.30006
1.4947567236847858 5.995419999999999
1.517068001182951 5.9417
1.5393793361953272 6.34296
1.5616907295681737 5.89044
1.5840021821477681 5.37387
1.60631369478041 5.4776
1.6286252683124185 5.308590000000001
1.6509369035901333 5.11322
1.6732468618895553 4.97641
1.695558623192809 5.01883
1.7178704487808514 5.50171
1.7401823395001077 5.74593
1.7625012545597203 4.6638
1.7848028405262486 4.89876
1.8071218901122095 5.15257
1.8294236121921872 4.82903
1.8517427996910911 4.77541
1.8740620574440425 4.802169999999999
1.8963639900671978 4.639069999999999
1.9186833908139995 4.376519999999999
1.9409854680117449 4.84034
1.9633050151394713 4.68956
1.9856246367570705 4.27399
2.0079269371922672 4.34816
2.03024671027244 4.38797
2.0525491637446027 4.15072
2.074869091674931 4.18142
2.097171701569106 4.3647599999999995
2.1194917877373847 4.57226
2.141811954326636 5.2239
2.164114805233074 4.52819
2.186435135143035 5.43047
2.208738150935709 9.87482
2.231058647554722 15.8349
2.2533792288321184 12.7488
2.275682498336085 8.11164
2.298003251406138 5.4822
2.3203066942619714 5.81846
2.3426276225136022 5.4236699999999995
2.3649486396617507 5.25516
2.387252348930071 5.5919300000000005
2.4095735463442893 5.88132
2.4318774374315884 6.160909999999999
2.4541988185014043 6.07222
2.476502894794693 6.39449
2.498824462909887 6.6002600000000005
2.521146125856138 6.9739
2.5434504863470337 7.5356
2.5657723414244717 7.7761
2.588076895590662 7.654310000000001
2.610398946189713 8.119480000000001
2.6327210958598384 7.685239999999999
2.6550259469304716 6.695130000000001
2.6773482972090137 7.62409
2.6996533504259 8.10225
2.7219759047039602 7.87869
2.744298562293959 7.8827300000000005
2.7666039251246595 7.84478
2.7889267918020164 7.7505
2.8112323652516555 8.36054
2.833555444408179 8.20795
2.8558786311183852 7.9360100000000005
2.8781845268938557 8.8987
2.9005079311721484 9.40334
2.9228140460410397 8.99831
2.9451376712799635 8.8376
2.967444008632326 9.47925
2.9897678582247247 9.68246
3.0120918213106695 10.0339
3.0343984987899373 10.7705
3.0567226913198637 11.4452
3.079029599759726 12.0108
3.101354025127254 12.7027
3.123678568232338 12.7253
3.145985829517914 12.6507
3.16831061055229 13.3726
3.1906181112775593 13.9569
3.212943133635653 14.8126
3.2352682779763207 14.6733
3.2575761442691227 15.4
3.2799015350264273 15.6592
3.302209649240067 16.0775
3.3245352898092655 17.0667
3.3468436553365257 17.0361
3.369169549113219 17.6832
3.3914955708171384 18.4297
3.413804319727358 18.958
3.4361305997334863 19.0051
3.4584396084414553 19.906
3.4807661501462652 20.5001
3.503092824025881 20.4489
3.5254022288463154 20.5583
3.5477291695206588 21.8958
3.5700388426251948 22.3011
3.5923660534916446 23.0177
3.6146934007816114 30.8703
3.637003482731501 53.8585
3.6593311053109985 59.4059
3.681641464033634 38.975
3.7039693653009733 27.2089
3.726297407241705 25.2525
3.7486081875460804 25.4905
3.7709365132734978 25.9048
3.793247578841633 26.4291
3.8155761917550093 26.7748
3.8378875459837216 27.0111
3.8602164494827234 27.4466
3.882545499606844 28.0465
3.9048572932539183 28.4317
3.9271866390645718 29.0853
3.9494987298666713 29.7141
3.971828374764527 30.3621
3.9941581705403255 31.0288
4.016470713506008 31.2471
4.038800813471445 31.8411
4.061113662089144 32.5819
4.0834440696459176 33.245
4.105774632334751 33.8509
4.128087945865126 34.0933
4.150418821249301 35.3766
4.172732448931298 36.084
4.195063640413578 37.5672
4.2173775856475215 40.1722
4.239709096631102 56.4816
4.262040768704612 135.049
4.284355196706267 170.882
4.306687193387355 117.41
4.329001947444346 60.191
4.35133427213731 45.3341
4.373666762177566 43.5334
4.395982011761091 43.6408
4.418314834921175 45.0976
4.44063041906622 49.6186
4.4629635787515625 55.2845
4.4852969080429785 55.411
4.5076130004776225 52.6131
4.529946671403969 53.8505
4.552263106909177 55.7604
4.574597122877047 54.3588
4.596931312711224 53.9331
4.619248269273446 54.2015
4.6415828092605835 54.6186
4.663900117405352 56.0938
4.686235010953232 57.2504
4.708552674085913 58.9294
4.730887924602802 60.0443
4.753223354952695 62.0743
4.775541557023902 64.3643
4.797877349456786 66.8693
4.820195915032126 68.0208
4.842532072957498 69.0603
4.864868414979744 70.9375
4.88718753227192 74.4982
4.909524244902505 76.2005
4.931843734218147 77.3319
4.954180820867835 79.5559
4.976518095879839 82.5096
4.998838149695359 85.1414
5.021175803844231 88.1882
5.043496238205739 92.4559
5.065834274903528 97.4314
5.088172504230693 101.921
5.1104935158799565 109.39399999999999
5.132832132875765 128.905
5.155153533596801 162.111
5.1774925416746225 215.002
5.199814334878411 476.51599999999996
5.2221537374521505 1260.9
5.244493338631803 3217.78
5.266815727034316 7900.85
5.289155727832427 12363.1
5.311478517248165 8268.41
5.333818921080011 2778.1
5.356159527788849 582.695
5.3784829252032536 200.65099999999998
5.400823940070432 153.342
5.423147747031976 132.632
5.445489173474152 121.88600000000001
5.467830807066149 118.76799999999999
5.490155234831516 116.13799999999999
5.512497285125229 110.771
5.534822130975162 106.492
5.557164601388673 103.814
5.579489868738879 100.57600000000001
5.601832762690846 99.2246
5.6241758697774475 98.6638
5.646501775867269 97.40700000000001
5.668845311622074 96.4468
5.691171647754637 95.5123
5.713515615597765 94.65100000000001
5.735859800852677 94.0252
5.758186788542988 94.5283
5.780531411018185 96.7469
5.802858837297399 96.1421
5.825203900414495 96.54899999999999
5.8475491852224 98.3563
5.869877275883075 98.6176
5.892223006467101 96.7928
5.914551544266608 96.994
5.936897724049891 100.666
5.959244129804903 108.73899999999999
5.981573344815301 143.628
6.0039202049061 272.775
6.026249875609095 557.653
6.04859719346037 1110.35
6.070927323278297 2348.52
6.093275102315365 4415.01
6.115623113320588 5514.14
6.137953938319995 3320.01
6.160302415650845 1008.62
6.182633708324452 241.07
6.2049826554078376 115.32700000000001
6.227331838745022 93.1987
6.249663839443684 85.4528
6.27201349767565 82.0254
6.294345974611799 83.4157
6.316696111167083 87.5802
6.339046488263839 84.1073
6.361379686074702 75.7414
6.383730546639482 71.5397
6.406064229255215 69.8937
6.428415576718203 70.225
6.450749747566656 68.9485
6.47310158535871 66.794
6.495453669698332 65.8092
6.517788579421056 65.0836
6.540141159237969 64.0559
6.562476565766648 63.0302
6.5848296444934045 62.821999999999996
6.607182974060425 63.3291
6.6295191323281015 62.9612
6.651872965955752 64.0845
6.6742096296068985 76.1747
6.6965639707294615 97.8789
6.71891856698715 98.5319
6.741255995248479 76.6607
6.763611104154477 63.3414
6.785949046381137 59.5927
6.808304671371482 59.2031
6.8306605557940046 59.927
6.852999275508618 58.9726
6.875355681171544 57.6977
6.897694923437771 57.0411
6.92005185377892 56.5334
6.9423916220322655 56.563
6.964749080490181 55.8217
6.987106804399774 55.6437
7.009447368180821 56.3636
7.031805625367033 56.0344
7.054146723727803 55.4775
7.076505517631004 54.5468
7.098864581288365 55.1042
7.121206488070854 55.2442
7.143566093607822 55.4468
7.165908543567245 55.9697
7.188268694426048 55.8048
7.2106291193438095 55.2742
7.232972390625943 55.7063
7.255333366030969 61.8244
7.277677189091925 88.8824
7.300038718428332 110.24799999999999
7.322400526130865 97.2491
7.344745183422596 71.232
7.367107550224791 57.8181
7.389452767901992 55.5488
7.411815697249891 54.8366
7.434161478756298 54.0449
7.456524974096713 54.1429
7.478888753837185 54.0914
7.501235387657368 54.5408
7.523599738562711 54.4873
7.545946944825532 54.8252
7.568311870344528 55.0808
7.5906770845765665 55.34
7.613025156078678 55.8375
7.635390950099687 56.6273
7.657739602662809 56.4306
7.680105979923558 56.1274
7.702472650212829 56.675
7.724822180948224 56.6213
7.747189439655568 56.423
7.769539560075357 55.9794
7.791907410653562 56.5873
7.81425812420825 56.6659
7.836626570110925 57.1744
7.858995315087906 57.8251
7.881346924933401 58.1549
7.903716270417482 58.7919
7.926068482028405 59.1235
7.948438431475253 59.5258
7.9708086843180235 60.2621
7.993161805171116 60.846000000000004
8.015532667162402 61.3734
8.037886398416653 62.5595
8.060257873014221 63.1952
8.082629655331942 63.6526
8.104984308787587 64.4736
8.127356708900503 66.577
8.149711981398308 70.9075
8.172085002766314 72.8317
8.194458336181368 70.9203
8.216814543847752 69.2949
8.23918850371002 69.7092
8.26154533906492 71.1047
8.283919928836452 72.5746
8.306277395339652 73.8035
8.328652618483376 75.0769
8.351028159736202 77.3218
8.373386579575245 79.5273
8.395762759396959 81.4733
8.418121819038275 85.7256
8.440498640894003 94.6085
8.462875785192262 107.177
8.485235811156207 136.21200000000002
8.507613602688501 197.63
8.529974277114228 290.93
8.552352719347912 437.653
8.574731488360351 717.541
8.59709314210385 1259.36
8.619472567021075 1887.15
8.64183487789147 2198.91
8.664214962183097 1759.14
8.686577933647762 929.326
8.708958680784317 360.56
8.731339760774953 158.43200000000002
8.753703729764451 110.931
8.77608547780821 99.6936
8.798450116065078 95.9261
8.820832535634787 93.3528
8.843215292401656 92.7925
8.865580941199045 92.5288
8.887964374703538 91.2164
8.910330701447199 91.4374
8.932714815164482 91.5942
8.955099270424924 90.0312
8.977466620733543 87.3699
8.999851761421976 85.7791
9.022219798361645 84.4273
9.04460562795561 84.22399999999999
9.066991803441677 84.1698
9.089360876979615 84.3718
9.111747746589993 83.9318
9.13411751544971 83.2238
9.156505082664324 82.3094
9.178875550323522 82.3824
9.20126381862328 82.7398
9.223652438908596 83.4563
9.246023961427412 83.2179
9.26841328802173 82.8258
9.290785518039224 82.9893
9.313175554425882 84.9231
9.335565947154315 85.5874
9.357939245086508 85.54700000000001
9.380330352834827 85.1638
9.40270436697103 85.2474
9.425096193225055 84.9478
9.447488380180165 85.7528
9.469863475295412 85.3477
9.492256385987508 85.8315
9.514632206018318 86.1373
9.537025843935714 86.4194
9.559402392368193 87.2328
9.581796761000229 89.4497
9.604191496441521 90.9533
9.626569144158516 93.7131
9.648964615551032 95.5727
9.671343000390081 95.9491
9.693739211225699 94.7214
9.716135793237463 93.63799999999999
9.738515290448102 93.8494
9.760912617143402 95.2491
9.783292860202891 97.5184
9.805690935076182 99.6224
9.828089385495742 100.148
9.850470754023561 101.618
9.872869957865444 105.95100000000001
9.89525208097539 114.39399999999999
9.917652041736662 123.20700000000001
9.940052382417589 132.351
9.962435644102392 160.844
9.984836746950979 209.752
10.007220771957746 274.29900000000004
10.029622640473708 381.43699999999995
10.052007432299963 573.7669999999999
10.074410069984072 868.873
10.096813093716005 1286.44
10.119199042482517 1738.22
10.141602840636468 1930.26
10.163989564971628 1560.57
10.186394141051062 856.693
10.208799107559706 370.917
10.231187001965623 179.38099999999997
10.253592751657669 125.574
10.275981430388155 113.465
10.298387966769793 111.52799999999999
10.320794897965431 111.693
10.343184759907361 110.755
10.36559248305461 107.24700000000001
10.387983138083852 106.96600000000001
10.410391656691655 114.66
10.432800574501677 127.65799999999999
10.455192425893369 144.195
10.47760214443012 171.562
10.499994797678786 217.74
10.522405320453982 299.617
10.54479877906917 409.481
10.567210109595656 519.602
10.5896218454736 566.461
10.612016518879773 481.838
10.634429067781074 324.293
10.656824555333241 188.554
10.679237920773568 118.461
10.701651695961992 95.1461
10.724048411481384 89.8178
10.746463008485165 87.103
10.768860546937125 85.4392
10.791275969274796 83.4894
10.81369180576079 82.3259
10.836090585366925 81.498
10.858507252467449 80.0349
10.88090686379991 79.2608
10.903324365036394 78.913
10.925724811614439 78.1206
10.948143150509463 78.9319
10.970561909719066 78.336
10.992963615930844 76.5151
11.015383218085756 75.2575
11.037785768347074 73.8418
11.06020621697282 72.8607
11.082627090322113 72.3564
11.105030913430326 71.6708
11.12745263854165 71.6959
11.149857314510728 73.1333
11.172279894912576 76.112
11.194702904450653 76.0765
11.217108866490921 73.3305
11.239532736615194 71.2356
11.26193956033512 70.332
11.284364294577085 69.1479
11.306789462371718 67.7051
11.329197585398376 67.077
11.351623622610898 67.1076
11.37403261614354 66.475
11.396459526308487 66.5346
11.418869393879497 65.9298
11.441297180532617 65.8371
11.463725406927658 65.2203
11.486136592353875 64.7717
11.508565700543707 65.0912
11.530977768845315 66.0753
11.553407762368774 66.0947
11.575838200059769 65.8849
11.598251599479612 64.7938
11.620682927815501 64.1158
11.64309721895548 63.8089
11.665529441478206 63.355
11.687962112597958 63.2389
11.710377748130886 63.3322
11.732811318753434 62.988
11.755227854859067 62.9912
11.777662328529495 63.0549
11.800079768750786 63.2095
11.822515149015453 62.9816
11.844950984084935 63.1227
11.867369787303163 62.7614
11.889806534289491 62.8437
11.912226250487029 63.2646
11.934663912939751 63.3073
11.9571020346363 63.5749
11.979523127133968 63.7568
12.001962169624331 65.1666
12.024384183972964 67.0405
12.046824150809913 70.64399999999999
12.069264581333726 75.7005
12.091687985297767 82.1874
12.11412934550045 91.4185
12.136553680195208 106.68
12.158995973632788 129.279
12.181438735204349 156.309
12.20386447284199 182.696
12.226308172985636 204.016
12.24873485024193 196.707
12.271179492516982 162.061
12.293607112949127 121.081
12.316052700916226 90.1757
12.338498763250042 74.1258
12.360927805303868 67.9583
12.383374818673879 65.8472
12.405804812803074 64.8452
12.428252780773262 64.5568
12.45070122756722 64.7951
12.473132656675375 64.6108
12.49558206341869 64.8799
12.518014453510101 64.8381
12.540464823770117 65.2797
12.562915677315177 65.2482
12.58534951575545 65.7286
12.607801338171472 66.6268
12.630236146511358 69.3122
12.652688941369085 71.6357
12.675124723177234 72.2285
12.697578494048786 70.8519
12.720032754458185 68.8154
12.742470003354093 68.0506
12.764925245138771 68.0551
12.787363476431278 68.6229
12.809819703166806 68.8324
12.83227642391173 69.6906
12.854716135692716 70.3613
12.877173846755147 71.3872
12.899614549869717 71.7492
12.9220732548287 72.6071
12.94453245827299 72.9866
12.966974655289818 74.155
12.989434858002571 74.9014
13.011878055298721 75.8147
13.034339260862497 76.6132
13.056800969391883 78.2092
13.079245674017244 81.0785
13.101708390774869 85.7803
13.12415410463411 95.4757
13.146617833206086 106.509
13.169064559883248 117.693
13.191529303857127 133.125
13.213994557076367 157.864
13.236442809902437 197.468
13.258909083908291 253.03400000000002
13.28135835851934 311.978
13.30382565690295 377.227
13.326293469022952 427.915
13.348744283242008 422.476
13.371213125129904 345.61199999999997
13.39366497011003 249.155
13.416134845360597 164.963
13.438605238843131 121.473
13.46105863690397 109.59100000000001
13.483530069144786 110.90700000000001
13.505984506951902 115.863
13.528456981549432 126.529
13.550929978879088 142.94
13.573385983253365 168.419
13.595860028340867 207.53599999999997
13.618317081455832 254.201
13.64079217790333 309.34
13.663250283359057 349.785
13.685726434770173 366.31
13.708203115221277 329.25199999999995
13.730662806148091 253.301
13.75314054697177 180.267
13.775601299246777 125.70200000000001
13.798080104050406 96.46600000000001
13.820559442405358 85.5531
13.843021793671388 82.39299999999999
13.865502201420897 80.555
13.887965623051947 80.01899999999999
13.910447103807167 78.9419
13.932929122629764 77.5797
13.955394156785959 77.2872
13.977877254034569 76.2302
14.000343367582113 75.346
14.022827546871707 74.9302
14.045294743423524 74.1755
14.06778000837062 73.5056
14.090265817715476 73.4458
14.112734645763819 72.9633
14.13522154619454 72.4571
14.157691466286913 72.3219
14.180179461423874 72.2753
14.202668005486178 71.8299
14.22513957064374 71.2773
14.247629214846473 70.9386
14.270101881097517 70.7365
14.29259262906496 70.7981
14.315083930490205 70.971
14.337558255389705 71.0413
14.360050666019726 70.9011
14.382526101071944 70.407
14.405019624534942 69.6852
14.427513705993134 69.2877
14.449990813291825 69.342
14.47248601302899 69.2888
14.49496423954951 69.5154
14.517460561197822 69.4173
14.539939910570322 69.0338
14.562437357763558 69.4869
14.58493536931253 70.1016
14.607416409993311 70.6122
14.62991555254159 71.0291
14.652397725157423 71.2688
14.674898002342799 71.2846
14.697398848433282 71.3731
14.719882725991326 72.7731
14.74238471217934 75.0131
14.764869730765593 78.8246
14.787372860692983 82.117
14.809876564079925 86.3597
14.83236330125751 92.5829
14.854868153850365 101.96
14.877356041159485 116.559
14.899862046604186 134.92600000000002
14.922351087688757 159.172
14.944858249632887 185.676
14.967365991421232 209.699
14.989856770231246 222.622
15.012365673994204 214.262
15.03485761569738 183.69299999999998
15.05736768508665 143.058
15.07987833888692 110.426
15.102372032001655 88.5009
15.124883856909658 76.7464
15.14737872204565 72.3093
15.169891721717274 71.1457
15.192405310371893 70.9206
15.214901940621196 70.7264
15.237416709527137 70.1281
15.259914520936249 70.2432
15.282430473753607 69.2816
15.304947020131227 68.7065
15.327446610371178 68.2765
15.349964346154254 67.5719
15.372465126703139 67.2969
15.394984055556009 66.9564
15.417486030076159 66.8896
15.44000615566487 66.6529
15.462526881230803 66.5612
15.485030653812652 66.4383
15.507552581617434 66.2648
15.530057557334603 66.2714
15.55258069104857 66.4342
15.575104429329837 66.8415
15.597611216864632 66.7553
15.620136166564563 67.2334
15.6426441664095 69.0187
15.665170331202765 72.092
15.687697105158826 74.8572
15.710206930593545 78.4295
15.732734925158933 82.8464
15.755245972089478 89.4864
15.77777519094324 99.209
15.800287463046663 112.891
15.822817909869592 131.189
15.84534897229804 151.33
15.867863089299354 172.877
15.890395385222186 189.09400000000002
15.912910736597423 192.408
15.935444269699861 179.86599999999999
15.957978423016485 149.619
15.980495633101265 118.68299999999999
16.003031029129367 93.0439
16.02554948280019 75.1965
16.048086125229432 67.0417
16.070623392487107 64.5839
16.09314371869582 63.5559
16.11568223789321 62.8104
16.13820381691126 61.9199
16.160743591742527 61.1527
16.183283996022084 60.5222
16.205807461423195 59.5973
16.228349126881973 59.1433
16.25087385432698 59.1555
16.27341678466365 58.551
16.29594277784926 58.4103
16.31848697676433 58.5121
16.341031811604868 58.1018
16.36355971058487 58.3627
16.3861058195587 58.0573
16.40863499352978 57.4463
16.431182380342005 56.7936
16.453730407713202 56.6023
16.476261501364792 55.9601
16.498810812136167 55.6586
16.52134319004079 55.7678
16.54389378792203 55.8131
16.566445031001553 55.6437
16.588979342490088 55.5309
16.61153187824822 55.3676
16.634067483263312 55.1743
16.656621315414416 54.9101
16.679175797408888 54.9638
16.701713349928728 54.888999999999996
16.72426913389191 55.0943
16.74680798922351 55.218
16.76936507887444 55.1452
16.791905240734874 55.019
16.814463639794468 54.8096
16.837022695210294 55.1963
16.859564824093756 55.3529
16.882125194503903 55.6953
16.904668639217885 56.1416
16.927230328348003 56.1197
16.949792678493612 56.446000000000005
16.972338104193863 55.9122
16.994901778652235 55.7486
17.017448529496576 55.9993
17.040013531998152 56.5984
17.06257920018044 57.2453
17.0851279459922 58.033
17.107694947817667 58.7262
17.130245028099072 59.4493
17.15281336730298 60.8444
17.17536478578733 62.7299
17.19793446610687 65.1461
17.220504818648422 67.9988
17.243058251703697 71.2729
17.265629950971032 75.3306
17.288184731571736 79.0805
17.310757781306908 82.4881
17.33333150794385 83.7852
17.355888317140174 81.5903
17.37846339986244 76.9538
17.401021565958885 70.6507
17.42359800851343 65.6636
17.44617513265564 62.1483
17.468735341390783 60.5727
17.491261035594565 59.809
17.51396340099364 59.5982
17.536490463869136 59.5548
17.559018209820174 59.5281
17.58154663977963 59.8299
17.604251766089718 59.6721
17.626781572227713 59.8243
17.64931206518155 60.4083
17.671843245885103 60.7317
17.69455114821572 60.7157
17.717083712612634 61.3893
17.739616967569667 61.4026
17.762150914021706 61.7764
17.78486160749854 61.9932
17.807396945166804 63.0558
17.829932977143503 64.5806
17.85246970436452 66.58800000000001
17.875183204129467 67.9726
17.897721330097664 69.7934
17.920260154126645 72.4674
17.942799677153296 75.6303
17.9655159983646 79.6248
17.988056927677544 85.2554
18.010598558807683 93.25
18.033140892692916 103.166
18.05586005052525 113.238
18.07840379824407 123.77
18.10094825154059 134.724
18.12366954819864 142.049
18.146215420998306 141.463
18.16876200220057 131.609
18.191309292745153 116.70100000000001
18.214033452627167 102.68
18.236582170236648 91.7566
18.259131600016456 87.2667
18.281681742907335 87.9207
18.304408781233683 91.8722
18.32696035875955 96.6157
18.349512652227624 101.35700000000001
18.372065662579683 105.588
18.394795594587553 106.38
18.41735004715306 102.42
18.43990521943684 95.381
18.46246111238171 86.1479
18.485193953325208 76.736
18.507751296070428 69.601
18.530309362314178 65.9004
18.552868153000343 63.8103
18.57560391815056 62.6195
18.59816416623245 62.2837
18.620725141597372 61.5842
18.643286845190268 61.0338
18.666025549835414 60.808
18.688588718427933 60.2876
18.711152618092243 60.0418
18.73389353884365 59.9123
18.75645890921984 59.3962
18.77902501351406 59.0134
18.801591852673102 59.0335
18.824335739722738 58.3477
18.846904057212626 58.4086
18.8694731124168 58.1244
18.89204290628315 58.3153
18.914789774966803 57.8287
18.937361054791623 57.5795
18.959933076131318 57.5043
18.982505839934877 57.549
19.00525570560582 57.4614
19.027829963004184 57.2705
19.05040496572238 57.5434
19.072980714710468 57.5472
19.095733592739563 57.8103
19.11831084296757 58.1177
19.140888842324735 58.3504
19.16346759176222 58.5551
19.18622349753803 59.2339
19.208803755869358 60.0563
19.231384767143577 61.5191
19.253966532312948 63.0873
19.276725481241822 65.3152
19.29930876296784 67.6019
19.3218928014549 70.0101
19.34465404436217 73.0438
19.36723960516257 75.1389
19.389825925592426 76.1887
19.412413006605938 75.0537
19.43517731967805 72.0482
19.457765930683355 67.2963
19.48035530514408 62.9749
19.50294544401556 59.2961
19.525712842708348 56.6875
19.54830451925909 55.5364
19.570896963095727 54.4683
19.593490175174704 54.2669
19.616260674962184 54.0398
19.638855432416964 53.8781
19.661450960992624 54.1269
19.68404726164677 53.8923
19.706820878021247 53.6592
19.729418731756834 54.1677
19.752017360452857 53.8523
19.77461676506804 54.0231
19.797393513540218 54.2714
19.819994478951667 54.5876
19.84259622316767 55.175
19.8651987471481 55.4387
19.887978643247177 55.4638
19.91058273574792 56.0626
19.933187610901943 57.0773
19.955969879466828 58.2285
19.97857632894404 59.6884
20.00118356396599 61.3016
20.023791585494575 63.3018
20.046577028914875 66.1181
20.069186632506966 68.1873
20.091797025500632 69.8577
20.114408208858933 70.1123
20.137196842715273 69.7141
20.159809615886765 68.1311
20.18242318232135 65.7438
20.20503754298326 63.7732
20.227829382875154 62.7041
20.250445341109344 62.5113
20.27306209647285 63.0454
20.29567964993108 64.1899
20.31847471147704 65.2996
20.34109387027612 65.9716
20.363713830075454 65.4825
20.386334591841646 63.778
20.409132890679302 61.2299
20.431755265564437 58.0792
20.454378445325528 55.3355
20.477002430930366 53.6185
20.499803982716553 52.3805
20.522429589228004 51.5786
20.54505600449589 51.0102
20.567683229489194 50.9104
20.590488049900088 50.7069
20.61311690359731 50.4726
20.63574656993626 50.3165
20.658553853717297 50.0424
20.681185154618298 49.9677
20.703817271080066 49.7268
20.72645020407368 49.4451
20.749260783967177 49.3685
20.771895359337133 49.1877
20.794530754161617 49.3595
20.817166969412938 49.385
20.83998086114876 48.9367
20.86261872660049 48.9691
20.885257415405402 49.0796
20.90789692853701 48.9456
20.930714147864748 48.8031
20.953355319030678 49.0782
20.97599731745334 49.1279
20.99864014410749 49.2193
21.021460706796564 48.8053
21.044105199328826 49.1652
21.06675052302631 49.3788
21.089396678865015 49.666000000000004
21.112220600704806 50.0181
21.134868430275347 50.2744
21.15751709492456 50.3551
21.180166595629693 50.8869
21.202993892429635 51.3239
21.22564507473034 51.528999999999996
21.24829709602816 51.6872
21.27112693608965 51.56
21.293780644891275 51.7586
21.316435195634053 50.9902
21.339090589297417 50.1417
21.361923832041875 49.6708
21.384580921090404 49.1683
21.407238856007325 48.9688
21.429897637773326 48.7966
21.45273429906592 48.8012
21.475394784108598 48.7574
21.498056118951983 48.7147
21.520718304578022 48.9911
21.543558400304388 49.1001
21.566222297108816 49.4768
21.58888704765135 49.6501
21.61155265291521 49.8964
21.63439619898156 50.3615
21.657063523335786 50.4581
21.67973170537063 50.8786
21.7024007460706 51.5532
21.72524775840385 52.309
21.747918526116475 53.6315
21.770590155457388 54.7455
21.79326264741238 56.3851
21.816113141960237 58.0322
21.838787368860547 59.7138
21.861462461341976 61.5511
21.884315579735777 63.3934
21.90699241312273 64.4262
21.92967011506078 65.0236
21.95234868653799 64.6556
21.9752053151131 63.1783
21.997885635446785 61.3519
22.020566828293532 59.6373
22.04324889464272 57.748000000000005
22.066109049404666 56.8179
22.088792872571794 56.3291
22.111477572219204 56.388000000000005
22.1341631493376 56.4611
22.157026846313123 56.2061
22.179714188221507 55.4402
22.202402410582668 54.2724
22.22509151438863 52.9406
22.24795876962584 51.5174
22.270649646204486 50.5111
22.293341407213727 50.0856
22.316034053646906 49.4776
22.338904883215342 49.3693
22.36159931041458 49.2141
22.38429462602756 49.1542
22.40699083104897 49.0148
22.429865251039757 48.943000000000005
22.452563244831367 49.0079
22.47526213102522 49.0547
22.49813925616515 48.9718
22.520839937143307 48.8075
22.543541513520587 48.9558
22.56624398629403 48.8707
22.589124730075895 48.9258
22.611829005656723 49.1951
22.63453418063466 49.1529
22.657240256008077 49.25
22.680124634582935 49.4388
22.70283252079775 49.7286
22.725541310413075 50.0596
22.74825100442868 50.1533
22.771139033969575 50.7929
22.79385054687155 51.1155
22.81656296718292 51.7644
22.83927629590484 52.5765
22.862167992606945 53.6144
22.88488314827121 54.662
22.907599215359284 55.4259
22.93031619487366 56.6199
22.953211574954405 57.3711
22.975930389478226 58.0656
22.998650119445763 58.4633
23.02137076586092 57.4541
23.044269845560063 56.1377
23.06699233506288 54.4419
23.089715744034912 52.6861
23.112617610931565 51.0981
23.135342869061212 50.1586
23.158069049684816 49.3473
23.1807961538087 49.0667
23.20370174880544 49.0763
23.226430710184808 49.3009
23.249160598093425 49.2024
23.271891413539002 49.3034
23.294800752937697 49.3192
23.31753343374794 49.6955
23.340267045128353 49.6467
23.36300158808808 49.9383
23.38591468821339 50.3644
23.408651104658304 50.8047
23.431388455719986 51.5133
23.454126742409 52.2528
23.4770436196085 53.3287
23.499783787914662 54.4182
23.522524894889884 55.2503
23.54526694154616 56.3232
23.56818761219047 57.1953
23.59093154860734 57.6391
23.613676427751283 58.0045
23.636422250635754 57.0731
23.659346731118656 55.5393
23.68209445191868 53.4983
23.704843119509587 51.4448
23.72759273490623 49.5948
23.750521041644767 48.2818
23.77327256312355 47.1969
23.796025035462787 46.9987
23.818956224555475 46.4518
23.841710609113413 46.3436
23.86446594758979 45.9768
23.887222241002014 45.6852
23.910157285144578 45.4278
23.932915498962537 45.3556
23.955674670778713 45.2372
23.978434801611975 45.1783
24.001373717286125 44.9873
24.024135776723917 44.832
24.046898798245582 44.7203
24.06966278287146 44.6669
24.092605586582614 44.5453
24.115371508023642 44.2986
24.1381383956401 44.2652
24.16090625045381 44.2736
24.183852958731244 44.1547
24.206622758582608 44.0546
24.229393528706886 43.7414
24.252165270127392 43.9035
24.27511589952438 43.8588
24.297889594216997 43.8494
24.32066426328598 43.6404
24.34343990775613 43.5808
24.36639447485003 43.36600000000001
24.38917208083877 43.4297
24.41195066531332 43.3168
24.43490819850244 43.4312
24.457688750692377 43.1165
24.48047028445616 43.2048
24.503252800821233 43.3328
24.526214300784112 43.4203
24.548998793132213 43.3858
24.57178427117417 43.2802
24.59457073593893 43.2325
24.617536219319863 43.2279
24.64032466834748 43.2952
24.663114107195035 43.187
24.685904536893013 42.7758
24.708874020360852 42.74100000000001
24.731666442613744 42.7512
24.754459858818787 42.6635
24.777254270007962 42.6862
24.80022777025625 42.5621
24.82302418230472 42.4157
24.845821592443674 42.4936
24.86862000170663 42.5032
24.891597535453727 42.4564
24.914397953892728 42.5317
24.93719937456671 42.6138
24.96000179851076 42.7221
24.98298338249997 42.8992
25.00578782394922 43.0811
25.028593271784167 43.1723
25.05157790644186 43.4941
25.07438537804115 43.7368
25.097193859145293 43.8271
25.120003350792075 44.1538
25.142992065061257 44.1959
25.165803588823465 44.6753
25.18861612625217 44.8426
25.211429678386736 45.0477
25.234422489079968 45.0858
25.257238081693636 45.0806
25.280054692141732 45.0852
25.3028723214652 45.0559
25.325869245420463 45.0588
25.348688923599397 45.1479
25.371509623787006 45.0711
25.394331347025812 44.8962
25.41733240110666 44.3547
25.440156181590016 43.5602
25.46298098826268 43.0792
25.48580682216873 42.5741
25.50881202326435 42.0396
25.53163992281684 41.5868
25.55446885274561 41.3608
25.577298814096377 41.0816
25.600308179121807 41.2001
25.623140214533745 41.1865
25.64597328451537 41.0303
25.66898578564376 40.6292
25.691820936010206 40.6493
25.714657124097695 40.6783
25.737494350954734 40.9095
25.760511045684957 40.6641
25.783350361364224 40.6534
25.806190718969255 40.7245
25.82903211955018 40.8617
25.852053024868923 40.8325
25.874896522722523 40.8788
25.897741066713106 40.8173
25.920586657892454 40.9471
25.943611790812668 41.0273
25.966459487728237 41.2925
25.989308234998564 41.3676
26.01215803367705 41.6385
26.03518741123814 41.6024
26.05803932412957 41.8722
26.080892291600094 41.7704
26.10374631470478 41.8399
26.12677995397268 41.9965
26.14963609978026 42.0127
26.172493304397875 41.4658
26.19535156888223 41.3148
26.218389486949604 40.9462
26.241249882640123 40.7815
26.26411134137826 40.5725
26.28715248187403 40.4584
26.31001607820869 40.2195
26.3328807407756 40.1639
26.35574647063438 40.3894
26.37879191991473 40.3815
26.401659795896734 40.3538
26.424528742360263 40.5827
26.447398760366614 40.6813
26.470448535598294 40.8474
26.49332070826805 41.176
26.516193955675355 41.424
26.53906827888316 41.6017
26.562122397260108 41.6578
26.584998883685063 41.945
26.607876449110325 42.1879
26.63075509460056 42.2785
26.65381357334404 42.3949
26.67669439061878 42.3615
26.699576291163382 42.3103
26.722459276044212 42.1827
26.745522132402975 41.92
26.768407297649354 41.768
26.791293550442003 41.4067
26.814180891848974 41.0971
26.837248143099337 40.7355
26.860137673466657 40.6055
26.88302829566349 40.345
26.90592001075963 40.2702
26.92899167420566 40.1178
26.951885586870763 39.6513
26.974780595655517 39.5902
26.99785558178161 39.4759
27.020752794605112 39.2965
27.043651106772522 39.1189
27.06655051935668 39.0744
27.089629948036183 38.9308
27.112531573292053 38.8574
27.135434302194138 38.866
27.158338135817015 38.8047
27.181422024430987 38.8467
27.204328079372566 38.6861
27.22723524226965 38.6653
27.250143514198573 38.7529
27.273231880156334 38.7159
27.296142382065014 38.6481
27.319053996245536 38.6789
27.341966723775965 38.657
27.365059584515222 38.8425
27.38797455070062 38.7353
27.410890633481237 38.8192
27.433807833936918 38.748000000000005
27.456905206923906 38.8966
27.47982465472398 38.7398
27.502745223449743 38.8517
27.525666914182825 38.9581
27.548768816912457 38.954
27.571692763693633 38.753
27.59461783573812 38.6488
27.617723149491244 38.3727
27.640650484125285 38.3529
27.66357894728264 38.3094
27.686508540048052 38.2547
27.709618414237887 38.1984
27.732550278321757 38.0725
27.755483275279115 38.0395
27.778417406196485 38.2086
27.801531858397514 38.0942
27.824468269376716 38.0972
27.847405817586786 38.1212
27.870344504116094 38.3063
27.893463551932008 38.3842
27.916404527281053 38.5562
27.93934664422563 38.6669
27.962289903855886 38.6852
27.98541356491974 38.8501
28.00835912214229 39.0124
28.03130582533231 39.3477
28.054253675581805 39.2967
28.077381967556104 39.2455
28.100332124185126 39.2314
28.123283431160893 39.1141
28.146235889577238 38.9423
28.169368830154156 38.8052
28.192323603752033 38.5522
28.215279532083304 38.3312
28.238415973016764 38.1786
28.261374223145094 38.0731
28.284333631303806 37.7404
28.307294198589954 37.6822
28.330435319167677 37.3984
28.353398217078915 37.1895
28.376362277420153 36.976
28.39932750129032 36.7728
28.422473319286713 36.5945
28.44544088262495 36.681
28.468409612800283 36.4391
28.491379510913497 36.3089
28.51453004413313 36.1754
28.53750229057244 36.0178
28.56047570826344 36.0765
28.583450298308804 36.0856
28.606605564586562 35.9287
28.629582511831156 35.9512
28.65256063474956 35.9479
28.675539934446338 35.919000000000004
28.698699951647605 35.7592
28.72168161743193 35.5281
28.74466446331978 35.7097
28.767648490417624 35.621
28.790813276438353 35.6224
28.813799678527303 35.6651
28.836787265157085 35.6049
28.859955641890075 35.6959
28.882945610203045 35.629
28.905936766392035 35.4336
28.928929111566863 35.5414
28.952102288520145 35.4892
28.975097024308607 35.4358
28.998092952423807 35.2145
29.021090073977508 35.1551
29.04426806913204 35.0136
29.067267590245258 34.7932
29.090268308143695 34.7768
29.11327022394099 34.8302
29.13645305530891 34.6662
29.159457379627167 34.6717
29.18246290519685 34.5197
29.20546963313352 34.4852
29.22865731875826 34.5239
29.25166646419296 34.5022
29.27467681535305 34.4689
29.29768837335608 34.5618
29.320880931312562 34.5448
29.34389491580634 34.4295
29.366910110507334 34.4079
29.38992651653503 34.4265
29.41312396492981 34.4418
29.436142806456754 34.2407
29.45916286268059 34.2389
29.48236399319994 34.1517
29.50538649169417 34.0661
29.528410208259935 33.8726
29.55143514402014 33.8297
29.574641196749695 33.5788
29.597668583816574 33.477
29.6206971934585 33.3244
29.64372702680042 33.3654
29.666938019934474 33.2736
29.689970313635285 33.2286
29.713003834422636 33.2611
29.73603858342347 33.1488
29.759254535188578 33.1186
29.78229175361658 32.8999
29.80533020365064 33.0769
29.82836988641968 33.0252
29.85159081507472 33.0178
29.874632976355343 32.8278
29.89767637376955 32.9281
29.920721008448314 32.8108
29.9439469322847 32.8246
29.96699405457564 32.8377
29.9900424175358 32.7665
30.013092022298157 32.7555
30.03632295963995 32.6178
30.059375061131373 32.6522
30.08242840783577 32.6697
30.105483000888153 32.7731
30.128718970092244 32.6185
30.151776069006917 32.6264
30.17483441768648 32.7158
30.198074175317235 32.645
30.221135036724256 32.6418
30.24419715131772 32.646
30.267260520236203 32.529
30.290505341942243 32.5208
30.313571232750228 32.5666
30.336638381310948 32.509
30.35970678876503 32.3596
30.38295669299435 32.3433
30.40602763151657 32.3739
30.429099832366074 32.2569
30.452173296685572 32.3136
30.47542830191959 32.3199
30.498504306502497 32.2865
30.521581577995562 32.3287
30.544660117543582 32.477
30.56792024229725 32.4898
30.59100133132069 32.4066
30.614083691845494 32.4145
30.637167325018545 32.3509
30.660432587840603 32.3439
30.683518779717886 32.3244
30.70660624769615 32.3699
30.729694992924372 32.3848
30.75296541239743 32.3166
30.77605672557558 32.3214
30.799149319462742 32.2199
30.8224236211637 32.1277
30.845518789950724 32.0524
30.868615242910597 32.0275
30.891712981195973 31.8795
30.91499247215866 31.8888
30.938092794619365 31.8054
30.96119440587579 31.7932
30.984297307082752 31.5872
31.00758200598383 31.5255
31.030687500658694 31.4385
31.053794288760695 31.298000000000002
31.076902371446767 31.2776
31.100192296997445 31.322
31.12330298246119 31.2411
31.14641496599209 31.2002
31.169528248749216 31.1681
31.19282341969534 31.219
31.215939314557186 31.1453
31.239056512134788 31.2218
31.262175013589378 31.1726
31.28547544871168 31.0138
31.30859657161541 31.0756
31.331719001892175 31.0636
31.35484274070538 31.1847
31.378148458819545 31.1918
31.401274828443725 31.1328
31.424402510106933 31.0677
31.447712205419993 31.1441
31.470842524931633 31.0457
31.493974159989783 31.0989
31.51710711176168 31.0031
31.54042212308802 30.8743
31.563557722100917 30.9199
31.586694641341655 30.7208
31.609832881979628 30.6109
31.63315322823208 30.6252
31.656294125521327 30.5343
31.679436347728515 30.51
31.70257989602529 30.4429
31.725905596152327 30.3871
31.74905181052835 30.322
31.772199354521323 30.4139
31.79534822930507 30.3934
31.818679302290967 30.2577
31.84183085259981 30.4777
31.864983737233473 30.3875
31.88813795736804 30.2986
31.911474422233013 30.2695
31.934631327356435 30.3628
31.9577895715215 30.266
31.980949155906522 30.2079
32.004291031706956 30.1737
32.027453310562606 30.1048
32.05061693318573 29.9186
32.07396288236386 30.0493
32.09712920658542 29.9705
32.12029687812702 29.7425
32.14346589817093 29.6653
32.166817291729984 29.6291
32.18998902288583 29.5866
32.21316210610336 29.6019
32.23633654256711 29.5079
32.259693399663725 29.4606
32.282870556771144 29.3002
32.30604907069099 29.3625
32.329228942610065 29.3162
32.35259128243769 29.081999999999997
32.375773884550505 29.1694
32.398957848235646 29.1397
32.422143174682176 29.0208
32.445511016471215 28.9923
32.468699082679954 28.9629
32.49188851523011 28.8591
32.51507931531304 28.9538
32.538452678331 28.8483
32.56164622776311 28.7264
32.58484114831493 28.6623
32.60803744118015 28.7426
32.631416344731896 28.655
32.654615396551876 28.5387
32.67781582427913 28.6563
32.701198898634416 28.5345
32.72440209253756 28.4441
32.747606665947124 28.4807
32.77081262006088 28.2742
32.79420126883317 28.3525
32.81740999876112 28.2966
32.840620112999424 28.1301
32.86383161274818 28.1499
32.88722585534586 28.1621
32.91044014056596 28.2251
32.933655814909734 28.2111
32.95687287957963 28.2274
32.98027273544904 28.185
33.00349259526636 28.0521
33.026713849030116 28.08
33.04993649794511 28.0307
33.073341986570746 27.9516
33.09656744032826 27.9693
33.11979429286444 27.974
33.14302254538647 27.9124
33.166433686291185 27.9318
33.18966475336992 27.8343
33.212897224069096 27.8151
33.23613109959831 27.7853
33.259547912343415 27.7144
33.2827846121627 27.7706
33.306022720453775 27.5776
33.32926223842861 27.5498
33.352684742614166 27.6702
33.37592709463173 27.5412
33.399170859982064 27.4451
33.422597648419426 27.413
33.44584425514446 27.2338
33.46909227885668 27.2093
33.4923417207723 27.0498
33.51577423505344 27.1604
33.539026528130385 27.09
33.56228024307245 27.0775
33.585535381098246 26.8877
33.60897364093058 26.8729
33.63223163992385 26.8008
33.6554910656699 26.7966
33.678751919389796 26.8156
33.702195944520106 26.8012
33.72545966903325 26.7794
33.74872482519663 26.6644
33.771991414233746 26.7173
33.79544122444841 26.6569
33.81871069412428 26.5997
33.84198160035767 26.5102
33.86525394437455 26.5626
33.88870955949969 26.467
33.911984794020626 26.4873
33.93526147001624 26.4729
33.958539588715006 26.3811
33.98200102861669 26.3174
34.0052820477047 26.1515
34.02856451319451 26.1902
34.05203033759056 26.0878
34.07531571090147 26.2049
34.09860253431845 26.0492
34.121890809074316 26.0176
34.145362493118924 26.0812
34.16865368561615 26.0739
34.191946333164054 25.9517
34.21524043699793 25.8718
34.23871800066799 25.8005
34.26201503218366 25.8151
34.28531352370466 25.7961
34.30861347646881 25.6698
34.33209693978188 25.7524
34.3553998301885 25.5998
34.378704185565205 25.6111
34.402010007152356 25.4943
34.42549939016683 25.5541
34.44880815937748 25.4128
34.472118398533134 25.3611
34.49543010887669 25.3609
34.51892543169198 25.3335
34.54224009966052 25.2971
34.56555624255917 25.2547
34.58887386163339 25.1518
34.61237514439016 25.1601
34.6356957311114 25.1181
34.65901779775809 25.0197
34.68252356662995 25.017
34.705848608458616 25.0267
34.72917513396849 24.9613
34.75250314440949 24.9718
34.77601490857862 24.8665
34.799345904259795 24.8709
34.82267838863559 24.8434
34.846012362958525 24.8121
34.869530142679984 24.7681
34.89286711232212 24.7507
34.91620557568269 24.726999999999997
34.93954553401677 24.7065
34.9630693495876 24.7005
34.986412313340814 24.6732
35.00975677584668 24.5606
35.033102738362956 24.5223
35.05663261012228 24.4791
35.0799815881786 24.5301
35.10333207003229 24.449
35.12668405694369 24.4114
35.150220005273056 24.3581
35.17357501786656 24.3955
35.19693153931268 24.3284
35.220289570874385 24.2763
35.24383161619786 24.2895
35.267192683604904 24.2142
35.290555264930376 24.1771
35.314101899412165 24.250999999999998
35.33746752422433 24.1791
35.36083466676374 24.2012
35.38420332829803 24.0917
35.407756095629054 24.1264
35.43112781085063 24.0986
35.45450104888391 24.1456
35.477875810999194 24.1333
35.50143473172161 24.0568
35.52481255774625 23.9708
35.54819191167777 23.8879
35.57157279478914 23.8875
35.595137889488406 23.9278
35.61852184675279 23.9001
35.641907337029984 23.8153
35.665294361595684 23.7257
35.68886565090076 23.682
35.7122557598848 23.6477
35.73564740699838 23.6649
35.759040593519934 23.5406
35.78261809810353 23.5251
35.80601437933051 23.4459
35.829412203814705 23.3368
35.85281157283719 23.3547
35.876395313415884 23.4507
35.8997977874528 23.373
35.92320180988546 23.3271
35.946790244133936 23.2118
35.97019737933222 23.2457
35.993606066789866 23.1419
36.01701630779276 23.2063
36.04061101440684 23.1151
36.06402437852291 23.1746
36.08743930005611 23.1489
36.1108557802951 23.0363
36.13445678011326 23.066
36.15787639383515 22.9996
36.18129757014299 22.9582
36.20472031032821 22.8963
36.22832762423364 22.8102
36.25175350829375 22.8258
36.275180960119776 22.7365
36.298609981005924 22.7496
36.32222362992669 22.8111
36.34565580510207 22.7097
36.36908955323448 22.6416
36.39252487562093 22.6105
36.416144880530226 22.6031
36.43958336764275 22.5708
36.463023432914625 22.5307
36.486465077645676 22.4568
36.51009145956204 22.543000000000003
36.53353627947859 22.5016
36.55698268276811 22.467
36.58043067073321 22.3962
36.60406345072071 22.3768
36.62751462435344 22.3478
36.65096738658405 22.2989
36.67460498210655 22.2917
36.69806093788647 22.2383
36.72151848619297 22.1125
36.744977628333636 22.166
36.76862165890998 22.1242
36.79208400512205 22.0264
36.81554794910557 22.0652
36.83901349217101 21.9713
36.862663978991606 21.9245
36.88613273667352 21.9306
36.90960309738324 21.9125
36.933075062434064 21.8905
36.95673202673572 21.819000000000003
36.98020721697122 21.7546
37.003684015502365 21.7027
37.027162423645365 21.6882
37.050825886711465 21.6576
37.07430753063053 21.6128
37.09779078812467 21.6393
37.121275660513014 21.5962
37.144945643673694 21.5374
37.16843376245278 21.5241
37.19192350009803 21.4968
37.215414857931435 21.4624
37.239091382563885 21.428
37.262585997426164 21.4093
37.28608223645736 21.3999
37.309763684451696 21.386999999999997
37.33326318851098 21.3239
37.356764320726555 21.2751
37.380267082425526 21.3059
37.40395510942588 21.2667
37.42746114683234 21.1571
37.45096881771841 21.0694
37.474478123414166 21.1093
37.49817275092816 21.0111
37.52168534303452 21.0394
37.54519957395567 20.9774
37.568715445024665 20.9461
37.592416694607714 20.8678
37.61593586281424 20.9299
37.63945667518264 20.8969
37.66297913304891 20.8553
37.68668702630454 20.8533
37.710212792059274 20.6908
37.733740207334854 20.6818
37.757269273470364 20.6364
37.780983832050374 20.6625
37.80451621684926 20.7022
37.82805025654007 20.5628
37.851585952464795 20.4839
37.8753071980695 20.498
37.89884622345676 20.4604
37.92238690911902 20.4286
37.94611318753442 20.4369
37.969657210779765 20.3325
37.99320289834801 20.3064
38.016750251586465 20.3329
38.04048325513017 20.2901
38.06403395679343 20.2794
38.087586328183946 20.274
38.11114037065203 20.1737
38.13488012115898 20.2104
38.1584375229181 20.2039
38.181996599821 20.0644
38.205557353221124 20.0492
38.229303872575656 20.0677
38.2528679961576 20.0907
38.27643380031219 20.0253
38.30000128639589 19.9996
38.32375459653193 19.887
38.34732546371299 19.8872
38.37089801690786 19.7975
38.39447225747609 19.7417
38.418232380377425 19.7743
38.441810012983396 19.7463
38.46538933705673 19.7001
38.488970353960084 19.7252
38.51273731166058 19.6066
38.536321731567014 19.6408
38.55990784840681 19.6008
38.58367995004091 19.5682
38.60726947812959 19.5395
38.63086070726198 19.5463
38.654453638806274 19.5343
38.678232613930824 19.4734
38.70182896773327 19.3585
38.72542702806741 19.3134
38.7490267963045 19.3114
38.77281266709232 19.3014
38.79641586862214 19.2507
38.8200207821842 19.1982
38.843627409152944 19.262999999999998
38.86742019782782 19.2424
38.891030269149255 19.1662
38.914642058016156 19.1528
38.938255565806124 19.1359
38.96205529464307 19.0183
38.98567225787121 19.0539
39.00929094417078 19.0295
39.03291135492255 19.0157
39.05671804624804 18.9926
39.080341923549106 19.0124
39.103967529460334 18.8887
39.127594865365744 18.8533
39.15140854155791 18.8496
39.17503935514948 18.7836
39.19867190290282 18.8215
39.22249083587951 18.7153
39.24612686969409 18.7792
39.269764641845306 18.7394
39.293404153722804 18.7276
39.317230110864074 18.5893
39.34087311998506 18.5404
39.36451787301696 18.5642
39.388164371352595 18.5263
39.41199737518003 18.4325
39.43564738196752 18.4688
39.45929913825317 18.4793
39.48295264543308 18.4529
39.506792718520884 18.3774
39.530449745387216 18.3537
39.55410852735203 18.3577
39.57776906581474 18.3161
39.60161623079 18.2472
39.625280300200025 18.2589
39.64894613032202 18.1875
39.67261372255866 18.1672
39.6964680021016 18.1719
39.72013913657293 18.1119
39.74381203738292 18.1272
39.76748670593756 18.1158
39.79134812278169 18.0373
39.81502634488497 18.0142
39.83870633896685 18.0293
39.862388106436654 17.9957
39.88625668336918 17.9332
39.90994201572829 17.9452
39.933629125719285 17.9031
39.957503091207826 17.8463
39.9811937746168 17.881
40.00488623990914 17.8004
40.02858048850006 17.7624
40.05246165409549 17.6913
40.076159487492085 17.6791
40.099859108448875 17.7118
40.123560518384345 17.6606
40.1474489070226 17.6392
40.171153913178564 17.5665
40.194860712584955 17.5543
40.2185693066637 17.5182
40.242464941335314 17.4774
40.26617714307655 17.4629
40.289891143772046 17.4292
40.3136069448471 17.3992
40.33750984859743 17.3641
40.3612292688043 17.3935
40.3849504936829 17.3476
40.40867352466194 17.3353
40.43258372059144 17.2959
40.45631038219906 17.2404
40.48003885420956 17.212
40.503769138055105 17.2501
40.52768664931955 17.1643
40.55142057531802 17.1091
40.57515631746428 17.0718
40.599079334038514 17.1082
40.62281872700477 17.039
40.64655994043941 17.0326
40.67030297578061 16.9962
40.69423334835778 17.0038
40.71798004609188 16.9756
40.74172857006355 16.9156
40.76547892171441 16.9492
40.7894166736039 16.9212
40.813170699248566 16.8213
40.83692655691388 16.7996
40.86068424804498 16.792
40.884629402612525 16.7958
40.908390779366385 16.7876
40.932153993938 16.7423
40.95591904777605 16.6833
40.979871628443995 16.7092
41.003640379561936 16.6698
41.02741097430883 16.6182
41.05118341413683 16.6359
41.075143444384416 16.585
41.098919593177826 16.6076
41.1226975914255 16.5448
41.14647744058318 16.4545
41.170444943946755 16.4962
41.19422851378379 16.4166
41.218013938914645 16.3772
41.24198706625173 16.3693
41.26577622087193 16.3636
41.289567235177785 16.3519
41.31336011063129 16.2731
41.337340752422875 16.2025
41.361137369129835 16.1971
41.38493585138705 16.198
41.40873620066004 16.1685
41.43272438060107 16.1162
41.45652848292052 16.0336
41.48033445666918 16.0344
41.50414230331616 16.0077
41.528138045159764 16.0371
41.551949656675205 16.01
41.575763145513235 15.964
41.59957851314666 15.9606
41.62358184070442 15.9225
41.64740098505737 15.9265
41.6712220126409 15.8455
41.69504492493139 15.7881
41.71905586207357 15.776
41.74288256296395 15.7856
41.766711153007456 15.8289
41.79054163368412 15.7992
41.814560204340054 15.747
41.838394485526365 15.7248
41.86223066180303 15.6807
41.88625497706819 15.6107
41.910094962812 15.5987
41.93393684811168 15.6297
41.95778063445365 15.5327
41.981812625263366 15.5099
42.00566023303407 15.5102
42.029509746323676 15.4717
42.05336116662236 15.4942
42.077400857069705 15.4393
42.10125611078846 15.4396
42.12511327600405 15.3402
42.14897235421036 15.3454
42.173019768448455 15.3147
42.19688269209613 15.2864
42.22074753323349 15.3758
42.24461429335818 15.2883
42.268669455600495 15.2085
42.292540073217886 15.2211
42.31641261433284 15.1833
42.34028708044675 15.1933
42.36435001496739 15.1243
42.38822835065557 15.0867
42.41210861586426 15.0307
42.4359908120986 15.0527
42.46006154323262 15.0331
42.48394762115317 14.9785
42.507835634632315 14.9245
42.531912233047436 14.9197
42.55580413732265 14.8745
42.579697981698 14.8685
42.60359376768525 14.8457
42.62767820545945 14.8435
42.65157789440821 14.8144
42.67547952952185 14.7909
42.699383112316 14.7352
42.72347541395347 14.6768
42.74738291190531 14.685
42.771292362102166 14.722999999999999
42.795203766063516 14.6721
42.819303956130405 14.6669
42.843219287476536 14.6422
42.86713657716324 14.5855
42.89105582671383 14.5845
42.91516392983864 14.536
42.939087119032166 14.5292
42.963012272677304 14.5434
42.98693939230129 14.4815
43.01105543317513 14.4267
43.034986504731386 14.3637
43.05891954686589 14.4024
43.08285456110972 14.4203
43.10697856448665 14.3355
43.130917542983475 14.2703
43.15485849820081 14.3036
43.17880143167367 14.269
43.20293342237094 14.258
43.226880332449 14.1788
43.25082922540554 14.1946
43.27496722682525 14.1808
43.29892010567796 14.1714
43.32287497204102 14.142000000000001
43.34683182745632 14.1217
43.370977859791836 14.0663
43.39493871351105 14.0684
43.41890156092628 14.0858
43.44286640358341 14.0422
43.46702049182749 13.995
43.49098934522816 13.9591
43.51496019852649 13.9712
43.5389330532723 13.905999999999999
43.56309522248204 13.9017
43.58707210044314 13.8886
43.61105098451946 13.8281
43.63503187626491 13.8316
43.659202151562134 13.7293
43.68318707902681 13.73
43.70717401884041 13.7552
43.731162972560874 13.690999999999999
43.75534137913236 13.6812
43.779334381108384 13.7092
43.803329401683186 13.6337
43.82732644241872 13.6466
43.8515130055166 13.6141
43.87551410707659 13.5724
43.89951723350145 13.5937
43.923709934595614 13.5485
43.94771713129917 13.5243
43.97172635758096 13.4874
43.99573761501002 13.4331
44.0199385169922 13.4965
44.04395385732619 13.4326
44.067971233533086 13.3615
44.09199064718605 13.3867
44.11619977548961 13.3324
44.14022328470671 13.2592
44.16424883610785 13.2984
44.18827643127035 13.3048
44.21249381139513 13.2748
44.236525514814076 13.2133
44.26055926674478 13.1902
44.28459506876863 13.2032
44.3088207262813 13.1662
44.33286064928722 13.1155
44.35690262714919 13.081
44.38094666145278 13.0602
44.4051806219871 13.0797
44.42922879003185 13.0271
44.45327901929361 12.9712
44.477331311362136 12.9991
44.501573600619416 12.993
44.525630039221795 12.9334
44.54968854541895 12.8899
44.573937102200176 12.8828
44.5979997645541 12.8936
44.622064499300315 12.9103
44.64613130803592 12.8629
44.67038823869318 12.8684
44.69445921643748 12.8204
44.718532272981385 12.7678
44.742607409926194 12.7923
44.76687274034801 12.7331
44.79095205918753 12.6875
44.81503346325094 12.7149
44.839116954143876 12.6992
44.86339071028742 12.6226
44.88747839599524 12.5851
44.91156817336837 12.5884
44.93566004401666 12.5888
44.959942251908146 12.578
44.984038330325966 12.5259
45.00813650686762 12.4897
45.03223678314731 12.4518
45.05652746888232 12.4757
45.08063196592069 12.4117
45.104738567558705 12.3266
45.128847275414856 12.3528
45.15314646515866 12.3198
45.17725940679741 12.3228
45.20137445952892 12.3034
45.22568004865265 12.2561
45.24979934496396 12.2504
45.27392075725247 12.261
45.29804428714431 12.2415
45.322358426247604 12.1897
45.346486212804315 12.2268
45.370616121861914 12.2216
45.39474815505086 12.1351
45.41907087049246 12.1259
45.4432071734666 12.0988
45.46734560548283 12.1032
45.49148616817604 12.1325
45.51581748638564 12.0714
45.5399623320197 12.0205
45.56410931325473 11.958
45.58825843173002 11.9928
45.61259837920865 11.9632
45.636751793816 11.9878
45.66090735060093 11.902000000000001
45.68506505120716 11.9098
45.7094136545275 11.8626
45.73357566449271 11.8491
45.75773982322992 11.8237
45.78190613238733 11.7868
45.806263418194064 11.7649
45.83043404997326 11.765999999999998
45.85460683713677 11.7472
45.87897065658495 11.7289
45.90314777634752 11.6888
45.92732705646868 11.6966
45.9515084986045 11.6828
45.97588104735473 11.6035
46.00006683541565 11.6104
46.02425479047904 11.6129
46.04844491420549 11.6118
46.0728262191024 11.5948
46.09702070211635 11.5842
46.12121735879483 11.5409
46.14541619080294 11.5332
46.169806278764455 11.4916
46.194009483459034 11.4238
46.21821486849841 11.418
46.24242243555223 11.4216
46.266821333570014 11.3725
46.29103328674601 11.3392
46.31524742696538 11.3589
46.33946375590237 11.3325
46.36387149104216 11.3626
46.38809221957392 11.2853
46.41231514186606 11.2821
46.436540259597464 11.2849
46.460956858999374 11.2416
46.48518638983522 11.2189
46.509418121166966 11.1666
46.533652054678114 11.2018
46.55807754555709 11.189
46.58231590571962 11.1711
46.60655647313217 11.1275
46.630988654873654 11.0975
46.655233659129024 11.0617
46.67948087571551 11.011
46.70373030632484 11.0078
46.72817142736393 11.0033
46.752425308428684 10.9495
46.77668140861147 10.9797
46.80093972960865 10.9286
46.82538981736788 10.8881
46.849652602470904 10.8948
46.87391761349769 10.8744
46.8981848521493 10.875
46.9226439341274 10.8355
46.946915650573224 10.8056
46.97118959976749 10.8477
46.99546578341598 10.7648
47.019933887188216 10.7516
47.04421456235744 10.7363
47.06849747711879 10.7391
47.09278263318286 10.6924
47.11725978640143 10.6579
47.14154944775105 10.6081
47.165841355555656 10.6146
47.1901355115306 10.6439
47.214621741924994 10.6203
47.23892041698887 10.6142
47.26322134538975 10.5639
47.28771440635075 10.5232
47.31201986422527 10.5484
47.33632758061436 10.5086
47.360637557241866 10.4504
47.38513974410611 10.4537
47.40945426407847 10.4242
47.43377104948137 10.4344
47.45809010204344 10.3892
47.48260144275502 10.372
47.506925052572285 10.3794
47.53125093475548 10.2981
47.55557909103813 10.2889
47.58009961361992 10.3026
47.60443234110732 10.325999999999999
47.62876734791564 10.2711
47.65310463578333 10.2139
47.6776343683373 10.2375
47.7019762413987 10.2035
47.72632040075572 10.2106
47.75066684815169 10.2352
47.77520581885936 10.193999999999999
47.799556865477655 10.138
47.823910205386 10.1598
47.84826584033272 10.1031
47.87281407745551 10.0725
47.89717432569297 10.0932
47.92153687423484 10.0755
47.94609208429692 10.0758
47.97045925671401 10.0162
47.99482873471275 9.993960000000001
48.01920052005013 10.0014
48.04376504619224 9.91757
48.068141469543484 9.96658
48.09252020552573 9.91175
48.11690125590099 9.88909
48.1414751266064 9.85398
48.16586082917454 9.82092
48.19024885144316 9.824639999999999
48.2146391951793 9.83186
48.239222439012764 9.82732
48.26361744916137 9.833689999999999
48.28801478610016 9.82344
48.31241445160131 9.774239999999999
48.337007097209366 9.76782
48.36141144338331 9.77662
48.38581812345755 9.70546
48.41022713920929 9.69999
48.434829215320704 9.70461
48.45924292604658 9.69838
48.48365897780325 9.6864
48.50807737237308 9.62523
48.532688907799276 9.569230000000001
48.55711201168574 9.574810000000001
48.581537463754074 9.55364
48.60615611725119 9.57881
48.63058628942721 9.550189999999999
48.65501881516546 9.535969999999999
48.6794536962573 9.49338
48.70408185970339 9.47991
48.72852147531801 9.42738
48.75296345168211 9.42666
48.77740779059232 9.4279
48.80204549302823 9.43993
48.82649458091802 9.381910000000001
48.85094603676547 9.38925
48.87539986237231 9.34084
48.90004713292306 9.2741
48.92450572200832 9.26752
48.94896668628025 9.294989999999999
48.97343002754588 9.30006
48.99808689542115 9.27764
49.02255501470614 9.25571
49.04702551642794 9.218160000000001
49.0714984023988 9.1989
49.096164896893235 9.199530000000001
49.120642575466796 9.168610000000001
49.145122643748394 9.15568
49.16960510355558 9.14613
49.19428125404938 9.13847
49.2187685210852 9.13075
49.243258185121555 9.09379
49.26794160167084 9.07499
49.2924360839405 9.11835
49.31693296869764 9.06715
49.34143225776915 9.00835
49.36612538195438 9.00988
49.39062950396021 9.008289999999999
49.41513603578346 8.99346
49.4396449792564 8.936810000000001
49.46434784069503 8.90772
49.488861631846454 8.94357
49.513377840166804 8.91584
49.537896467493745 8.88865
49.56260909589029 8.83195
49.587132585683285 8.84571
49.611658500018365 8.90028
49.636186840738596 8.79694
49.66090926588511 8.816289999999999
49.685442483902584 8.77088
49.70997813385706 8.76635
49.734516217597076 8.72783
49.75924846937352 8.69332
49.7837914452858 8.71442
49.80833686055187 8.70227
49.83288471702571 8.66793
49.85762682540054 8.700619999999999
49.882179588965734 8.66127
49.9067347993235 8.638580000000001
49.93129245833333 8.625919999999999
49.95604445336378 8.60213
49.98060703442832 8.5829
50.005172069746266 8.54161
50.02993150438364 8.57272
50.05450147301533 8.56907
50.07907390151433 8.51165
50.10364879174981 8.50567
50.12841816587289 8.48488
50.1529980044635 8.48773
50.17758031042124 8.43556
50.20216508562089 8.44016
50.22694442953363 8.41489
50.25153416817468 8.38214
50.27612638170508 8.37652
50.300721072005196 8.356869999999999
50.325510416102105 8.35772
50.350110084975064 8.3233
50.37471223628208 8.34956
50.39931687190919 8.29815
50.424116246675766 8.3291
50.44872587605249 8.269169999999999
50.47333799543065 8.28503
50.49795260670191 8.22511
50.52276204271512 8.20594
50.54738166295838 8.2225
50.57200378079314 8.22224
50.596628398116835 8.18166
50.62144792604559 8.178510000000001
50.646077567609396 8.14137
50.670709714377715 8.1179
50.69553683636198 8.11839
50.72017401885922 8.115910000000001
50.7448137122895 8.09895
50.76945591856022 8.11008
50.79429318636823 8.07488
50.818940443716784 8.02335
50.84359021965163 7.98804
50.868242516085964 8.00264
50.893089960641895 7.99096
50.917747323549435 7.98565
50.94240721271973 7.9328199999999995
50.96706963007175 7.96864
50.99192728239342 7.9393199999999995
51.01659478166073 7.89775
51.04126481489051 7.89645
51.06593738400761 7.85685
51.090805275207074 7.83777
51.11548294172845 7.842160000000001
51.14016314993547 7.84525
51.164845901758845 7.827489999999999
51.18972406304274 7.78397
51.21441192780656 7.75732
51.23910234200271 7.75778
51.2637953075678 7.738060000000001
51.288683770237945 7.693010000000001
51.31338186432707 7.73694
51.33808251561888 7.67225
51.362978729967345 7.69733
51.387684521509755 7.71558
51.41239287610203 7.670789999999999
51.437103795691165 7.63581
51.46201036644977 7.642989999999999
51.486726441956634 7.6012699999999995
51.51144508832545 7.62029
51.536166307509156 7.61402
51.56108326624387 7.582110000000001
51.58580965706056 7.56504
51.61053862657523 7.56659
51.635270176746864 7.514530000000001
51.66019755512065 7.50513
51.68493429268881 7.5178199999999995
51.70967361681515 7.4576199999999995
51.73441552946465 7.45015
51.759353359237934 7.48033
51.7841004750961 7.46582
51.80885018539685 7.43928
51.833602492111254 7.39147
51.8585508051424 7.37325
51.883308330926425 7.38138
51.90806845906181 7.342789999999999
51.932831191525715 7.340110000000001
51.95779001977161 7.320069999999999
51.98255798721516 7.315980000000001
52.00732856494335 7.314539999999999
52.03229530577543 7.28665
52.057071130455945 7.291739999999999
52.081849571391054 7.2636
52.106630630568695 7.23037
52.13160794279417 7.19181
52.15639426492067 7.2161800000000005
52.18118321127822 7.1936800000000005
52.205974783860896 7.16712
52.23096269971011 7.14946
52.255759551287994 7.1470899999999995
52.280559035098186 7.1121
52.30536115314103 7.10722
52.33035970494467 7.140339999999999
52.35516711807904 7.122319999999999
52.37997717147198 7.08595
52.40478986713005 7.09607
52.42979908731974 7.058039999999999
52.454617094216 7.038539999999999
52.47943774942214 6.988739999999999
52.50426105495102 7.02925
52.529280976059844 6.98318
52.554109609024096 6.949839999999999
52.57894089837482 6.95574
52.60377484613117 6.94718
52.62880550079408 6.928389999999999
52.65364479223379 6.90631
52.67848674816189 6.877160000000001
52.70352547971946 6.85025
52.72837279155837 6.879739999999999
52.753222773982785 6.84247
52.778075429022984 6.84545
52.80312495150885 6.825989999999999
52.827982978797436 6.8136
52.85284368481815 6.7972399999999995
52.87770707160767 6.78
52.90276741793998 6.72146
52.92763619336701 6.758610000000001
52.952507655698504 6.72129
52.977381806977576 6.7229600000000005
53.00245301017842 6.714119999999999
53.02733256653592 6.746289999999999
53.052214817996074 6.728289999999999
53.077099766608484 6.6940800000000005
53.102181859804446 6.6879100000000005
53.127072229988265 6.6772800000000005
53.15196530349892 6.6302
53.17686108239249 6.585839999999999
53.20195409881522 6.5761899999999995
53.22685531582556 6.564089999999999
53.25175924441303 6.54415
53.27666588664027 6.55525
53.30176985962693 6.56733
53.3266819565689 6.5294
53.35159677336455 6.5058
53.376514312083096 6.5084800000000005
53.40162927507703 6.49964
53.42655228516116 6.48232
53.45147802340193 6.44638
53.47660125628886 6.4307099999999995
53.50153247842639 6.43138
53.52646643496923 6.45795
53.55140312799818 6.41413
53.576537409691696 6.45121
53.60147960336152 6.38929
53.626424539786164 6.37345
53.65137222105307 6.33115
53.67651758529126 6.3051699999999995
53.70147078399681 6.27918
53.72642673383343 6.31033
53.75138543689533 6.28976
53.776541917524526 6.26923
53.801506154876755 6.26875
53.826473151763246 6.27749
53.851442910284916 6.22295
53.87661054126026 6.24328
53.9015858509782 6.2038199999999994
53.92656392866066 6.19191
53.95154477641532 6.16756
53.976723591801296 6.15179
54.00171000771266 6.15143
54.02669920004598 6.1753800000000005
54.051691170915745 6.11241
54.076881204886796 6.11415
54.101878760928514 6.1365300000000005
54.12687910187696 6.081580000000001
54.152077577768296 6.105919999999999
54.1770835166946 6.084219999999999
54.20209224691339 6.07682
54.22710377055121 6.01715
54.25231352511594 5.993869999999999
54.27733066384342 5.93876
54.30235060239643 6.02078
54.32737334290836 5.96782
54.35259441062629 5.92241
54.377622783395324 5.92316
54.40265396455061 5.97449
54.42768795623251 5.92237
54.45292037169559 5.85529
54.477960012857906 5.85541
54.50300247099511 5.8552800000000005
54.52804774825457 5.85652
54.55329154616743 5.82135
54.57834249018678 5.80195
54.6033962597977 5.75061
54.6284528571545 5.77824
54.653708072335164 5.77468
54.67877035378786 5.73489
54.70383546947698 5.69642
54.72890342156389 5.6639
54.7541700889442 5.63975
54.77924374251975 5.61833
54.8043202390049 5.561
54.82959552413022 5.56191
54.8546777351945 5.57954
54.87976279569621 5.51803
54.90485070780914 5.61131
54.930137506558005 5.52785
54.95523115074295 5.50044
54.98032765308844 5.39953
55.005427015775496 5.42582
55.03072536339621 5.4287
55.05583047570572 5.43506
55.080938454927676 5.3837
55.10604930325027 5.42725
55.131359235107396 5.3711400000000005
55.15647585066083 5.326569999999999
55.181595341907496 5.280819999999999
55.20671771104285 5.3089699999999995
55.232039262617704 5.244680000000001
55.25716741665048 5.24912
55.28229845518636 5.21919
55.30743238042802 5.21084
55.33276558731939 5.18938
55.357905315183636 5.17701
55.383047936390035 5.1673
55.40819345314859 5.09875
55.433538351073295 5.09249
55.458689688238415 5.1135
55.483843927614096 4.9931
55.509197623043605 4.97711
55.53435769621134 4.98426
55.55952067826466 4.99411
55.5846865714265 4.95747
55.61005202069737 4.92858
55.63522376553902 4.87943
55.66039842818645 4.90345
55.68557601087004 4.84508
55.7109532500271 4.78751
55.73613670233794 4.808269999999999
