TT I
1.2716486653135266 7.76048
1.2939594142134223 7.1268199999999995
1.3162702121660406 7.33736
1.3385810600174564 6.87613
1.3608919586137629 7.291980000000001
1.383202908801069 6.07515
1.405513911425503 6.11336
1.4278249673332093 6.44683
1.4501343378461518 6.181430000000001
1.4724455028545926 6.21974
1.4947567236847858 5.66832
1.517068001182951 5.75871
1.5393793361953272 6.09866
1.5616907295681737 6.14355
1.5840021821477681 4.930219999999999
1.60631369478041 4.87576
1.6286252683124185 5.5823
1.6509369035901333 5.59727
1.6732468618895553 5.2504800000000005
1.695558623192809 4.96515
1.7178704487808514 4.93933
1.7401823395001077 4.843
1.7625012545597203 5.09138
1.7848028405262486 5.29329
1.8071218901122095 4.9980199999999995
1.8294236121921872 4.8461099999999995
1.8517427996910911 4.82036
1.8740620574440425 5.22789
1.8963639900671978 4.93406
1.9186833908139995 4.67647
1.9409854680117449 4.88679
1.9633050151394713 4.7588099999999995
1.9856246367570705 4.56756
2.0079269371922672 4.78455
2.03024671027244 4.84066
2.0525491637446027 4.86245
2.074869091674931 4.47046
2.097171701569106 4.36079
2.1194917877373847 4.810569999999999
2.141811954326636 4.8360199999999995
2.164114805233074 4.5878
2.186435135143035 5.6969199999999995
2.208738150935709 11.0975
2.231058647554722 21.6123
2.2533792288321184 16.8898
2.275682498336085 8.686539999999999
2.298003251406138 4.9341800000000005
2.3203066942619714 4.78782
2.3426276225136022 4.90768
2.3649486396617507 5.042669999999999
2.387252348930071 5.27027
2.4095735463442893 4.78178
2.4318774374315884 4.92148
2.4541988185014043 5.1353
2.476502894794693 5.4686699999999995
2.498824462909887 6.07895
2.521146125856138 6.6427
2.5434504863470337 6.0126599999999994
2.5657723414244717 6.766769999999999
2.588076895590662 6.5083
2.610398946189713 6.910410000000001
2.6327210958598384 6.45359
2.6550259469304716 6.990189999999999
2.6773482972090137 6.986339999999999
2.6996533504259 7.3651
2.7219759047039602 7.30437
2.744298562293959 7.515389999999999
2.7666039251246595 7.2112300000000005
2.7889267918020164 7.785839999999999
2.8112323652516555 7.72515
2.833555444408179 7.94722
2.8558786311183852 7.96909
2.8781845268938557 8.66312
2.9005079311721484 9.402000000000001
2.9228140460410397 8.73621
2.9451376712799635 8.99681
2.967444008632326 9.26459
2.9897678582247247 9.589
3.0120918213106695 10.3457
3.0343984987899373 10.2887
3.0567226913198637 11.1806
3.079029599759726 11.2268
3.101354025127254 12.3122
3.123678568232338 12.7974
3.145985829517914 13.3859
3.16831061055229 13.9454
3.1906181112775593 14.1616
3.212943133635653 14.7668
3.2352682779763207 15.1933
3.2575761442691227 15.5724
3.2799015350264273 16.3117
3.302209649240067 16.348
3.3245352898092655 16.5683
3.3468436553365257 17.4787
3.369169549113219 18.0529
3.3914955708171384 19.1652
3.413804319727358 19.3558
3.4361305997334863 19.1736
3.4584396084414553 19.7916
3.4807661501462652 20.7548
3.503092824025881 21.0221
3.5254022288463154 20.9191
3.5477291695206588 22.0744
3.5700388426251948 22.7251
3.5923660534916446 23.9906
3.6146934007816114 35.4961
3.637003482731501 71.1769
3.6593311053109985 79.1346
3.681641464033634 48.1043
3.7039693653009733 29.2388
3.726297407241705 26.1399
3.7486081875460804 25.8895
3.7709365132734978 26.5056
3.793247578841633 26.9538
3.8155761917550093 26.9688
3.8378875459837216 27.4827
3.8602164494827234 28.0501
3.882545499606844 29.0026
3.9048572932539183 29.494
3.9271866390645718 29.4481
3.9494987298666713 30.0908
3.971828374764527 30.8871
3.9941581705403255 31.3166
4.016470713506008 31.9454
4.038800813471445 32.5831
4.061113662089144 33.1555
4.0834440696459176 34.0934
4.105774632334751 34.3572
4.128087945865126 35.729
4.150418821249301 36.1422
4.172732448931298 37.3692
4.195063640413578 38.7387
4.2173775856475215 42.0201
4.239709096631102 66.8304
4.262040768704612 187.226
4.284355196706267 244.122
4.306687193387355 160.401
4.329001947444346 71.0523
4.35133427213731 47.3855
4.373666762177566 45.5674
4.395982011761091 45.6126
4.418314834921175 46.1483
4.44063041906622 51.9534
4.4629635787515625 61.0401
4.4852969080429785 60.5481
4.5076130004776225 54.4306
4.529946671403969 52.5181
4.552263106909177 52.5559
4.574597122877047 53.3455
4.596931312711224 54.0365
4.619248269273446 54.2833
4.6415828092605835 55.858000000000004
4.663900117405352 57.0186
4.686235010953232 58.7694
4.708552674085913 60.0098
4.730887924602802 61.0285
4.753223354952695 62.6485
4.775541557023902 64.4907
4.797877349456786 66.1067
4.820195915032126 68.1756
4.842532072957498 69.4374
4.864868414979744 72.0174
4.88718753227192 74.1876
4.909524244902505 76.4189
4.931843734218147 78.3332
4.954180820867835 80.9476
4.976518095879839 83.8627
4.998838149695359 87.2587
5.021175803844231 91.6055
5.043496238205739 95.6172
5.065834274903528 101.12200000000001
5.088172504230693 107.18299999999999
5.1104935158799565 115.521
5.132832132875765 138.80100000000002
5.155153533596801 180.605
5.1774925416746225 242.112
5.199814334878411 566.54
5.2221537374521505 1550.46
5.244493338631803 3584.13
5.266815727034316 7318.31
5.289155727832427 11418.6
5.311478517248165 9014.76
5.333818921080011 3509.38
5.356159527788849 757.52
5.3784829252032536 226.206
5.400823940070432 162.671
5.423147747031976 139.95
5.445489173474152 127.726
5.467830807066149 121.088
5.490155234831516 115.554
5.512497285125229 110.816
5.534822130975162 108.634
5.557164601388673 106.54899999999999
5.579489868738879 103.18299999999999
5.601832762690846 102.46799999999999
5.6241758697774475 101.264
5.646501775867269 100.199
5.668845311622074 99.0231
5.691171647754637 98.2387
5.713515615597765 97.0217
5.735859800852677 96.0944
5.758186788542988 96.0385
5.780531411018185 96.6961
5.802858837297399 96.1773
5.825203900414495 96.7723
5.8475491852224 97.5709
5.869877275883075 97.8005
5.892223006467101 99.7527
5.914551544266608 101.632
5.936897724049891 106.42
5.959244129804903 115.57
5.981573344815301 150.841
6.0039202049061 303.777
6.026249875609095 644.9
6.04859719346037 1249.01
6.070927323278297 2304.3
6.093275102315365 4072.34
6.115623113320588 4831.47
6.137953938319995 3463.48
6.160302415650845 1214.41
6.182633708324452 296.1
6.2049826554078376 129.343
6.227331838745022 101.19
6.249663839443684 90.5222
6.27201349767565 85.8473
6.294345974611799 89.4722
6.316696111167083 96.6022
6.339046488263839 92.17200000000001
6.361379686074702 80.1772
6.383730546639482 73.6545
6.406064229255215 71.5218
6.428415576718203 70.6957
6.450749747566656 69.66199999999999
6.47310158535871 67.9922
6.495453669698332 67.1028
6.517788579421056 66.5326
6.540141159237969 65.4417
6.562476565766648 65.0565
6.5848296444934045 64.7478
6.607182974060425 64.3143
6.6295191323281015 64.3917
6.651872965955752 66.2104
6.6742096296068985 84.6843
6.6965639707294615 118.094
6.71891856698715 118.26899999999999
6.741255995248479 86.6351
6.763611104154477 67.3247
6.785949046381137 61.6551
6.808304671371482 60.3246
6.8306605557940046 60.3113
6.852999275508618 58.853
6.875355681171544 58.4984
6.897694923437771 58.5681
6.92005185377892 58.2984
6.9423916220322655 58.1815
6.964749080490181 56.9763
6.987106804399774 56.9484
7.009447368180821 57.3756
7.031805625367033 56.9604
7.054146723727803 56.735
7.076505517631004 56.7066
7.098864581288365 56.5226
7.121206488070854 56.3975
7.143566093607822 55.9696
7.165908543567245 56.4662
7.188268694426048 56.2623
7.2106291193438095 56.4994
7.232972390625943 57.5623
7.255333366030969 66.6208
7.277677189091925 105.697
7.300038718428332 142.36
7.322400526130865 122.295
7.344745183422596 81.2661
7.367107550224791 61.2668
7.389452767901992 57.2265
7.411815697249891 56.4822
7.434161478756298 55.8016
7.456524974096713 55.5293
7.478888753837185 55.2029
7.501235387657368 55.7377
7.523599738562711 55.7554
7.545946944825532 56.1425
7.568311870344528 56.4509
7.5906770845765665 56.7981
7.613025156078678 57.6818
7.635390950099687 58.9632
7.657739602662809 58.2187
7.680105979923558 57.2058
7.702472650212829 57.5502
7.724822180948224 57.2159
7.747189439655568 57.3736
7.769539560075357 57.4325
7.791907410653562 58.1507
7.81425812420825 58.1621
7.836626570110925 58.3558
7.858995315087906 59.2931
7.881346924933401 59.4357
7.903716270417482 59.8251
7.926068482028405 60.0623
7.948438431475253 61.0431
7.9708086843180235 61.623999999999995
7.993161805171116 62.0952
8.015532667162402 62.2824
8.037886398416653 63.2276
8.060257873014221 63.9279
8.082629655331942 64.8963
8.104984308787587 65.3471
8.127356708900503 68.3619
8.149711981398308 73.1965
8.172085002766314 74.9013
8.194458336181368 72.7974
8.216814543847752 70.8456
8.23918850371002 71.6087
8.26154533906492 72.7014
8.283919928836452 74.0402
8.306277395339652 74.9396
8.328652618483376 76.763
8.351028159736202 79.1591
8.373386579575245 81.5554
8.395762759396959 83.4639
8.418121819038275 88.8875
8.440498640894003 99.7554
8.462875785192262 115.458
8.485235811156207 142.18
8.507613602688501 213.90900000000002
8.529974277114228 332.135
8.552352719347912 487.33
8.574731488360351 740.658
8.59709314210385 1162.17
8.619472567021075 1673.61
8.64183487789147 2115.9
8.664214962183097 1840.91
8.686577933647762 1055.55
8.708958680784317 433.42699999999996
8.731339760774953 184.563
8.753703729764451 119.385
8.77608547780821 104.86200000000001
8.798450116065078 99.7181
8.820832535634787 96.4791
8.843215292401656 94.3008
8.865580941199045 92.4616
8.887964374703538 91.7053
8.910330701447199 92.0816
8.932714815164482 93.3144
8.955099270424924 92.6176
8.977466620733543 90.10799999999999
8.999851761421976 87.8749
9.022219798361645 86.4031
9.04460562795561 86.0934
9.066991803441677 85.5443
9.089360876979615 85.6217
9.111747746589993 85.1982
9.13411751544971 84.6508
9.156505082664324 84.7674
9.178875550323522 84.6533
9.20126381862328 84.7579
9.223652438908596 85.1374
9.246023961427412 84.7122
9.26841328802173 84.7837
9.290785518039224 84.8489
9.313175554425882 85.9098
9.335565947154315 85.383
9.357939245086508 85.4694
9.380330352834827 85.7709
9.40270436697103 85.7824
9.425096193225055 85.581
9.447488380180165 86.36399999999999
9.469863475295412 86.6309
9.492256385987508 87.2368
9.514632206018318 87.78399999999999
9.537025843935714 87.961
9.559402392368193 89.0462
9.581796761000229 90.5102
9.604191496441521 91.0983
9.626569144158516 93.6285
9.648964615551032 97.4452
9.671343000390081 98.8859
9.693739211225699 97.5069
9.716135793237463 96.2855
9.738515290448102 96.405
9.760912617143402 97.7278
9.783292860202891 98.4194
9.805690935076182 99.7379
9.828089385495742 101.00200000000001
9.850470754023561 103.545
9.872869957865444 110.038
9.89525208097539 122.194
9.917652041736662 132.86700000000002
9.940052382417589 139.13299999999998
9.962435644102392 165.317
9.984836746950979 223.467
10.007220771957746 308.017
10.029622640473708 429.029
10.052007432299963 603.883
10.074410069984072 855.2689999999999
10.096813093716005 1202.36
10.119199042482517 1595.02
10.141602840636468 1870.68
10.163989564971628 1674.8
10.186394141051062 1055.31
10.208799107559706 495.746
10.231187001965623 223.135
10.253592751657669 138.023
10.275981430388155 119.088
10.298387966769793 116.696
10.320794897965431 117.353
10.343184759907361 115.64399999999999
10.36559248305461 111.068
10.387983138083852 109.13799999999999
10.410391656691655 116.234
10.432800574501677 133.82399999999998
10.455192425893369 155.22299999999998
10.47760214443012 184.43400000000003
10.499994797678786 227.32299999999998
10.522405320453982 293.17900000000003
10.54479877906917 381.68
10.567210109595656 483.272
10.5896218454736 541.196
10.612016518879773 528.26
10.634429067781074 372.39
10.656824555333241 216.59599999999998
10.679237920773568 131.736
10.701651695961992 100.318
10.724048411481384 92.6459
10.746463008485165 89.6626
10.768860546937125 87.8832
10.791275969274796 85.7106
10.81369180576079 84.7044
10.836090585366925 83.6585
10.858507252467449 82.4994
10.88090686379991 81.3613
10.903324365036394 80.3712
10.925724811614439 80.1847
10.948143150509463 81.2002
10.970561909719066 80.3019
10.992963615930844 78.5521
11.015383218085756 76.7865
11.037785768347074 75.1419
11.06020621697282 74.8724
11.082627090322113 74.1018
11.105030913430326 73.7006
11.12745263854165 74.0003
11.149857314510728 76.1165
11.172279894912576 80.5987
11.194702904450653 81.0128
11.217108866490921 77.9643
11.239532736615194 74.1974
11.26193956033512 72.6438
11.284364294577085 71.30199999999999
11.306789462371718 69.8546
11.329197585398376 69.0192
11.351623622610898 68.8664
11.37403261614354 68.0404
11.396459526308487 67.6747
11.418869393879497 67.3513
11.441297180532617 66.92
11.463725406927658 66.6091
11.486136592353875 66.3392
11.508565700543707 66.9235
11.530977768845315 68.1376
11.553407762368774 68.6251
11.575838200059769 68.4482
11.598251599479612 66.6254
11.620682927815501 65.2729
11.64309721895548 65.3415
11.665529441478206 64.7368
11.687962112597958 64.6847
11.710377748130886 64.8801
11.732811318753434 64.6625
11.755227854859067 64.7152
11.777662328529495 64.2119
11.800079768750786 64.2298
11.822515149015453 64.1828
11.844950984084935 64.4632
11.867369787303163 64.3286
11.889806534289491 64.2532
11.912226250487029 64.5044
11.934663912939751 64.6214
11.9571020346363 64.8243
11.979523127133968 64.8779
12.001962169624331 66.0214
12.024384183972964 68.2457
12.046824150809913 73.0269
12.069264581333726 79.281
12.091687985297767 85.9659
12.11412934550045 95.3518
12.136553680195208 108.57
12.158995973632788 126.836
12.181438735204349 148.275
12.20386447284199 176.293
12.226308172985636 198.30200000000002
12.24873485024193 203.47400000000002
12.271179492516982 174.89
12.293607112949127 133.38299999999998
12.316052700916226 100.055
12.338498763250042 80.6025
12.360927805303868 71.6714
12.383374818673879 68.2371
12.405804812803074 66.56
12.428252780773262 66.2549
12.45070122756722 66.0127
12.473132656675375 66.0813
12.49558206341869 66.3326
12.518014453510101 66.1517
12.540464823770117 66.2857
12.562915677315177 66.4451
12.58534951575545 67.1593
12.607801338171472 68.5283
12.630236146511358 72.6743
12.652688941369085 76.4356
12.675124723177234 76.9484
12.697578494048786 74.4197
12.720032754458185 70.8368
12.742470003354093 69.8371
12.764925245138771 69.8639
12.787363476431278 70.3158
12.809819703166806 70.4449
12.83227642391173 71.2591
12.854716135692716 71.9621
12.877173846755147 73.0358
12.899614549869717 73.1768
12.9220732548287 74.0997
12.94453245827299 74.8818
12.966974655289818 75.6187
12.989434858002571 76.5172
13.011878055298721 77.2446
13.034339260862497 78.6288
13.056800969391883 79.9092
13.079245674017244 82.552
13.101708390774869 86.6245
13.12415410463411 97.2658
13.146617833206086 112.044
13.169064559883248 125.706
13.191529303857127 142.755
13.213994557076367 165.87099999999998
13.236442809902437 199.09900000000002
13.258909083908291 243.963
13.28135835851934 291.982
13.30382565690295 349.11199999999997
13.326293469022952 403.315
13.348744283242008 424.158
13.371213125129904 374.472
13.39366497011003 284.296
13.416134845360597 190.215
13.438605238843131 133.066
13.46105863690397 114.95
13.483530069144786 116.796
13.505984506951902 123.56700000000001
13.528456981549432 134.905
13.550929978879088 150.106
13.573385983253365 171.738
13.595860028340867 202.981
13.618317081455832 240.90599999999998
13.64079217790333 286.04400000000004
13.663250283359057 330.837
13.685726434770173 360.63199999999995
13.708203115221277 343.70599999999996
13.730662806148091 279.185
13.75314054697177 202.169
13.775601299246777 138.30200000000002
13.798080104050406 102.70200000000001
13.820559442405358 88.8072
13.843021793671388 84.3958
13.865502201420897 82.663
13.887965623051947 81.9207
13.910447103807167 80.8452
13.932929122629764 79.4245
13.955394156785959 79.2501
13.977877254034569 78.1665
14.000343367582113 77.1151
14.022827546871707 76.6201
14.045294743423524 75.8392
14.06778000837062 75.1613
14.090265817715476 74.9226
14.112734645763819 74.6468
14.13522154619454 74.2436
14.157691466286913 74.2403
14.180179461423874 74.1455
14.202668005486178 73.4236
14.22513957064374 72.7436
14.247629214846473 72.5254
14.270101881097517 72.2445
14.29259262906496 72.3283
14.315083930490205 72.9564
14.337558255389705 73.1374
14.360050666019726 72.8503
14.382526101071944 71.9828
14.405019624534942 71.3594
14.427513705993134 71.0016
14.449990813291825 70.9779
14.47248601302899 70.9365
14.49496423954951 70.9097
14.517460561197822 71.0951
14.539939910570322 70.911
14.562437357763558 71.1826
14.58493536931253 72.0851
14.607416409993311 72.453
14.62991555254159 73.1397
14.652397725157423 73.2526
14.674898002342799 72.9451
14.697398848433282 72.7594
14.719882725991326 73.8471
14.74238471217934 75.9212
14.764869730765593 80.9499
14.787372860692983 85.3744
14.809876564079925 90.6734
14.83236330125751 97.4565
14.854868153850365 105.87799999999999
14.877356041159485 118.34700000000001
14.899862046604186 133.959
14.922351087688757 153.347
14.944858249632887 175.18400000000003
14.967365991421232 199.135
14.989856770231246 216.94099999999997
15.012365673994204 219.933
15.03485761569738 195.352
15.05736768508665 156.41299999999998
15.07987833888692 121.63
15.102372032001655 95.0235
15.124883856909658 79.8493
15.14737872204565 74.6474
15.169891721717274 72.7205
15.192405310371893 72.5267
15.214901940621196 72.5309
15.237416709527137 72.2825
15.259914520936249 72.3206
15.282430473753607 71.6046
15.304947020131227 70.4874
15.327446610371178 69.7553
15.349964346154254 68.9141
15.372465126703139 68.6366
15.394984055556009 68.5686
15.417486030076159 68.2388
15.44000615566487 68.1267
15.462526881230803 67.9344
15.485030653812652 68.0336
15.507552581617434 68.0792
15.530057557334603 68.1426
15.55258069104857 68.3163
15.575104429329837 68.3256
15.597611216864632 67.9697
15.620136166564563 68.5592
15.6426441664095 70.2603
15.665170331202765 74.0898
15.687697105158826 77.9013
15.710206930593545 82.1084
15.732734925158933 86.7682
15.755245972089478 93.4042
15.77777519094324 101.665
15.800287463046663 113.105
15.822817909869592 127.867
15.84534897229804 143.613
15.867863089299354 162.731
15.890395385222186 179.90900000000002
15.912910736597423 192.25400000000002
15.935444269699861 188.268
15.957978423016485 165.30900000000003
15.980495633101265 133.689
16.003031029129367 103.64
16.02554948280019 80.73100000000001
16.048086125229432 70.37100000000001
16.070623392487107 66.8268
16.09314371869582 65.7365
16.11568223789321 64.7325
16.13820381691126 63.7921
16.160743591742527 62.9875
16.183283996022084 62.3616
16.205807461423195 61.2761
16.228349126881973 60.7438
16.25087385432698 60.506
16.27341678466365 60.1368
16.29594277784926 59.9499
16.31848697676433 60.0329
16.341031811604868 59.8327
16.36355971058487 60.2107
16.3861058195587 60.08
16.40863499352978 58.908
16.431182380342005 58.4052
16.453730407713202 57.6104
16.476261501364792 57.2753
16.498810812136167 57.0101
16.52134319004079 57.4571
16.54389378792203 57.2621
16.566445031001553 57.06399999999999
16.588979342490088 56.9914
16.61153187824822 56.6336
16.634067483263312 56.4519
16.656621315414416 56.4426
16.679175797408888 56.1167
16.701713349928728 56.2092
16.72426913389191 56.4858
16.74680798922351 56.4101
16.76936507887444 56.3868
16.791905240734874 56.4785
16.814463639794468 56.1713
16.837022695210294 56.3538
16.859564824093756 56.8686
16.882125194503903 57.4021
16.904668639217885 57.9996
16.927230328348003 57.9945
16.949792678493612 58.3752
16.972338104193863 57.7575
16.994901778652235 57.2525
17.017448529496576 57.0998
17.040013531998152 57.7864
17.06257920018044 58.6201
17.0851279459922 59.2989
17.107694947817667 60.3521
17.130245028099072 61.1079
17.15281336730298 62.7156
17.17536478578733 64.4822
17.19793446610687 66.4973
17.220504818648422 68.9847
17.243058251703697 71.4955
17.265629950971032 74.797
17.288184731571736 78.4484
17.310757781306908 82.6901
17.33333150794385 84.7485
17.355888317140174 84.3677
17.37846339986244 80.6853
17.401021565958885 74.47399999999999
17.42359800851343 68.4928
17.44617513265564 64.6203
17.468735341390783 62.0461
17.491261035594565 60.9803
17.51396340099364 60.6571
17.536490463869136 60.9291
17.559018209820174 60.7874
17.58154663977963 60.9505
17.604251766089718 61.2876
17.626781572227713 61.4117
17.64931206518155 61.5855
17.671843245885103 62.1773
17.69455114821572 62.4359
17.717083712612634 62.6978
17.739616967569667 62.9627
17.762150914021706 63.0742
17.78486160749854 63.4331
17.807396945166804 64.0631
17.829932977143503 65.5925
17.85246970436452 67.9777
17.875183204129467 70.1586
17.897721330097664 72.6398
17.920260154126645 75.2883
17.942799677153296 78.5057
17.9655159983646 82.225
17.988056927677544 87.4357
18.010598558807683 93.8266
18.033140892692916 101.395
18.05586005052525 109.662
18.07840379824407 119.538
18.10094825154059 130.024
18.12366954819864 140.186
18.146215420998306 143.885
18.16876200220057 138.886
18.191309292745153 125.788
18.214033452627167 111.505
18.236582170236648 98.1409
18.259131600016456 91.5852
18.281681742907335 89.3819
18.304408781233683 91.6077
18.32696035875955 94.699
18.349512652227624 99.204
18.372065662579683 103.838
18.394795594587553 106.62899999999999
18.41735004715306 105.336
18.43990521943684 99.48100000000001
18.46246111238171 90.6835
18.485193953325208 80.7215
18.507751296070428 72.594
18.530309362314178 68.0729
18.552868153000343 65.5922
18.57560391815056 64.067
18.59816416623245 63.6027
18.620725141597372 63.1252
18.643286845190268 62.5891
18.666025549835414 62.1742
18.688588718427933 61.605
18.711152618092243 61.5752
18.73389353884365 61.2443
18.75645890921984 60.7625
18.77902501351406 60.2708
18.801591852673102 60.2555
18.824335739722738 59.788000000000004
18.846904057212626 59.7127
18.8694731124168 59.4023
18.89204290628315 59.365
18.914789774966803 59.3624
18.937361054791623 59.1545
18.959933076131318 58.8037
18.982505839934877 58.7777
19.00525570560582 58.9225
19.027829963004184 58.6286
19.05040496572238 58.5726
19.072980714710468 58.9013
19.095733592739563 59.0803
19.11831084296757 59.5709
19.140888842324735 60.0744
19.16346759176222 60.3207
19.18622349753803 60.9599
19.208803755869358 62.0157
19.231384767143577 62.7138
19.253966532312948 64.1076
19.276725481241822 66.0357
19.29930876296784 67.6789
19.3218928014549 69.852
19.34465404436217 72.6033
19.36723960516257 75.2458
19.389825925592426 77.342
19.412413006605938 77.6113
19.43517731967805 75.1353
19.457765930683355 70.5574
19.48035530514408 66.0164
19.50294544401556 62.1218
19.525712842708348 58.6235
19.54830451925909 57.2162
19.570896963095727 55.9104
19.593490175174704 55.4982
19.616260674962184 55.5644
19.638855432416964 55.2208
19.661450960992624 55.3793
19.68404726164677 55.1282
19.706820878021247 54.9294
19.729418731756834 55.1348
19.752017360452857 54.8728
19.77461676506804 55.0924
19.797393513540218 55.51
19.819994478951667 56.0214
19.84259622316767 56.5215
19.8651987471481 57.0007
19.887978643247177 57.206
19.91058273574792 57.6301
19.933187610901943 58.3852
19.955969879466828 59.4699
19.97857632894404 60.8466
20.00118356396599 62.0224
20.023791585494575 63.8221
20.046577028914875 65.8927
20.069186632506966 67.8135
20.091797025500632 69.9412
20.114408208858933 71.3771
20.137196842715273 72.0837
20.159809615886765 71.2745
20.18242318232135 68.7458
20.20503754298326 66.4173
20.227829382875154 64.3733
20.250445341109344 63.4988
20.27306209647285 63.431999999999995
20.29567964993108 64.5517
20.31847471147704 65.4553
20.34109387027612 66.6904
20.363713830075454 66.8614
20.386334591841646 66.0616
20.409132890679302 63.6738
20.431755265564437 60.6315
20.454378445325528 57.6096
20.477002430930366 55.3857
20.499803982716553 53.8342
20.522429589228004 53.1267
20.54505600449589 52.3856
20.567683229489194 52.4918
20.590488049900088 51.9916
20.61311690359731 51.7493
20.63574656993626 51.4512
20.658553853717297 51.1136
20.681185154618298 51.1756
20.703817271080066 51.1458
20.72645020407368 50.7173
20.749260783967177 50.652
20.771895359337133 50.6118
20.794530754161617 50.4829
20.817166969412938 50.4899
20.83998086114876 50.3597
20.86261872660049 50.2999
20.885257415405402 50.4324
20.90789692853701 50.063
20.930714147864748 50.2384
20.953355319030678 50.2897
20.97599731745334 50.3655
20.99864014410749 50.1009
21.021460706796564 50.2348
21.044105199328826 50.4125
21.06675052302631 50.5787
21.089396678865015 50.7888
21.112220600704806 51.0762
21.134868430275347 51.5047
21.15751709492456 51.4892
21.180166595629693 51.7664
21.202993892429635 52.1649
21.22564507473034 52.4186
21.24829709602816 52.7218
21.27112693608965 52.7504
21.293780644891275 53.2184
21.316435195634053 52.5678
21.339090589297417 51.7705
21.361923832041875 51.3905
21.384580921090404 50.5776
21.407238856007325 50.0501
21.429897637773326 49.8796
21.45273429906592 49.9735
21.475394784108598 49.8499
21.498056118951983 49.8155
21.520718304578022 50.1761
21.543558400304388 50.0734
21.566222297108816 50.4895
21.58888704765135 50.7865
21.61155265291521 51.2008
21.63439619898156 51.8077
21.657063523335786 51.9176
21.67973170537063 52.3255
21.7024007460706 52.9988
21.72524775840385 53.5836
21.747918526116475 54.6341
21.770590155457388 55.6005
21.79326264741238 56.9695
21.816113141960237 58.4999
21.838787368860547 60.0648
21.861462461341976 61.7041
21.884315579735777 63.5837
21.90699241312273 65.04899999999999
21.92967011506078 66.4538
21.95234868653799 66.6788
21.9752053151131 65.7574
21.997885635446785 64.1754
22.020566828293532 61.8672
22.04324889464272 59.5694
22.066109049404666 58.0956
22.088792872571794 57.239
22.111477572219204 57.1024
22.1341631493376 57.4721
22.157026846313123 57.4826
22.179714188221507 57.0307
22.202402410582668 56.1739
22.22509151438863 54.6114
22.24795876962584 53.376999999999995
22.270649646204486 52.2448
22.293341407213727 51.4681
22.316034053646906 50.8241
22.338904883215342 50.6819
22.36159931041458 50.4502
22.38429462602756 50.3822
22.40699083104897 50.2934
22.429865251039757 50.3294
22.452563244831367 50.2686
22.47526213102522 50.3333
22.49813925616515 50.1504
22.520839937143307 50.0185
22.543541513520587 50.2082
22.56624398629403 50.0047
22.589124730075895 50.0921
22.611829005656723 50.3649
22.63453418063466 50.2902
22.657240256008077 50.599
22.680124634582935 50.7676
22.70283252079775 50.981
22.725541310413075 51.3983
22.74825100442868 51.673
22.771139033969575 52.0797
22.79385054687155 52.3623
22.81656296718292 52.8362
22.83927629590484 53.531000000000006
22.862167992606945 54.3104
22.88488314827121 55.2773
22.907599215359284 56.0868
22.93031619487366 56.971000000000004
22.953211574954405 57.8352
22.975930389478226 58.87
22.998650119445763 59.2696
23.02137076586092 58.9612
23.044269845560063 57.8646
23.06699233506288 56.4705
23.089715744034912 54.657
23.112617610931565 52.8815
23.135342869061212 51.6222
23.158069049684816 50.7684
23.1807961538087 50.3879
23.20370174880544 50.485
23.226430710184808 50.3717
23.249160598093425 50.4116
23.271891413539002 50.5789
23.294800752937697 50.6174
23.31753343374794 50.8741
23.340267045128353 50.9595
23.36300158808808 51.2706
23.38591468821339 51.6423
23.408651104658304 51.9658
23.431388455719986 52.5548
23.454126742409 53.3089
23.4770436196085 54.093
23.499783787914662 55.0931
23.522524894889884 55.7212
23.54526694154616 56.5476
23.56818761219047 57.687
23.59093154860734 58.7073
23.613676427751283 59.2519
23.636422250635754 58.8638
23.659346731118656 57.5063
23.68209445191868 55.9059
23.704843119509587 53.5947
23.72759273490623 51.3504
23.750521041644767 49.9103
23.77327256312355 48.7249
23.796025035462787 48.2074
23.818956224555475 47.503
23.841710609113413 47.3712
23.86446594758979 47.128
23.887222241002014 46.7595
23.910157285144578 46.5583
23.932915498962537 46.6641
23.955674670778713 46.4406
23.978434801611975 46.2538
24.001373717286125 45.9733
24.024135776723917 46.0817
24.046898798245582 46.0074
24.06966278287146 45.8596
24.092605586582614 45.6015
24.115371508023642 45.3089
24.1381383956401 45.3485
24.16090625045381 45.5599
24.183852958731244 45.2799
24.206622758582608 45.2572
24.229393528706886 45.0395
24.252165270127392 45.0077
24.27511589952438 45.058
24.297889594216997 44.6362
24.32066426328598 44.5547
24.34343990775613 44.6052
24.36639447485003 44.5162
24.38917208083877 44.4969
24.41195066531332 44.4542
24.43490819850244 44.596000000000004
24.457688750692377 44.2381
24.48047028445616 44.2003
24.503252800821233 44.3987
24.526214300784112 44.2978
24.548998793132213 44.3208
24.57178427117417 44.2726
24.59457073593893 44.3389
24.617536219319863 44.2187
24.64032466834748 44.2491
24.663114107195035 44.1629
24.685904536893013 43.8265
24.708874020360852 43.713
24.731666442613744 43.7312
24.754459858818787 43.7153
24.777254270007962 43.7248
24.80022777025625 43.543
24.82302418230472 43.5457
24.845821592443674 43.5724
24.86862000170663 43.5212
24.891597535453727 43.445
24.914397953892728 43.5887
24.93719937456671 43.595
24.96000179851076 43.8238
24.98298338249997 44.0491
25.00578782394922 44.1715
25.028593271784167 44.2844
25.05157790644186 44.419
25.07438537804115 44.6524
25.097193859145293 44.8881
25.120003350792075 44.9847
25.142992065061257 45.3465
25.165803588823465 45.6439
25.18861612625217 45.8432
25.211429678386736 45.9783
25.234422489079968 46.0274
25.257238081693636 46.1302
25.280054692141732 46.095
25.3028723214652 45.9241
25.325869245420463 46.007
25.348688923599397 46.091
25.371509623787006 46.1344
25.394331347025812 46.0939
25.41733240110666 45.5559
25.440156181590016 44.9729
25.46298098826268 44.4123
25.48580682216873 44.0203
25.50881202326435 43.291000000000004
25.53163992281684 42.7199
25.55446885274561 42.4066
25.577298814096377 42.0928
25.600308179121807 42.1001
25.623140214533745 42.0615
25.64597328451537 41.9641
25.66898578564376 41.8891
25.691820936010206 41.9125
25.714657124097695 41.9577
25.737494350954734 41.8387
25.760511045684957 41.6307
25.783350361364224 41.7816
25.806190718969255 41.7992
25.82903211955018 41.9813
25.852053024868923 41.891000000000005
25.874896522722523 41.8328
25.897741066713106 41.8955
25.920586657892454 42.0597
25.943611790812668 42.1594
25.966459487728237 42.2867
25.989308234998564 42.1657
26.01215803367705 42.5429
26.03518741123814 42.5885
26.05803932412957 42.6447
26.080892291600094 42.589
26.10374631470478 42.6154
26.12677995397268 42.7709
26.14963609978026 43.0924
26.172493304397875 42.6936
26.19535156888223 42.5029
26.218389486949604 42.1167
26.241249882640123 41.8884
26.26411134137826 41.6493
26.28715248187403 41.5033
26.31001607820869 41.4481
26.3328807407756 41.2073
26.35574647063438 41.4751
26.37879191991473 41.4615
26.401659795896734 41.3935
26.424528742360263 41.5253
26.447398760366614 41.7224
26.470448535598294 41.8582
26.49332070826805 41.961999999999996
26.516193955675355 42.3078
26.53906827888316 42.5215
26.562122397260108 42.5604
26.584998883685063 42.7311
26.607876449110325 43.0072
26.63075509460056 43.1382
26.65381357334404 43.4493
26.67669439061878 43.5212
26.699576291163382 43.4279
26.722459276044212 43.2996
26.745522132402975 42.858000000000004
26.768407297649354 42.7135
26.791293550442003 42.2774
26.814180891848974 42.1476
26.837248143099337 41.6787
26.860137673466657 41.5932
26.88302829566349 41.3565
26.90592001075963 41.3248
26.92899167420566 41.1037
26.951885586870763 40.6087
26.974780595655517 40.4977
26.99785558178161 40.4681
27.020752794605112 40.3924
27.043651106772522 40.118
27.06655051935668 40.1076
27.089629948036183 39.9687
27.112531573292053 39.9415
27.135434302194138 40.0016
27.158338135817015 39.6804
27.181422024430987 39.7952
27.204328079372566 39.6358
27.22723524226965 39.5861
27.250143514198573 39.7623
27.273231880156334 39.6925
27.296142382065014 39.5779
27.319053996245536 39.5309
27.341966723775965 39.7188
27.365059584515222 39.6268
27.38797455070062 39.728
27.410890633481237 39.4664
27.433807833936918 39.5212
27.456905206923906 39.6615
27.47982465472398 39.5211
27.502745223449743 39.6014
27.525666914182825 39.7261
27.548768816912457 39.6226
27.571692763693633 39.5794
27.59461783573812 39.4849
27.617723149491244 39.4684
27.640650484125285 39.3904
27.66357894728264 39.3256
27.686508540048052 39.2531
27.709618414237887 39.1686
27.732550278321757 38.9358
27.755483275279115 38.9926
27.778417406196485 39.051
27.801531858397514 39.1058
27.824468269376716 38.9745
27.847405817586786 39.0346
27.870344504116094 39.1008
27.893463551932008 39.2021
27.916404527281053 39.3199
27.93934664422563 39.571
27.962289903855886 39.5187
27.98541356491974 39.7087
28.00835912214229 39.7268
28.03130582533231 40.0353
28.054253675581805 40.2229
28.077381967556104 40.1463
28.100332124185126 40.2076
28.123283431160893 40.1473
28.146235889577238 39.9429
28.169368830154156 39.8235
28.192323603752033 39.5799
28.215279532083304 39.1825
28.238415973016764 39.1245
28.261374223145094 39.0022
28.284333631303806 38.8217
28.307294198589954 38.5343
28.330435319167677 38.4202
28.353398217078915 38.0755
28.376362277420153 37.84
28.39932750129032 37.8123
28.422473319286713 37.4915
28.44544088262495 37.5518
28.468409612800283 37.269
28.491379510913497 37.1074
28.51453004413313 37.02
28.53750229057244 37.1027
28.56047570826344 36.9468
28.583450298308804 36.9577
28.606605564586562 36.821999999999996
28.629582511831156 36.8866
28.65256063474956 36.7899
28.675539934446338 36.7769
28.698699951647605 36.5784
28.72168161743193 36.5103
28.74466446331978 36.5245
28.767648490417624 36.4725
28.790813276438353 36.4762
28.813799678527303 36.4469
28.836787265157085 36.5048
28.859955641890075 36.5047
28.882945610203045 36.3478
28.905936766392035 36.3052
28.928929111566863 36.2503
28.952102288520145 36.2928
28.975097024308607 36.1466
28.998092952423807 35.9604
29.021090073977508 36.0021
29.04426806913204 35.781
29.067267590245258 35.68
29.090268308143695 35.6161
29.11327022394099 35.5875
29.13645305530891 35.5101
29.159457379627167 35.5615
29.18246290519685 35.3821
29.20546963313352 35.4464
29.22865731875826 35.4316
29.25166646419296 35.4222
29.27467681535305 35.1012
29.29768837335608 35.3376
29.320880931312562 35.2146
29.34389491580634 35.2757
29.366910110507334 35.0961
29.38992651653503 35.1986
29.41312396492981 35.1612
29.436142806456754 35.1861
29.45916286268059 35.1193
29.48236399319994 34.9656
29.50538649169417 34.8002
29.528410208259935 34.6938
29.55143514402014 34.5535
29.574641196749695 34.5021
29.597668583816574 34.3175
29.6206971934585 34.0544
29.64372702680042 34.1176
29.666938019934474 33.9941
29.689970313635285 33.9968
29.713003834422636 34.0166
29.73603858342347 34.0261
29.759254535188578 33.9572
29.78229175361658 33.7723
29.80533020365064 33.986999999999995
29.82836988641968 33.9279
29.85159081507472 33.7185
29.874632976355343 33.7189
29.89767637376955 33.7905
29.920721008448314 33.6583
29.9439469322847 33.5436
29.96699405457564 33.4973
29.9900424175358 33.6429
30.013092022298157 33.6444
30.03632295963995 33.5339
30.059375061131373 33.5003
30.08242840783577 33.5024
30.105483000888153 33.4422
30.128718970092244 33.2285
30.151776069006917 33.4219
30.17483441768648 33.4451
30.198074175317235 33.4528
30.221135036724256 33.3659
30.24419715131772 33.3633
30.267260520236203 33.2929
30.290505341942243 33.2808
30.313571232750228 33.4198
30.336638381310948 33.2966
30.35970678876503 33.1248
30.38295669299435 33.1356
30.40602763151657 33.1691
30.429099832366074 33.1728
30.452173296685572 33.0994
30.47542830191959 33.075
30.498504306502497 33.0196
30.521581577995562 33.0467
30.544660117543582 33.063
30.56792024229725 33.1321
30.59100133132069 33.1262
30.614083691845494 33.0789
30.637167325018545 33.2028
30.660432587840603 33.2373
30.683518779717886 33.0854
30.70660624769615 33.202
30.729694992924372 33.1071
30.75296541239743 33.1168
30.77605672557558 33.0504
30.799149319462742 33.1294
30.8224236211637 33.055
30.845518789950724 32.8829
30.868615242910597 32.8515
30.891712981195973 32.722
30.91499247215866 32.6393
30.938092794619365 32.5411
30.96119440587579 32.4786
30.984297307082752 32.3645
31.00758200598383 32.2129
31.030687500658694 32.2006
31.053794288760695 32.1068
31.076902371446767 32.025999999999996
31.100192296997445 32.0388
31.12330298246119 32.0124
31.14641496599209 31.8532
31.169528248749216 31.8717
31.19282341969534 31.9002
31.215939314557186 31.921
31.239056512134788 31.9402
31.262175013589378 31.8243
31.28547544871168 31.8293
31.30859657161541 31.6922
31.331719001892175 31.7858
31.35484274070538 31.8592
31.378148458819545 31.8336
31.401274828443725 31.8134
31.424402510106933 31.8089
31.447712205419993 31.9209
31.470842524931633 31.7347
31.493974159989783 31.6793
31.51710711176168 31.7358
31.54042212308802 31.6361
31.563557722100917 31.6714
31.586694641341655 31.5412
31.609832881979628 31.5011
31.63315322823208 31.377
31.656294125521327 31.2839
31.679436347728515 31.1257
31.70257989602529 31.1141
31.725905596152327 31.1668
31.74905181052835 31.0481
31.772199354521323 31.0912
31.79534822930507 31.1039
31.818679302290967 31.098000000000003
31.84183085259981 31.0497
31.864983737233473 30.9811
31.88813795736804 31.0427
31.911474422233013 30.8714
31.934631327356435 31.0115
31.9577895715215 31.0311
31.980949155906522 30.9107
32.004291031706956 30.8411
32.027453310562606 30.7969
32.05061693318573 30.6907
32.07396288236386 30.8068
32.09712920658542 30.592
32.12029687812702 30.5152
32.14346589817093 30.4536
32.166817291729984 30.5667
32.18998902288583 30.4107
32.21316210610336 30.328000000000003
32.23633654256711 30.2069
32.259693399663725 30.2093
32.282870556771144 30.0443
32.30604907069099 29.980999999999998
32.329228942610065 30.0166
32.35259128243769 29.8403
32.375773884550505 29.8568
32.398957848235646 29.8267
32.422143174682176 29.7591
32.445511016471215 29.5992
32.468699082679954 29.5834
32.49188851523011 29.4836
32.51507931531304 29.4812
32.538452678331 29.4178
32.56164622776311 29.4208
32.58484114831493 29.2756
32.60803744118015 29.3332
32.631416344731896 29.2866
32.654615396551876 29.2494
32.67781582427913 29.261
32.701198898634416 29.2389
32.72440209253756 29.1844
32.747606665947124 29.1472
32.77081262006088 28.9314
32.79420126883317 28.9385
32.81740999876112 29.128
32.840620112999424 28.884
32.86383161274818 28.8311
32.88722585534586 28.7953
32.91044014056596 28.8211
32.933655814909734 28.8721
32.95687287957963 28.8596
32.98027273544904 28.6604
33.00349259526636 28.6943
33.026713849030116 28.7149
33.04993649794511 28.6428
33.073341986570746 28.6393
33.09656744032826 28.669
33.11979429286444 28.6618
33.14302254538647 28.5743
33.166433686291185 28.5802
33.18966475336992 28.519000000000002
33.212897224069096 28.4355
33.23613109959831 28.4826
33.259547912343415 28.4338
33.2827846121627 28.3456
33.306022720453775 28.2243
33.32926223842861 28.2182
33.352684742614166 28.2444
33.37592709463173 28.3075
33.399170859982064 28.1461
33.422597648419426 28.0715
33.44584425514446 27.9945
33.46909227885668 27.9464
33.4923417207723 27.7504
33.51577423505344 27.7871
33.539026528130385 27.7588
33.56228024307245 27.7069
33.585535381098246 27.5439
33.60897364093058 27.5372
33.63223163992385 27.5127
33.6554910656699 27.4415
33.678751919389796 27.471999999999998
33.702195944520106 27.4468
33.72545966903325 27.3662
33.74872482519663 27.2512
33.771991414233746 27.3515
33.79544122444841 27.3787
33.81871069412428 27.1872
33.84198160035767 27.1856
33.86525394437455 27.1976
33.88870955949969 26.9975
33.911984794020626 27.0729
33.93526147001624 26.9677
33.958539588715006 26.97
33.98200102861669 26.857
34.0052820477047 26.7797
34.02856451319451 26.875
34.05203033759056 26.7778
34.07531571090147 26.7252
34.09860253431845 26.6902
34.121890809074316 26.593000000000004
34.145362493118924 26.6347
34.16865368561615 26.5587
34.191946333164054 26.5378
34.21524043699793 26.5022
34.23871800066799 26.486
34.26201503218366 26.4035
34.28531352370466 26.3955
34.30861347646881 26.3092
34.33209693978188 26.3152
34.3553998301885 26.2964
34.378704185565205 26.0865
34.402010007152356 26.1599
34.42549939016683 26.1406
34.44880815937748 26.1147
34.472118398533134 26.0523
34.49543010887669 25.9869
34.51892543169198 25.973000000000003
34.54224009966052 25.9227
34.56555624255917 25.8646
34.58887386163339 25.7775
34.61237514439016 25.7212
34.6356957311114 25.6895
34.65901779775809 25.7055
34.68252356662995 25.6219
34.705848608458616 25.6148
34.72917513396849 25.5905
34.75250314440949 25.5884
34.77601490857862 25.519000000000002
34.799345904259795 25.4348
34.82267838863559 25.3675
34.846012362958525 25.3722
34.869530142679984 25.2919
34.89286711232212 25.2736
34.91620557568269 25.2571
34.93954553401677 25.2899
34.9630693495876 25.2122
34.986412313340814 25.2356
35.00975677584668 25.2276
35.033102738362956 25.154
35.05663261012228 25.0574
35.0799815881786 25.0446
35.10333207003229 25.0216
35.12668405694369 25.0217
35.150220005273056 25.0395
35.17357501786656 24.9428
35.19693153931268 24.8591
35.220289570874385 24.8121
35.24383161619786 24.7919
35.267192683604904 24.7712
35.290555264930376 24.8091
35.314101899412165 24.8525
35.33746752422433 24.7415
35.36083466676374 24.7013
35.38420332829803 24.6673
35.407756095629054 24.6789
35.43112781085063 24.6668
35.45450104888391 24.6314
35.477875810999194 24.615
35.50143473172161 24.6091
35.52481255774625 24.6226
35.54819191167777 24.5069
35.57157279478914 24.4659
35.595137889488406 24.348000000000003
35.61852184675279 24.4324
35.641907337029984 24.3459
35.665294361595684 24.2797
35.68886565090076 24.1614
35.7122557598848 24.1706
35.73564740699838 24.1382
35.759040593519934 24.2069
35.78261809810353 24.1476
35.80601437933051 24.0539
35.829412203814705 23.9852
35.85281157283719 23.89
35.876395313415884 23.9371
35.8997977874528 23.8529
35.92320180988546 23.8098
35.946790244133936 23.7441
35.97019737933222 23.785
35.993606066789866 23.8245
36.01701630779276 23.7327
36.04061101440684 23.6348
36.06402437852291 23.6667
36.08743930005611 23.686999999999998
36.1108557802951 23.4912
36.13445678011326 23.5881
36.15787639383515 23.5572
36.18129757014299 23.4659
36.20472031032821 23.403000000000002
36.22832762423364 23.3883
36.25175350829375 23.3485
36.275180960119776 23.2868
36.298609981005924 23.3466
36.32222362992669 23.3157
36.34565580510207 23.2835
36.36908955323448 23.2641
36.39252487562093 23.0859
36.416144880530226 23.0758
36.43958336764275 23.1186
36.463023432914625 23.1068
36.486465077645676 23.0396
36.51009145956204 23.096999999999998
36.53353627947859 23.0294
36.55698268276811 22.9727
36.58043067073321 22.8662
36.60406345072071 22.7925
36.62751462435344 22.8535
36.65096738658405 22.8794
36.67460498210655 22.8534
36.69806093788647 22.8021
36.72151848619297 22.6616
36.744977628333636 22.7
36.76862165890998 22.6184
36.79208400512205 22.595
36.81554794910557 22.5592
36.83901349217101 22.5221
36.862663978991606 22.4704
36.88613273667352 22.4194
36.90960309738324 22.4386
36.933075062434064 22.3191
36.95673202673572 22.3921
36.98020721697122 22.303
37.003684015502365 22.2518
37.027162423645365 22.2435
37.050825886711465 22.2646
37.07430753063053 22.1091
37.09779078812467 22.0985
37.121275660513014 22.1512
37.144945643673694 22.0842
37.16843376245278 22.069000000000003
37.19192350009803 22.0416
37.215414857931435 21.9567
37.239091382563885 21.9072
37.262585997426164 21.8891
37.28608223645736 21.8967
37.309763684451696 21.8431
37.33326318851098 21.7968
37.356764320726555 21.7362
37.380267082425526 21.7512
37.40395510942588 21.7478
37.42746114683234 21.6196
37.45096881771841 21.6064
37.474478123414166 21.5997
37.49817275092816 21.5735
37.52168534303452 21.5498
37.54519957395567 21.4496
37.568715445024665 21.4382
37.592416694607714 21.3685
37.61593586281424 21.4444
37.63945667518264 21.4373
37.66297913304891 21.2802
37.68668702630454 21.319000000000003
37.710212792059274 21.2024
37.733740207334854 21.1881
37.757269273470364 21.182
37.780983832050374 21.2752
37.80451621684926 21.2045
37.82805025654007 21.0419
37.851585952464795 21.0143
37.8753071980695 20.9527
37.89884622345676 20.9342
37.92238690911902 20.9238
37.94611318753442 20.8442
37.969657210779765 20.857
37.99320289834801 20.8854
38.016750251586465 20.8511
38.04048325513017 20.7948
38.06403395679343 20.7386
38.087586328183946 20.6852
38.11114037065203 20.6701
38.13488012115898 20.6026
38.1584375229181 20.5915
38.181996599821 20.5751
38.205557353221124 20.5447
38.229303872575656 20.5229
38.2528679961576 20.5021
38.27643380031219 20.4251
38.30000128639589 20.4158
38.32375459653193 20.4529
38.34732546371299 20.4463
38.37089801690786 20.294
38.39447225747609 20.2691
38.418232380377425 20.2369
38.441810012983396 20.2063
38.46538933705673 20.1242
38.488970353960084 20.1347
38.51273731166058 20.1215
38.536321731567014 20.0795
38.55990784840681 20.0455
38.58367995004091 20.043
38.60726947812959 19.954
38.63086070726198 19.9189
38.654453638806274 19.9492
38.678232613930824 19.9005
38.70182896773327 19.8328
38.72542702806741 19.776
38.7490267963045 19.7976
38.77281266709232 19.7005
38.79641586862214 19.7061
38.8200207821842 19.6412
38.843627409152944 19.6839
38.86742019782782 19.6559
38.891030269149255 19.5725
38.914642058016156 19.5975
38.938255565806124 19.5739
38.96205529464307 19.4909
38.98567225787121 19.4425
39.00929094417078 19.3821
39.03291135492255 19.4783
39.05671804624804 19.3941
39.080341923549106 19.4129
39.103967529460334 19.3782
39.127594865365744 19.3113
39.15140854155791 19.2429
39.17503935514948 19.2444
39.19867190290282 19.2478
39.22249083587951 19.133
39.24612686969409 19.1383
39.269764641845306 19.1142
39.293404153722804 19.1129
39.317230110864074 19.0515
39.34087311998506 19.016
39.36451787301696 19.0212
39.388164371352595 18.8742
39.41199737518003 18.8558
39.43564738196752 18.8674
39.45929913825317 18.8808
39.48295264543308 18.8635
39.506792718520884 18.8474
39.530449745387216 18.7245
39.55410852735203 18.7371
39.57776906581474 18.7152
39.60161623079 18.7269
39.625280300200025 18.7059
39.64894613032202 18.6475
39.67261372255866 18.6002
39.6964680021016 18.5891
39.72013913657293 18.5974
39.74381203738292 18.5218
39.76748670593756 18.5034
39.79134812278169 18.4326
39.81502634488497 18.4125
39.83870633896685 18.3597
39.862388106436654 18.4029
39.88625668336918 18.3235
39.90994201572829 18.3519
39.933629125719285 18.291
39.957503091207826 18.2273
39.9811937746168 18.3409
40.00488623990914 18.2222
40.02858048850006 18.1886
40.05246165409549 18.1077
40.076159487492085 18.0876
40.099859108448875 18.0855
40.123560518384345 18.0659
40.1474489070226 18.1435
40.171153913178564 17.9739
40.194860712584955 17.9705
40.2185693066637 17.9444
40.242464941335314 17.9294
40.26617714307655 17.9555
40.289891143772046 17.877
40.3136069448471 17.8522
40.33750984859743 17.8034
40.3612292688043 17.816
40.3849504936829 17.7515
40.40867352466194 17.7625
40.43258372059144 17.6921
40.45631038219906 17.6938
40.48003885420956 17.6335
40.503769138055105 17.6039
40.52768664931955 17.6208
40.55142057531802 17.5597
40.57515631746428 17.5429
40.599079334038514 17.5243
40.62281872700477 17.4142
40.64655994043941 17.377
40.67030297578061 17.4083
40.69423334835778 17.3372
40.71798004609188 17.3826
40.74172857006355 17.3454
40.76547892171441 17.2944
40.7894166736039 17.2898
40.813170699248566 17.2576
40.83692655691388 17.23
40.86068424804498 17.2451
40.884629402612525 17.2128
40.908390779366385 17.2031
40.932153993938 17.118
40.95591904777605 17.0724
40.979871628443995 17.0672
41.003640379561936 17.041
41.02741097430883 17.0122
41.05118341413683 16.9863
41.075143444384416 16.9307
41.098919593177826 16.9258
41.1226975914255 16.8759
41.14647744058318 16.8606
41.170444943946755 16.8016
41.19422851378379 16.7965
41.218013938914645 16.7577
41.24198706625173 16.7163
41.26577622087193 16.6735
41.289567235177785 16.7229
41.31336011063129 16.6848
41.337340752422875 16.6236
41.361137369129835 16.6178
41.38493585138705 16.5811
41.40873620066004 16.5583
41.43272438060107 16.5134
41.45652848292052 16.4682
41.48033445666918 16.4522
41.50414230331616 16.4566
41.528138045159764 16.4376
41.551949656675205 16.3958
41.575763145513235 16.3203
41.59957851314666 16.3004
41.62358184070442 16.2931
41.64740098505737 16.2254
41.6712220126409 16.2104
41.69504492493139 16.2101
41.71905586207357 16.2071
41.74288256296395 16.1914
41.766711153007456 16.176
41.79054163368412 16.1238
41.814560204340054 16.1396
41.838394485526365 16.0549
41.86223066180303 16.0807
41.88625497706819 16.0299
41.910094962812 15.9866
41.93393684811168 15.9228
41.95778063445365 15.8693
41.981812625263366 15.9422
42.00566023303407 15.8708
42.029509746323676 15.8371
42.05336116662236 15.7474
42.077400857069705 15.7708
42.10125611078846 15.7746
42.12511327600405 15.7128
42.14897235421036 15.69
42.173019768448455 15.7066
42.19688269209613 15.6532
42.22074753323349 15.6294
42.24461429335818 15.628
42.268669455600495 15.5461
42.292540073217886 15.5701
42.31641261433284 15.5241
42.34028708044675 15.4413
42.36435001496739 15.4436
42.38822835065557 15.4777
42.41210861586426 15.4091
42.4359908120986 15.4087
42.46006154323262 15.3584
42.48394762115317 15.3418
42.507835634632315 15.3087
42.531912233047436 15.2514
42.55580413732265 15.2272
42.579697981698 15.2564
42.60359376768525 15.1826
42.62767820545945 15.1602
42.65157789440821 15.1815
42.67547952952185 15.1404
42.699383112316 15.1674
42.72347541395347 15.0515
42.74738291190531 15.0634
42.771292362102166 15.0641
42.795203766063516 15.0317
42.819303956130405 14.9841
42.843219287476536 14.968
42.86713657716324 14.9116
42.89105582671383 14.9303
42.91516392983864 14.8758
42.939087119032166 14.8519
42.963012272677304 14.802999999999999
42.98693939230129 14.7486
43.01105543317513 14.7522
43.034986504731386 14.7928
43.05891954686589 14.7417
43.08285456110972 14.700999999999999
43.10697856448665 14.6832
43.130917542983475 14.6234
43.15485849820081 14.6644
43.17880143167367 14.5865
43.20293342237094 14.575999999999999
43.226880332449 14.554
43.25082922540554 14.5219
43.27496722682525 14.5143
43.29892010567796 14.4813
43.32287497204102 14.4496
43.34683182745632 14.408
43.370977859791836 14.3863
43.39493871351105 14.4347
43.41890156092628 14.3967
43.44286640358341 14.3286
43.46702049182749 14.331
43.49098934522816 14.2954
43.51496019852649 14.273
43.5389330532723 14.2449
43.56309522248204 14.1817
43.58707210044314 14.1893
43.61105098451946 14.1054
43.63503187626491 14.0977
43.659202151562134 14.1116
43.68318707902681 14.1189
43.70717401884041 14.0777
43.731162972560874 14.0437
43.75534137913236 14.0525
43.779334381108384 13.9802
43.803329401683186 13.9122
43.82732644241872 13.9511
43.8515130055166 13.9559
43.87551410707659 13.9117
43.89951723350145 13.921
43.923709934595614 13.8591
43.94771713129917 13.8326
43.97172635758096 13.7626
43.99573761501002 13.7665
44.0199385169922 13.7336
44.04395385732619 13.6994
44.067971233533086 13.6891
44.09199064718605 13.6482
44.11619977548961 13.6271
44.14022328470671 13.6045
44.16424883610785 13.6203
44.18827643127035 13.6117
44.21249381139513 13.5524
44.236525514814076 13.4813
44.26055926674478 13.5512
44.28459506876863 13.5214
44.3088207262813 13.4469
44.33286064928722 13.4745
44.35690262714919 13.4666
44.38094666145278 13.3497
44.4051806219871 13.3912
44.42922879003185 13.3093
44.45327901929361 13.3123
44.477331311362136 13.333
44.501573600619416 13.2529
44.525630039221795 13.2388
44.54968854541895 13.2729
44.573937102200176 13.1857
44.5979997645541 13.1635
44.622064499300315 13.1392
44.64613130803592 13.1526
44.67038823869318 13.1164
44.69445921643748 13.1145
44.718532272981385 13.0145
44.742607409926194 13.0655
44.76687274034801 13.0398
44.79095205918753 13.0013
44.81503346325094 12.982000000000001
44.839116954143876 12.9861
44.86339071028742 12.8807
44.88747839599524 12.9109
44.91156817336837 12.8946
44.93566004401666 12.8559
44.959942251908146 12.9004
44.984038330325966 12.8582
45.00813650686762 12.7833
45.03223678314731 12.7585
45.05652746888232 12.7602
45.08063196592069 12.7328
45.104738567558705 12.7087
45.128847275414856 12.6776
45.15314646515866 12.5997
45.17725940679741 12.6331
45.20137445952892 12.591
45.22568004865265 12.5548
45.24979934496396 12.5605
45.27392075725247 12.5436
45.29804428714431 12.5303
45.322358426247604 12.4913
45.346486212804315 12.4698
45.370616121861914 12.4597
45.39474815505086 12.4518
45.41907087049246 12.3882
45.4432071734666 12.3602
45.46734560548283 12.3743
45.49148616817604 12.3861
45.51581748638564 12.3369
45.5399623320197 12.3161
45.56410931325473 12.2918
45.58825843173002 12.2318
45.61259837920865 12.2312
45.636751793816 12.2493
45.66090735060093 12.2163
45.68506505120716 12.1842
45.7094136545275 12.1401
45.73357566449271 12.0911
45.75773982322992 12.1238
45.78190613238733 12.1269
45.806263418194064 12.0384
45.83043404997326 12.0471
45.85460683713677 12.0489
45.87897065658495 12.0406
45.90314777634752 11.9717
45.92732705646868 11.9414
45.9515084986045 11.9478
45.97588104735473 11.9353
46.00006683541565 11.8809
46.02425479047904 11.859000000000002
46.04844491420549 11.8033
46.0728262191024 11.8124
46.09702070211635 11.8391
46.12121735879483 11.7857
46.14541619080294 11.7781
46.169806278764455 11.7809
46.194009483459034 11.7538
46.21821486849841 11.7057
46.24242243555223 11.6943
46.266821333570014 11.6698
46.29103328674601 11.6528
46.31524742696538 11.6132
46.33946375590237 11.6028
46.36387149104216 11.6265
46.38809221957392 11.5737
46.41231514186606 11.5532
46.436540259597464 11.5124
46.460956858999374 11.4886
46.48518638983522 11.4528
46.509418121166966 11.4177
46.533652054678114 11.4213
46.55807754555709 11.3661
46.58231590571962 11.3647
46.60655647313217 11.3375
46.630988654873654 11.3123
46.655233659129024 11.3325
46.67948087571551 11.3183
46.70373030632484 11.3107
46.72817142736393 11.255999999999998
46.752425308428684 11.2042
46.77668140861147 11.2196
46.80093972960865 11.1564
46.82538981736788 11.1597
46.849652602470904 11.1478
46.87391761349769 11.1106
46.8981848521493 11.1156
46.9226439341274 11.0823
46.946915650573224 11.0223
46.97118959976749 11.0333
46.99546578341598 10.9838
47.019933887188216 10.982999999999999
47.04421456235744 11.0121
47.06849747711879 10.9677
47.09278263318286 10.9524
47.11725978640143 10.9247
47.14154944775105 10.901
47.165841355555656 10.8671
47.1901355115306 10.8442
47.214621741924994 10.8676
47.23892041698887 10.817
47.26322134538975 10.7919
47.28771440635075 10.812999999999999
47.31201986422527 10.7787
47.33632758061436 10.7765
47.360637557241866 10.7436
47.38513974410611 10.6929
47.40945426407847 10.6616
47.43377104948137 10.652999999999999
47.45809010204344 10.6262
47.48260144275502 10.6168
47.506925052572285 10.6053
47.53125093475548 10.5534
47.55557909103813 10.542
47.58009961361992 10.505999999999998
47.60443234110732 10.5248
47.62876734791564 10.4989
47.65310463578333 10.4863
47.6776343683373 10.4611
47.7019762413987 10.38
47.72632040075572 10.4117
47.75066684815169 10.4452
47.77520581885936 10.3742
47.799556865477655 10.3572
47.823910205386 10.3691
47.84826584033272 10.3871
47.87281407745551 10.2845
47.89717432569297 10.2685
47.92153687423484 10.3081
47.94609208429692 10.2817
47.97045925671401 10.2472
47.99482873471275 10.2267
48.01920052005013 10.1933
48.04376504619224 10.1655
48.068141469543484 10.2139
48.09252020552573 10.1394
48.11690125590099 10.1466
48.1414751266064 10.1377
48.16586082917454 10.0947
48.19024885144316 10.0556
48.2146391951793 10.042
48.239222439012764 10.0491
48.26361744916137 10.033
48.28801478610016 10.0516
48.31241445160131 10.0437
48.337007097209366 9.985610000000001
48.36141144338331 9.95545
48.38581812345755 9.90376
48.41022713920929 9.90853
48.434829215320704 9.889489999999999
48.45924292604658 9.88456
48.48365897780325 9.90724
48.50807737237308 9.82473
48.532688907799276 9.85951
48.55711201168574 9.82567
48.581537463754074 9.81298
48.60615611725119 9.834060000000001
48.63058628942721 9.79186
48.65501881516546 9.73772
48.6794536962573 9.70373
48.70408185970339 9.6959
48.72852147531801 9.69925
48.75296345168211 9.66559
48.77740779059232 9.6279
48.80204549302823 9.68228
48.82649458091802 9.63546
48.85094603676547 9.58388
48.87539986237231 9.57017
48.90004713292306 9.572230000000001
48.92450572200832 9.57765
48.94896668628025 9.51211
48.97343002754588 9.52182
48.99808689542115 9.49089
49.02255501470614 9.47141
49.04702551642794 9.46128
49.0714984023988 9.46857
49.096164896893235 9.3838
49.120642575466796 9.37987
49.145122643748394 9.400030000000001
49.16960510355558 9.37571
49.19428125404938 9.3399
49.2187685210852 9.33802
49.243258185121555 9.33977
49.26794160167084 9.30129
49.2924360839405 9.2994
49.31693296869764 9.2758
49.34143225776915 9.23329
49.36612538195438 9.22354
49.39062950396021 9.21274
49.41513603578346 9.18754
49.4396449792564 9.171710000000001
49.46434784069503 9.128589999999999
49.488861631846454 9.11665
49.513377840166804 9.10859
49.537896467493745 9.09378
49.56260909589029 9.079419999999999
49.587132585683285 9.0617
49.611658500018365 9.01497
49.636186840738596 9.01159
49.66090926588511 9.06103
49.685442483902584 9.01346
49.70997813385706 8.97932
49.734516217597076 8.92747
49.75924846937352 8.930539999999999
49.7837914452858 8.90831
49.80833686055187 8.876719999999999
49.83288471702571 8.89016
49.85762682540054 8.87531
49.882179588965734 8.86525
49.9067347993235 8.81752
49.93129245833333 8.79013
49.95604445336378 8.817260000000001
49.98060703442832 8.76719
50.005172069746266 8.74496
50.02993150438364 8.73649
50.05450147301533 8.76934
50.07907390151433 8.71712
50.10364879174981 8.69492
50.12841816587289 8.66806
50.1529980044635 8.7006
50.17758031042124 8.6505
50.20216508562089 8.59633
50.22694442953363 8.62598
50.25153416817468 8.59175
50.27612638170508 8.576260000000001
50.300721072005196 8.52425
50.325510416102105 8.54415
50.350110084975064 8.518839999999999
50.37471223628208 8.53324
50.39931687190919 8.51487
50.424116246675766 8.4809
50.44872587605249 8.47579
50.47333799543065 8.45445
50.49795260670191 8.4245
50.52276204271512 8.44859
50.54738166295838 8.4221
50.57200378079314 8.38485
50.596628398116835 8.36198
50.62144792604559 8.32678
50.646077567609396 8.36021
50.670709714377715 8.3342
50.69553683636198 8.27031
50.72017401885922 8.2616
50.7448137122895 8.27764
50.76945591856022 8.244010000000001
50.79429318636823 8.24355
50.818940443716784 8.24006
50.84359021965163 8.197239999999999
50.868242516085964 8.224969999999999
50.893089960641895 8.17887
50.917747323549435 8.11974
50.94240721271973 8.13739
50.96706963007175 8.14907
50.99192728239342 8.12837
51.01659478166073 8.08816
51.04126481489051 8.11471
51.06593738400761 8.07516
51.090805275207074 8.04252
51.11548294172845 8.0343
51.14016314993547 8.0093
51.164845901758845 8.02396
51.18972406304274 7.9844800000000005
51.21441192780656 7.956169999999999
51.23910234200271 7.9631300000000005
51.2637953075678 7.91219
51.288683770237945 7.9347
51.31338186432707 7.92099
51.33808251561888 7.88403
51.362978729967345 7.895169999999999
51.387684521509755 7.86678
51.41239287610203 7.856789999999999
51.437103795691165 7.841660000000001
51.46201036644977 7.80247
51.486726441956634 7.76768
51.51144508832545 7.770739999999999
51.536166307509156 7.73315
51.56108326624387 7.73238
51.58580965706056 7.72185
51.61053862657523 7.722010000000001
51.635270176746864 7.6646600000000005
51.66019755512065 7.661160000000001
51.68493429268881 7.655889999999999
51.70967361681515 7.64432
51.73441552946465 7.64106
51.759353359237934 7.611460000000001
51.7841004750961 7.64277
51.80885018539685 7.60106
51.833602492111254 7.57595
51.8585508051424 7.52778
51.883308330926425 7.52515
51.90806845906181 7.5195
51.932831191525715 7.50259
51.95779001977161 7.47835
51.98255798721516 7.445810000000001
52.00732856494335 7.4324
52.03229530577543 7.43106
52.057071130455945 7.40765
52.081849571391054 7.4172899999999995
52.106630630568695 7.3996699999999995
52.13160794279417 7.36855
52.15639426492067 7.351710000000001
52.18118321127822 7.35664
52.205974783860896 7.333589999999999
52.23096269971011 7.32375
52.255759551287994 7.3025899999999995
52.280559035098186 7.25325
52.30536115314103 7.27203
52.33035970494467 7.26167
52.35516711807904 7.26503
52.37997717147198 7.25855
52.40478986713005 7.2472
52.42979908731974 7.22709
52.454617094216 7.1602
52.47943774942214 7.15072
52.50426105495102 7.121689999999999
52.529280976059844 7.12317
52.554109609024096 7.1185
52.57894089837482 7.104889999999999
52.60377484613117 7.124439999999999
52.62880550079408 7.1062
52.65364479223379 7.070410000000001
52.67848674816189 7.03563
52.70352547971946 7.0562
52.72837279155837 6.986439999999999
52.753222773982785 6.97728
52.778075429022984 6.984360000000001
52.80312495150885 6.9589300000000005
52.827982978797436 6.96299
52.85284368481815 6.93112
52.87770707160767 6.933560000000001
52.90276741793998 6.948689999999999
52.92763619336701 6.8730199999999995
52.952507655698504 6.85412
52.977381806977576 6.9035
53.00245301017842 6.8875399999999996
53.02733256653592 6.914680000000001
53.052214817996074 6.87777
53.077099766608484 6.81349
53.102181859804446 6.780289999999999
53.127072229988265 6.831060000000001
53.15196530349892 6.7729
53.17686108239249 6.769080000000001
53.20195409881522 6.6999
53.22685531582556 6.72146
53.25175924441303 6.701289999999999
53.27666588664027 6.72779
53.30176985962693 6.667860000000001
53.3266819565689 6.681260000000001
53.35159677336455 6.659610000000001
53.376514312083096 6.680560000000001
53.40162927507703 6.6565199999999995
53.42655228516116 6.63894
53.45147802340193 6.56727
53.47660125628886 6.56797
53.50153247842639 6.56843
53.52646643496923 6.56578
53.55140312799818 6.57441
53.576537409691696 6.54673
53.60147960336152 6.576230000000001
53.626424539786164 6.553939999999999
53.65137222105307 6.49198
53.67651758529126 6.47445
53.70147078399681 6.47281
53.72642673383343 6.421469999999999
53.75138543689533 6.46264
53.776541917524526 6.4387099999999995
53.801506154876755 6.3952800000000005
53.826473151763246 6.39332
53.851442910284916 6.35674
53.87661054126026 6.318219999999999
53.9015858509782 6.37122
53.92656392866066 6.32445
53.95154477641532 6.331980000000001
53.976723591801296 6.3398900000000005
54.00171000771266 6.2788
54.02669920004598 6.25598
54.051691170915745 6.284680000000001
54.076881204886796 6.2750900000000005
54.101878760928514 6.2702800000000005
54.12687910187696 6.23343
54.152077577768296 6.19939
54.1770835166946 6.1893400000000005
54.20209224691339 6.2021
54.22710377055121 6.1601300000000005
54.25231352511594 6.167669999999999
54.27733066384342 6.13754
54.30235060239643 6.130269999999999
54.32737334290836 6.09077
54.35259441062629 6.08183
54.377622783395324 6.06799
54.40265396455061 6.04941
54.42768795623251 6.02758
54.45292037169559 6.01179
54.477960012857906 5.9481
54.50300247099511 5.97865
54.52804774825457 5.96017
54.55329154616743 5.91549
54.57834249018678 5.89869
54.6033962597977 5.91145
54.6284528571545 5.90106
54.653708072335164 5.85058
54.67877035378786 5.81616
54.70383546947698 5.8177
54.72890342156389 5.76894
54.7541700889442 5.77148
54.77924374251975 5.75701
54.8043202390049 5.77626
54.82959552413022 5.67836
54.8546777351945 5.6673800000000005
54.87976279569621 5.653519999999999
54.90485070780914 5.66094
54.930137506558005 5.62603
54.95523115074295 5.62134
54.98032765308844 5.58446
55.005427015775496 5.60193
55.03072536339621 5.58587
55.05583047570572 5.50307
55.080938454927676 5.47095
55.10604930325027 5.48252
55.131359235107396 5.48548
55.15647585066083 5.44271
55.181595341907496 5.42819
55.20671771104285 5.34293
55.232039262617704 5.32903
55.25716741665048 5.36615
55.28229845518636 5.380240000000001
55.30743238042802 5.28514
55.33276558731939 5.3217099999999995
55.357905315183636 5.27905
55.383047936390035 5.2148
55.40819345314859 5.21105
55.433538351073295 5.1915
55.458689688238415 5.18927
55.483843927614096 5.11538
55.509197623043605 5.08315
55.53435769621134 5.06671
55.55952067826466 5.06481
55.5846865714265 5.11001
55.61005202069737 5.061319999999999
55.63522376553902 5.08053
55.66039842818645 5.06912
55.68557601087004 4.99311
55.7109532500271 4.90949
55.73613670233794 4.96298
