TT I
1.2716486653135266 7.66335
1.2939594142134223 7.53193
1.3162702121660406 6.66565
1.3385810600174564 6.943739999999999
1.3608919586137629 6.89835
1.383202908801069 6.938839999999999
1.405513911425503 5.7394099999999995
1.4278249673332093 6.54689
1.4501343378461518 6.34026
1.4724455028545926 6.323869999999999
1.4947567236847858 6.94445
1.517068001182951 7.0215
1.5393793361953272 6.3326400000000005
1.5616907295681737 6.4581
1.5840021821477681 5.96433
1.60631369478041 5.87946
1.6286252683124185 6.581410000000001
1.6509369035901333 5.42207
1.6732468618895553 5.99659
1.695558623192809 5.32443
1.7178704487808514 5.767919999999999
1.7401823395001077 5.8750599999999995
1.7625012545597203 5.77356
1.7848028405262486 5.35784
1.8071218901122095 5.04371
1.8294236121921872 5.3154900000000005
1.8517427996910911 5.40751
1.8740620574440425 5.3545
1.8963639900671978 5.21544
1.9186833908139995 5.39203
1.9409854680117449 5.22129
1.9633050151394713 5.19644
1.9856246367570705 5.150980000000001
2.0079269371922672 5.52725
2.03024671027244 4.66608
2.0525491637446027 3.9773
2.074869091674931 4.39859
2.097171701569106 5.1886
2.1194917877373847 4.8959
2.141811954326636 5.1731
2.164114805233074 4.5129
2.186435135143035 4.4119
2.208738150935709 4.8241
2.231058647554722 4.3707
2.2533792288321184 4.0690800000000005
2.275682498336085 4.54624
2.298003251406138 4.6551800000000005
2.3203066942619714 4.57019
2.3426276225136022 4.65806
2.3649486396617507 4.853330000000001
2.387252348930071 4.71625
2.4095735463442893 3.94971
2.4318774374315884 4.09379
2.4541988185014043 4.68889
2.476502894794693 5.14159
2.498824462909887 4.72698
2.521146125856138 4.46773
2.5434504863470337 4.76794
2.5657723414244717 5.14142
2.588076895590662 5.94039
2.610398946189713 5.72558
2.6327210958598384 5.21129
2.6550259469304716 6.08121
2.6773482972090137 5.9746
2.6996533504259 6.44649
2.7219759047039602 6.2663199999999994
2.744298562293959 6.53584
2.7666039251246595 6.669919999999999
2.7889267918020164 6.95758
2.8112323652516555 7.2858600000000004
2.833555444408179 7.73111
2.8558786311183852 6.96232
2.8781845268938557 7.529260000000001
2.9005079311721484 8.11037
2.9228140460410397 8.77613
2.9451376712799635 8.4655
2.967444008632326 9.4259
2.9897678582247247 9.55299
3.0120918213106695 10.1516
3.0343984987899373 10.6256
3.0567226913198637 11.4326
3.079029599759726 11.304
3.101354025127254 11.7875
3.123678568232338 12.5677
3.145985829517914 12.8559
3.16831061055229 13.5218
3.1906181112775593 14.4262
3.212943133635653 14.8714
3.2352682779763207 15.3027
3.2575761442691227 15.6542
3.2799015350264273 15.6394
3.302209649240067 16.2562
3.3245352898092655 16.8214
3.3468436553365257 17.5836
3.369169549113219 17.8163
3.3914955708171384 18.4346
3.413804319727358 19.3678
3.4361305997334863 19.3621
3.4584396084414553 19.9209
3.4807661501462652 20.2977
3.503092824025881 20.9619
3.5254022288463154 21.3079
3.5477291695206588 21.6925
3.5700388426251948 21.622
3.5923660534916446 22.5802
3.6146934007816114 22.7988
3.637003482731501 23.1939
3.6593311053109985 23.6443
3.681641464033634 23.9303
3.7039693653009733 24.3884
3.726297407241705 25.1556
3.7486081875460804 25.1518
3.7709365132734978 25.8029
3.793247578841633 26.7508
3.8155761917550093 27.1517
3.8378875459837216 27.3492
3.8602164494827234 27.7563
3.882545499606844 28.644000000000002
3.9048572932539183 29.0295
3.9271866390645718 29.3632
3.9494987298666713 30.3613
3.971828374764527 30.476
3.9941581705403255 31.1246
4.016470713506008 31.6169
4.038800813471445 32.3187
4.061113662089144 33.2048
4.0834440696459176 33.9037
4.105774632334751 34.282
4.128087945865126 34.783
4.150418821249301 35.7216
4.172732448931298 36.6866
4.195063640413578 37.4793
4.2173775856475215 38.4656
4.239709096631102 38.713
4.262040768704612 39.4889
4.284355196706267 40.3256
4.306687193387355 40.6508
4.329001947444346 42.2077
4.35133427213731 43.0587
4.373666762177566 43.8679
4.395982011761091 44.5603
4.418314834921175 45.6989
4.44063041906622 46.6535
4.4629635787515625 47.5923
4.4852969080429785 48.7566
4.5076130004776225 50.0062
4.529946671403969 51.7183
4.552263106909177 53.0956
4.574597122877047 53.7483
4.596931312711224 55.1161
4.619248269273446 56.0093
4.6415828092605835 57.1098
4.663900117405352 58.2085
4.686235010953232 59.7518
4.708552674085913 61.4778
4.730887924602802 63.34
4.753223354952695 64.9478
4.775541557023902 66.7569
4.797877349456786 68.5204
4.820195915032126 70.569
4.842532072957498 71.9427
4.864868414979744 74.4787
4.88718753227192 77.1524
4.909524244902505 79.5989
4.931843734218147 81.3739
4.954180820867835 85.1367
4.976518095879839 88.6981
4.998838149695359 92.6076
5.021175803844231 97.4393
5.043496238205739 102.005
5.065834274903528 108.012
5.088172504230693 115.895
5.1104935158799565 125.059
5.132832132875765 141.708
5.155153533596801 170.35299999999998
5.1774925416746225 284.957
5.199814334878411 893.4830000000001
5.2221537374521505 2241.95
5.244493338631803 3966.08
5.266815727034316 6641.48
5.289155727832427 10578.0
5.311478517248165 9406.67
5.333818921080011 4347.38
5.356159527788849 1031.3
5.3784829252032536 279.931
5.400823940070432 185.708
5.423147747031976 155.35399999999998
5.445489173474152 138.506
5.467830807066149 129.907
5.490155234831516 124.41
5.512497285125229 118.292
5.534822130975162 115.77600000000001
5.557164601388673 112.887
5.579489868738879 109.14200000000001
5.601832762690846 107.706
5.6241758697774475 106.544
5.646501775867269 105.51899999999999
5.668845311622074 104.804
5.691171647754637 104.03299999999999
5.713515615597765 102.581
5.735859800852677 101.46799999999999
5.758186788542988 101.167
5.780531411018185 102.427
5.802858837297399 102.00200000000001
5.825203900414495 102.27600000000001
5.8475491852224 103.993
5.869877275883075 105.29
5.892223006467101 107.73
5.914551544266608 111.44200000000001
5.936897724049891 118.365
5.959244129804903 134.47
5.981573344815301 197.24400000000003
6.0039202049061 446.19699999999995
6.026249875609095 910.779
6.04859719346037 1428.3
6.070927323278297 2201.78
6.093275102315365 3596.49
6.115623113320588 4587.12
6.137953938319995 3813.41
6.160302415650845 1492.11
6.182633708324452 386.284
6.2049826554078376 153.285
6.227331838745022 111.705
6.249663839443684 97.6354
6.27201349767565 89.9118
6.294345974611799 85.5634
6.316696111167083 81.5839
6.339046488263839 79.1704
6.361379686074702 76.5737
6.383730546639482 75.0054
6.406064229255215 73.2288
6.428415576718203 72.5227
6.450749747566656 71.0282
6.47310158535871 70.0077
6.495453669698332 68.8887
6.517788579421056 67.77600000000001
6.540141159237969 67.1215
6.562476565766648 66.0056
6.5848296444934045 65.5569
6.607182974060425 64.6432
6.6295191323281015 64.2769
6.651872965955752 63.6219
6.6742096296068985 62.5485
6.6965639707294615 62.2809
6.71891856698715 61.7689
6.741255995248479 61.1185
6.763611104154477 60.8908
6.785949046381137 60.653999999999996
6.808304671371482 60.0309
6.8306605557940046 60.2914
6.852999275508618 59.7207
6.875355681171544 59.1804
6.897694923437771 58.5416
6.92005185377892 58.2394
6.9423916220322655 58.3972
6.964749080490181 57.8419
6.987106804399774 57.6131
7.009447368180821 57.5098
7.031805625367033 57.5026
7.054146723727803 57.272
7.076505517631004 56.9559
7.098864581288365 57.0912
7.121206488070854 56.8533
7.143566093607822 56.5674
7.165908543567245 56.3833
7.188268694426048 56.3331
7.2106291193438095 55.9871
7.232972390625943 55.9973
7.255333366030969 55.6024
7.277677189091925 55.6372
7.300038718428332 56.0629
7.322400526130865 55.9007
7.344745183422596 56.1299
7.367107550224791 56.2705
7.389452767901992 56.158
7.411815697249891 56.3215
7.434161478756298 55.7817
7.456524974096713 55.4298
7.478888753837185 55.7197
7.501235387657368 56.3945
7.523599738562711 56.782
7.545946944825532 57.1143
7.568311870344528 57.3959
7.5906770845765665 57.381
7.613025156078678 57.4203
7.635390950099687 57.738
7.657739602662809 57.61600000000001
7.680105979923558 57.5363
7.702472650212829 58.0464
7.724822180948224 58.3907
7.747189439655568 58.5859
7.769539560075357 58.5632
7.791907410653562 59.1834
7.81425812420825 58.8295
7.836626570110925 59.3505
7.858995315087906 60.0311
7.881346924933401 60.2448
7.903716270417482 61.0058
7.926068482028405 61.2053
7.948438431475253 61.9202
7.9708086843180235 63.0588
7.993161805171116 63.5325
8.015532667162402 64.2766
8.037886398416653 65.1808
8.060257873014221 65.8124
8.082629655331942 66.0848
8.104984308787587 66.8031
8.127356708900503 67.8083
8.149711981398308 69.2386
8.172085002766314 70.1584
8.194458336181368 70.8054
8.216814543847752 71.903
8.23918850371002 73.2126
8.26154533906492 74.5946
8.283919928836452 76.4567
8.306277395339652 77.6817
8.328652618483376 79.3619
8.351028159736202 82.0331
8.373386579575245 84.7066
8.395762759396959 87.2786
8.418121819038275 91.2695
8.440498640894003 96.9719
8.462875785192262 110.98700000000001
8.485235811156207 161.122
8.507613602688501 291.855
8.529974277114228 459.496
8.552352719347912 594.661
8.574731488360351 756.265
8.59709314210385 1053.64
8.619472567021075 1508.01
8.64183487789147 1959.79
8.664214962183097 1950.95
8.686577933647762 1260.71
8.708958680784317 547.882
8.731339760774953 229.74900000000002
8.753703729764451 134.011
8.77608547780821 111.755
8.798450116065078 105.178
8.820832535634787 100.539
8.843215292401656 98.6295
8.865580941199045 96.4219
8.887964374703538 94.8476
8.910330701447199 93.8481
8.932714815164482 92.6349
8.955099270424924 91.1748
8.977466620733543 90.2323
8.999851761421976 90.089
9.022219798361645 89.0775
9.04460562795561 88.7546
9.066991803441677 88.309
9.089360876979615 88.3508
9.111747746589993 87.5633
9.13411751544971 87.4951
9.156505082664324 87.0989
9.178875550323522 86.8693
9.20126381862328 86.7517
9.223652438908596 87.2119
9.246023961427412 87.7488
9.26841328802173 87.9181
9.290785518039224 87.6942
9.313175554425882 88.2781
9.335565947154315 88.1931
9.357939245086508 88.4734
9.380330352834827 88.0862
9.40270436697103 88.5186
9.425096193225055 88.2041
9.447488380180165 89.1562
9.469863475295412 89.59299999999999
9.492256385987508 90.1334
9.514632206018318 90.9532
9.537025843935714 90.7925
9.559402392368193 91.4934
9.581796761000229 92.9534
9.604191496441521 93.55799999999999
9.626569144158516 94.2354
9.648964615551032 95.0907
9.671343000390081 95.9262
9.693739211225699 96.8154
9.716135793237463 98.2963
9.738515290448102 99.3573
9.760912617143402 100.744
9.783292860202891 101.88799999999999
9.805690935076182 103.959
9.828089385495742 104.61200000000001
9.850470754023561 106.771
9.872869957865444 109.32799999999999
9.89525208097539 112.889
9.917652041736662 118.566
9.940052382417589 135.297
9.962435644102392 196.718
9.984836746950979 304.666
10.007220771957746 425.51300000000003
10.029622640473708 526.246
10.052007432299963 635.6990000000001
10.074410069984072 797.5
10.096813093716005 1056.56
10.119199042482517 1432.03
10.141602840636468 1778.39
10.163989564971628 1729.28
10.186394141051062 1174.93
10.208799107559706 575.5319999999999
10.231187001965623 261.643
10.253592751657669 151.43200000000002
10.275981430388155 125.417
10.298387966769793 118.495
10.320794897965431 115.61399999999999
10.343184759907361 113.36
10.36559248305461 111.94200000000001
10.387983138083852 115.125
10.410391656691655 130.615
10.432800574501677 159.714
10.455192425893369 190.176
10.47760214443012 214.361
10.499994797678786 238.75400000000002
10.522405320453982 280.286
10.54479877906917 347.935
10.567210109595656 435.671
10.5896218454736 530.641
10.612016518879773 530.93
10.634429067781074 430.952
10.656824555333241 266.26599999999996
10.679237920773568 154.622
10.701651695961992 108.736
10.724048411481384 96.689
10.746463008485165 92.8889
10.768860546937125 90.834
10.791275969274796 88.3934
10.81369180576079 86.8955
10.836090585366925 85.6373
10.858507252467449 84.4768
10.88090686379991 83.6416
10.903324365036394 82.3293
10.925724811614439 81.0816
10.948143150509463 80.817
10.970561909719066 79.684
10.992963615930844 78.8015
11.015383218085756 77.9414
11.037785768347074 76.9971
11.06020621697282 76.4816
11.082627090322113 75.6218
11.105030913430326 75.0924
11.12745263854165 74.4409
11.149857314510728 73.2442
11.172279894912576 73.6435
11.194702904450653 72.5886
11.217108866490921 71.7702
11.239532736615194 71.6096
11.26193956033512 71.4216
11.284364294577085 70.9052
11.306789462371718 70.2899
11.329197585398376 69.9519
11.351623622610898 70.0212
11.37403261614354 69.0097
11.396459526308487 69.2546
11.418869393879497 68.9303
11.441297180532617 68.5533
11.463725406927658 68.01899999999999
11.486136592353875 67.8408
11.508565700543707 67.3345
11.530977768845315 67.368
11.553407762368774 66.796
11.575838200059769 66.5635
11.598251599479612 66.6175
11.620682927815501 66.5181
11.64309721895548 66.5841
11.665529441478206 66.183
11.687962112597958 65.9059
11.710377748130886 65.8459
11.732811318753434 65.9905
11.755227854859067 65.7333
11.777662328529495 65.7403
11.800079768750786 65.5093
11.822515149015453 65.3885
11.844950984084935 65.8835
11.867369787303163 65.5681
11.889806534289491 65.6937
11.912226250487029 66.204
11.934663912939751 66.4368
11.9571020346363 66.6791
11.979523127133968 66.9261
12.001962169624331 68.7649
12.024384183972964 72.779
12.046824150809913 80.2145
12.069264581333726 88.9922
12.091687985297767 95.5287
12.11412934550045 101.0
12.136553680195208 108.75399999999999
12.158995973632788 121.568
12.181438735204349 138.725
12.20386447284199 163.275
12.226308172985636 189.513
12.24873485024193 203.028
12.271179492516982 186.179
12.293607112949127 147.726
12.316052700916226 106.07600000000001
12.338498763250042 81.0694
12.360927805303868 70.8758
12.383374818673879 68.3421
12.405804812803074 67.6134
12.428252780773262 67.4977
12.45070122756722 67.3031
12.473132656675375 67.3628
12.49558206341869 67.4855
12.518014453510101 67.6107
12.540464823770117 67.4526
12.562915677315177 67.8613
12.58534951575545 68.2142
12.607801338171472 68.0184
12.630236146511358 68.4948
12.652688941369085 68.7629
12.675124723177234 68.9908
12.697578494048786 69.7128
12.720032754458185 69.9742
12.742470003354093 70.4641
12.764925245138771 70.7665
12.787363476431278 71.7475
12.809819703166806 71.9132
12.83227642391173 72.7469
12.854716135692716 73.2907
12.877173846755147 74.6254
12.899614549869717 74.7992
12.9220732548287 75.9307
12.94453245827299 76.4339
12.966974655289818 77.9002
12.989434858002571 78.712
13.011878055298721 79.7957
13.034339260862497 80.8989
13.056800969391883 82.7587
13.079245674017244 86.3645
13.101708390774869 93.4402
13.12415410463411 110.48
13.146617833206086 132.155
13.169064559883248 149.269
13.191529303857127 162.249
13.213994557076367 175.347
13.236442809902437 195.84799999999998
13.258909083908291 226.493
13.28135835851934 264.048
13.30382565690295 315.28700000000003
13.326293469022952 377.656
13.348744283242008 418.06199999999995
13.371213125129904 392.30699999999996
13.39366497011003 316.857
13.416134845360597 217.40900000000002
13.438605238843131 151.775
13.46105863690397 130.576
13.483530069144786 134.991
13.505984506951902 145.11
13.528456981549432 155.362
13.550929978879088 162.602
13.573385983253365 174.268
13.595860028340867 194.468
13.618317081455832 223.36599999999999
13.64079217790333 259.617
13.663250283359057 306.732
13.685726434770173 348.691
13.708203115221277 358.25300000000004
13.730662806148091 308.131
13.75314054697177 232.601
13.775601299246777 161.66899999999998
13.798080104050406 114.152
13.820559442405358 93.8729
13.843021793671388 87.6298
13.865502201420897 85.4001
13.887965623051947 84.5824
13.910447103807167 83.3819
13.932929122629764 81.691
13.955394156785959 81.1659
13.977877254034569 80.335
14.000343367582113 79.5304
14.022827546871707 78.8348
14.045294743423524 77.8445
14.06778000837062 77.3524
14.090265817715476 76.9227
14.112734645763819 76.2376
14.13522154619454 75.8444
14.157691466286913 75.7618
14.180179461423874 75.4537
14.202668005486178 75.0564
14.22513957064374 74.6086
14.247629214846473 74.2694
14.270101881097517 73.9388
14.29259262906496 73.806
14.315083930490205 73.7451
14.337558255389705 73.4337
14.360050666019726 73.3921
14.382526101071944 73.2276
14.405019624534942 73.0707
14.427513705993134 72.7163
14.449990813291825 72.7812
14.47248601302899 72.7343
14.49496423954951 72.7887
14.517460561197822 72.8461
14.539939910570322 72.5092
14.562437357763558 72.8613
14.58493536931253 73.2423
14.607416409993311 73.0377
14.62991555254159 73.4373
14.652397725157423 73.8524
14.674898002342799 74.1517
14.697398848433282 74.5758
14.719882725991326 76.4878
14.74238471217934 81.0105
14.764869730765593 88.9798
14.787372860692983 96.215
14.809876564079925 102.86200000000001
14.83236330125751 107.49600000000001
14.854868153850365 111.955
14.877356041159485 119.697
14.899862046604186 129.611
14.922351087688757 143.44799999999998
14.944858249632887 161.235
14.967365991421232 184.92700000000002
14.989856770231246 206.78099999999998
15.012365673994204 222.171
15.03485761569738 209.703
15.05736768508665 176.43
15.07987833888692 136.187
15.102372032001655 104.772
15.124883856909658 85.4988
15.14737872204565 77.8116
15.169891721717274 74.7757
15.192405310371893 74.1317
15.214901940621196 73.4008
15.237416709527137 72.5952
15.259914520936249 72.3523
15.282430473753607 71.7633
15.304947020131227 71.0919
15.327446610371178 70.7703
15.349964346154254 70.3185
15.372465126703139 70.3895
15.394984055556009 70.0748
15.417486030076159 70.1919
15.44000615566487 69.6827
15.462526881230803 69.672
15.485030653812652 69.5655
15.507552581617434 69.2541
15.530057557334603 69.3156
15.55258069104857 69.6838
15.575104429329837 69.8999
15.597611216864632 70.1128
15.620136166564563 71.3284
15.6426441664095 74.8499
15.665170331202765 80.7702
15.687697105158826 86.9533
15.710206930593545 92.1333
15.732734925158933 95.7571
15.755245972089478 99.0188
15.77777519094324 103.654
15.800287463046663 111.14399999999999
15.822817909869592 121.649
15.84534897229804 134.232
15.867863089299354 151.414
15.890395385222186 170.455
15.912910736597423 188.283
15.935444269699861 193.57299999999998
15.957978423016485 178.667
15.980495633101265 148.734
16.003031029129367 115.73700000000001
16.02554948280019 88.4424
16.048086125229432 74.183
16.070623392487107 68.5428
16.09314371869582 66.1074
16.11568223789321 64.9224
16.13820381691126 64.161
16.160743591742527 63.6526
16.183283996022084 63.1888
16.205807461423195 62.3565
16.228349126881973 61.9134
16.25087385432698 61.7599
16.27341678466365 61.1472
16.29594277784926 60.781000000000006
16.31848697676433 60.2397
16.341031811604868 59.7129
16.36355971058487 59.8093
16.3861058195587 59.5486
16.40863499352978 58.9399
16.431182380342005 58.8543
16.453730407713202 58.8015
16.476261501364792 58.5876
16.498810812136167 58.1314
16.52134319004079 58.3322
16.54389378792203 58.1424
16.566445031001553 57.8446
16.588979342490088 57.8868
16.61153187824822 57.7603
16.634067483263312 57.4445
16.656621315414416 57.5806
16.679175797408888 57.2619
16.701713349928728 57.2978
16.72426913389191 57.6037
16.74680798922351 57.5352
16.76936507887444 57.3694
16.791905240734874 57.5011
16.814463639794468 57.3598
16.837022695210294 57.4954
16.859564824093756 57.4084
16.882125194503903 57.63399999999999
16.904668639217885 57.7727
16.927230328348003 57.5869
16.949792678493612 57.8626
16.972338104193863 57.9602
16.994901778652235 57.908
17.017448529496576 58.4718
17.040013531998152 59.4322
17.06257920018044 60.7168
17.0851279459922 62.0725
17.107694947817667 63.2575
17.130245028099072 63.9204
17.15281336730298 64.8687
17.17536478578733 65.8075
17.19793446610687 67.2469
17.220504818648422 69.0142
17.243058251703697 70.7386
17.265629950971032 73.7047
17.288184731571736 77.3142
17.310757781306908 81.5325
17.33333150794385 84.3227
17.355888317140174 85.4321
17.37846339986244 83.2101
17.401021565958885 78.0067
17.42359800851343 71.9948
17.44617513265564 67.2264
17.468735341390783 64.1844
17.491261035594565 62.7642
17.51396340099364 62.0721
17.536490463869136 62.3251
17.559018209820174 62.3101
17.58154663977963 62.3752
17.604251766089718 62.5527
17.626781572227713 62.7304
17.64931206518155 62.8676
17.671843245885103 63.1536
17.69455114821572 63.3374
17.717083712612634 63.8315
17.739616967569667 64.2457
17.762150914021706 64.9812
17.78486160749854 65.252
17.807396945166804 66.4646
17.829932977143503 68.7825
17.85246970436452 72.4486
17.875183204129467 75.5705
17.897721330097664 78.8021
17.920260154126645 81.1405
17.942799677153296 83.0643
17.9655159983646 84.9621
17.988056927677544 88.1629
18.010598558807683 92.6852
18.033140892692916 98.6096
18.05586005052525 105.272
18.07840379824407 114.17
18.10094825154059 125.475
18.12366954819864 137.648
18.146215420998306 145.941
18.16876200220057 145.65200000000002
18.191309292745153 135.797
18.214033452627167 120.87799999999999
18.236582170236648 105.22200000000001
18.259131600016456 94.3599
18.281681742907335 89.8372
18.304408781233683 90.1611
18.32696035875955 92.5309
18.349512652227624 96.4889
18.372065662579683 102.09100000000001
18.394795594587553 105.84100000000001
18.41735004715306 106.884
18.43990521943684 103.214
18.46246111238171 95.2148
18.485193953325208 84.7703
18.507751296070428 76.2407
18.530309362314178 70.9173
18.552868153000343 67.6015
18.57560391815056 65.7941
18.59816416623245 65.4675
18.620725141597372 64.7411
18.643286845190268 64.0291
18.666025549835414 63.7065
18.688588718427933 63.0296
18.711152618092243 62.8375
18.73389353884365 62.6551
18.75645890921984 62.1495
18.77902501351406 61.7849
18.801591852673102 61.7957
18.824335739722738 61.1745
18.846904057212626 61.1993
18.8694731124168 60.8486
18.89204290628315 60.887
18.914789774966803 60.6249
18.937361054791623 60.3999
18.959933076131318 59.9632
18.982505839934877 60.0683
19.00525570560582 59.9252
19.027829963004184 59.7998
19.05040496572238 60.0959
19.072980714710468 60.412
19.095733592739563 61.1634
19.11831084296757 61.6889
19.140888842324735 62.284
19.16346759176222 62.3822
19.18622349753803 62.483000000000004
19.208803755869358 63.2286
19.231384767143577 63.8286
19.253966532312948 64.7238
19.276725481241822 65.7981
19.29930876296784 67.3179
19.3218928014549 68.9939
19.34465404436217 71.196
19.36723960516257 73.6431
19.389825925592426 76.2042
19.412413006605938 77.71
19.43517731967805 76.3547
19.457765930683355 73.3743
19.48035530514408 69.4063
19.50294544401556 64.7701
19.525712842708348 61.1215
19.54830451925909 58.7796
19.570896963095727 57.2053
19.593490175174704 56.8635
19.616260674962184 56.5767
19.638855432416964 56.1995
19.661450960992624 56.5587
19.68404726164677 56.4349
19.706820878021247 56.0347
19.729418731756834 56.3457
19.752017360452857 56.2549
19.77461676506804 56.7654
19.797393513540218 57.13
19.819994478951667 57.7866
19.84259622316767 58.5306
19.8651987471481 58.9374
19.887978643247177 58.7592
19.91058273574792 59.0464
19.933187610901943 59.7413
19.955969879466828 60.376999999999995
19.97857632894404 61.5936
20.00118356396599 62.3603
20.023791585494575 63.927
20.046577028914875 66.0301
20.069186632506966 68.1467
20.091797025500632 70.6451
20.114408208858933 72.3753
20.137196842715273 73.9268
20.159809615886765 73.4923
20.18242318232135 71.072
20.20503754298326 68.2688
20.227829382875154 65.8102
20.250445341109344 64.4559
20.27306209647285 63.8463
20.29567964993108 64.4166
20.31847471147704 65.1925
20.34109387027612 66.6061
20.363713830075454 67.7362
20.386334591841646 67.5906
20.409132890679302 65.6066
20.431755265564437 62.5626
20.454378445325528 59.8613
20.477002430930366 57.1332
20.499803982716553 55.2796
20.522429589228004 53.9474
20.54505600449589 53.2304
20.567683229489194 53.1355
20.590488049900088 52.9817
20.61311690359731 52.7772
20.63574656993626 52.6051
20.658553853717297 52.1902
20.681185154618298 52.1377
20.703817271080066 52.0816
20.72645020407368 51.6117
20.749260783967177 51.5124
20.771895359337133 51.4542
20.794530754161617 51.5843
20.817166969412938 51.2814
20.83998086114876 51.4153
20.86261872660049 51.231
20.885257415405402 51.3062
20.90789692853701 51.3521
20.930714147864748 51.5013
20.953355319030678 51.4755
20.97599731745334 51.7514
20.99864014410749 51.5433
21.021460706796564 51.1538
21.044105199328826 51.3497
21.06675052302631 51.5683
21.089396678865015 51.7097
21.112220600704806 52.0189
21.134868430275347 52.2452
21.15751709492456 52.2158
21.180166595629693 52.1668
21.202993892429635 52.6521
21.22564507473034 53.1033
21.24829709602816 53.4954
21.27112693608965 53.6949
21.293780644891275 53.9769
21.316435195634053 53.7811
21.339090589297417 53.1201
21.361923832041875 52.6861
21.384580921090404 51.8203
21.407238856007325 51.2002
21.429897637773326 51.0973
21.45273429906592 51.1138
21.475394784108598 50.9577
21.498056118951983 50.9028
21.520718304578022 51.4664
21.543558400304388 51.5738
21.566222297108816 52.0146
21.58888704765135 52.3386
21.61155265291521 52.9347
21.63439619898156 53.5466
21.657063523335786 53.75899999999999
21.67973170537063 54.0902
21.7024007460706 54.5581
21.72524775840385 54.9801
21.747918526116475 55.7434
21.770590155457388 56.3451
21.79326264741238 57.5394
21.816113141960237 58.691
21.838787368860547 59.9435
21.861462461341976 61.4934
21.884315579735777 63.3602
21.90699241312273 65.0692
21.92967011506078 66.6644
21.95234868653799 67.3436
21.9752053151131 66.9958
21.997885635446785 65.58
22.020566828293532 63.4828
22.04324889464272 61.0891
22.066109049404666 59.1574
22.088792872571794 57.9781
22.111477572219204 57.7255
22.1341631493376 58.081
22.157026846313123 58.3718
22.179714188221507 58.2104
22.202402410582668 57.6628
22.22509151438863 56.3165
22.24795876962584 54.9039
22.270649646204486 53.6908
22.293341407213727 52.695
22.316034053646906 52.0983
22.338904883215342 51.5977
22.36159931041458 51.479
22.38429462602756 51.2599
22.40699083104897 50.9615
22.429865251039757 51.0494
22.452563244831367 51.0831
22.47526213102522 51.1346
22.49813925616515 51.1821
22.520839937143307 50.9855
22.543541513520587 51.1211
22.56624398629403 51.1717
22.589124730075895 51.1324
22.611829005656723 51.5537
22.63453418063466 51.5158
22.657240256008077 52.0445
22.680124634582935 52.4866
22.70283252079775 52.6123
22.725541310413075 52.9572
22.74825100442868 53.0964
22.771139033969575 53.349
22.79385054687155 53.3331
22.81656296718292 53.7712
22.83927629590484 54.4082
22.862167992606945 54.7436
22.88488314827121 55.4331
22.907599215359284 56.1017
22.93031619487366 57.0872
22.953211574954405 57.918
22.975930389478226 59.0769
22.998650119445763 60.0247
23.02137076586092 60.1025
23.044269845560063 59.626000000000005
23.06699233506288 58.3735
23.089715744034912 56.6144
23.112617610931565 54.8392
23.135342869061212 53.3708
23.158069049684816 52.1539
23.1807961538087 51.6351
23.20370174880544 51.5586
23.226430710184808 51.7085
23.249160598093425 51.783
23.271891413539002 52.1303
23.294800752937697 52.211000000000006
23.31753343374794 52.4353
23.340267045128353 52.4685
23.36300158808808 52.7895
23.38591468821339 52.9749
23.408651104658304 53.0519
23.431388455719986 53.2962
23.454126742409 53.8313
23.4770436196085 54.4404
23.499783787914662 55.1689
23.522524894889884 55.6135
23.54526694154616 56.3099
23.56818761219047 57.5021
23.59093154860734 58.3088
23.613676427751283 59.4508
23.636422250635754 59.599
23.659346731118656 59.1828
23.68209445191868 57.6694
23.704843119509587 55.4354
23.72759273490623 53.3791
23.750521041644767 51.6387
23.77327256312355 50.2203
23.796025035462787 49.3863
23.818956224555475 48.6083
23.841710609113413 48.3428
23.86446594758979 48.2147
23.887222241002014 47.943000000000005
23.910157285144578 47.6105
23.932915498962537 47.5111
23.955674670778713 47.4808
23.978434801611975 47.2228
24.001373717286125 46.9542
24.024135776723917 46.8782
24.046898798245582 46.8601
24.06966278287146 46.6764
24.092605586582614 46.5126
24.115371508023642 46.2689
24.1381383956401 46.0779
24.16090625045381 45.9793
24.183852958731244 45.8552
24.206622758582608 45.8855
24.229393528706886 45.9226
24.252165270127392 46.0308
24.27511589952438 45.8523
24.297889594216997 45.6673
24.32066426328598 45.4735
24.34343990775613 45.3996
24.36639447485003 45.277
24.38917208083877 45.2551
24.41195066531332 45.2698
24.43490819850244 45.2956
24.457688750692377 45.1619
24.48047028445616 44.96
24.503252800821233 45.153999999999996
24.526214300784112 45.263000000000005
24.548998793132213 45.166000000000004
24.57178427117417 44.948
24.59457073593893 44.9934
24.617536219319863 45.0484
24.64032466834748 45.1252
24.663114107195035 45.0412
24.685904536893013 44.7823
24.708874020360852 44.5801
24.731666442613744 44.4739
24.754459858818787 44.3929
24.777254270007962 44.5237
24.80022777025625 44.4445
24.82302418230472 44.442
24.845821592443674 44.4493
24.86862000170663 44.4684
24.891597535453727 44.4197
24.914397953892728 44.6094
24.93719937456671 44.5226
24.96000179851076 44.5863
24.98298338249997 44.9031
25.00578782394922 45.0843
25.028593271784167 45.1891
25.05157790644186 45.4854
25.07438537804115 45.4166
25.097193859145293 45.5132
25.120003350792075 45.6755
25.142992065061257 46.0525
25.165803588823465 46.4086
25.18861612625217 46.5595
25.211429678386736 46.4996
25.234422489079968 46.6677
25.257238081693636 46.5775
25.280054692141732 46.6079
25.3028723214652 46.5447
25.325869245420463 46.50899999999999
25.348688923599397 46.6748
25.371509623787006 46.7298
25.394331347025812 46.6573
25.41733240110666 46.5248
25.440156181590016 45.9805
25.46298098826268 45.4854
25.48580682216873 45.0565
25.50881202326435 44.4479
25.53163992281684 43.8289
25.55446885274561 43.4065
25.577298814096377 42.9978
25.600308179121807 42.7637
25.623140214533745 43.0237
25.64597328451537 42.8935
25.66898578564376 42.6696
25.691820936010206 42.7136
25.714657124097695 42.7005
25.737494350954734 42.601000000000006
25.760511045684957 42.6691
25.783350361364224 42.7393
25.806190718969255 42.6044
25.82903211955018 42.5665
25.852053024868923 42.69
25.874896522722523 42.6778
25.897741066713106 42.5373
25.920586657892454 42.6938
25.943611790812668 42.792
25.966459487728237 42.9841
25.989308234998564 42.74100000000001
26.01215803367705 43.0805
26.03518741123814 43.1808
26.05803932412957 43.3563
26.080892291600094 43.4191
26.10374631470478 43.4139
26.12677995397268 43.6972
26.14963609978026 43.7862
26.172493304397875 43.5252
26.19535156888223 43.4554
26.218389486949604 43.1354
26.241249882640123 42.9057
26.26411134137826 42.7357
26.28715248187403 42.6841
26.31001607820869 42.3489
26.3328807407756 42.082
26.35574647063438 42.4357
26.37879191991473 42.1696
26.401659795896734 42.3202
26.424528742360263 42.3623
26.447398760366614 42.5399
26.470448535598294 42.7198
26.49332070826805 42.7966
26.516193955675355 42.9459
26.53906827888316 43.0495
26.562122397260108 42.888999999999996
26.584998883685063 43.108999999999995
26.607876449110325 43.5372
26.63075509460056 43.7625
26.65381357334404 43.8493
26.67669439061878 44.0514
26.699576291163382 44.1285
26.722459276044212 43.9981
26.745522132402975 43.8049
26.768407297649354 43.5492
26.791293550442003 43.248999999999995
26.814180891848974 42.9058
26.837248143099337 42.4838
26.860137673466657 42.4385
26.88302829566349 42.2165
26.90592001075963 42.2152
26.92899167420566 42.0602
26.951885586870763 41.591
26.974780595655517 41.4853
26.99785558178161 41.2005
27.020752794605112 40.8851
27.043651106772522 40.8311
27.06655051935668 40.6948
27.089629948036183 40.7239
27.112531573292053 40.7461
27.135434302194138 40.8516
27.158338135817015 40.6321
27.181422024430987 40.6588
27.204328079372566 40.4743
27.22723524226965 40.489000000000004
27.250143514198573 40.4821
27.273231880156334 40.4413
27.296142382065014 40.3407
27.319053996245536 40.2801
27.341966723775965 40.366
27.365059584515222 40.3258
27.38797455070062 40.451
27.410890633481237 40.2609
27.433807833936918 40.1701
27.456905206923906 40.2438
27.47982465472398 40.3523
27.502745223449743 40.342
27.525666914182825 40.407
27.548768816912457 40.5563
27.571692763693633 40.427
27.59461783573812 40.5259
27.617723149491244 40.2666
27.640650484125285 40.1708
27.66357894728264 40.0901
27.686508540048052 40.1511
27.709618414237887 40.1018
27.732550278321757 39.8236
27.755483275279115 39.8908
27.778417406196485 39.9029
27.801531858397514 39.8152
27.824468269376716 39.8117
27.847405817586786 39.6653
27.870344504116094 39.8187
27.893463551932008 39.9461
27.916404527281053 40.1805
27.93934664422563 40.0718
27.962289903855886 39.9428
27.98541356491974 40.281
28.00835912214229 40.2348
28.03130582533231 40.6809
28.054253675581805 40.707
28.077381967556104 40.6681
28.100332124185126 40.7774
28.123283431160893 40.8545
28.146235889577238 40.7022
28.169368830154156 40.5141
28.192323603752033 40.3164
28.215279532083304 39.9334
28.238415973016764 39.7053
28.261374223145094 39.6659
28.284333631303806 39.466
28.307294198589954 39.4279
28.330435319167677 39.0817
28.353398217078915 38.835
28.376362277420153 38.7138
28.39932750129032 38.3896
28.422473319286713 38.2581
28.44544088262495 38.2244
28.468409612800283 37.9331
28.491379510913497 37.8229
28.51453004413313 37.7308
28.53750229057244 37.59
28.56047570826344 37.6311
28.583450298308804 37.6432
28.606605564586562 37.4304
28.629582511831156 37.5381
28.65256063474956 37.3705
28.675539934446338 37.3635
28.698699951647605 37.2485
28.72168161743193 37.313
28.74466446331978 37.1422
28.767648490417624 37.0618
28.790813276438353 37.0435
28.813799678527303 37.0974
28.836787265157085 37.1669
28.859955641890075 37.1244
28.882945610203045 37.0982
28.905936766392035 36.9693
28.928929111566863 37.0162
28.952102288520145 37.0101
28.975097024308607 36.8803
28.998092952423807 36.8607
29.021090073977508 36.7287
29.04426806913204 36.5746
29.067267590245258 36.4046
29.090268308143695 36.4205
29.11327022394099 36.2942
29.13645305530891 36.0635
29.159457379627167 36.1382
29.18246290519685 36.0377
29.20546963313352 36.0036
29.22865731875826 36.0802
29.25166646419296 36.0885
29.27467681535305 35.7614
29.29768837335608 35.8392
29.320880931312562 35.8989
29.34389491580634 35.7938
29.366910110507334 35.7643
29.38992651653503 35.7735
29.41312396492981 35.8302
29.436142806456754 35.7647
29.45916286268059 35.6966
29.48236399319994 35.5169
29.50538649169417 35.385
29.528410208259935 35.4788
29.55143514402014 35.2372
29.574641196749695 35.1633
29.597668583816574 34.9666
29.6206971934585 34.8042
29.64372702680042 34.7789
29.666938019934474 34.6992
29.689970313635285 34.6286
29.713003834422636 34.6033
29.73603858342347 34.5895
29.759254535188578 34.4105
29.78229175361658 34.4233
29.80533020365064 34.5237
29.82836988641968 34.4927
29.85159081507472 34.4799
29.874632976355343 34.3418
29.89767637376955 34.3966
29.920721008448314 34.2737
29.9439469322847 34.1328
29.96699405457564 34.2023
29.9900424175358 34.2362
30.013092022298157 34.0865
30.03632295963995 34.0807
30.059375061131373 34.0091
30.08242840783577 34.0264
30.105483000888153 34.0145
30.128718970092244 34.0133
30.151776069006917 33.8775
30.17483441768648 33.918
30.198074175317235 33.8363
30.221135036724256 33.8998
30.24419715131772 33.8933
30.267260520236203 33.8868
30.290505341942243 33.9677
30.313571232750228 33.9758
30.336638381310948 34.0077
30.35970678876503 33.9394
30.38295669299435 33.7662
30.40602763151657 33.783
30.429099832366074 33.668
30.452173296685572 33.5483
30.47542830191959 33.6581
30.498504306502497 33.6828
30.521581577995562 33.6743
30.544660117543582 33.6647
30.56792024229725 33.6985
30.59100133132069 33.6346
30.614083691845494 33.633
30.637167325018545 33.6351
30.660432587840603 33.6243
30.683518779717886 33.5514
30.70660624769615 33.6959
30.729694992924372 33.8442
30.75296541239743 33.7338
30.77605672557558 33.6338
30.799149319462742 33.6413
30.8224236211637 33.6387
30.845518789950724 33.4161
30.868615242910597 33.4177
30.891712981195973 33.2317
30.91499247215866 33.2059
30.938092794619365 33.0553
30.96119440587579 33.1131
30.984297307082752 32.9845
31.00758200598383 32.9051
31.030687500658694 32.7862
31.053794288760695 32.7448
31.076902371446767 32.6037
31.100192296997445 32.6203
31.12330298246119 32.626
31.14641496599209 32.5422
31.169528248749216 32.4343
31.19282341969534 32.3591
31.215939314557186 32.381
31.239056512134788 32.5295
31.262175013589378 32.3977
31.28547544871168 32.3481
31.30859657161541 32.3374
31.331719001892175 32.3636
31.35484274070538 32.3924
31.378148458819545 32.3418
31.401274828443725 32.3621
31.424402510106933 32.3736
31.447712205419993 32.4421
31.470842524931633 32.2964
31.493974159989783 32.3126
31.51710711176168 32.3438
31.54042212308802 32.2686
31.563557722100917 32.2516
31.586694641341655 32.1183
31.609832881979628 32.0452
31.63315322823208 32.0289
31.656294125521327 31.8872
31.679436347728515 31.8689
31.70257989602529 31.6912
31.725905596152327 31.6822
31.74905181052835 31.5872
31.772199354521323 31.6239
31.79534822930507 31.6313
31.818679302290967 31.636
31.84183085259981 31.6071
31.864983737233473 31.4902
31.88813795736804 31.5449
31.911474422233013 31.4231
31.934631327356435 31.5049
31.9577895715215 31.4496
31.980949155906522 31.4092
32.004291031706956 31.4658
32.027453310562606 31.3996
32.05061693318573 31.2895
32.07396288236386 31.2604
32.09712920658542 31.2704
32.12029687812702 31.1481
32.14346589817093 30.9586
32.166817291729984 30.9387
32.18998902288583 30.8803
32.21316210610336 30.7916
32.23633654256711 30.6412
32.259693399663725 30.675
32.282870556771144 30.5771
32.30604907069099 30.6605
32.329228942610065 30.5527
32.35259128243769 30.5264
32.375773884550505 30.4365
32.398957848235646 30.4008
32.422143174682176 30.2636
32.445511016471215 30.1703
32.468699082679954 30.0881
32.49188851523011 30.09
32.51507931531304 30.0085
32.538452678331 29.9825
32.56164622776311 29.9271
32.58484114831493 29.9007
32.60803744118015 29.9072
32.631416344731896 29.8533
32.654615396551876 29.8709
32.67781582427913 29.8014
32.701198898634416 29.6247
32.72440209253756 29.6671
32.747606665947124 29.6709
32.77081262006088 29.5534
32.79420126883317 29.5466
32.81740999876112 29.5239
32.840620112999424 29.3821
32.86383161274818 29.4094
32.88722585534586 29.3839
32.91044014056596 29.359
32.933655814909734 29.3121
32.95687287957963 29.3745
32.98027273544904 29.2621
33.00349259526636 29.2112
33.026713849030116 29.2926
33.04993649794511 29.1054
33.073341986570746 29.1079
33.09656744032826 29.1507
33.11979429286444 29.1558
33.14302254538647 29.0094
33.166433686291185 29.0307
33.18966475336992 29.0152
33.212897224069096 28.8857
33.23613109959831 28.9484
33.259547912343415 28.9195
33.2827846121627 28.8939
33.306022720453775 28.83
33.32926223842861 28.7295
33.352684742614166 28.743000000000002
33.37592709463173 28.7291
33.399170859982064 28.61
33.422597648419426 28.5694
33.44584425514446 28.4741
33.46909227885668 28.5136
33.4923417207723 28.3348
33.51577423505344 28.3008
33.539026528130385 28.195
33.56228024307245 28.1923
33.585535381098246 28.1347
33.60897364093058 28.035999999999998
33.63223163992385 28.1173
33.6554910656699 27.9906
33.678751919389796 27.9989
33.702195944520106 27.8301
33.72545966903325 27.910999999999998
33.74872482519663 27.8185
33.771991414233746 27.8103
33.79544122444841 27.7198
33.81871069412428 27.6427
33.84198160035767 27.5839
33.86525394437455 27.6611
33.88870955949969 27.668000000000003
33.911984794020626 27.6031
33.93526147001624 27.5195
33.958539588715006 27.5023
33.98200102861669 27.3748
34.0052820477047 27.2786
34.02856451319451 27.3136
34.05203033759056 27.2512
34.07531571090147 27.2447
34.09860253431845 27.2325
34.121890809074316 27.1474
34.145362493118924 27.1076
34.16865368561615 27.0516
34.191946333164054 27.0969
34.21524043699793 27.0467
34.23871800066799 27.0093
34.26201503218366 26.8523
34.28531352370466 26.8787
34.30861347646881 26.8242
34.33209693978188 26.7161
34.3553998301885 26.8031
34.378704185565205 26.7191
34.402010007152356 26.613000000000003
34.42549939016683 26.5622
34.44880815937748 26.5239
34.472118398533134 26.4688
34.49543010887669 26.4504
34.51892543169198 26.3733
34.54224009966052 26.3861
34.56555624255917 26.3751
34.58887386163339 26.3392
34.61237514439016 26.2865
34.6356957311114 26.1141
34.65901779775809 26.1578
34.68252356662995 26.128
34.705848608458616 26.1697
34.72917513396849 26.1206
34.75250314440949 26.0777
34.77601490857862 25.9443
34.799345904259795 25.9312
34.82267838863559 25.9174
34.846012362958525 25.9105
34.869530142679984 25.8585
34.89286711232212 25.8419
34.91620557568269 25.7599
34.93954553401677 25.7039
34.9630693495876 25.6556
34.986412313340814 25.6975
35.00975677584668 25.6587
35.033102738362956 25.6228
35.05663261012228 25.5041
35.0799815881786 25.5629
35.10333207003229 25.3945
35.12668405694369 25.4835
35.150220005273056 25.5706
35.17357501786656 25.5437
35.19693153931268 25.4192
35.220289570874385 25.2465
35.24383161619786 25.3078
35.267192683604904 25.2912
35.290555264930376 25.232
35.314101899412165 25.2086
35.33746752422433 25.1658
35.36083466676374 25.2119
35.38420332829803 25.1209
35.407756095629054 25.1614
35.43112781085063 25.14
35.45450104888391 25.0522
35.477875810999194 25.1183
35.50143473172161 24.9406
35.52481255774625 25.0146
35.54819191167777 24.868000000000002
35.57157279478914 24.8674
35.595137889488406 24.8341
35.61852184675279 24.8521
35.641907337029984 24.7908
35.665294361595684 24.7813
35.68886565090076 24.6508
35.7122557598848 24.641
35.73564740699838 24.7012
35.759040593519934 24.5233
35.78261809810353 24.521
35.80601437933051 24.5201
35.829412203814705 24.3707
35.85281157283719 24.2727
35.876395313415884 24.3952
35.8997977874528 24.3413
35.92320180988546 24.2476
35.946790244133936 24.2373
35.97019737933222 24.2308
35.993606066789866 24.1908
36.01701630779276 24.1533
36.04061101440684 24.0898
36.06402437852291 24.1251
36.08743930005611 24.0463
36.1108557802951 23.9569
36.13445678011326 24.0183
36.15787639383515 23.9931
36.18129757014299 23.9776
36.20472031032821 23.869
36.22832762423364 23.8042
36.25175350829375 23.8404
36.275180960119776 23.7109
36.298609981005924 23.7503
36.32222362992669 23.7467
36.34565580510207 23.7217
36.36908955323448 23.6375
36.39252487562093 23.5342
36.416144880530226 23.5316
36.43958336764275 23.4991
36.463023432914625 23.5545
36.486465077645676 23.4902
36.51009145956204 23.5167
36.53353627947859 23.4762
36.55698268276811 23.4466
36.58043067073321 23.3377
36.60406345072071 23.244
36.62751462435344 23.2842
36.65096738658405 23.2625
36.67460498210655 23.2399
36.69806093788647 23.2006
36.72151848619297 23.1164
36.744977628333636 23.096
36.76862165890998 23.0562
36.79208400512205 23.0713
36.81554794910557 23.0891
36.83901349217101 22.8916
36.862663978991606 22.8613
36.88613273667352 22.8569
36.90960309738324 22.9062
36.933075062434064 22.8421
36.95673202673572 22.8126
36.98020721697122 22.7369
37.003684015502365 22.7253
37.027162423645365 22.5712
37.050825886711465 22.5805
37.07430753063053 22.5265
37.09779078812467 22.5612
37.121275660513014 22.5319
37.144945643673694 22.4679
37.16843376245278 22.4435
37.19192350009803 22.4121
37.215414857931435 22.3544
37.239091382563885 22.3036
37.262585997426164 22.3286
37.28608223645736 22.2964
37.309763684451696 22.2685
37.33326318851098 22.1666
37.356764320726555 22.1146
37.380267082425526 22.2146
37.40395510942588 22.1093
37.42746114683234 21.9383
37.45096881771841 21.9824
37.474478123414166 22.0001
37.49817275092816 21.9534
37.52168534303452 21.9693
37.54519957395567 21.8446
37.568715445024665 21.8397
37.592416694607714 21.8029
37.61593586281424 21.7933
37.63945667518264 21.747
37.66297913304891 21.6799
37.68668702630454 21.712
37.710212792059274 21.5739
37.733740207334854 21.6111
37.757269273470364 21.4937
37.780983832050374 21.4709
37.80451621684926 21.4815
37.82805025654007 21.4347
37.851585952464795 21.4327
37.8753071980695 21.3482
37.89884622345676 21.3399
37.92238690911902 21.2472
37.94611318753442 21.2117
37.969657210779765 21.2581
37.99320289834801 21.2336
38.016750251586465 21.1203
38.04048325513017 21.1472
38.06403395679343 21.0889
38.087586328183946 21.0608
38.11114037065203 21.0611
38.13488012115898 21.0534
38.1584375229181 21.0571
38.181996599821 20.8986
38.205557353221124 20.8963
38.229303872575656 20.7896
38.2528679961576 20.8573
38.27643380031219 20.8443
38.30000128639589 20.7522
38.32375459653193 20.7511
38.34732546371299 20.7259
38.37089801690786 20.6698
38.39447225747609 20.6294
38.418232380377425 20.5867
38.441810012983396 20.5475
38.46538933705673 20.5898
38.488970353960084 20.5199
38.51273731166058 20.4814
38.536321731567014 20.3714
38.55990784840681 20.4361
38.58367995004091 20.387999999999998
38.60726947812959 20.3276
38.63086070726198 20.3593
38.654453638806274 20.2914
38.678232613930824 20.21
38.70182896773327 20.1801
38.72542702806741 20.2335
38.7490267963045 20.147000000000002
38.77281266709232 20.121
38.79641586862214 20.0912
38.8200207821842 20.0372
38.843627409152944 20.0533
38.86742019782782 19.9932
38.891030269149255 19.9451
38.914642058016156 19.9129
38.938255565806124 19.8969
38.96205529464307 19.9268
38.98567225787121 19.8896
39.00929094417078 19.8084
39.03291135492255 19.8316
39.05671804624804 19.7938
39.080341923549106 19.6326
39.103967529460334 19.6372
39.127594865365744 19.6157
39.15140854155791 19.5407
39.17503935514948 19.6081
39.19867190290282 19.583
39.22249083587951 19.4897
39.24612686969409 19.5902
39.269764641845306 19.5327
39.293404153722804 19.4708
39.317230110864074 19.3479
39.34087311998506 19.3457
39.36451787301696 19.3569
39.388164371352595 19.3162
39.41199737518003 19.2809
39.43564738196752 19.1908
39.45929913825317 19.1883
39.48295264543308 19.1523
39.506792718520884 19.1244
39.530449745387216 19.1035
39.55410852735203 19.0454
39.57776906581474 19.0655
39.60161623079 18.9838
39.625280300200025 19.0169
39.64894613032202 19.0093
39.67261372255866 18.9518
39.6964680021016 18.8806
39.72013913657293 18.8953
39.74381203738292 18.8995
39.76748670593756 18.8387
39.79134812278169 18.8308
39.81502634488497 18.7723
39.83870633896685 18.7293
39.862388106436654 18.6717
39.88625668336918 18.6374
39.90994201572829 18.6594
39.933629125719285 18.5571
39.957503091207826 18.5667
39.9811937746168 18.5349
40.00488623990914 18.5555
40.02858048850006 18.4595
40.05246165409549 18.4522
40.076159487492085 18.4401
40.099859108448875 18.3813
40.123560518384345 18.4242
40.1474489070226 18.4309
40.171153913178564 18.2833
40.194860712584955 18.2876
40.2185693066637 18.2804
40.242464941335314 18.2111
40.26617714307655 18.2055
40.289891143772046 18.1532
40.3136069448471 18.1591
40.33750984859743 18.1769
40.3612292688043 18.139
40.3849504936829 18.0951
40.40867352466194 18.073
40.43258372059144 17.9713
40.45631038219906 17.993
40.48003885420956 17.9655
40.503769138055105 17.8877
40.52768664931955 17.8782
40.55142057531802 17.8853
40.57515631746428 17.8011
40.599079334038514 17.7781
40.62281872700477 17.7686
40.64655994043941 17.7293
40.67030297578061 17.7212
40.69423334835778 17.6516
40.71798004609188 17.6143
40.74172857006355 17.5899
40.76547892171441 17.6014
40.7894166736039 17.5856
40.813170699248566 17.5279
40.83692655691388 17.5351
40.86068424804498 17.5151
40.884629402612525 17.4844
40.908390779366385 17.4715
40.932153993938 17.4333
40.95591904777605 17.4109
40.979871628443995 17.3877
41.003640379561936 17.3577
41.02741097430883 17.3501
41.05118341413683 17.3551
41.075143444384416 17.2671
41.098919593177826 17.2661
41.1226975914255 17.2082
41.14647744058318 17.1652
41.170444943946755 17.1303
41.19422851378379 17.1211
41.218013938914645 17.0826
41.24198706625173 17.084
41.26577622087193 17.0309
41.289567235177785 16.9873
41.31336011063129 16.9421
41.337340752422875 16.9116
41.361137369129835 16.9203
41.38493585138705 16.8639
41.40873620066004 16.8828
41.43272438060107 16.7702
41.45652848292052 16.7437
41.48033445666918 16.7436
41.50414230331616 16.7267
41.528138045159764 16.7393
41.551949656675205 16.6563
41.575763145513235 16.6445
41.59957851314666 16.5864
41.62358184070442 16.6048
41.64740098505737 16.5851
41.6712220126409 16.5048
41.69504492493139 16.452
41.71905586207357 16.4807
41.74288256296395 16.4531
41.766711153007456 16.4445
41.79054163368412 16.3721
41.814560204340054 16.4453
41.838394485526365 16.3973
41.86223066180303 16.3054
41.88625497706819 16.2386
41.910094962812 16.2541
41.93393684811168 16.2311
41.95778063445365 16.1535
41.981812625263366 16.1921
42.00566023303407 16.1539
42.029509746323676 16.1358
42.05336116662236 16.1338
42.077400857069705 16.0939
42.10125611078846 16.0928
42.12511327600405 16.0408
42.14897235421036 16.0142
42.173019768448455 16.0158
42.19688269209613 15.9335
42.22074753323349 15.8973
42.24461429335818 15.9102
42.268669455600495 15.8797
42.292540073217886 15.8132
42.31641261433284 15.7726
42.34028708044675 15.7363
42.36435001496739 15.7249
42.38822835065557 15.7128
42.41210861586426 15.7264
42.4359908120986 15.7303
42.46006154323262 15.6495
42.48394762115317 15.5989
42.507835634632315 15.6087
42.531912233047436 15.509
42.55580413732265 15.5018
42.579697981698 15.4805
42.60359376768525 15.4841
42.62767820545945 15.4695
42.65157789440821 15.4584
42.67547952952185 15.4165
42.699383112316 15.379000000000001
42.72347541395347 15.3048
42.74738291190531 15.2715
42.771292362102166 15.3108
42.795203766063516 15.3394
42.819303956130405 15.2953
42.843219287476536 15.1793
42.86713657716324 15.1682
42.89105582671383 15.1849
42.91516392983864 15.1853
42.939087119032166 15.16
42.963012272677304 15.0893
42.98693939230129 15.0422
43.01105543317513 14.9719
43.034986504731386 14.9996
43.05891954686589 14.9709
43.08285456110972 15.0115
43.10697856448665 14.9625
43.130917542983475 14.9103
43.15485849820081 14.912
43.17880143167367 14.8812
43.20293342237094 14.8252
43.226880332449 14.8076
43.25082922540554 14.7875
43.27496722682525 14.7553
43.29892010567796 14.6946
43.32287497204102 14.6868
43.34683182745632 14.6762
43.370977859791836 14.6595
43.39493871351105 14.6368
43.41890156092628 14.6224
43.44286640358341 14.612
43.46702049182749 14.5521
43.49098934522816 14.5205
43.51496019852649 14.501
43.5389330532723 14.4559
43.56309522248204 14.4494
43.58707210044314 14.3914
43.61105098451946 14.4335
43.63503187626491 14.3639
43.659202151562134 14.3126
43.68318707902681 14.3551
43.70717401884041 14.3539
43.731162972560874 14.2657
43.75534137913236 14.2562
43.779334381108384 14.2103
43.803329401683186 14.1711
43.82732644241872 14.2045
43.8515130055166 14.1777
43.87551410707659 14.1165
43.89951723350145 14.1046
43.923709934595614 14.0973
43.94771713129917 14.0721
43.97172635758096 14.0392
43.99573761501002 13.9732
44.0199385169922 13.9828
44.04395385732619 13.9759
44.067971233533086 13.9549
44.09199064718605 13.9274
44.11619977548961 13.8856
44.14022328470671 13.8539
44.16424883610785 13.825999999999999
44.18827643127035 13.7928
44.21249381139513 13.7815
44.236525514814076 13.8065
44.26055926674478 13.7434
44.28459506876863 13.7924
44.3088207262813 13.7119
44.33286064928722 13.7272
44.35690262714919 13.6331
44.38094666145278 13.6286
44.4051806219871 13.6299
44.42922879003185 13.6001
44.45327901929361 13.5523
44.477331311362136 13.5377
44.501573600619416 13.5004
44.525630039221795 13.5458
44.54968854541895 13.5071
44.573937102200176 13.482000000000001
44.5979997645541 13.4119
44.622064499300315 13.4131
44.64613130803592 13.3993
44.67038823869318 13.3401
44.69445921643748 13.324000000000002
44.718532272981385 13.2652
44.742607409926194 13.2662
44.76687274034801 13.2744
44.79095205918753 13.2258
44.81503346325094 13.2398
44.839116954143876 13.1942
44.86339071028742 13.1779
44.88747839599524 13.142999999999999
44.91156817336837 13.1083
44.93566004401666 13.0969
44.959942251908146 13.1022
44.984038330325966 13.0567
45.00813650686762 12.9791
45.03223678314731 12.9825
45.05652746888232 12.99
45.08063196592069 12.9569
45.104738567558705 12.9408
45.128847275414856 12.9106
45.15314646515866 12.8868
45.17725940679741 12.8496
45.20137445952892 12.7996
45.22568004865265 12.8275
45.24979934496396 12.8159
45.27392075725247 12.7788
45.29804428714431 12.7216
45.322358426247604 12.7255
45.346486212804315 12.6893
45.370616121861914 12.6233
45.39474815505086 12.6635
45.41907087049246 12.6077
45.4432071734666 12.6222
45.46734560548283 12.62
45.49148616817604 12.5579
45.51581748638564 12.520999999999999
45.5399623320197 12.5025
45.56410931325473 12.4847
45.58825843173002 12.5171
45.61259837920865 12.4352
45.636751793816 12.4401
45.66090735060093 12.4111
45.68506505120716 12.4083
45.7094136545275 12.367
45.73357566449271 12.2962
45.75773982322992 12.275
45.78190613238733 12.2267
45.806263418194064 12.2038
45.83043404997326 12.2661
45.85460683713677 12.2447
45.87897065658495 12.1949
45.90314777634752 12.1471
45.92732705646868 12.1559
45.9515084986045 12.1274
45.97588104735473 12.1098
46.00006683541565 12.1303
46.02425479047904 12.0979
46.04844491420549 12.0676
46.0728262191024 12.0407
46.09702070211635 12.0115
46.12121735879483 11.9784
46.14541619080294 11.9626
46.169806278764455 11.9692
46.194009483459034 11.9358
46.21821486849841 11.9232
46.24242243555223 11.8731
46.266821333570014 11.8534
46.29103328674601 11.8882
46.31524742696538 11.8291
46.33946375590237 11.8344
46.36387149104216 11.7564
46.38809221957392 11.7593
46.41231514186606 11.7852
46.436540259597464 11.7661
46.460956858999374 11.7045
46.48518638983522 11.6704
46.509418121166966 11.6323
46.533652054678114 11.5836
46.55807754555709 11.5812
46.58231590571962 11.565999999999999
46.60655647313217 11.5474
46.630988654873654 11.5403
46.655233659129024 11.5153
46.67948087571551 11.5096
46.70373030632484 11.4803
46.72817142736393 11.4671
46.752425308428684 11.4445
46.77668140861147 11.3998
46.80093972960865 11.3696
46.82538981736788 11.3424
46.849652602470904 11.3242
46.87391761349769 11.3056
46.8981848521493 11.3193
46.9226439341274 11.2723
46.946915650573224 11.2657
46.97118959976749 11.2208
46.99546578341598 11.1908
47.019933887188216 11.1884
47.04421456235744 11.192
47.06849747711879 11.1265
47.09278263318286 11.1553
47.11725978640143 11.127
47.14154944775105 11.0992
47.165841355555656 11.0225
47.1901355115306 11.0322
47.214621741924994 11.0573
47.23892041698887 11.0104
47.26322134538975 10.9896
47.28771440635075 10.9484
47.31201986422527 10.9191
47.33632758061436 10.9336
47.360637557241866 10.9136
47.38513974410611 10.8959
47.40945426407847 10.8368
47.43377104948137 10.8418
47.45809010204344 10.8455
47.48260144275502 10.8002
47.506925052572285 10.7785
47.53125093475548 10.7447
47.55557909103813 10.7425
47.58009961361992 10.7037
47.60443234110732 10.683
47.62876734791564 10.7103
47.65310463578333 10.695
47.6776343683373 10.6697
47.7019762413987 10.6492
47.72632040075572 10.5995
47.75066684815169 10.5829
47.77520581885936 10.5813
47.799556865477655 10.5326
47.823910205386 10.5129
47.84826584033272 10.4883
47.87281407745551 10.4731
47.89717432569297 10.4783
47.92153687423484 10.4568
47.94609208429692 10.4195
47.97045925671401 10.3832
47.99482873471275 10.383
48.01920052005013 10.4153
48.04376504619224 10.3709
48.068141469543484 10.368
48.09252020552573 10.3565
48.11690125590099 10.2925
48.1414751266064 10.3188
48.16586082917454 10.2584
48.19024885144316 10.2206
48.2146391951793 10.2448
48.239222439012764 10.2029
48.26361744916137 10.1997
48.28801478610016 10.2136
48.31241445160131 10.2006
48.337007097209366 10.1409
48.36141144338331 10.1146
48.38581812345755 10.0736
48.41022713920929 10.0573
48.434829215320704 10.0497
48.45924292604658 10.0561
48.48365897780325 10.0433
48.50807737237308 9.997689999999999
48.532688907799276 9.970939999999999
48.55711201168574 9.968960000000001
48.581537463754074 9.96899
48.60615611725119 9.99052
48.63058628942721 9.94582
48.65501881516546 9.908619999999999
48.6794536962573 9.8953
48.70408185970339 9.862689999999999
48.72852147531801 9.861839999999999
48.75296345168211 9.845260000000001
48.77740779059232 9.836
48.80204549302823 9.80447
48.82649458091802 9.78553
48.85094603676547 9.75891
48.87539986237231 9.733239999999999
48.90004713292306 9.70998
48.92450572200832 9.702739999999999
48.94896668628025 9.70995
48.97343002754588 9.67956
48.99808689542115 9.671489999999999
49.02255501470614 9.64728
49.04702551642794 9.61742
49.0714984023988 9.579
49.096164896893235 9.5571
49.120642575466796 9.5376
49.145122643748394 9.55815
49.16960510355558 9.49545
49.19428125404938 9.49047
49.2187685210852 9.489930000000001
49.243258185121555 9.46822
49.26794160167084 9.44688
49.2924360839405 9.440539999999999
49.31693296869764 9.40408
49.34143225776915 9.37553
49.36612538195438 9.33818
49.39062950396021 9.39273
49.41513603578346 9.34747
49.4396449792564 9.30981
49.46434784069503 9.31749
49.488861631846454 9.29751
49.513377840166804 9.29468
49.537896467493745 9.24798
49.56260909589029 9.20807
49.587132585683285 9.2366
49.611658500018365 9.208210000000001
49.636186840738596 9.17499
49.66090926588511 9.150960000000001
49.685442483902584 9.12926
49.70997813385706 9.137310000000001
49.734516217597076 9.13425
49.75924846937352 9.08634
49.7837914452858 9.10162
49.80833686055187 9.036610000000001
49.83288471702571 9.02634
49.85762682540054 9.00339
49.882179588965734 8.99002
49.9067347993235 9.01072
49.93129245833333 8.96803
49.95604445336378 8.95128
49.98060703442832 8.95422
50.005172069746266 8.926639999999999
50.02993150438364 8.88931
50.05450147301533 8.861839999999999
50.07907390151433 8.8932
50.10364879174981 8.84447
50.12841816587289 8.866610000000001
50.1529980044635 8.83204
50.17758031042124 8.80385
50.20216508562089 8.77408
50.22694442953363 8.77157
50.25153416817468 8.75649
50.27612638170508 8.73161
50.300721072005196 8.68869
50.325510416102105 8.695110000000001
50.350110084975064 8.70787
50.37471223628208 8.720239999999999
50.39931687190919 8.66192
50.424116246675766 8.618030000000001
50.44872587605249 8.61802
50.47333799543065 8.60905
50.49795260670191 8.59254
50.52276204271512 8.58721
50.54738166295838 8.528830000000001
50.57200378079314 8.524980000000001
50.596628398116835 8.52692
50.62144792604559 8.49208
50.646077567609396 8.48276
50.670709714377715 8.468
50.69553683636198 8.460980000000001
50.72017401885922 8.4291
50.7448137122895 8.4432
50.76945591856022 8.426219999999999
50.79429318636823 8.38998
50.818940443716784 8.39038
50.84359021965163 8.38075
50.868242516085964 8.341619999999999
50.893089960641895 8.324819999999999
50.917747323549435 8.27491
50.94240721271973 8.31023
50.96706963007175 8.25356
50.99192728239342 8.263689999999999
51.01659478166073 8.30081
51.04126481489051 8.21873
51.06593738400761 8.20319
51.090805275207074 8.182360000000001
51.11548294172845 8.157910000000001
51.14016314993547 8.14962
51.164845901758845 8.13193
51.18972406304274 8.11293
51.21441192780656 8.0906
51.23910234200271 8.1045
51.2637953075678 8.08072
51.288683770237945 8.07399
51.31338186432707 8.041260000000001
51.33808251561888 7.996580000000001
51.362978729967345 7.9999899999999995
51.387684521509755 7.99317
51.41239287610203 7.930060000000001
51.437103795691165 7.92766
51.46201036644977 7.92845
51.486726441956634 7.914689999999999
51.51144508832545 7.91949
51.536166307509156 7.876189999999999
51.56108326624387 7.907189999999999
51.58580965706056 7.86758
51.61053862657523 7.824839999999999
51.635270176746864 7.830210000000001
51.66019755512065 7.82045
51.68493429268881 7.7854
51.70967361681515 7.81785
51.73441552946465 7.781680000000001
51.759353359237934 7.71921
51.7841004750961 7.743810000000001
51.80885018539685 7.72975
51.833602492111254 7.697430000000001
51.8585508051424 7.63957
51.883308330926425 7.6498
51.90806845906181 7.6517
51.932831191525715 7.658189999999999
51.95779001977161 7.591410000000001
51.98255798721516 7.60377
52.00732856494335 7.584810000000001
52.03229530577543 7.55245
52.057071130455945 7.55762
52.081849571391054 7.532539999999999
52.106630630568695 7.54737
52.13160794279417 7.52237
52.15639426492067 7.512910000000001
52.18118321127822 7.51531
52.205974783860896 7.482289999999999
52.23096269971011 7.441839999999999
52.255759551287994 7.408010000000001
52.280559035098186 7.415719999999999
52.30536115314103 7.39457
52.33035970494467 7.3754800000000005
52.35516711807904 7.3589
52.37997717147198 7.36717
52.40478986713005 7.318460000000001
52.42979908731974 7.321089999999999
52.454617094216 7.28016
52.47943774942214 7.28493
52.50426105495102 7.30708
52.529280976059844 7.2449
52.554109609024096 7.24452
52.57894089837482 7.245610000000001
52.60377484613117 7.203360000000001
52.62880550079408 7.18203
52.65364479223379 7.1543
52.67848674816189 7.16265
52.70352547971946 7.13345
52.72837279155837 7.145389999999999
52.753222773982785 7.12114
52.778075429022984 7.1419
52.80312495150885 7.110930000000001
52.827982978797436 7.088660000000001
52.85284368481815 7.079339999999999
52.87770707160767 7.08016
52.90276741793998 7.0232
52.92763619336701 6.99765
52.952507655698504 6.953939999999999
52.977381806977576 6.958089999999999
53.00245301017842 6.988160000000001
53.02733256653592 6.96254
53.052214817996074 6.95091
53.077099766608484 6.93146
53.102181859804446 6.90897
53.127072229988265 6.9364300000000005
53.15196530349892 6.881760000000001
53.17686108239249 6.8821
53.20195409881522 6.84275
53.22685531582556 6.8465300000000004
53.25175924441303 6.79046
53.27666588664027 6.817419999999999
53.30176985962693 6.79408
53.3266819565689 6.83113
53.35159677336455 6.798719999999999
53.376514312083096 6.750719999999999
53.40162927507703 6.788589999999999
53.42655228516116 6.753089999999999
53.45147802340193 6.7032300000000005
53.47660125628886 6.682239999999999
53.50153247842639 6.69344
53.52646643496923 6.67426
53.55140312799818 6.68456
53.576537409691696 6.68118
53.60147960336152 6.6167
53.626424539786164 6.58288
53.65137222105307 6.56993
53.67651758529126 6.5856699999999995
53.70147078399681 6.53831
53.72642673383343 6.55152
53.75138543689533 6.535019999999999
53.776541917524526 6.52334
53.801506154876755 6.5202
53.826473151763246 6.51702
53.851442910284916 6.42868
53.87661054126026 6.44278
53.9015858509782 6.437209999999999
53.92656392866066 6.434480000000001
53.95154477641532 6.40419
53.976723591801296 6.39676
54.00171000771266 6.36526
54.02669920004598 6.37896
54.051691170915745 6.36278
54.076881204886796 6.3698
54.101878760928514 6.33812
54.12687910187696 6.31042
54.152077577768296 6.30614
54.1770835166946 6.29801
54.20209224691339 6.31214
54.22710377055121 6.25736
54.25231352511594 6.239330000000001
54.27733066384342 6.227469999999999
54.30235060239643 6.2205
54.32737334290836 6.17901
54.35259441062629 6.13281
54.377622783395324 6.10078
54.40265396455061 6.14438
54.42768795623251 6.0996
54.45292037169559 6.04381
54.477960012857906 6.06839
54.50300247099511 6.02705
54.52804774825457 6.03446
54.55329154616743 6.00248
54.57834249018678 5.973730000000001
54.6033962597977 5.97314
54.6284528571545 5.9444099999999995
54.653708072335164 5.93035
54.67877035378786 5.92971
54.70383546947698 5.8614
54.72890342156389 5.84578
54.7541700889442 5.81197
54.77924374251975 5.8041599999999995
54.8043202390049 5.81506
54.82959552413022 5.75514
54.8546777351945 5.73804
54.87976279569621 5.67751
54.90485070780914 5.76924
54.930137506558005 5.7206
54.95523115074295 5.7203599999999994
54.98032765308844 5.67796
55.005427015775496 5.65987
55.03072536339621 5.67749
55.05583047570572 5.57796
55.080938454927676 5.60147
55.10604930325027 5.5275300000000005
55.131359235107396 5.54218
55.15647585066083 5.47473
55.181595341907496 5.46901
55.20671771104285 5.4225
55.232039262617704 5.41136
55.25716741665048 5.38828
55.28229845518636 5.40753
55.30743238042802 5.37331
55.33276558731939 5.32589
55.357905315183636 5.36139
55.383047936390035 5.27297
55.40819345314859 5.2481800000000005
55.433538351073295 5.2239
55.458689688238415 5.2146300000000005
55.483843927614096 5.188269999999999
55.509197623043605 5.13716
55.53435769621134 5.09328
55.55952067826466 5.100709999999999
55.5846865714265 5.1424199999999995
55.61005202069737 5.01663
55.63522376553902 5.08355
55.66039842818645 5.02725
55.68557601087004 5.00215
55.7109532500271 4.94866
55.73613670233794 4.9695800000000006
