TT I
1.2716486653135266 7.163469999999999
1.2939594142134223 6.730919999999999
1.3162702121660406 6.16919
1.3385810600174564 6.32009
1.3608919586137629 6.951639999999999
1.383202908801069 6.13174
1.405513911425503 5.55673
1.4278249673332093 6.53529
1.4501343378461518 6.33514
1.4724455028545926 5.24063
1.4947567236847858 5.60102
1.517068001182951 5.74315
1.5393793361953272 5.3256
1.5616907295681737 5.1637699999999995
1.5840021821477681 5.10698
1.60631369478041 4.912059999999999
1.6286252683124185 5.2065
1.6509369035901333 4.83016
1.6732468618895553 4.80877
1.695558623192809 4.61193
1.7178704487808514 4.30525
1.7401823395001077 3.90194
1.7625012545597203 4.20948
1.7848028405262486 4.5936699999999995
1.8071218901122095 4.69623
1.8294236121921872 3.76853
1.8517427996910911 4.0934099999999995
1.8740620574440425 4.0898900000000005
1.8963639900671978 4.64806
1.9186833908139995 4.3303
1.9409854680117449 4.65185
1.9633050151394713 4.88606
1.9856246367570705 4.562469999999999
2.0079269371922672 3.9014800000000003
2.03024671027244 4.41406
2.0525491637446027 3.96887
2.074869091674931 3.79832
2.097171701569106 4.14481
2.1194917877373847 4.73179
2.141811954326636 4.27199
2.164114805233074 4.04526
2.186435135143035 4.31447
2.208738150935709 5.5543
2.231058647554722 6.6348899999999995
2.2533792288321184 6.44306
2.275682498336085 5.33056
2.298003251406138 5.23236
2.3203066942619714 5.3503
2.3426276225136022 5.26808
2.3649486396617507 5.33637
2.387252348930071 5.51832
2.4095735463442893 5.44139
2.4318774374315884 6.469609999999999
2.4541988185014043 6.83391
2.476502894794693 7.23721
2.498824462909887 7.647939999999999
2.521146125856138 7.7864
2.5434504863470337 7.3838
2.5657723414244717 7.742389999999999
2.588076895590662 8.60726
2.610398946189713 8.806000000000001
2.6327210958598384 8.39534
2.6550259469304716 8.505410000000001
2.6773482972090137 8.47386
2.6996533504259 8.27944
2.7219759047039602 8.71155
2.744298562293959 8.6543
2.7666039251246595 8.40956
2.7889267918020164 8.37166
2.8112323652516555 8.51021
2.833555444408179 8.76908
2.8558786311183852 8.35678
2.8781845268938557 8.306230000000001
2.9005079311721484 8.53819
2.9228140460410397 8.47408
2.9451376712799635 8.923589999999999
2.967444008632326 9.38175
2.9897678582247247 9.964030000000001
3.0120918213106695 10.644
3.0343984987899373 10.8511
3.0567226913198637 11.0908
3.079029599759726 11.7276
3.101354025127254 11.7607
3.123678568232338 12.6292
3.145985829517914 12.7219
3.16831061055229 13.3343
3.1906181112775593 14.0161
3.212943133635653 14.272
3.2352682779763207 14.7212
3.2575761442691227 15.4001
3.2799015350264273 15.1901
3.302209649240067 15.9366
3.3245352898092655 15.9339
3.3468436553365257 16.4163
3.369169549113219 16.8216
3.3914955708171384 17.8782
3.413804319727358 18.0456
3.4361305997334863 18.188
3.4584396084414553 18.601
3.4807661501462652 19.2399
3.503092824025881 19.5718
3.5254022288463154 20.2998
3.5477291695206588 20.5614
3.5700388426251948 20.8769
3.5923660534916446 21.4248
3.6146934007816114 22.3764
3.637003482731501 27.2687
3.6593311053109985 30.1792
3.681641464033634 26.3725
3.7039693653009733 24.1261
3.726297407241705 23.8493
3.7486081875460804 24.0855
3.7709365132734978 24.6667
3.793247578841633 25.0696
3.8155761917550093 25.4482
3.8378875459837216 25.4575
3.8602164494827234 25.877
3.882545499606844 26.8885
3.9048572932539183 27.6158
3.9271866390645718 27.5601
3.9494987298666713 28.136
3.971828374764527 28.73
3.9941581705403255 29.1683
4.016470713506008 29.619
4.038800813471445 30.2282
4.061113662089144 31.2874
4.0834440696459176 31.1936
4.105774632334751 31.738000000000003
4.128087945865126 32.6788
4.150418821249301 33.0937
4.172732448931298 33.5877
4.195063640413578 33.9568
4.2173775856475215 35.4188
4.239709096631102 37.8191
4.262040768704612 52.0418
4.284355196706267 63.2157
4.306687193387355 56.255
4.329001947444346 43.708
4.35133427213731 40.6089
4.373666762177566 40.5378
4.395982011761091 41.0228
4.418314834921175 41.8466
4.44063041906622 43.0389
4.4629635787515625 45.3393
4.4852969080429785 46.0356
4.5076130004776225 46.293
4.529946671403969 46.3525
4.552263106909177 47.163000000000004
4.574597122877047 48.3868
4.596931312711224 49.4788
4.619248269273446 50.935
4.6415828092605835 51.746
4.663900117405352 52.7741
4.686235010953232 53.9083
4.708552674085913 55.0912
4.730887924602802 56.8118
4.753223354952695 58.1439
4.775541557023902 59.376999999999995
4.797877349456786 60.5538
4.820195915032126 62.7399
4.842532072957498 63.8458
4.864868414979744 66.259
4.88718753227192 67.9461
4.909524244902505 69.3649
4.931843734218147 71.5951
4.954180820867835 73.9434
4.976518095879839 76.7497
4.998838149695359 79.8884
5.021175803844231 83.1396
5.043496238205739 85.8597
5.065834274903528 89.3669
5.088172504230693 93.2359
5.1104935158799565 97.8317
5.132832132875765 105.70200000000001
5.155153533596801 118.84700000000001
5.1774925416746225 138.084
5.199814334878411 231.132
5.2221537374521505 812.373
5.244493338631803 2536.96
5.266815727034316 7258.25
5.289155727832427 13757.9
5.311478517248165 9704.44
5.333818921080011 3342.84
5.356159527788849 671.135
5.3784829252032536 203.11
5.400823940070432 143.10299999999998
5.423147747031976 122.96
5.445489173474152 112.765
5.467830807066149 107.773
5.490155234831516 104.195
5.512497285125229 101.306
5.534822130975162 99.4161
5.557164601388673 97.5588
5.579489868738879 94.2866
5.601832762690846 92.7121
5.6241758697774475 91.8219
5.646501775867269 90.8637
5.668845311622074 90.917
5.691171647754637 89.9768
5.713515615597765 88.9962
5.735859800852677 87.7417
5.758186788542988 86.9919
5.780531411018185 87.3674
5.802858837297399 86.3387
5.825203900414495 86.6405
5.8475491852224 86.78399999999999
5.869877275883075 87.4552
5.892223006467101 88.2398
5.914551544266608 88.7139
5.936897724049891 90.9652
5.959244129804903 95.0544
5.981573344815301 106.32700000000001
6.0039202049061 164.25900000000001
6.026249875609095 398.561
6.04859719346037 893.753
6.070927323278297 2052.93
6.093275102315365 4440.22
6.115623113320588 5535.86
6.137953938319995 3711.72
6.160302415650845 1095.46
6.182633708324452 240.356
6.2049826554078376 109.68700000000001
6.227331838745022 86.9229
6.249663839443684 79.5826
6.27201349767565 75.7233
6.294345974611799 73.5706
6.316696111167083 73.5744
6.339046488263839 71.8555
6.361379686074702 68.6694
6.383730546639482 66.4539
6.406064229255215 64.4853
6.428415576718203 64.4484
6.450749747566656 63.9442
6.47310158535871 62.8036
6.495453669698332 61.8299
6.517788579421056 61.1985
6.540141159237969 59.9372
6.562476565766648 59.5131
6.5848296444934045 58.9774
6.607182974060425 58.3397
6.6295191323281015 57.68
6.651872965955752 57.1022
6.6742096296068985 58.6923
6.6965639707294615 62.8649
6.71891856698715 63.9524
6.741255995248479 59.8757
6.763611104154477 56.4906
6.785949046381137 55.3564
6.808304671371482 54.3755
6.8306605557940046 54.2334
6.852999275508618 53.3582
6.875355681171544 53.5754
6.897694923437771 53.6335
6.92005185377892 53.8612
6.9423916220322655 53.8305
6.964749080490181 52.4925
6.987106804399774 52.6516
7.009447368180821 52.3752
7.031805625367033 52.3942
7.054146723727803 52.1942
7.076505517631004 52.1956
7.098864581288365 52.041000000000004
7.121206488070854 51.5156
7.143566093607822 51.3815
7.165908543567245 52.0098
7.188268694426048 51.6481
7.2106291193438095 50.7984
7.232972390625943 51.2646
7.255333366030969 51.9997
7.277677189091925 55.3319
7.300038718428332 61.9211
7.322400526130865 61.1713
7.344745183422596 55.8296
7.367107550224791 52.1974
7.389452767901992 51.3968
7.411815697249891 52.0342
7.434161478756298 51.1051
7.456524974096713 51.3238
7.478888753837185 51.6619
7.501235387657368 52.7738
7.523599738562711 58.0607
7.545946944825532 66.6607
7.568311870344528 70.4589
7.5906770845765665 63.3331
7.613025156078678 55.917
7.635390950099687 53.6616
7.657739602662809 52.8835
7.680105979923558 52.7351
7.702472650212829 53.1937
7.724822180948224 53.321999999999996
7.747189439655568 53.3757
7.769539560075357 53.1031
7.791907410653562 53.6467
7.81425812420825 53.5919
7.836626570110925 54.0873
7.858995315087906 54.9188
7.881346924933401 55.0939
7.903716270417482 55.5765
7.926068482028405 55.7344
7.948438431475253 56.3031
7.9708086843180235 56.743
7.993161805171116 57.7605
8.015532667162402 57.7114
8.037886398416653 59.0414
8.060257873014221 59.3235
8.082629655331942 59.5753
8.104984308787587 60.0837
8.127356708900503 60.9948
8.149711981398308 62.107
8.172085002766314 63.397
8.194458336181368 64.0115
8.216814543847752 64.8794
8.23918850371002 65.8538
8.26154533906492 66.7599
8.283919928836452 68.0455
8.306277395339652 69.1476
8.328652618483376 70.4239
8.351028159736202 71.9027
8.373386579575245 73.9941
8.395762759396959 75.6335
8.418121819038275 77.8428
8.440498640894003 81.5267
8.462875785192262 86.3287
8.485235811156207 94.8488
8.507613602688501 128.953
8.529974277114228 232.19799999999998
8.552352719347912 381.965
8.574731488360351 623.864
8.59709314210385 1116.88
8.619472567021075 1852.59
8.64183487789147 2295.04
8.664214962183097 1974.88
8.686577933647762 1100.36
8.708958680784317 420.713
8.731339760774953 174.63299999999998
8.753703729764451 108.921
8.77608547780821 94.9974
8.798450116065078 91.1275
8.820832535634787 88.3222
8.843215292401656 86.8603
8.865580941199045 85.9148
8.887964374703538 84.3283
8.910330701447199 83.7589
8.932714815164482 83.2964
8.955099270424924 82.1626
8.977466620733543 81.6749
8.999851761421976 81.2284
9.022219798361645 80.2363
9.04460562795561 80.1949
9.066991803441677 79.7742
9.089360876979615 79.8004
9.111747746589993 79.7591
9.13411751544971 79.0996
9.156505082664324 78.8407
9.178875550323522 79.5
9.20126381862328 81.2793
9.223652438908596 90.2214
9.246023961427412 104.02
9.26841328802173 109.525
9.290785518039224 99.7739
9.313175554425882 87.8195
9.335565947154315 81.2512
9.357939245086508 79.9199
9.380330352834827 79.928
9.40270436697103 80.289
9.425096193225055 79.7005
9.447488380180165 80.4027
9.469863475295412 80.6089
9.492256385987508 80.9158
9.514632206018318 81.9845
9.537025843935714 81.992
9.559402392368193 82.6762
9.581796761000229 83.3133
9.604191496441521 83.999
9.626569144158516 84.4137
9.648964615551032 85.2902
9.671343000390081 86.7102
9.693739211225699 87.4986
9.716135793237463 88.0264
9.738515290448102 88.6475
9.760912617143402 89.49799999999999
9.783292860202891 90.5946
9.805690935076182 91.2631
9.828089385495742 92.3259
9.850470754023561 93.7963
9.872869957865444 95.9915
9.89525208097539 99.4573
9.917652041736662 102.973
9.940052382417589 106.439
9.962435644102392 115.529
9.984836746950979 147.718
10.007220771957746 229.27
10.029622640473708 353.11800000000005
10.052007432299963 522.497
10.074410069984072 782.602
10.096813093716005 1202.27
10.119199042482517 1756.7
10.141602840636468 2081.62
10.163989564971628 1708.9
10.186394141051062 1023.95
10.208799107559706 445.444
10.231187001965623 201.011
10.253592751657669 125.251
10.275981430388155 107.78399999999999
10.298387966769793 103.068
10.320794897965431 102.09100000000001
10.343184759907361 101.01100000000001
10.36559248305461 99.2581
10.387983138083852 98.0475
10.410391656691655 99.1316
10.432800574501677 108.175
10.455192425893369 130.275
10.47760214443012 163.59799999999998
10.499994797678786 205.40599999999998
10.522405320453982 274.616
10.54479877906917 386.841
10.567210109595656 516.19
10.5896218454736 595.293
10.612016518879773 576.423
10.634429067781074 404.222
10.656824555333241 231.551
10.679237920773568 141.299
10.701651695961992 103.105
10.724048411481384 91.6574
10.746463008485165 85.9407
10.768860546937125 82.4425
10.791275969274796 79.9912
10.81369180576079 78.8031
10.836090585366925 77.8694
10.858507252467449 76.5879
10.88090686379991 75.6193
10.903324365036394 74.8861
10.925724811614439 73.3873
10.948143150509463 73.2816
10.970561909719066 72.7678
10.992963615930844 71.9872
11.015383218085756 70.7075
11.037785768347074 69.7214
11.06020621697282 69.3477
11.082627090322113 68.8501
11.105030913430326 68.2918
11.12745263854165 67.7006
11.149857314510728 67.1366
11.172279894912576 67.6441
11.194702904450653 67.5522
11.217108866490921 66.5515
11.239532736615194 65.595
11.26193956033512 65.3521
11.284364294577085 64.795
11.306789462371718 64.475
11.329197585398376 63.8766
11.351623622610898 63.903
11.37403261614354 62.961999999999996
11.396459526308487 62.9668
11.418869393879497 62.5214
11.441297180532617 62.3221
11.463725406927658 61.9649
11.486136592353875 61.59
11.508565700543707 61.2339
11.530977768845315 61.4257
11.553407762368774 61.1704
11.575838200059769 61.1287
11.598251599479612 60.8587
11.620682927815501 60.9473
11.64309721895548 60.8482
11.665529441478206 60.4453
11.687962112597958 60.2336
11.710377748130886 60.2006
11.732811318753434 60.0914
11.755227854859067 59.9984
11.777662328529495 59.8065
11.800079768750786 59.8837
11.822515149015453 59.6024
11.844950984084935 59.91
11.867369787303163 59.9718
11.889806534289491 60.1378
11.912226250487029 61.7832
11.934663912939751 64.4387
11.9571020346363 67.0828
11.979523127133968 67.3833
12.001962169624331 66.014
12.024384183972964 63.6061
12.046824150809913 64.3599
12.069264581333726 69.6803
12.091687985297767 77.2062
12.11412934550045 86.8334
12.136553680195208 99.6377
12.158995973632788 120.78299999999999
12.181438735204349 147.08
12.20386447284199 178.503
12.226308172985636 202.926
12.24873485024193 210.459
12.271179492516982 174.701
12.293607112949127 134.891
12.316052700916226 97.2446
12.338498763250042 73.9582
12.360927805303868 64.6479
12.383374818673879 62.2339
12.405804812803074 61.3818
12.428252780773262 61.4491
12.45070122756722 61.3418
12.473132656675375 61.2194
12.49558206341869 61.3218
12.518014453510101 61.4243
12.540464823770117 61.70399999999999
12.562915677315177 61.45
12.58534951575545 61.9893
12.607801338171472 61.8756
12.630236146511358 62.5534
12.652688941369085 63.6656
12.675124723177234 64.2926
12.697578494048786 64.342
12.720032754458185 64.0694
12.742470003354093 64.0198
12.764925245138771 64.3793
12.787363476431278 65.0377
12.809819703166806 65.4686
12.83227642391173 66.042
12.854716135692716 66.5659
12.877173846755147 67.7101
12.899614549869717 67.7888
12.9220732548287 68.7063
12.94453245827299 69.5046
12.966974655289818 70.3545
12.989434858002571 71.0198
13.011878055298721 71.8564
13.034339260862497 72.8696
13.056800969391883 74.4834
13.079245674017244 76.5833
13.101708390774869 77.9024
13.12415410463411 82.2083
13.146617833206086 92.5576
13.169064559883248 108.41
13.191529303857127 127.46
13.213994557076367 149.561
13.236442809902437 182.334
13.258909083908291 232.378
13.28135835851934 293.47900000000004
13.30382565690295 370.591
13.326293469022952 439.71
13.348744283242008 452.082
13.371213125129904 379.61300000000006
13.39366497011003 279.13599999999997
13.416134845360597 183.605
13.438605238843131 125.715
13.46105863690397 102.35700000000001
13.483530069144786 99.0901
13.505984506951902 107.37899999999999
13.528456981549432 120.806
13.550929978879088 136.767
13.573385983253365 157.94299999999998
13.595860028340867 190.503
13.618317081455832 237.44099999999997
13.64079217790333 299.194
13.663250283359057 356.468
13.685726434770173 389.735
13.708203115221277 360.57199999999995
13.730662806148091 287.689
13.75314054697177 205.36
13.775601299246777 138.18
13.798080104050406 100.209
13.820559442405358 84.6054
13.843021793671388 79.6316
13.865502201420897 77.6211
13.887965623051947 76.9464
13.910447103807167 76.0457
13.932929122629764 74.6505
13.955394156785959 74.2655
13.977877254034569 73.3835
14.000343367582113 72.6555
14.022827546871707 72.0385
14.045294743423524 71.3266
14.06778000837062 70.5739
14.090265817715476 71.0551
14.112734645763819 71.4659
14.13522154619454 73.1304
14.157691466286913 74.66199999999999
14.180179461423874 74.8751
14.202668005486178 73.205
14.22513957064374 70.5759
14.247629214846473 68.7876
14.270101881097517 67.9769
14.29259262906496 67.3734
14.315083930490205 67.3673
14.337558255389705 67.4692
14.360050666019726 67.2189
14.382526101071944 66.9137
14.405019624534942 66.4589
14.427513705993134 66.3934
14.449990813291825 66.4481
14.47248601302899 66.3754
14.49496423954951 66.5531
14.517460561197822 66.4403
14.539939910570322 66.0368
14.562437357763558 66.5153
14.58493536931253 66.7031
14.607416409993311 66.7786
14.62991555254159 67.2308
14.652397725157423 67.2347
14.674898002342799 67.4252
14.697398848433282 67.6072
14.719882725991326 68.4856
14.74238471217934 68.8487
14.764869730765593 70.7806
14.787372860692983 74.5719
14.809876564079925 81.3935
14.83236330125751 89.1165
14.854868153850365 98.0595
14.877356041159485 110.956
14.899862046604186 126.566
14.922351087688757 149.17700000000002
14.944858249632887 180.628
14.967365991421232 209.354
14.989856770231246 228.605
15.012365673994204 227.27
15.03485761569738 200.393
15.05736768508665 158.429
15.07987833888692 120.944
15.102372032001655 93.7405
15.124883856909658 77.3947
15.14737872204565 71.1609
15.169891721717274 68.9276
15.192405310371893 67.8791
15.214901940621196 67.1074
15.237416709527137 66.642
15.259914520936249 66.5061
15.282430473753607 65.9416
15.304947020131227 65.2582
15.327446610371178 65.0095
15.349964346154254 64.6582
15.372465126703139 64.6706
15.394984055556009 64.4435
15.417486030076159 64.22800000000001
15.44000615566487 63.9157
15.462526881230803 63.6253
15.485030653812652 63.5454
15.507552581617434 63.5448
15.530057557334603 63.4801
15.55258069104857 63.398999999999994
15.575104429329837 63.5708
15.597611216864632 63.601000000000006
15.620136166564563 63.4493
15.6426441664095 63.7522
15.665170331202765 65.0517
15.687697105158826 68.7312
15.710206930593545 74.0476
15.732734925158933 80.1017
15.755245972089478 87.3201
15.77777519094324 95.7311
15.800287463046663 106.73200000000001
15.822817909869592 123.881
15.84534897229804 144.07
15.867863089299354 169.41299999999998
15.890395385222186 190.926
15.912910736597423 203.053
15.935444269699861 193.738
15.957978423016485 169.15599999999998
15.980495633101265 134.734
16.003031029129367 104.565
16.02554948280019 81.442
16.048086125229432 69.4577
16.070623392487107 64.5696
16.09314371869582 62.5161
16.11568223789321 61.0731
16.13820381691126 59.9352
16.160743591742527 59.1459
16.183283996022084 58.2098
16.205807461423195 57.5259
16.228349126881973 57.108000000000004
16.25087385432698 56.937
16.27341678466365 56.223
16.29594277784926 56.1313
16.31848697676433 55.6224
16.341031811604868 55.3005
16.36355971058487 55.453
16.3861058195587 55.1206
16.40863499352978 54.6546
16.431182380342005 54.2472
16.453730407713202 54.0793
16.476261501364792 53.918
16.498810812136167 53.4725
16.52134319004079 53.7412
16.54389378792203 53.5243
16.566445031001553 53.3731
16.588979342490088 53.1038
16.61153187824822 53.1925
16.634067483263312 52.8815
16.656621315414416 52.7539
16.679175797408888 52.6111
16.701713349928728 52.6531
16.72426913389191 52.7402
16.74680798922351 52.7608
16.76936507887444 52.5544
16.791905240734874 52.7125
16.814463639794468 52.6165
16.837022695210294 52.7698
16.859564824093756 53.0326
16.882125194503903 53.1972
16.904668639217885 53.4705
16.927230328348003 53.7084
16.949792678493612 54.0729
16.972338104193863 54.157
16.994901778652235 53.9518
17.017448529496576 53.7759
17.040013531998152 53.8646
17.06257920018044 54.0666
17.0851279459922 54.6997
17.107694947817667 55.9248
17.130245028099072 57.0656
17.15281336730298 58.6357
17.17536478578733 60.4374
17.19793446610687 62.3801
17.220504818648422 65.0341
17.243058251703697 67.9705
17.265629950971032 72.5911
17.288184731571736 77.4311
17.310757781306908 82.0723
17.33333150794385 83.0463
17.355888317140174 82.6993
17.37846339986244 78.7757
17.401021565958885 72.1049
17.42359800851343 65.8297
17.44617513265564 61.6106
17.468735341390783 59.0448
17.491261035594565 57.7083
17.51396340099364 57.1102
17.536490463869136 57.2838
17.559018209820174 57.5527
17.58154663977963 57.5545
17.604251766089718 57.6156
17.626781572227713 57.8082
17.64931206518155 58.108999999999995
17.671843245885103 58.2803
17.69455114821572 58.5346
17.717083712612634 58.9383
17.739616967569667 59.5838
17.762150914021706 60.1466
17.78486160749854 60.0971
17.807396945166804 60.5745
17.829932977143503 61.1864
17.85246970436452 61.9356
17.875183204129467 63.7926
17.897721330097664 66.8335
17.920260154126645 70.1311
17.942799677153296 73.6782
17.9655159983646 77.7416
17.988056927677544 82.5802
18.010598558807683 89.1067
18.033140892692916 97.9673
18.05586005052525 109.069
18.07840379824407 121.353
18.10094825154059 133.22799999999998
18.12366954819864 142.439
18.146215420998306 144.355
18.16876200220057 137.84799999999998
18.191309292745153 124.061
18.214033452627167 109.171
18.236582170236648 96.1524
18.259131600016456 88.3374
18.281681742907335 86.1108
18.304408781233683 89.215
18.32696035875955 94.4246
18.349512652227624 99.5625
18.372065662579683 105.441
18.394795594587553 107.366
18.41735004715306 104.814
18.43990521943684 98.5938
18.46246111238171 89.0532
18.485193953325208 78.85300000000001
18.507751296070428 70.5534
18.530309362314178 65.6239
18.552868153000343 62.9722
18.57560391815056 61.3063
18.59816416623245 60.9384
18.620725141597372 60.1767
18.643286845190268 59.4315
18.666025549835414 58.8437
18.688588718427933 58.2189
18.711152618092243 58.0538
18.73389353884365 57.7977
18.75645890921984 57.3429
18.77902501351406 57.2797
18.801591852673102 57.0367
18.824335739722738 56.4564
18.846904057212626 56.6422
18.8694731124168 56.3387
18.89204290628315 56.1595
18.914789774966803 56.0385
18.937361054791623 55.7201
18.959933076131318 55.2637
18.982505839934877 55.4782
19.00525570560582 55.2429
19.027829963004184 55.0174
19.05040496572238 55.1236
19.072980714710468 55.1573
19.095733592739563 55.1074
19.11831084296757 55.2569
19.140888842324735 55.9099
19.16346759176222 56.37
19.18622349753803 57.2138
19.208803755869358 58.0461
19.231384767143577 59.4439
19.253966532312948 60.7466
19.276725481241822 63.053999999999995
19.29930876296784 65.5935
19.3218928014549 68.9269
19.34465404436217 71.9283
19.36723960516257 74.4188
19.389825925592426 75.8857
19.412413006605938 75.1562
19.43517731967805 72.1501
19.457765930683355 67.936
19.48035530514408 63.3957
19.50294544401556 59.1113
19.525712842708348 56.0388
19.54830451925909 54.1169
19.570896963095727 53.0122
19.593490175174704 52.5888
19.616260674962184 52.623000000000005
19.638855432416964 52.2444
19.661450960992624 52.2979
19.68404726164677 52.1926
19.706820878021247 52.0956
19.729418731756834 52.1502
19.752017360452857 51.88399999999999
19.77461676506804 51.9403
19.797393513540218 51.8509
19.819994478951667 52.2089
19.84259622316767 52.9616
19.8651987471481 53.3982
19.887978643247177 53.8513
19.91058273574792 54.3217
19.933187610901943 55.3481
19.955969879466828 56.3547
19.97857632894404 57.7534
20.00118356396599 59.2015
20.023791585494575 60.9265
20.046577028914875 63.8144
20.069186632506966 66.6552
20.091797025500632 69.0422
20.114408208858933 70.4441
20.137196842715273 70.6475
20.159809615886765 69.163
20.18242318232135 66.6936
20.20503754298326 64.3416
20.227829382875154 62.6506
20.250445341109344 61.9907
20.27306209647285 62.101000000000006
20.29567964993108 63.6253
20.31847471147704 64.5996
20.34109387027612 65.4735
20.363713830075454 65.3185
20.386334591841646 63.9774
20.409132890679302 61.4316
20.431755265564437 58.2778
20.454378445325528 55.3619
20.477002430930366 52.9277
20.499803982716553 51.1849
20.522429589228004 50.1045
20.54505600449589 49.6482
20.567683229489194 49.3297
20.590488049900088 49.162
20.61311690359731 48.8139
20.63574656993626 48.7497
20.658553853717297 48.4373
20.681185154618298 48.4028
20.703817271080066 48.1674
20.72645020407368 47.86600000000001
20.749260783967177 48.06100000000001
20.771895359337133 48.0197
20.794530754161617 48.0305
20.817166969412938 47.8593
20.83998086114876 47.8297
20.86261872660049 47.6979
20.885257415405402 47.6219
20.90789692853701 47.3255
20.930714147864748 47.2842
20.953355319030678 47.358999999999995
20.97599731745334 47.5944
20.99864014410749 47.3764
21.021460706796564 47.5178
21.044105199328826 47.7124
21.06675052302631 47.8115
21.089396678865015 47.9399
21.112220600704806 48.2321
21.134868430275347 48.5611
21.15751709492456 48.9653
21.180166595629693 49.3107
21.202993892429635 49.7045
21.22564507473034 50.0709
21.24829709602816 50.5515
21.27112693608965 50.728
21.293780644891275 50.5744
21.316435195634053 49.9634
21.339090589297417 49.157
21.361923832041875 48.7309
21.384580921090404 47.981
21.407238856007325 47.4902
21.429897637773326 47.42100000000001
21.45273429906592 47.3083
21.475394784108598 47.3214
21.498056118951983 47.1919
21.520718304578022 47.4023
21.543558400304388 47.5078
21.566222297108816 47.7226
21.58888704765135 47.7568
21.61155265291521 47.928999999999995
21.63439619898156 48.5776
21.657063523335786 48.9155
21.67973170537063 49.6103
21.7024007460706 50.3008
21.72524775840385 50.9278
21.747918526116475 51.8837
21.770590155457388 52.9378
21.79326264741238 54.4876
21.816113141960237 56.1119
21.838787368860547 58.0089
21.861462461341976 60.4814
21.884315579735777 62.9045
21.90699241312273 64.6606
21.92967011506078 65.3812
21.95234868653799 65.5553
21.9752053151131 64.0981
21.997885635446785 62.2371
22.020566828293532 60.0495
22.04324889464272 57.7353
22.066109049404666 56.3656
22.088792872571794 55.7857
22.111477572219204 56.048
22.1341631493376 56.0706
22.157026846313123 56.0078
22.179714188221507 55.5372
22.202402410582668 54.4242
22.22509151438863 52.6384
22.24795876962584 51.3882
22.270649646204486 50.1738
22.293341407213727 49.2447
22.316034053646906 48.6127
22.338904883215342 48.1566
22.36159931041458 47.8794
22.38429462602756 47.7501
22.40699083104897 47.5017
22.429865251039757 47.5458
22.452563244831367 47.5203
22.47526213102522 47.4483
22.49813925616515 47.5651
22.520839937143307 47.6802
22.543541513520587 47.5545
22.56624398629403 47.4471
22.589124730075895 47.3834
22.611829005656723 47.6721
22.63453418063466 47.6045
22.657240256008077 47.8402
22.680124634582935 48.06100000000001
22.70283252079775 48.4116
22.725541310413075 48.7457
22.74825100442868 49.1914
22.771139033969575 49.6149
22.79385054687155 50.0063
22.81656296718292 50.5459
22.83927629590484 51.2629
22.862167992606945 52.2998
22.88488314827121 53.4536
22.907599215359284 54.2911
22.93031619487366 55.8271
22.953211574954405 56.9183
22.975930389478226 57.661
22.998650119445763 57.9936
23.02137076586092 57.3
23.044269845560063 56.2399
23.06699233506288 54.8701
23.089715744034912 52.6473
23.112617610931565 51.0392
23.135342869061212 49.6795
23.158069049684816 48.7193
23.1807961538087 48.0747
23.20370174880544 47.8655
23.226430710184808 47.9146
23.249160598093425 47.8519
23.271891413539002 47.7319
23.294800752937697 48.2049
23.31753343374794 48.2239
23.340267045128353 48.4346
23.36300158808808 48.9506
23.38591468821339 49.5792
23.408651104658304 49.9762
23.431388455719986 50.6309
23.454126742409 51.2845
23.4770436196085 52.1589
23.499783787914662 53.548
23.522524894889884 54.7861
23.54526694154616 55.7762
23.56818761219047 57.3397
23.59093154860734 58.038000000000004
23.613676427751283 58.5211
23.636422250635754 57.9756
23.659346731118656 56.4985
23.68209445191868 54.567
23.704843119509587 52.211999999999996
23.72759273490623 50.3053
23.750521041644767 48.4734
23.77327256312355 47.0071
23.796025035462787 46.0909
23.818956224555475 45.3834
23.841710609113413 45.1071
23.86446594758979 44.8782
23.887222241002014 44.7039
23.910157285144578 44.5135
23.932915498962537 44.3518
23.955674670778713 44.1628
23.978434801611975 43.9104
24.001373717286125 43.9036
24.024135776723917 43.836000000000006
24.046898798245582 43.8068
24.06966278287146 43.7807
24.092605586582614 43.4543
24.115371508023642 43.273
24.1381383956401 43.037
24.16090625045381 42.9974
24.183852958731244 42.8488
24.206622758582608 42.818000000000005
24.229393528706886 42.7116
24.252165270127392 42.7995
24.27511589952438 42.6618
24.297889594216997 42.591
24.32066426328598 42.3558
24.34343990775613 42.3491
24.36639447485003 42.2283
24.38917208083877 42.0986
24.41195066531332 42.1083
24.43490819850244 42.203
24.457688750692377 42.0643
24.48047028445616 41.955
24.503252800821233 42.1469
24.526214300784112 42.2853
24.548998793132213 42.2625
24.57178427117417 42.1599
24.59457073593893 42.2003
24.617536219319863 42.1362
24.64032466834748 42.1664
24.663114107195035 42.038000000000004
24.685904536893013 41.7444
24.708874020360852 41.6143
24.731666442613744 41.658
24.754459858818787 41.5255
24.777254270007962 41.4478
24.80022777025625 41.2411
24.82302418230472 41.2819
24.845821592443674 41.4161
24.86862000170663 41.3008
24.891597535453727 41.2777
24.914397953892728 41.6057
24.93719937456671 41.4497
24.96000179851076 41.585
24.98298338249997 41.6903
25.00578782394922 41.8644
25.028593271784167 42.1101
25.05157790644186 42.6343
25.07438537804115 42.7218
25.097193859145293 42.9578
25.120003350792075 43.3441
25.142992065061257 43.79
25.165803588823465 44.1479
25.18861612625217 44.363
25.211429678386736 44.3452
25.234422489079968 44.3471
25.257238081693636 44.382
25.280054692141732 44.6317
25.3028723214652 44.5989
25.325869245420463 44.7204
25.348688923599397 44.7177
25.371509623787006 44.7192
25.394331347025812 44.5289
25.41733240110666 44.0533
25.440156181590016 43.292
25.46298098826268 42.7807
25.48580682216873 42.1492
25.50881202326435 41.3148
25.53163992281684 40.9437
25.55446885274561 40.5563
25.577298814096377 40.277
25.600308179121807 40.0515
25.623140214533745 40.1601
25.64597328451537 40.001
25.66898578564376 39.7218
25.691820936010206 39.7527
25.714657124097695 39.8241
25.737494350954734 39.7188
25.760511045684957 39.5972
25.783350361364224 39.747
25.806190718969255 39.942
25.82903211955018 39.9459
25.852053024868923 39.9559
25.874896522722523 40.014
25.897741066713106 39.7781
25.920586657892454 40.0757
25.943611790812668 40.1662
25.966459487728237 40.2088
25.989308234998564 40.2933
26.01215803367705 40.674
26.03518741123814 40.8985
26.05803932412957 41.0907
26.080892291600094 41.0121
26.10374631470478 41.3068
26.12677995397268 41.4195
26.14963609978026 41.3886
26.172493304397875 41.0262
26.19535156888223 40.8709
26.218389486949604 40.3809
26.241249882640123 40.196
26.26411134137826 39.7644
26.28715248187403 39.6035
26.31001607820869 39.4334
26.3328807407756 39.2332
26.35574647063438 39.4883
26.37879191991473 39.5953
26.401659795896734 39.4677
26.424528742360263 39.6689
26.447398760366614 39.8779
26.470448535598294 39.9237
26.49332070826805 40.2324
26.516193955675355 40.4116
26.53906827888316 40.5168
26.562122397260108 40.8556
26.584998883685063 41.3298
26.607876449110325 41.6758
26.63075509460056 41.7935
26.65381357334404 42.0766
26.67669439061878 42.0795
26.699576291163382 41.9844
26.722459276044212 41.9709
26.745522132402975 41.6542
26.768407297649354 41.2323
26.791293550442003 40.7614
26.814180891848974 40.4979
26.837248143099337 40.2553
26.860137673466657 40.1172
26.88302829566349 39.8969
26.90592001075963 39.7439
26.92899167420566 39.4583
26.951885586870763 39.2074
26.974780595655517 38.9863
26.99785558178161 38.8407
27.020752794605112 38.4918
27.043651106772522 38.2997
27.06655051935668 38.2897
27.089629948036183 38.1173
27.112531573292053 38.0776
27.135434302194138 38.2204
27.158338135817015 38.0469
27.181422024430987 38.0447
27.204328079372566 37.9167
27.22723524226965 37.97
27.250143514198573 38.037
27.273231880156334 38.0199
27.296142382065014 37.9278
27.319053996245536 37.716
27.341966723775965 37.821
27.365059584515222 37.8761
27.38797455070062 38.0225
27.410890633481237 37.7934
27.433807833936918 37.8796
27.456905206923906 38.0084
27.47982465472398 37.9621
27.502745223449743 38.0647
27.525666914182825 38.1197
27.548768816912457 38.0561
27.571692763693633 38.05
27.59461783573812 38.0341
27.617723149491244 37.798
27.640650484125285 37.6774
27.66357894728264 37.641999999999996
27.686508540048052 37.6144
27.709618414237887 37.4457
27.732550278321757 37.248000000000005
27.755483275279115 37.3327
27.778417406196485 37.2992
27.801531858397514 37.4363
27.824468269376716 37.2699
27.847405817586786 37.2937
27.870344504116094 37.5486
27.893463551932008 37.6985
27.916404527281053 37.8931
27.93934664422563 37.9359
27.962289903855886 38.1273
27.98541356491974 38.2777
28.00835912214229 38.3374
28.03130582533231 38.6296
28.054253675581805 38.8975
28.077381967556104 38.8991
28.100332124185126 39.0326
28.123283431160893 38.8827
28.146235889577238 38.7164
28.169368830154156 38.6282
28.192323603752033 38.4227
28.215279532083304 37.9274
28.238415973016764 37.6547
28.261374223145094 37.6586
28.284333631303806 37.3739
28.307294198589954 37.218
28.330435319167677 36.9192
28.353398217078915 36.6245
28.376362277420153 36.3527
28.39932750129032 36.1169
28.422473319286713 35.8862
28.44544088262495 35.9443
28.468409612800283 35.7653
28.491379510913497 35.5781
28.51453004413313 35.4367
28.53750229057244 35.4195
28.56047570826344 35.1923
28.583450298308804 35.3762
28.606605564586562 35.0863
28.629582511831156 35.1982
28.65256063474956 35.1361
28.675539934446338 35.2362
28.698699951647605 35.1099
28.72168161743193 34.9472
28.74466446331978 34.9654
28.767648490417624 34.9643
28.790813276438353 35.0385
28.813799678527303 35.0438
28.836787265157085 34.9101
28.859955641890075 34.891
28.882945610203045 34.8103
28.905936766392035 34.8521
28.928929111566863 34.8348
28.952102288520145 34.7482
28.975097024308607 34.6492
28.998092952423807 34.5081
29.021090073977508 34.4948
29.04426806913204 34.3384
29.067267590245258 34.1567
29.090268308143695 34.2043
29.11327022394099 34.1186
29.13645305530891 33.981
29.159457379627167 33.8817
29.18246290519685 33.7706
29.20546963313352 33.7849
29.22865731875826 33.8115
29.25166646419296 33.7965
29.27467681535305 33.7604
29.29768837335608 33.7422
29.320880931312562 33.7329
29.34389491580634 33.8066
29.366910110507334 33.789
29.38992651653503 33.8949
29.41312396492981 33.8316
29.436142806456754 33.7157
29.45916286268059 33.7332
29.48236399319994 33.6678
29.50538649169417 33.4605
29.528410208259935 33.3036
29.55143514402014 33.052
29.574641196749695 32.9069
29.597668583816574 32.7876
29.6206971934585 32.6111
29.64372702680042 32.6937
29.666938019934474 32.5665
29.689970313635285 32.510999999999996
29.713003834422636 32.5458
29.73603858342347 32.3887
29.759254535188578 32.3558
29.78229175361658 32.2543
29.80533020365064 32.3168
29.82836988641968 32.3062
29.85159081507472 32.2434
29.874632976355343 32.2341
29.89767637376955 32.2726
29.920721008448314 32.0438
29.9439469322847 32.0739
29.96699405457564 31.9499
29.9900424175358 31.9646
30.013092022298157 31.8616
30.03632295963995 31.8453
30.059375061131373 32.0135
30.08242840783577 31.9818
30.105483000888153 32.0126
30.128718970092244 31.9497
30.151776069006917 31.8939
30.17483441768648 31.9708
30.198074175317235 31.8642
30.221135036724256 31.8813
30.24419715131772 31.9051
30.267260520236203 31.8861
30.290505341942243 31.8628
30.313571232750228 31.9332
30.336638381310948 31.9044
30.35970678876503 31.72
30.38295669299435 31.6726
30.40602763151657 31.7468
30.429099832366074 31.7497
30.452173296685572 31.6546
30.47542830191959 31.5917
30.498504306502497 31.6486
30.521581577995562 31.6803
30.544660117543582 31.7193
30.56792024229725 31.7498
30.59100133132069 31.6998
30.614083691845494 31.7774
30.637167325018545 31.8178
30.660432587840603 31.8088
30.683518779717886 31.8269
30.70660624769615 31.8271
30.729694992924372 31.9429
30.75296541239743 31.9297
30.77605672557558 31.7769
30.799149319462742 31.8795
30.8224236211637 31.8197
30.845518789950724 31.6191
30.868615242910597 31.5104
30.891712981195973 31.3823
30.91499247215866 31.3257
30.938092794619365 31.2307
30.96119440587579 31.1891
30.984297307082752 30.9983
31.00758200598383 30.9371
31.030687500658694 30.7319
31.053794288760695 30.7286
31.076902371446767 30.7023
31.100192296997445 30.7274
31.12330298246119 30.5786
31.14641496599209 30.4901
31.169528248749216 30.5761
31.19282341969534 30.566999999999997
31.215939314557186 30.5712
31.239056512134788 30.6379
31.262175013589378 30.4601
31.28547544871168 30.4389
31.30859657161541 30.4266
31.331719001892175 30.4554
31.35484274070538 30.6229
31.378148458819545 30.526999999999997
31.401274828443725 30.5955
31.424402510106933 30.5574
31.447712205419993 30.5532
31.470842524931633 30.4816
31.493974159989783 30.4872
31.51710711176168 30.4959
31.54042212308802 30.4686
31.563557722100917 30.5135
31.586694641341655 30.3231
31.609832881979628 30.2037
31.63315322823208 30.1822
31.656294125521327 29.9766
31.679436347728515 29.9165
31.70257989602529 29.9182
31.725905596152327 29.9301
31.74905181052835 29.8099
31.772199354521323 29.8218
31.79534822930507 29.8627
31.818679302290967 29.9102
31.84183085259981 29.848000000000003
31.864983737233473 29.7766
31.88813795736804 29.7975
31.911474422233013 29.6664
31.934631327356435 29.857
31.9577895715215 29.7498
31.980949155906522 29.7567
32.004291031706956 29.8168
32.027453310562606 29.6461
32.05061693318573 29.5322
32.07396288236386 29.487
32.09712920658542 29.5042
32.12029687812702 29.329
32.14346589817093 29.1893
32.166817291729984 29.1958
32.18998902288583 29.0202
32.21316210610336 29.0757
32.23633654256711 28.8871
32.259693399663725 28.8995
32.282870556771144 28.7312
32.30604907069099 28.7584
32.329228942610065 28.764
32.35259128243769 28.5698
32.375773884550505 28.6367
32.398957848235646 28.6026
32.422143174682176 28.4507
32.445511016471215 28.3298
32.468699082679954 28.394000000000002
32.49188851523011 28.3949
32.51507931531304 28.199
32.538452678331 28.2381
32.56164622776311 28.2042
32.58484114831493 28.1032
32.60803744118015 28.1794
32.631416344731896 28.143
32.654615396551876 28.0597
32.67781582427913 28.0354
32.701198898634416 27.9672
32.72440209253756 27.8359
32.747606665947124 27.8469
32.77081262006088 27.7316
32.79420126883317 27.6952
32.81740999876112 27.8009
32.840620112999424 27.7336
32.86383161274818 27.6613
32.88722585534586 27.5927
32.91044014056596 27.6572
32.933655814909734 27.7116
32.95687287957963 27.6353
32.98027273544904 27.5406
33.00349259526636 27.5714
33.026713849030116 27.5973
33.04993649794511 27.5059
33.073341986570746 27.4211
33.09656744032826 27.4151
33.11979429286444 27.4409
33.14302254538647 27.4115
33.166433686291185 27.4913
33.18966475336992 27.4664
33.212897224069096 27.2493
33.23613109959831 27.2955
33.259547912343415 27.3512
33.2827846121627 27.2867
33.306022720453775 27.2064
33.32926223842861 27.1035
33.352684742614166 27.1893
33.37592709463173 27.0808
33.399170859982064 26.9868
33.422597648419426 26.9161
33.44584425514446 26.7761
33.46909227885668 26.7258
33.4923417207723 26.6825
33.51577423505344 26.7233
33.539026528130385 26.5598
33.56228024307245 26.5932
33.585535381098246 26.4284
33.60897364093058 26.4196
33.63223163992385 26.4542
33.6554910656699 26.3093
33.678751919389796 26.2405
33.702195944520106 26.1661
33.72545966903325 26.2883
33.74872482519663 26.1918
33.771991414233746 26.1865
33.79544122444841 26.164
33.81871069412428 26.0829
33.84198160035767 25.9697
33.86525394437455 26.0398
33.88870955949969 26.0372
33.911984794020626 25.9536
33.93526147001624 25.9152
33.958539588715006 25.8571
33.98200102861669 25.7671
34.0052820477047 25.7352
34.02856451319451 25.697
34.05203033759056 25.6213
34.07531571090147 25.5981
34.09860253431845 25.5998
34.121890809074316 25.5249
34.145362493118924 25.5122
34.16865368561615 25.4338
34.191946333164054 25.3984
34.21524043699793 25.4681
34.23871800066799 25.4232
34.26201503218366 25.3674
34.28531352370466 25.3655
34.30861347646881 25.2186
34.33209693978188 25.2459
34.3553998301885 25.2416
34.378704185565205 25.1427
34.402010007152356 25.0668
34.42549939016683 25.0799
34.44880815937748 24.9488
34.472118398533134 24.9798
34.49543010887669 24.9813
34.51892543169198 24.8097
34.54224009966052 24.8072
34.56555624255917 24.8555
34.58887386163339 24.6606
34.61237514439016 24.671999999999997
34.6356957311114 24.6723
34.65901779775809 24.5424
34.68252356662995 24.6024
34.705848608458616 24.6248
34.72917513396849 24.5479
34.75250314440949 24.4434
34.77601490857862 24.2643
34.799345904259795 24.2828
34.82267838863559 24.3328
34.846012362958525 24.3407
34.869530142679984 24.2794
34.89286711232212 24.2943
34.91620557568269 24.2823
34.93954553401677 24.2411
34.9630693495876 24.1464
34.986412313340814 24.1125
35.00975677584668 24.1888
35.033102738362956 24.073
35.05663261012228 24.0791
35.0799815881786 24.0302
35.10333207003229 23.9448
35.12668405694369 23.9766
35.150220005273056 23.9915
35.17357501786656 24.037
35.19693153931268 23.9573
35.220289570874385 23.8184
35.24383161619786 23.8685
35.267192683604904 23.8675
35.290555264930376 23.8084
35.314101899412165 23.7176
35.33746752422433 23.7688
35.36083466676374 23.7605
35.38420332829803 23.7574
35.407756095629054 23.753
35.43112781085063 23.71
35.45450104888391 23.7071
35.477875810999194 23.6291
35.50143473172161 23.5628
35.52481255774625 23.6813
35.54819191167777 23.5146
35.57157279478914 23.5002
35.595137889488406 23.4885
35.61852184675279 23.409000000000002
35.641907337029984 23.3744
35.665294361595684 23.3683
35.68886565090076 23.2041
35.7122557598848 23.3345
35.73564740699838 23.2609
35.759040593519934 23.2172
35.78261809810353 23.1275
35.80601437933051 23.066999999999997
35.829412203814705 23.0695
35.85281157283719 22.951
35.876395313415884 23.0811
35.8997977874528 22.9248
35.92320180988546 22.8793
35.946790244133936 22.8588
35.97019737933222 22.8771
35.993606066789866 22.8821
36.01701630779276 22.7799
36.04061101440684 22.7311
36.06402437852291 22.7598
36.08743930005611 22.6994
36.1108557802951 22.5531
36.13445678011326 22.6397
36.15787639383515 22.5437
36.18129757014299 22.5873
36.20472031032821 22.5255
36.22832762423364 22.4629
36.25175350829375 22.4532
36.275180960119776 22.4042
36.298609981005924 22.4558
36.32222362992669 22.4208
36.34565580510207 22.3894
36.36908955323448 22.2771
36.39252487562093 22.1708
36.416144880530226 22.15
36.43958336764275 22.1837
36.463023432914625 22.1885
36.486465077645676 22.0276
36.51009145956204 22.1139
36.53353627947859 22.1288
36.55698268276811 22.0978
36.58043067073321 21.9998
36.60406345072071 21.9177
36.62751462435344 21.9489
36.65096738658405 21.91
36.67460498210655 21.8498
36.69806093788647 21.8778
36.72151848619297 21.7469
36.744977628333636 21.7576
36.76862165890998 21.7032
36.79208400512205 21.621
36.81554794910557 21.6715
36.83901349217101 21.5516
36.862663978991606 21.531999999999996
36.88613273667352 21.5541
36.90960309738324 21.565
36.933075062434064 21.4727
36.95673202673572 21.4377
36.98020721697122 21.3653
37.003684015502365 21.3575
37.027162423645365 21.3633
37.050825886711465 21.2862
37.07430753063053 21.1884
37.09779078812467 21.2256
37.121275660513014 21.2305
37.144945643673694 21.211
37.16843376245278 21.1235
37.19192350009803 21.2087
37.215414857931435 21.1567
37.239091382563885 21.0582
37.262585997426164 20.9551
37.28608223645736 20.9179
37.309763684451696 20.9178
37.33326318851098 20.897
37.356764320726555 20.8185
37.380267082425526 20.8216
37.40395510942588 20.8108
37.42746114683234 20.7415
37.45096881771841 20.6974
37.474478123414166 20.7415
37.49817275092816 20.6748
37.52168534303452 20.6551
37.54519957395567 20.5852
37.568715445024665 20.6243
37.592416694607714 20.5168
37.61593586281424 20.616999999999997
37.63945667518264 20.555999999999997
37.66297913304891 20.4636
37.68668702630454 20.4669
37.710212792059274 20.3702
37.733740207334854 20.2791
37.757269273470364 20.2748
37.780983832050374 20.2419
37.80451621684926 20.1982
37.82805025654007 20.1719
37.851585952464795 20.1527
37.8753071980695 20.1322
37.89884622345676 20.0879
37.92238690911902 20.0461
37.94611318753442 20.0295
37.969657210779765 20.0233
37.99320289834801 20.0562
38.016750251586465 19.9408
38.04048325513017 19.8743
38.06403395679343 19.8251
38.087586328183946 19.8005
38.11114037065203 19.7664
38.13488012115898 19.8246
38.1584375229181 19.7612
38.181996599821 19.673
38.205557353221124 19.7082
38.229303872575656 19.6916
38.2528679961576 19.658
38.27643380031219 19.6234
38.30000128639589 19.6086
38.32375459653193 19.5131
38.34732546371299 19.5646
38.37089801690786 19.4343
38.39447225747609 19.3931
38.418232380377425 19.4208
38.441810012983396 19.3939
38.46538933705673 19.3233
38.488970353960084 19.3877
38.51273731166058 19.3202
38.536321731567014 19.2482
38.55990784840681 19.2202
38.58367995004091 19.2498
38.60726947812959 19.1514
38.63086070726198 19.1998
38.654453638806274 19.1129
38.678232613930824 19.0636
38.70182896773327 18.979
38.72542702806741 18.9729
38.7490267963045 18.9343
38.77281266709232 18.9829
38.79641586862214 18.953
38.8200207821842 18.9214
38.843627409152944 18.9526
38.86742019782782 18.8868
38.891030269149255 18.7605
38.914642058016156 18.7368
38.938255565806124 18.7447
38.96205529464307 18.6863
38.98567225787121 18.7119
39.00929094417078 18.6947
39.03291135492255 18.6374
39.05671804624804 18.5482
39.080341923549106 18.562
39.103967529460334 18.5076
39.127594865365744 18.49
39.15140854155791 18.4258
39.17503935514948 18.3961
39.19867190290282 18.4161
39.22249083587951 18.395
39.24612686969409 18.3872
39.269764641845306 18.3352
39.293404153722804 18.2281
39.317230110864074 18.2591
39.34087311998506 18.2498
39.36451787301696 18.1891
39.388164371352595 18.118
39.41199737518003 18.1776
39.43564738196752 18.1044
39.45929913825317 18.1009
39.48295264543308 18.0541
39.506792718520884 18.062
39.530449745387216 18.0538
39.55410852735203 17.9975
39.57776906581474 17.9775
39.60161623079 17.9239
39.625280300200025 17.887
39.64894613032202 17.8493
39.67261372255866 17.8121
39.6964680021016 17.7836
39.72013913657293 17.7411
39.74381203738292 17.8042
39.76748670593756 17.7658
39.79134812278169 17.732
39.81502634488497 17.7159
39.83870633896685 17.6558
39.862388106436654 17.616
39.88625668336918 17.5728
39.90994201572829 17.5805
39.933629125719285 17.5289
39.957503091207826 17.4729
39.9811937746168 17.559
40.00488623990914 17.4619
40.02858048850006 17.4047
40.05246165409549 17.3671
40.076159487492085 17.3299
40.099859108448875 17.3365
40.123560518384345 17.2883
40.1474489070226 17.2911
40.171153913178564 17.2218
40.194860712584955 17.1596
40.2185693066637 17.1542
40.242464941335314 17.1666
40.26617714307655 17.1644
40.289891143772046 17.086
40.3136069448471 17.1087
40.33750984859743 17.052
40.3612292688043 17.0284
40.3849504936829 17.0241
40.40867352466194 17.0287
40.43258372059144 16.9725
40.45631038219906 16.9565
40.48003885420956 16.9135
40.503769138055105 16.889
40.52768664931955 16.8806
40.55142057531802 16.8543
40.57515631746428 16.8311
40.599079334038514 16.8172
40.62281872700477 16.7086
40.64655994043941 16.6687
40.67030297578061 16.7154
40.69423334835778 16.6805
40.71798004609188 16.6633
40.74172857006355 16.6345
40.76547892171441 16.5658
40.7894166736039 16.561
40.813170699248566 16.5137
40.83692655691388 16.5375
40.86068424804498 16.5284
40.884629402612525 16.488
40.908390779366385 16.4719
40.932153993938 16.4002
40.95591904777605 16.393
40.979871628443995 16.3406
41.003640379561936 16.3097
41.02741097430883 16.3221
41.05118341413683 16.3147
41.075143444384416 16.2513
41.098919593177826 16.2441
41.1226975914255 16.2029
41.14647744058318 16.1288
41.170444943946755 16.0789
41.19422851378379 16.1351
41.218013938914645 16.1001
41.24198706625173 16.0659
41.26577622087193 16.012999999999998
41.289567235177785 15.9936
41.31336011063129 15.9772
41.337340752422875 15.9705
41.361137369129835 15.950999999999999
41.38493585138705 15.8653
41.40873620066004 15.842
41.43272438060107 15.9006
41.45652848292052 15.8186
41.48033445666918 15.7658
41.50414230331616 15.7952
41.528138045159764 15.7633
41.551949656675205 15.6666
41.575763145513235 15.614
41.59957851314666 15.6184
41.62358184070442 15.6076
41.64740098505737 15.6233
41.6712220126409 15.5849
41.69504492493139 15.583
41.71905586207357 15.5257
41.74288256296395 15.4936
41.766711153007456 15.474
41.79054163368412 15.4533
41.814560204340054 15.4372
41.838394485526365 15.4377
41.86223066180303 15.3935
41.88625497706819 15.3374
41.910094962812 15.3278
41.93393684811168 15.2822
41.95778063445365 15.2516
41.981812625263366 15.2244
42.00566023303407 15.2185
42.029509746323676 15.2325
42.05336116662236 15.1792
42.077400857069705 15.1606
42.10125611078846 15.1217
42.12511327600405 15.0986
42.14897235421036 15.0318
42.173019768448455 15.1055
42.19688269209613 15.0149
42.22074753323349 14.9279
42.24461429335818 14.9183
42.268669455600495 14.9666
42.292540073217886 14.9543
42.31641261433284 14.8957
42.34028708044675 14.852
42.36435001496739 14.8551
42.38822835065557 14.8143
42.41210861586426 14.7733
42.4359908120986 14.7599
42.46006154323262 14.7794
42.48394762115317 14.7513
42.507835634632315 14.706
42.531912233047436 14.6403
42.55580413732265 14.6559
42.579697981698 14.624
42.60359376768525 14.6161
42.62767820545945 14.5309
42.65157789440821 14.5532
42.67547952952185 14.5498
42.699383112316 14.5269
42.72347541395347 14.4486
42.74738291190531 14.4013
42.771292362102166 14.4299
42.795203766063516 14.4029
42.819303956130405 14.3534
42.843219287476536 14.3162
42.86713657716324 14.3179
42.89105582671383 14.3294
42.91516392983864 14.3031
42.939087119032166 14.2996
42.963012272677304 14.2615
42.98693939230129 14.2307
43.01105543317513 14.1434
43.034986504731386 14.1372
43.05891954686589 14.1447
43.08285456110972 14.1057
43.10697856448665 14.0827
43.130917542983475 14.0395
43.15485849820081 14.042
43.17880143167367 13.974
43.20293342237094 13.9983
43.226880332449 13.9304
43.25082922540554 13.9594
43.27496722682525 13.9342
43.29892010567796 13.9052
43.32287497204102 13.8822
43.34683182745632 13.843
43.370977859791836 13.84
43.39493871351105 13.8214
43.41890156092628 13.823
43.44286640358341 13.7541
43.46702049182749 13.7324
43.49098934522816 13.7005
43.51496019852649 13.6646
43.5389330532723 13.6368
43.56309522248204 13.5966
43.58707210044314 13.6434
43.61105098451946 13.5313
43.63503187626491 13.5431
43.659202151562134 13.5227
43.68318707902681 13.4781
43.70717401884041 13.4771
43.731162972560874 13.4395
43.75534137913236 13.4094
43.779334381108384 13.3463
43.803329401683186 13.4036
43.82732644241872 13.4117
43.8515130055166 13.3573
43.87551410707659 13.3253
43.89951723350145 13.2989
43.923709934595614 13.2336
43.94771713129917 13.2823
43.97172635758096 13.2662
43.99573761501002 13.2256
44.0199385169922 13.2289
44.04395385732619 13.1627
44.067971233533086 13.1631
44.09199064718605 13.1518
44.11619977548961 13.0945
44.14022328470671 13.103
44.16424883610785 13.1117
44.18827643127035 13.047
44.21249381139513 13.0013
44.236525514814076 13.003
44.26055926674478 12.9593
44.28459506876863 12.9635
44.3088207262813 12.9299
44.33286064928722 12.8878
44.35690262714919 12.8657
44.38094666145278 12.812999999999999
44.4051806219871 12.8193
44.42922879003185 12.7695
44.45327901929361 12.7511
44.477331311362136 12.727
44.501573600619416 12.714
44.525630039221795 12.6887
44.54968854541895 12.6657
44.573937102200176 12.6772
44.5979997645541 12.6914
44.622064499300315 12.6175
44.64613130803592 12.5735
44.67038823869318 12.6189
44.69445921643748 12.5707
44.718532272981385 12.4812
44.742607409926194 12.4756
44.76687274034801 12.4514
44.79095205918753 12.4293
44.81503346325094 12.4637
44.839116954143876 12.4359
44.86339071028742 12.3997
44.88747839599524 12.3764
44.91156817336837 12.3603
44.93566004401666 12.3483
44.959942251908146 12.2917
44.984038330325966 12.2783
45.00813650686762 12.2408
45.03223678314731 12.2372
45.05652746888232 12.1972
45.08063196592069 12.1909
45.104738567558705 12.1797
45.128847275414856 12.1379
45.15314646515866 12.1142
45.17725940679741 12.1425
45.20137445952892 12.0885
45.22568004865265 12.0661
45.24979934496396 12.0513
45.27392075725247 12.0479
45.29804428714431 11.9947
45.322358426247604 11.9898
45.346486212804315 11.9494
45.370616121861914 11.975999999999999
45.39474815505086 12.0139
45.41907087049246 11.9187
45.4432071734666 11.8396
45.46734560548283 11.8584
45.49148616817604 11.8754
45.51581748638564 11.8704
45.5399623320197 11.8067
45.56410931325473 11.7715
45.58825843173002 11.8058
45.61259837920865 11.7773
45.636751793816 11.7183
45.66090735060093 11.6703
45.68506505120716 11.6363
45.7094136545275 11.5952
45.73357566449271 11.6106
45.75773982322992 11.6014
45.78190613238733 11.5914
45.806263418194064 11.5408
45.83043404997326 11.5257
45.85460683713677 11.5164
45.87897065658495 11.4959
45.90314777634752 11.4703
45.92732705646868 11.4284
45.9515084986045 11.4658
45.97588104735473 11.4525
46.00006683541565 11.4119
46.02425479047904 11.3692
46.04844491420549 11.3688
46.0728262191024 11.3785
46.09702070211635 11.3408
46.12121735879483 11.373
46.14541619080294 11.2706
46.169806278764455 11.235
46.194009483459034 11.2572
46.21821486849841 11.2306
46.24242243555223 11.1715
46.266821333570014 11.1838
46.29103328674601 11.1851
46.31524742696538 11.1669
46.33946375590237 11.1455
46.36387149104216 11.0824
46.38809221957392 11.07
46.41231514186606 11.052999999999999
46.436540259597464 11.0911
46.460956858999374 11.0136
46.48518638983522 11.0179
46.509418121166966 10.9873
46.533652054678114 10.9281
46.55807754555709 10.9275
46.58231590571962 10.921
46.60655647313217 10.8933
46.630988654873654 10.8566
46.655233659129024 10.8443
46.67948087571551 10.8653
46.70373030632484 10.8271
46.72817142736393 10.8005
46.752425308428684 10.7871
46.77668140861147 10.7478
46.80093972960865 10.7233
46.82538981736788 10.7434
46.849652602470904 10.7158
46.87391761349769 10.6879
46.8981848521493 10.6634
46.9226439341274 10.6029
46.946915650573224 10.619000000000002
46.97118959976749 10.5761
46.99546578341598 10.5877
47.019933887188216 10.5603
47.04421456235744 10.5688
47.06849747711879 10.5549
47.09278263318286 10.4827
47.11725978640143 10.4755
47.14154944775105 10.4474
47.165841355555656 10.4304
47.1901355115306 10.4286
47.214621741924994 10.4073
47.23892041698887 10.4078
47.26322134538975 10.3814
47.28771440635075 10.357999999999999
47.31201986422527 10.3313
47.33632758061436 10.2813
47.360637557241866 10.3088
47.38513974410611 10.2842
47.40945426407847 10.2333
47.43377104948137 10.2015
47.45809010204344 10.2683
47.48260144275502 10.197000000000001
47.506925052572285 10.1855
47.53125093475548 10.1427
47.55557909103813 10.1111
47.58009961361992 10.1138
47.60443234110732 10.0953
47.62876734791564 10.0377
47.65310463578333 10.0501
47.6776343683373 10.0794
47.7019762413987 9.98615
47.72632040075572 9.97617
47.75066684815169 9.98782
47.77520581885936 9.96804
47.799556865477655 9.93815
47.823910205386 9.94275
47.84826584033272 9.911710000000001
47.87281407745551 9.91451
47.89717432569297 9.88884
47.92153687423484 9.85944
47.94609208429692 9.84888
47.97045925671401 9.83168
47.99482873471275 9.81268
48.01920052005013 9.79627
48.04376504619224 9.75953
48.068141469543484 9.7524
48.09252020552573 9.73086
48.11690125590099 9.70662
48.1414751266064 9.69973
48.16586082917454 9.71225
48.19024885144316 9.65563
48.2146391951793 9.63694
48.239222439012764 9.66296
48.26361744916137 9.614980000000001
48.28801478610016 9.59327
48.31241445160131 9.59804
48.337007097209366 9.5846
48.36141144338331 9.5801
48.38581812345755 9.54988
48.41022713920929 9.52564
48.434829215320704 9.49606
48.45924292604658 9.473189999999999
48.48365897780325 9.481110000000001
48.50807737237308 9.41586
48.532688907799276 9.42516
48.55711201168574 9.41072
48.581537463754074 9.36422
48.60615611725119 9.36932
48.63058628942721 9.3617
48.65501881516546 9.353810000000001
48.6794536962573 9.34342
48.70408185970339 9.32478
48.72852147531801 9.28159
48.75296345168211 9.28533
48.77740779059232 9.26705
48.80204549302823 9.2372
48.82649458091802 9.21995
48.85094603676547 9.191930000000001
48.87539986237231 9.163689999999999
48.90004713292306 9.15944
48.92450572200832 9.16638
48.94896668628025 9.117460000000001
48.97343002754588 9.11223
48.99808689542115 9.11647
49.02255501470614 9.115639999999999
49.04702551642794 9.068660000000001
49.0714984023988 9.054219999999999
49.096164896893235 9.04412
49.120642575466796 9.02748
49.145122643748394 9.01643
49.16960510355558 8.97155
49.19428125404938 8.94774
49.2187685210852 8.94974
49.243258185121555 8.94696
49.26794160167084 8.88236
49.2924360839405 8.8651
49.31693296869764 8.87856
49.34143225776915 8.87074
49.36612538195438 8.85533
49.39062950396021 8.830630000000001
49.41513603578346 8.80828
49.4396449792564 8.77822
49.46434784069503 8.77393
49.488861631846454 8.76101
49.513377840166804 8.730360000000001
49.537896467493745 8.73193
49.56260909589029 8.67567
49.587132585683285 8.66875
49.611658500018365 8.68747
49.636186840738596 8.67036
49.66090926588511 8.66416
49.685442483902584 8.65196
49.70997813385706 8.61072
49.734516217597076 8.59827
49.75924846937352 8.56955
49.7837914452858 8.56291
49.80833686055187 8.50261
49.83288471702571 8.517000000000001
49.85762682540054 8.535969999999999
49.882179588965734 8.4691
49.9067347993235 8.44641
49.93129245833333 8.43322
49.95604445336378 8.42071
49.98060703442832 8.45215
50.005172069746266 8.42235
50.02993150438364 8.384689999999999
50.05450147301533 8.36595
50.07907390151433 8.36877
50.10364879174981 8.320780000000001
50.12841816587289 8.30499
50.1529980044635 8.32235
50.17758031042124 8.29018
50.20216508562089 8.25019
50.22694442953363 8.25473
50.25153416817468 8.24742
50.27612638170508 8.20988
50.300721072005196 8.19673
50.325510416102105 8.20904
50.350110084975064 8.17265
50.37471223628208 8.18111
50.39931687190919 8.153089999999999
50.424116246675766 8.156310000000001
50.44872587605249 8.11735
50.47333799543065 8.11696
50.49795260670191 8.0865
50.52276204271512 8.06967
50.54738166295838 8.04036
50.57200378079314 8.04
50.596628398116835 8.01633
50.62144792604559 7.99072
50.646077567609396 8.029
50.670709714377715 8.00948
50.69553683636198 7.93145
50.72017401885922 7.95334
50.7448137122895 7.9519899999999994
50.76945591856022 7.90095
50.79429318636823 7.9128300000000005
50.818940443716784 7.90031
50.84359021965163 7.878139999999999
50.868242516085964 7.87201
50.893089960641895 7.875610000000001
50.917747323549435 7.818110000000001
50.94240721271973 7.81865
50.96706963007175 7.830139999999999
50.99192728239342 7.792389999999999
51.01659478166073 7.76738
51.04126481489051 7.75855
51.06593738400761 7.7297
51.090805275207074 7.68347
51.11548294172845 7.68067
51.14016314993547 7.68526
51.164845901758845 7.664339999999999
51.18972406304274 7.661739999999999
51.21441192780656 7.65269
51.23910234200271 7.610339999999999
51.2637953075678 7.592980000000001
51.288683770237945 7.58275
51.31338186432707 7.583819999999999
51.33808251561888 7.5549
51.362978729967345 7.55848
51.387684521509755 7.5510600000000005
51.41239287610203 7.5103800000000005
51.437103795691165 7.49913
51.46201036644977 7.50248
51.486726441956634 7.48769
51.51144508832545 7.488239999999999
51.536166307509156 7.4505
51.56108326624387 7.432180000000001
51.58580965706056 7.46165
51.61053862657523 7.417889999999999
51.635270176746864 7.37715
51.66019755512065 7.371810000000001
51.68493429268881 7.3692
51.70967361681515 7.35641
51.73441552946465 7.32614
51.759353359237934 7.3228100000000005
51.7841004750961 7.3252
51.80885018539685 7.26348
51.833602492111254 7.27313
51.8585508051424 7.25431
51.883308330926425 7.222119999999999
51.90806845906181 7.21715
51.932831191525715 7.19457
51.95779001977161 7.19418
51.98255798721516 7.169989999999999
52.00732856494335 7.1312
52.03229530577543 7.1417600000000006
52.057071130455945 7.1103
52.081849571391054 7.12137
52.106630630568695 7.138310000000001
52.13160794279417 7.08281
52.15639426492067 7.09773
52.18118321127822 7.091539999999999
52.205974783860896 7.041180000000001
52.23096269971011 7.0226
52.255759551287994 7.009119999999999
52.280559035098186 7.00413
52.30536115314103 6.97157
52.33035970494467 6.979660000000001
52.35516711807904 6.94901
52.37997717147198 6.93451
52.40478986713005 6.9225699999999994
52.42979908731974 6.931989999999999
52.454617094216 6.88092
52.47943774942214 6.8746100000000006
52.50426105495102 6.8669199999999995
52.529280976059844 6.86079
52.554109609024096 6.86264
52.57894089837482 6.825089999999999
52.60377484613117 6.82115
52.62880550079408 6.7937899999999996
52.65364479223379 6.770060000000001
52.67848674816189 6.75327
52.70352547971946 6.778389999999999
52.72837279155837 6.737019999999999
52.753222773982785 6.72405
52.778075429022984 6.6893
52.80312495150885 6.73477
52.827982978797436 6.7076199999999995
52.85284368481815 6.66518
52.87770707160767 6.65685
52.90276741793998 6.66166
52.92763619336701 6.63655
52.952507655698504 6.61475
52.977381806977576 6.63351
53.00245301017842 6.61402
53.02733256653592 6.57079
53.052214817996074 6.55957
53.077099766608484 6.539680000000001
53.102181859804446 6.50312
53.127072229988265 6.50934
53.15196530349892 6.49744
53.17686108239249 6.51315
53.20195409881522 6.51261
53.22685531582556 6.45478
53.25175924441303 6.43391
53.27666588664027 6.4410099999999995
53.30176985962693 6.4318800000000005
53.3266819565689 6.42379
53.35159677336455 6.42111
53.376514312083096 6.3645
53.40162927507703 6.36151
53.42655228516116 6.35807
53.45147802340193 6.3381
53.47660125628886 6.33285
53.50153247842639 6.33031
53.52646643496923 6.30837
53.55140312799818 6.31376
53.576537409691696 6.3075
53.60147960336152 6.25819
53.626424539786164 6.239240000000001
53.65137222105307 6.217630000000001
53.67651758529126 6.23452
53.70147078399681 6.19564
53.72642673383343 6.1972
53.75138543689533 6.17744
53.776541917524526 6.17287
53.801506154876755 6.14655
53.826473151763246 6.14429
53.851442910284916 6.10061
53.87661054126026 6.10091
53.9015858509782 6.0726
53.92656392866066 6.10661
53.95154477641532 6.08533
53.976723591801296 6.0603
54.00171000771266 6.05465
54.02669920004598 6.0131
54.051691170915745 5.973730000000001
54.076881204886796 6.01726
54.101878760928514 5.97739
54.12687910187696 5.9164
54.152077577768296 5.92895
54.1770835166946 5.913130000000001
54.20209224691339 5.96261
54.22710377055121 5.91224
54.25231352511594 5.9295
54.27733066384342 5.89896
54.30235060239643 5.86135
54.32737334290836 5.86981
54.35259441062629 5.83525
54.377622783395324 5.83331
54.40265396455061 5.86017
54.42768795623251 5.82137
54.45292037169559 5.80612
54.477960012857906 5.78748
54.50300247099511 5.76512
54.52804774825457 5.723
54.55329154616743 5.62602
54.57834249018678 5.64497
54.6033962597977 5.67464
54.6284528571545 5.65944
54.653708072335164 5.61369
54.67877035378786 5.63464
54.70383546947698 5.59945
54.72890342156389 5.540690000000001
54.7541700889442 5.50875
54.77924374251975 5.50052
54.8043202390049 5.545
54.82959552413022 5.45111
54.8546777351945 5.4538199999999994
54.87976279569621 5.47328
54.90485070780914 5.4794599999999996
54.930137506558005 5.41712
54.95523115074295 5.4309400000000005
54.98032765308844 5.39832
55.005427015775496 5.3754
55.03072536339621 5.36196
55.05583047570572 5.2941
55.080938454927676 5.35156
55.10604930325027 5.297680000000001
55.131359235107396 5.28057
55.15647585066083 5.253419999999999
55.181595341907496 5.19645
55.20671771104285 5.1681099999999995
55.232039262617704 5.1409
55.25716741665048 5.1041300000000005
55.28229845518636 5.09729
55.30743238042802 5.089090000000001
55.33276558731939 5.06003
55.357905315183636 5.07439
55.383047936390035 5.0894900000000005
55.40819345314859 5.01661
55.433538351073295 4.95779
55.458689688238415 4.95529
55.483843927614096 4.91744
55.509197623043605 4.97133
55.53435769621134 4.96552
55.55952067826466 4.90716
55.5846865714265 4.8838099999999995
55.61005202069737 4.850569999999999
55.63522376553902 4.864730000000001
55.66039842818645 4.80757
55.68557601087004 4.8137300000000005
55.7109532500271 4.7253300000000005
55.73613670233794 4.77447
