TT I
1.2716486653135266 7.309769999999999
1.2939594142134223 6.91372
1.3162702121660406 6.6153
1.3385810600174564 6.77835
1.3608919586137629 6.32223
1.383202908801069 6.2721599999999995
1.405513911425503 5.62967
1.4278249673332093 5.948519999999999
1.4501343378461518 5.8278099999999995
1.4724455028545926 5.47253
1.4947567236847858 6.12908
1.517068001182951 5.89691
1.5393793361953272 5.423769999999999
1.5616907295681737 6.054180000000001
1.5840021821477681 5.00859
1.60631369478041 4.75149
1.6286252683124185 4.82554
1.6509369035901333 5.1654
1.6732468618895553 4.83627
1.695558623192809 4.51591
1.7178704487808514 4.586180000000001
1.7401823395001077 5.5367
1.7625012545597203 5.0494
1.7848028405262486 4.99795
1.8071218901122095 4.44876
1.8294236121921872 4.23433
1.8517427996910911 4.51403
1.8740620574440425 4.67181
1.8963639900671978 4.33358
1.9186833908139995 4.58205
1.9409854680117449 5.2704699999999995
1.9633050151394713 5.13006
1.9856246367570705 4.70811
2.0079269371922672 4.27484
2.03024671027244 4.1886
2.0525491637446027 4.39952
2.074869091674931 4.1061
2.097171701569106 4.0738900000000005
2.1194917877373847 4.497719999999999
2.141811954326636 4.39047
2.164114805233074 4.42317
2.186435135143035 4.95696
2.208738150935709 5.85113
2.231058647554722 6.83438
2.2533792288321184 6.0987
2.275682498336085 5.439019999999999
2.298003251406138 5.36701
2.3203066942619714 5.331230000000001
2.3426276225136022 5.51475
2.3649486396617507 5.8691699999999996
2.387252348930071 6.104030000000001
2.4095735463442893 6.4827900000000005
2.4318774374315884 6.487369999999999
2.4541988185014043 6.97946
2.476502894794693 6.94809
2.498824462909887 7.20639
2.521146125856138 7.41867
2.5434504863470337 7.58113
2.5657723414244717 7.35045
2.588076895590662 8.389439999999999
2.610398946189713 8.16726
2.6327210958598384 8.26328
2.6550259469304716 8.149289999999999
2.6773482972090137 8.29542
2.6996533504259 8.252
2.7219759047039602 8.3848
2.744298562293959 8.86622
2.7666039251246595 8.50331
2.7889267918020164 8.68131
2.8112323652516555 8.1513
2.833555444408179 8.36785
2.8558786311183852 8.71856
2.8781845268938557 8.547189999999999
2.9005079311721484 8.678460000000001
2.9228140460410397 8.67527
2.9451376712799635 9.20925
2.967444008632326 9.76365
2.9897678582247247 9.94619
3.0120918213106695 10.1856
3.0343984987899373 11.1018
3.0567226913198637 10.7732
3.079029599759726 11.5631
3.101354025127254 12.0984
3.123678568232338 12.5381
3.145985829517914 13.1122
3.16831061055229 13.5441
3.1906181112775593 14.2483
3.212943133635653 15.1381
3.2352682779763207 14.591
3.2575761442691227 15.0345
3.2799015350264273 15.2856
3.302209649240067 15.94
3.3245352898092655 16.3687
3.3468436553365257 16.8857
3.369169549113219 17.1372
3.3914955708171384 17.9999
3.413804319727358 18.4851
3.4361305997334863 18.5983
3.4584396084414553 19.0763
3.4807661501462652 19.5661
3.503092824025881 20.0689
3.5254022288463154 20.7777
3.5477291695206588 20.8806
3.5700388426251948 21.5508
3.5923660534916446 22.3862
3.6146934007816114 23.7328
3.637003482731501 28.2947
3.6593311053109985 29.8748
3.681641464033634 26.6837
3.7039693653009733 24.2045
3.726297407241705 24.5649
3.7486081875460804 24.7092
3.7709365132734978 25.1111
3.793247578841633 26.0883
3.8155761917550093 26.1937
3.8378875459837216 26.5403
3.8602164494827234 26.845
3.882545499606844 27.7603
3.9048572932539183 27.8952
3.9271866390645718 28.1303
3.9494987298666713 28.4341
3.971828374764527 29.0957
3.9941581705403255 30.0074
4.016470713506008 30.6426
4.038800813471445 31.3833
4.061113662089144 32.1062
4.0834440696459176 32.926
4.105774632334751 33.101
4.128087945865126 33.2343
4.150418821249301 33.8444
4.172732448931298 35.2338
4.195063640413578 35.631
4.2173775856475215 36.735
4.239709096631102 39.3016
4.262040768704612 54.08
4.284355196706267 63.8383
4.306687193387355 55.1091
4.329001947444346 43.8695
4.35133427213731 41.7026
4.373666762177566 41.998000000000005
4.395982011761091 42.3678
4.418314834921175 43.3473
4.44063041906622 44.6684
4.4629635787515625 46.4982
4.4852969080429785 47.9893
4.5076130004776225 49.8456
4.529946671403969 55.0764
4.552263106909177 57.3812
4.574597122877047 55.4171
4.596931312711224 53.1003
4.619248269273446 52.6645
4.6415828092605835 53.6194
4.663900117405352 54.9996
4.686235010953232 56.5553
4.708552674085913 57.6949
4.730887924602802 58.8639
4.753223354952695 61.06100000000001
4.775541557023902 64.0151
4.797877349456786 66.4212
4.820195915032126 67.1799
4.842532072957498 67.6771
4.864868414979744 70.5112
4.88718753227192 74.5585
4.909524244902505 76.1522
4.931843734218147 75.9578
4.954180820867835 77.4952
4.976518095879839 80.2716
4.998838149695359 82.9393
5.021175803844231 86.4128
5.043496238205739 89.368
5.065834274903528 93.6508
5.088172504230693 98.1291
5.1104935158799565 103.59299999999999
5.132832132875765 116.824
5.155153533596801 136.562
5.1774925416746225 175.31599999999997
5.199814334878411 378.691
5.2221537374521505 997.3839999999999
5.244493338631803 2827.56
5.266815727034316 8073.76
5.289155727832427 13861.5
5.311478517248165 8373.21
5.333818921080011 2231.02
5.356159527788849 414.379
5.3784829252032536 176.832
5.400823940070432 144.049
5.423147747031976 124.79799999999999
5.445489173474152 116.73299999999999
5.467830807066149 116.21600000000001
5.490155234831516 116.31299999999999
5.512497285125229 110.49
5.534822130975162 104.33
5.557164601388673 100.49
5.579489868738879 97.6984
5.601832762690846 96.4965
5.6241758697774475 95.3389
5.646501775867269 95.2498
5.668845311622074 94.0664
5.691171647754637 93.6968
5.713515615597765 92.2674
5.735859800852677 91.5738
5.758186788542988 93.0513
5.780531411018185 96.5522
5.802858837297399 95.8249
5.825203900414495 95.5553
5.8475491852224 97.1333
5.869877275883075 97.2016
5.892223006467101 94.6974
5.914551544266608 93.5133
5.936897724049891 96.2938
5.959244129804903 103.37899999999999
5.981573344815301 131.82399999999998
6.0039202049061 240.983
6.026249875609095 471.645
6.04859719346037 959.762
6.070927323278297 2218.61
6.093275102315365 4787.89
6.115623113320588 5640.72
6.137953938319995 2996.78
6.160302415650845 828.345
6.182633708324452 194.364
6.2049826554078376 101.794
6.227331838745022 86.4414
6.249663839443684 80.7385
6.27201349767565 77.2949
6.294345974611799 76.0015
6.316696111167083 75.2282
6.339046488263839 73.7147
6.361379686074702 70.9301
6.383730546639482 68.9863
6.406064229255215 68.6429
6.428415576718203 69.0189
6.450749747566656 67.8532
6.47310158535871 65.5432
6.495453669698332 64.1223
6.517788579421056 63.3638
6.540141159237969 62.486000000000004
6.562476565766648 62.0125
6.5848296444934045 61.791000000000004
6.607182974060425 61.9761
6.6295191323281015 61.2943
6.651872965955752 60.1168
6.6742096296068985 61.1262
6.6965639707294615 65.1086
6.71891856698715 65.0349
6.741255995248479 61.1712
6.763611104154477 58.4404
6.785949046381137 57.5938
6.808304671371482 57.8052
6.8306605557940046 59.1512
6.852999275508618 58.3425
6.875355681171544 57.1038
6.897694923437771 55.6169
6.92005185377892 55.5745
6.9423916220322655 55.2838
6.964749080490181 54.2191
6.987106804399774 54.4098
7.009447368180821 55.0567
7.031805625367033 55.0167
7.054146723727803 54.581
7.076505517631004 53.8182
7.098864581288365 53.6527
7.121206488070854 53.5461
7.143566093607822 53.9745
7.165908543567245 54.7383
7.188268694426048 54.7277
7.2106291193438095 54.0132
7.232972390625943 53.1295
7.255333366030969 53.4702
7.277677189091925 57.9363
7.300038718428332 63.0188
7.322400526130865 61.3894
7.344745183422596 56.1855
7.367107550224791 53.4716
7.389452767901992 53.3467
7.411815697249891 53.1081
7.434161478756298 52.3295
7.456524974096713 52.4367
7.478888753837185 52.6121
7.501235387657368 53.163999999999994
7.523599738562711 53.3898
7.545946944825532 54.163000000000004
7.568311870344528 54.9332
7.5906770845765665 54.1837
7.613025156078678 54.0093
7.635390950099687 54.5162
7.657739602662809 54.3769
7.680105979923558 55.0095
7.702472650212829 55.8383
7.724822180948224 55.6639
7.747189439655568 55.3619
7.769539560075357 54.778
7.791907410653562 55.2354
7.81425812420825 55.3444
7.836626570110925 55.2805
7.858995315087906 56.3302
7.881346924933401 56.882
7.903716270417482 57.3015
7.926068482028405 57.4801
7.948438431475253 57.9929
7.9708086843180235 58.6648
7.993161805171116 59.2459
8.015532667162402 60.0799
8.037886398416653 61.2994
8.060257873014221 61.3691
8.082629655331942 62.4196
8.104984308787587 62.8237
8.127356708900503 64.277
8.149711981398308 67.1187
8.172085002766314 68.4121
8.194458336181368 68.4376
8.216814543847752 67.8088
8.23918850371002 68.3698
8.26154533906492 69.3212
8.283919928836452 71.1731
8.306277395339652 71.8625
8.328652618483376 73.0602
8.351028159736202 75.437
8.373386579575245 77.1729
8.395762759396959 78.8966
8.418121819038275 81.4933
8.440498640894003 86.1415
8.462875785192262 95.978
8.485235811156207 123.71600000000001
8.507613602688501 178.078
8.529974277114228 267.15
8.552352719347912 397.694
8.574731488360351 663.7760000000001
8.59709314210385 1239.63
8.619472567021075 2036.21
8.64183487789147 2406.18
8.664214962183097 1762.69
8.686577933647762 808.7460000000001
8.708958680784317 301.941
8.731339760774953 139.47899999999998
8.753703729764451 103.021
8.77608547780821 95.2458
8.798450116065078 92.6889
8.820832535634787 90.8384
8.843215292401656 90.4867
8.865580941199045 90.4247
8.887964374703538 89.8714
8.910330701447199 89.8318
8.932714815164482 89.3133
8.955099270424924 86.29799999999999
8.977466620733543 84.8443
8.999851761421976 83.9809
9.022219798361645 83.1912
9.04460562795561 82.8968
9.066991803441677 83.2122
9.089360876979615 83.6332
9.111747746589993 83.4311
9.13411751544971 82.1566
9.156505082664324 81.2206
9.178875550323522 80.7924
9.20126381862328 81.1691
9.223652438908596 81.7172
9.246023961427412 83.1008
9.26841328802173 82.6909
9.290785518039224 82.4017
9.313175554425882 84.3082
9.335565947154315 85.3763
9.357939245086508 85.5842
9.380330352834827 84.6652
9.40270436697103 84.6663
9.425096193225055 83.94200000000001
9.447488380180165 84.0796
9.469863475295412 83.941
9.492256385987508 83.5633
9.514632206018318 84.5375
9.537025843935714 84.804
9.559402392368193 85.809
9.581796761000229 87.9557
9.604191496441521 89.8899
9.626569144158516 91.9558
9.648964615551032 92.4088
9.671343000390081 91.4316
9.693739211225699 91.1857
9.716135793237463 91.5342
9.738515290448102 92.0239
9.760912617143402 93.6387
9.783292860202891 95.94
9.805690935076182 98.1883
9.828089385495742 98.8322
9.850470754023561 99.6567
9.872869957865444 101.23299999999999
9.89525208097539 104.56
9.917652041736662 110.164
9.940052382417589 121.461
9.962435644102392 149.874
9.984836746950979 193.257
10.007220771957746 255.95
10.029622640473708 359.45099999999996
10.052007432299963 538.499
10.074410069984072 851.1560000000001
10.096813093716005 1352.39
10.119199042482517 1893.41
10.141602840636468 2095.71
10.163989564971628 1474.77
10.186394141051062 727.462
10.208799107559706 299.21299999999997
10.231187001965623 154.61700000000002
10.253592751657669 116.295
10.275981430388155 107.926
10.298387966769793 105.396
10.320794897965431 104.773
10.343184759907361 103.318
10.36559248305461 102.564
10.387983138083852 104.21600000000001
10.410391656691655 110.74799999999999
10.432800574501677 122.569
10.455192425893369 138.893
10.47760214443012 164.96400000000003
10.499994797678786 211.088
10.522405320453982 293.58
10.54479877906917 414.07800000000003
10.567210109595656 550.347
10.5896218454736 591.261
10.612016518879773 466.537
10.634429067781074 288.378
10.656824555333241 169.399
10.679237920773568 111.575
10.701651695961992 92.3463
10.724048411481384 87.324
10.746463008485165 84.7769
10.768860546937125 83.32799999999999
10.791275969274796 81.5859
10.81369180576079 80.9363
10.836090585366925 79.9379
10.858507252467449 78.4127
10.88090686379991 77.4694
10.903324365036394 77.2901
10.925724811614439 76.1721
10.948143150509463 76.3788
10.970561909719066 76.2327
10.992963615930844 75.0941
11.015383218085756 73.7981
11.037785768347074 72.4963
11.06020621697282 71.3808
11.082627090322113 70.9272
11.105030913430326 70.1456
11.12745263854165 69.5032
11.149857314510728 68.9005
11.172279894912576 69.4367
11.194702904450653 68.82600000000001
11.217108866490921 68.0696
11.239532736615194 67.2042
11.26193956033512 66.9504
11.284364294577085 66.55
11.306789462371718 66.1431
11.329197585398376 65.6375
11.351623622610898 65.6269
11.37403261614354 64.8414
11.396459526308487 64.8986
11.418869393879497 64.5282
11.441297180532617 64.0007
11.463725406927658 63.6475
11.486136592353875 63.2269
11.508565700543707 63.0482
11.530977768845315 63.4648
11.553407762368774 63.1769
11.575838200059769 63.1056
11.598251599479612 62.9045
11.620682927815501 62.4651
11.64309721895548 62.2394
11.665529441478206 61.9232
11.687962112597958 61.6595
11.710377748130886 62.0899
11.732811318753434 61.8193
11.755227854859067 61.6199
11.777662328529495 61.3773
11.800079768750786 61.5208
11.822515149015453 61.5912
11.844950984084935 62.1088
11.867369787303163 61.3735
11.889806534289491 61.536
11.912226250487029 61.942
11.934663912939751 62.2668
11.9571020346363 62.5312
11.979523127133968 62.7606
12.001962169624331 63.6041
12.024384183972964 65.6247
12.046824150809913 68.7005
12.069264581333726 73.0036
12.091687985297767 79.0537
12.11412934550045 88.5183
12.136553680195208 103.104
12.158995973632788 125.32700000000001
12.181438735204349 157.053
12.20386447284199 192.396
12.226308172985636 206.07
12.24873485024193 194.175
12.271179492516982 151.124
12.293607112949127 108.055
12.316052700916226 82.2693
12.338498763250042 69.0137
12.360927805303868 64.2592
12.383374818673879 63.2118
12.405804812803074 62.7687
12.428252780773262 62.9092
12.45070122756722 63.1085
12.473132656675375 62.8952
12.49558206341869 63.3947
12.518014453510101 63.6914
12.540464823770117 63.8853
12.562915677315177 63.7505
12.58534951575545 64.0313
12.607801338171472 64.0801
12.630236146511358 64.5409
12.652688941369085 65.5431
12.675124723177234 66.07
12.697578494048786 66.3157
12.720032754458185 66.0672
12.742470003354093 66.0297
12.764925245138771 66.3715
12.787363476431278 66.8384
12.809819703166806 67.0984
12.83227642391173 68.116
12.854716135692716 68.9684
12.877173846755147 70.0345
12.899614549869717 70.605
12.9220732548287 71.5781
12.94453245827299 72.0795
12.966974655289818 73.2043
12.989434858002571 73.6739
13.011878055298721 74.1411
13.034339260862497 75.0094
13.056800969391883 76.4993
13.079245674017244 79.9233
13.101708390774869 84.5114
13.12415410463411 92.5471
13.146617833206086 102.26799999999999
13.169064559883248 113.087
13.191529303857127 127.945
13.213994557076367 151.28
13.236442809902437 189.082
13.258909083908291 249.832
13.28135835851934 325.147
13.30382565690295 399.93
13.326293469022952 452.213
13.348744283242008 416.653
13.371213125129904 320.018
13.39366497011003 217.40900000000002
13.416134845360597 145.72299999999998
13.438605238843131 111.867
13.46105863690397 103.579
13.483530069144786 105.98700000000001
13.505984506951902 111.919
13.528456981549432 122.50399999999999
13.550929978879088 138.232
13.573385983253365 162.726
13.595860028340867 202.65400000000002
13.618317081455832 257.395
13.64079217790333 327.765
13.663250283359057 384.108
13.685726434770173 385.579
13.708203115221277 327.19
13.730662806148091 241.22
13.75314054697177 162.408
13.775601299246777 114.54799999999999
13.798080104050406 91.2042
13.820559442405358 82.6401
13.843021793671388 80.1904
13.865502201420897 78.4465
13.887965623051947 78.3441
13.910447103807167 77.5036
13.932929122629764 76.0971
13.955394156785959 75.6054
13.977877254034569 74.6668
14.000343367582113 73.8793
14.022827546871707 73.4345
14.045294743423524 72.4839
14.06778000837062 71.9352
14.090265817715476 71.7778
14.112734645763819 71.1467
14.13522154619454 70.8422
14.157691466286913 70.7975
14.180179461423874 70.6412
14.202668005486178 70.3416
14.22513957064374 69.6322
14.247629214846473 69.3913
14.270101881097517 68.9978
14.29259262906496 68.6999
14.315083930490205 68.7704
14.337558255389705 68.6244
14.360050666019726 68.8425
14.382526101071944 68.2753
14.405019624534942 68.19800000000001
14.427513705993134 68.0608
14.449990813291825 67.9897
14.47248601302899 67.771
14.49496423954951 67.8882
14.517460561197822 67.9581
14.539939910570322 67.5772
14.562437357763558 67.7533
14.58493536931253 68.2166
14.607416409993311 68.3778
14.62991555254159 68.6042
14.652397725157423 68.9073
14.674898002342799 69.21600000000001
14.697398848433282 69.565
14.719882725991326 71.2586
14.74238471217934 73.2005
14.764869730765593 76.3429
14.787372860692983 79.425
14.809876564079925 84.2434
14.83236330125751 90.4073
14.854868153850365 99.0926
14.877356041159485 113.905
14.899862046604186 132.85
14.922351087688757 160.201
14.944858249632887 194.31799999999998
14.967365991421232 223.58900000000003
14.989856770231246 233.035
15.012365673994204 216.28400000000002
15.03485761569738 175.797
15.05736768508665 132.359
15.07987833888692 101.221
15.102372032001655 82.2421
15.124883856909658 73.1219
15.14737872204565 70.2296
15.169891721717274 69.1299
15.192405310371893 68.6939
15.214901940621196 68.3872
15.237416709527137 67.5301
15.259914520936249 67.3593
15.282430473753607 66.9877
15.304947020131227 66.3918
15.327446610371178 66.1327
15.349964346154254 66.0075
15.372465126703139 65.7444
15.394984055556009 65.571
15.417486030076159 65.2666
15.44000615566487 64.8138
15.462526881230803 64.7193
15.485030653812652 64.8221
15.507552581617434 64.6112
15.530057557334603 64.7439
15.55258069104857 64.5792
15.575104429329837 64.9045
15.597611216864632 65.1814
15.620136166564563 65.8463
15.6426441664095 67.3829
15.665170331202765 69.88600000000001
15.687697105158826 72.6593
15.710206930593545 75.9365
15.732734925158933 80.4632
15.755245972089478 87.1599
15.77777519094324 96.2059
15.800287463046663 109.40299999999999
15.822817909869592 129.235
15.84534897229804 151.872
15.867863089299354 179.797
15.890395385222186 198.335
15.912910736597423 196.037
15.935444269699861 175.487
15.957978423016485 139.634
15.980495633101265 108.26700000000001
16.003031029129367 85.1252
16.02554948280019 70.9723
16.048086125229432 64.3147
16.070623392487107 62.141999999999996
16.09314371869582 61.2133
16.11568223789321 60.3207
16.13820381691126 59.8163
16.160743591742527 59.2338
16.183283996022084 58.7112
16.205807461423195 58.083
16.228349126881973 57.6528
16.25087385432698 57.5706
16.27341678466365 56.9765
16.29594277784926 56.7325
16.31848697676433 56.4988
16.341031811604868 56.1294
16.36355971058487 56.1033
16.3861058195587 55.8998
16.40863499352978 55.2163
16.431182380342005 54.9166
16.453730407713202 55.0735
16.476261501364792 54.7492
16.498810812136167 54.4183
16.52134319004079 54.53
16.54389378792203 54.3606
16.566445031001553 54.2079
16.588979342490088 54.0461
16.61153187824822 53.9183
16.634067483263312 53.7176
16.656621315414416 53.6965
16.679175797408888 53.4334
16.701713349928728 53.6406
16.72426913389191 53.653
16.74680798922351 53.6082
16.76936507887444 53.5369
16.791905240734874 53.6521
16.814463639794468 53.5167
16.837022695210294 53.5846
16.859564824093756 53.6857
16.882125194503903 53.6937
16.904668639217885 54.0677
16.927230328348003 54.2562
16.949792678493612 54.2081
16.972338104193863 54.0367
16.994901778652235 54.2933
17.017448529496576 54.48
17.040013531998152 55.2643
17.06257920018044 55.8688
17.0851279459922 56.5235
17.107694947817667 57.1259
17.130245028099072 58.0219
17.15281336730298 59.3223
17.17536478578733 61.0441
17.19793446610687 63.1536
17.220504818648422 66.4939
17.243058251703697 70.2569
17.265629950971032 75.1751
17.288184731571736 81.0668
17.310757781306908 83.3536
17.33333150794385 82.5221
17.355888317140174 79.0253
17.37846339986244 72.7618
17.401021565958885 66.9906
17.42359800851343 62.582
17.44617513265564 59.9362
17.468735341390783 58.9196
17.491261035594565 58.1432
17.51396340099364 57.8974
17.536490463869136 58.18
17.559018209820174 58.1183
17.58154663977963 58.093
17.604251766089718 58.4915
17.626781572227713 58.6597
17.64931206518155 58.6099
17.671843245885103 59.2426
17.69455114821572 59.3029
17.717083712612634 59.6374
17.739616967569667 60.1319
17.762150914021706 60.4064
17.78486160749854 60.7899
17.807396945166804 62.0599
17.829932977143503 63.31399999999999
17.85246970436452 64.8013
17.875183204129467 65.9952
17.897721330097664 68.1416
17.920260154126645 70.527
17.942799677153296 73.6974
17.9655159983646 77.798
17.988056927677544 83.2647
18.010598558807683 91.0013
18.033140892692916 101.553
18.05586005052525 114.554
18.07840379824407 127.661
18.10094825154059 138.72
18.12366954819864 142.68
18.146215420998306 137.357
18.16876200220057 123.994
18.191309292745153 108.16
18.214033452627167 94.9723
18.236582170236648 86.2285
18.259131600016456 83.1682
18.281681742907335 84.9895
18.304408781233683 90.54799999999999
18.32696035875955 97.0105
18.349512652227624 101.99600000000001
18.372065662579683 106.22
18.394795594587553 104.641
18.41735004715306 98.214
18.43990521943684 89.3567
18.46246111238171 80.1746
18.485193953325208 71.6777
18.507751296070428 66.3528
18.530309362314178 63.5014
18.552868153000343 62.1245
18.57560391815056 60.8674
18.59816416623245 60.4677
18.620725141597372 60.0039
18.643286845190268 59.5653
18.666025549835414 59.2109
18.688588718427933 58.5256
18.711152618092243 58.4768
18.73389353884365 58.3104
18.75645890921984 58.0369
18.77902501351406 57.6628
18.801591852673102 57.623999999999995
18.824335739722738 57.333999999999996
18.846904057212626 56.9821
18.8694731124168 56.7868
18.89204290628315 56.6801
18.914789774966803 56.6357
18.937361054791623 56.1958
18.959933076131318 55.791000000000004
18.982505839934877 56.0191
19.00525570560582 56.1547
19.027829963004184 55.9326
19.05040496572238 55.9842
19.072980714710468 56.0888
19.095733592739563 56.047
19.11831084296757 56.3786
19.140888842324735 56.5667
19.16346759176222 56.728
19.18622349753803 57.3416
19.208803755869358 58.5854
19.231384767143577 59.9081
19.253966532312948 61.3653
19.276725481241822 63.5608
19.29930876296784 66.3736
19.3218928014549 69.5418
19.34465404436217 72.3697
19.36723960516257 74.6546
19.389825925592426 75.1482
19.412413006605938 72.628
19.43517731967805 68.5564
19.457765930683355 64.2442
19.48035530514408 59.8482
19.50294544401556 56.8749
19.525712842708348 54.8165
19.54830451925909 53.7884
19.570896963095727 53.1159
19.593490175174704 52.8532
19.616260674962184 52.8315
19.638855432416964 52.5058
19.661450960992624 52.7513
19.68404726164677 52.5326
19.706820878021247 52.2796
19.729418731756834 52.6888
19.752017360452857 52.5375
19.77461676506804 52.6294
19.797393513540218 52.8043
19.819994478951667 53.1285
19.84259622316767 53.5283
19.8651987471481 53.7385
19.887978643247177 54.0608
19.91058273574792 54.8098
19.933187610901943 55.626000000000005
19.955969879466828 56.7526
19.97857632894404 58.236999999999995
20.00118356396599 59.9772
20.023791585494575 62.4672
20.046577028914875 65.706
20.069186632506966 68.0999
20.091797025500632 69.868
20.114408208858933 69.8583
20.137196842715273 68.7622
20.159809615886765 66.3816
20.18242318232135 63.2227
20.20503754298326 61.5502
20.227829382875154 60.7595
20.250445341109344 61.2803
20.27306209647285 62.288999999999994
20.29567964993108 64.0552
20.31847471147704 64.7583
20.34109387027612 65.4028
20.363713830075454 64.4441
20.386334591841646 62.0156
20.409132890679302 58.9793
20.431755265564437 55.8496
20.454378445325528 53.2838
20.477002430930366 51.7146
20.499803982716553 50.5521
20.522429589228004 49.9627
20.54505600449589 49.5694
20.567683229489194 49.4774
20.590488049900088 49.4119
20.61311690359731 49.3498
20.63574656993626 49.0067
20.658553853717297 48.7494
20.681185154618298 48.8089
20.703817271080066 48.4952
20.72645020407368 48.3244
20.749260783967177 48.1023
20.771895359337133 48.1792
20.794530754161617 48.0999
20.817166969412938 48.0264
20.83998086114876 48.0799
20.86261872660049 47.9536
20.885257415405402 47.8983
20.90789692853701 47.8
20.930714147864748 47.9421
20.953355319030678 47.9345
20.97599731745334 48.0038
20.99864014410749 47.8841
21.021460706796564 47.9591
21.044105199328826 47.9762
21.06675052302631 47.9873
21.089396678865015 48.5011
21.112220600704806 48.7103
21.134868430275347 49.1391
21.15751709492456 49.24100000000001
21.180166595629693 49.5928
21.202993892429635 50.1322
21.22564507473034 50.6799
21.24829709602816 50.9068
21.27112693608965 50.6566
21.293780644891275 50.4688
21.316435195634053 49.6328
21.339090589297417 48.8474
21.361923832041875 48.3526
21.384580921090404 47.788999999999994
21.407238856007325 47.6217
21.429897637773326 47.636
21.45273429906592 47.5754
21.475394784108598 47.7405
21.498056118951983 47.6554
21.520718304578022 48.0553
21.543558400304388 48.0889
21.566222297108816 48.2718
21.58888704765135 48.4316
21.61155265291521 48.6126
21.63439619898156 49.1085
21.657063523335786 49.2621
21.67973170537063 49.7267
21.7024007460706 50.3004
21.72524775840385 51.0687
21.747918526116475 52.1252
21.770590155457388 53.405
21.79326264741238 54.983000000000004
21.816113141960237 57.12
21.838787368860547 59.1944
21.861462461341976 61.2835
21.884315579735777 63.5535
21.90699241312273 64.6178
21.92967011506078 64.233
21.95234868653799 62.7176
21.9752053151131 60.7175
21.997885635446785 58.8124
22.020566828293532 56.9786
22.04324889464272 55.5759
22.066109049404666 55.0656
22.088792872571794 55.2203
22.111477572219204 55.4679
22.1341631493376 55.4328
22.157026846313123 54.958999999999996
22.179714188221507 53.9738
22.202402410582668 52.6706
22.22509151438863 51.0777
22.24795876962584 49.8292
22.270649646204486 49.211000000000006
22.293341407213727 48.5648
22.316034053646906 48.2942
22.338904883215342 48.1134
22.36159931041458 48.007
22.38429462602756 47.9969
22.40699083104897 47.8282
22.429865251039757 47.7655
22.452563244831367 47.8132
22.47526213102522 47.6864
22.49813925616515 47.7768
22.520839937143307 47.7592
22.543541513520587 47.8196
22.56624398629403 47.681999999999995
22.589124730075895 47.6622
22.611829005656723 47.9082
22.63453418063466 48.0076
22.657240256008077 48.3023
22.680124634582935 48.4356
22.70283252079775 48.7085
22.725541310413075 48.9292
22.74825100442868 49.1192
22.771139033969575 49.6558
22.79385054687155 49.8269
22.81656296718292 50.5035
22.83927629590484 51.342
22.862167992606945 52.4909
22.88488314827121 53.9353
22.907599215359284 55.023999999999994
22.93031619487366 56.2203
22.953211574954405 56.923
22.975930389478226 57.4697
22.998650119445763 57.0128
23.02137076586092 55.8788
23.044269845560063 54.3485
23.06699233506288 52.5006
23.089715744034912 50.8951
23.112617610931565 49.3766
23.135342869061212 48.5407
23.158069049684816 48.1628
23.1807961538087 47.9073
23.20370174880544 47.8895
23.226430710184808 48.068000000000005
23.249160598093425 48.1641
23.271891413539002 48.0345
23.294800752937697 47.9863
23.31753343374794 48.2963
23.340267045128353 48.4135
23.36300158808808 48.9456
23.38591468821339 49.1433
23.408651104658304 49.5976
23.431388455719986 50.262
23.454126742409 51.1119
23.4770436196085 52.2013
23.499783787914662 53.6152
23.522524894889884 54.9679
23.54526694154616 56.1601
23.56818761219047 57.2886
23.59093154860734 57.43600000000001
23.613676427751283 57.4357
23.636422250635754 55.75
23.659346731118656 53.7375
23.68209445191868 51.4627
23.704843119509587 49.4754
23.72759273490623 47.9476
23.750521041644767 46.8477
23.77327256312355 46.0938
23.796025035462787 45.6345
23.818956224555475 45.1971
23.841710609113413 45.0358
23.86446594758979 44.8809
23.887222241002014 44.648
23.910157285144578 44.3417
23.932915498962537 44.422
23.955674670778713 44.1938
23.978434801611975 44.1746
24.001373717286125 43.9787
24.024135776723917 43.86
24.046898798245582 43.8093
24.06966278287146 43.6106
24.092605586582614 43.4274
24.115371508023642 43.3625
24.1381383956401 43.3014
24.16090625045381 43.1832
24.183852958731244 43.0856
24.206622758582608 43.0582
24.229393528706886 42.8595
24.252165270127392 42.9754
24.27511589952438 42.9464
24.297889594216997 42.7562
24.32066426328598 42.4983
24.34343990775613 42.4596
24.36639447485003 42.515
24.38917208083877 42.3478
24.41195066531332 42.2549
24.43490819850244 42.3677
24.457688750692377 42.3377
24.48047028445616 42.2003
24.503252800821233 42.3114
24.526214300784112 42.5415
24.548998793132213 42.4896
24.57178427117417 42.2203
24.59457073593893 42.3674
24.617536219319863 42.2212
24.64032466834748 42.1845
24.663114107195035 42.0213
24.685904536893013 41.6671
24.708874020360852 41.7589
24.731666442613744 41.7091
24.754459858818787 41.5881
24.777254270007962 41.562
24.80022777025625 41.6031
24.82302418230472 41.4881
24.845821592443674 41.4812
24.86862000170663 41.4913
24.891597535453727 41.4159
24.914397953892728 41.5521
24.93719937456671 41.4244
24.96000179851076 41.6681
24.98298338249997 41.8988
25.00578782394922 42.1731
25.028593271784167 42.2088
25.05157790644186 42.5355
25.07438537804115 42.8545
25.097193859145293 43.1252
25.120003350792075 43.2694
25.142992065061257 43.6607
25.165803588823465 43.9357
25.18861612625217 43.9654
25.211429678386736 43.9458
25.234422489079968 43.9247
25.257238081693636 44.0055
25.280054692141732 44.2585
25.3028723214652 44.2737
25.325869245420463 44.2238
25.348688923599397 44.3144
25.371509623787006 44.2113
25.394331347025812 43.7989
25.41733240110666 43.1709
25.440156181590016 42.3659
25.46298098826268 41.8287
25.48580682216873 41.4582
25.50881202326435 40.7437
25.53163992281684 40.5682
25.55446885274561 40.4096
25.577298814096377 40.0481
25.600308179121807 40.0834
25.623140214533745 40.0973
25.64597328451537 39.9642
25.66898578564376 39.8193
25.691820936010206 39.7862
25.714657124097695 39.7807
25.737494350954734 39.8439
25.760511045684957 39.8242
25.783350361364224 39.7694
25.806190718969255 39.7126
25.82903211955018 39.9007
25.852053024868923 40.0157
25.874896522722523 39.9128
25.897741066713106 39.8474
25.920586657892454 39.9906
25.943611790812668 40.0755
25.966459487728237 40.3025
25.989308234998564 40.345
26.01215803367705 40.6906
26.03518741123814 40.8952
26.05803932412957 41.0639
26.080892291600094 41.1444
26.10374631470478 41.1254
26.12677995397268 41.0752
26.14963609978026 41.0456
26.172493304397875 40.5812
26.19535156888223 40.3675
26.218389486949604 39.9007
26.241249882640123 39.7717
26.26411134137826 39.5639
26.28715248187403 39.4837
26.31001607820869 39.4333
26.3328807407756 39.2678
26.35574647063438 39.3206
26.37879191991473 39.4433
26.401659795896734 39.4706
26.424528742360263 39.7115
26.447398760366614 39.7326
26.470448535598294 39.8885
26.49332070826805 40.1202
26.516193955675355 40.4756
26.53906827888316 40.6567
26.562122397260108 40.787
26.584998883685063 41.2072
26.607876449110325 41.5915
26.63075509460056 41.537
26.65381357334404 41.6245
26.67669439061878 41.4768
26.699576291163382 41.2704
26.722459276044212 40.9989
26.745522132402975 40.8012
26.768407297649354 40.5279
26.791293550442003 40.3342
26.814180891848974 40.0975
26.837248143099337 39.7836
26.860137673466657 39.8205
26.88302829566349 39.3917
26.90592001075963 39.2237
26.92899167420566 39.1508
26.951885586870763 38.8012
26.974780595655517 38.5839
26.99785558178161 38.4675
27.020752794605112 38.3037
27.043651106772522 38.2409
27.06655051935668 38.2237
27.089629948036183 38.1163
27.112531573292053 38.1352
27.135434302194138 38.1422
27.158338135817015 37.8897
27.181422024430987 37.986
27.204328079372566 37.7963
27.22723524226965 37.9499
27.250143514198573 37.9644
27.273231880156334 37.9969
27.296142382065014 37.7427
27.319053996245536 37.7149
27.341966723775965 37.7893
27.365059584515222 37.924
27.38797455070062 37.9549
27.410890633481237 37.6971
27.433807833936918 37.717
27.456905206923906 37.86
27.47982465472398 37.9042
27.502745223449743 37.8962
27.525666914182825 38.0764
27.548768816912457 37.9945
27.571692763693633 37.8229
27.59461783573812 37.68
27.617723149491244 37.4979
27.640650484125285 37.4484
27.66357894728264 37.4584
27.686508540048052 37.5247
27.709618414237887 37.3203
27.732550278321757 37.1095
27.755483275279115 37.1999
27.778417406196485 37.3519
27.801531858397514 37.2685
27.824468269376716 37.3009
27.847405817586786 37.2506
27.870344504116094 37.3813
27.893463551932008 37.6191
27.916404527281053 37.7156
27.93934664422563 37.7411
27.962289903855886 37.9982
27.98541356491974 38.088
28.00835912214229 38.2415
28.03130582533231 38.5787
28.054253675581805 38.5098
28.077381967556104 38.5037
28.100332124185126 38.471
28.123283431160893 38.3985
28.146235889577238 38.1917
28.169368830154156 37.8517
28.192323603752033 37.7804
28.215279532083304 37.4239
28.238415973016764 37.2894
28.261374223145094 37.1809
28.284333631303806 36.8749
28.307294198589954 36.77
28.330435319167677 36.4484
28.353398217078915 36.2218
28.376362277420153 35.9907
28.39932750129032 35.9439
28.422473319286713 35.6818
28.44544088262495 35.6897
28.468409612800283 35.6056
28.491379510913497 35.4146
28.51453004413313 35.3351
28.53750229057244 35.2759
28.56047570826344 35.2966
28.583450298308804 35.3064
28.606605564586562 35.015
28.629582511831156 35.0348
28.65256063474956 34.9876
28.675539934446338 35.066
28.698699951647605 35.0578
28.72168161743193 34.8399
28.74466446331978 34.8815
28.767648490417624 34.9575
28.790813276438353 34.8146
28.813799678527303 34.8819
28.836787265157085 34.8308
28.859955641890075 34.9068
28.882945610203045 34.8248
28.905936766392035 34.7459
28.928929111566863 34.8399
28.952102288520145 34.7915
28.975097024308607 34.5304
28.998092952423807 34.388000000000005
29.021090073977508 34.2986
29.04426806913204 34.1163
29.067267590245258 34.0534
29.090268308143695 33.8838
29.11327022394099 33.8532
29.13645305530891 33.7396
29.159457379627167 33.8513
29.18246290519685 33.8567
29.20546963313352 33.8014
29.22865731875826 33.8113
29.25166646419296 33.7473
29.27467681535305 33.7336
29.29768837335608 33.7812
29.320880931312562 33.7419
29.34389491580634 33.7237
29.366910110507334 33.6835
29.38992651653503 33.6712
29.41312396492981 33.6045
29.436142806456754 33.5848
29.45916286268059 33.466
29.48236399319994 33.3513
29.50538649169417 33.2168
29.528410208259935 33.1758
29.55143514402014 32.7666
29.574641196749695 32.8103
29.597668583816574 32.7711
29.6206971934585 32.6011
29.64372702680042 32.6634
29.666938019934474 32.5391
29.689970313635285 32.5594
29.713003834422636 32.4348
29.73603858342347 32.3453
29.759254535188578 32.2677
29.78229175361658 32.3032
29.80533020365064 32.2766
29.82836988641968 32.2545
29.85159081507472 32.1764
29.874632976355343 32.062
29.89767637376955 32.2147
29.920721008448314 32.0065
29.9439469322847 32.0316
29.96699405457564 32.003
29.9900424175358 31.9265
30.013092022298157 31.9678
30.03632295963995 31.9662
30.059375061131373 31.9239
30.08242840783577 31.9879
30.105483000888153 31.9452
30.128718970092244 31.81
30.151776069006917 31.9845
30.17483441768648 31.941
30.198074175317235 31.801
30.221135036724256 31.8612
30.24419715131772 31.8516
30.267260520236203 31.7218
30.290505341942243 31.7981
30.313571232750228 31.8518
30.336638381310948 31.7632
30.35970678876503 31.798000000000002
30.38295669299435 31.6168
30.40602763151657 31.623
30.429099832366074 31.6762
30.452173296685572 31.4627
30.47542830191959 31.5614
30.498504306502497 31.5058
30.521581577995562 31.555999999999997
30.544660117543582 31.6209
30.56792024229725 31.6536
30.59100133132069 31.6446
30.614083691845494 31.5926
30.637167325018545 31.8023
30.660432587840603 31.7805
30.683518779717886 31.6937
30.70660624769615 31.783
30.729694992924372 31.7757
30.75296541239743 31.7211
30.77605672557558 31.5757
30.799149319462742 31.5475
30.8224236211637 31.4088
30.845518789950724 31.3557
30.868615242910597 31.3703
30.891712981195973 31.1412
30.91499247215866 31.0378
30.938092794619365 31.0326
30.96119440587579 30.9539
30.984297307082752 30.7876
31.00758200598383 30.7386
31.030687500658694 30.6948
31.053794288760695 30.5882
31.076902371446767 30.4753
31.100192296997445 30.6597
31.12330298246119 30.5599
31.14641496599209 30.3856
31.169528248749216 30.5031
31.19282341969534 30.4689
31.215939314557186 30.3489
31.239056512134788 30.4187
31.262175013589378 30.3057
31.28547544871168 30.3079
31.30859657161541 30.2847
31.331719001892175 30.3624
31.35484274070538 30.4073
31.378148458819545 30.4086
31.401274828443725 30.4491
31.424402510106933 30.3446
31.447712205419993 30.4754
31.470842524931633 30.2911
31.493974159989783 30.3631
31.51710711176168 30.3513
31.54042212308802 30.236
31.563557722100917 30.1617
31.586694641341655 29.9648
31.609832881979628 29.9127
31.63315322823208 29.9538
31.656294125521327 29.8001
31.679436347728515 29.7405
31.70257989602529 29.7331
31.725905596152327 29.7007
31.74905181052835 29.6185
31.772199354521323 29.6676
31.79534822930507 29.6814
31.818679302290967 29.7199
31.84183085259981 29.7085
31.864983737233473 29.6197
31.88813795736804 29.694000000000003
31.911474422233013 29.538
31.934631327356435 29.6474
31.9577895715215 29.5406
31.980949155906522 29.5384
32.004291031706956 29.538
32.027453310562606 29.4457
32.05061693318573 29.2759
32.07396288236386 29.3539
32.09712920658542 29.2693
32.12029687812702 29.1108
32.14346589817093 28.9964
32.166817291729984 28.9811
32.18998902288583 28.9156
32.21316210610336 28.8252
32.23633654256711 28.7399
32.259693399663725 28.7353
32.282870556771144 28.6385
32.30604907069099 28.6368
32.329228942610065 28.6099
32.35259128243769 28.5425
32.375773884550505 28.3406
32.398957848235646 28.4674
32.422143174682176 28.4214
32.445511016471215 28.2876
32.468699082679954 28.2072
32.49188851523011 28.1669
32.51507931531304 28.2065
32.538452678331 28.1762
32.56164622776311 28.1742
32.58484114831493 27.9727
32.60803744118015 27.9358
32.631416344731896 28.0571
32.654615396551876 28.0178
32.67781582427913 27.9307
32.701198898634416 27.7952
32.72440209253756 27.8434
32.747606665947124 27.8502
32.77081262006088 27.578000000000003
32.79420126883317 27.5851
32.81740999876112 27.6833
32.840620112999424 27.6072
32.86383161274818 27.5664
32.88722585534586 27.5381
32.91044014056596 27.6404
32.933655814909734 27.5393
32.95687287957963 27.5659
32.98027273544904 27.4274
33.00349259526636 27.3917
33.026713849030116 27.4082
33.04993649794511 27.4081
33.073341986570746 27.3887
33.09656744032826 27.3573
33.11979429286444 27.3537
33.14302254538647 27.3299
33.166433686291185 27.256
33.18966475336992 27.2804
33.212897224069096 27.1989
33.23613109959831 27.1178
33.259547912343415 27.1313
33.2827846121627 27.0694
33.306022720453775 26.9997
33.32926223842861 26.9156
33.352684742614166 26.9542
33.37592709463173 26.9052
33.399170859982064 26.8163
33.422597648419426 26.8013
33.44584425514446 26.5455
33.46909227885668 26.551
33.4923417207723 26.4622
33.51577423505344 26.5299
33.539026528130385 26.4686
33.56228024307245 26.4137
33.585535381098246 26.3258
33.60897364093058 26.2805
33.63223163992385 26.2338
33.6554910656699 26.1979
33.678751919389796 26.2014
33.702195944520106 26.1657
33.72545966903325 26.1798
33.74872482519663 26.0362
33.771991414233746 26.1029
33.79544122444841 26.148000000000003
33.81871069412428 26.0165
33.84198160035767 25.9948
33.86525394437455 25.9465
33.88870955949969 25.8276
33.911984794020626 25.8837
33.93526147001624 25.739
33.958539588715006 25.7854
33.98200102861669 25.7178
34.0052820477047 25.6219
34.02856451319451 25.6359
34.05203033759056 25.5303
34.07531571090147 25.5676
34.09860253431845 25.5737
34.121890809074316 25.4076
34.145362493118924 25.4304
34.16865368561615 25.4372
34.191946333164054 25.4198
34.21524043699793 25.3696
34.23871800066799 25.2795
34.26201503218366 25.2409
34.28531352370466 25.1739
34.30861347646881 25.1126
34.33209693978188 25.1441
34.3553998301885 25.1187
34.378704185565205 24.9873
34.402010007152356 24.9566
34.42549939016683 24.9376
34.44880815937748 24.8588
34.472118398533134 24.799
34.49543010887669 24.7558
34.51892543169198 24.7027
34.54224009966052 24.7182
34.56555624255917 24.7004
34.58887386163339 24.6244
34.61237514439016 24.5516
34.6356957311114 24.5407
34.65901779775809 24.5095
34.68252356662995 24.4633
34.705848608458616 24.4594
34.72917513396849 24.4031
34.75250314440949 24.3671
34.77601490857862 24.2657
34.799345904259795 24.3128
34.82267838863559 24.2825
34.846012362958525 24.258000000000003
34.869530142679984 24.1893
34.89286711232212 24.1258
34.91620557568269 24.1595
34.93954553401677 24.1814
34.9630693495876 24.0394
34.986412313340814 24.1633
35.00975677584668 24.0622
35.033102738362956 24.0109
35.05663261012228 23.9381
35.0799815881786 23.9688
35.10333207003229 23.9209
35.12668405694369 23.8633
35.150220005273056 23.927
35.17357501786656 23.7796
35.19693153931268 23.7425
35.220289570874385 23.709
35.24383161619786 23.7107
35.267192683604904 23.7636
35.290555264930376 23.6743
35.314101899412165 23.6909
35.33746752422433 23.6115
35.36083466676374 23.5798
35.38420332829803 23.5407
35.407756095629054 23.5688
35.43112781085063 23.6042
35.45450104888391 23.5341
35.477875810999194 23.5382
35.50143473172161 23.4549
35.52481255774625 23.4895
35.54819191167777 23.3712
35.57157279478914 23.3419
35.595137889488406 23.2721
35.61852184675279 23.2556
35.641907337029984 23.2798
35.665294361595684 23.2246
35.68886565090076 23.0575
35.7122557598848 23.136999999999997
35.73564740699838 23.1101
35.759040593519934 23.0309
35.78261809810353 22.9712
35.80601437933051 22.8757
35.829412203814705 22.8515
35.85281157283719 22.8707
35.876395313415884 22.9047
35.8997977874528 22.7457
35.92320180988546 22.7534
35.946790244133936 22.6802
35.97019737933222 22.7353
35.993606066789866 22.6616
36.01701630779276 22.6546
36.04061101440684 22.5707
36.06402437852291 22.6346
36.08743930005611 22.6586
36.1108557802951 22.5001
36.13445678011326 22.4942
36.15787639383515 22.4335
36.18129757014299 22.3767
36.20472031032821 22.4266
36.22832762423364 22.2914
36.25175350829375 22.3383
36.275180960119776 22.201999999999998
36.298609981005924 22.2151
36.32222362992669 22.2273
36.34565580510207 22.1865
36.36908955323448 22.1674
36.39252487562093 22.1088
36.416144880530226 22.0541
36.43958336764275 22.0711
36.463023432914625 22.0357
36.486465077645676 21.9718
36.51009145956204 22.0295
36.53353627947859 22.0223
36.55698268276811 22.0252
36.58043067073321 21.9038
36.60406345072071 21.8343
36.62751462435344 21.7976
36.65096738658405 21.7819
36.67460498210655 21.7411
36.69806093788647 21.6631
36.72151848619297 21.6328
36.744977628333636 21.6533
36.76862165890998 21.5974
36.79208400512205 21.6044
36.81554794910557 21.5579
36.83901349217101 21.4466
36.862663978991606 21.4712
36.88613273667352 21.3827
36.90960309738324 21.4454
36.933075062434064 21.3416
36.95673202673572 21.3224
36.98020721697122 21.253
37.003684015502365 21.1759
37.027162423645365 21.2085
37.050825886711465 21.2504
37.07430753063053 21.1472
37.09779078812467 21.1386
37.121275660513014 21.0935
37.144945643673694 21.0697
37.16843376245278 21.0174
37.19192350009803 21.0284
37.215414857931435 20.9893
37.239091382563885 20.8878
37.262585997426164 20.8154
37.28608223645736 20.8681
37.309763684451696 20.8464
37.33326318851098 20.7937
37.356764320726555 20.781999999999996
37.380267082425526 20.7655
37.40395510942588 20.7379
37.42746114683234 20.6507
37.45096881771841 20.5911
37.474478123414166 20.5556
37.49817275092816 20.5226
37.52168534303452 20.5857
37.54519957395567 20.4911
37.568715445024665 20.4955
37.592416694607714 20.3632
37.61593586281424 20.3873
37.63945667518264 20.5147
37.66297913304891 20.3313
37.68668702630454 20.3552
37.710212792059274 20.2495
37.733740207334854 20.1896
37.757269273470364 20.1767
37.780983832050374 20.1025
37.80451621684926 20.1712
37.82805025654007 20.162
37.851585952464795 20.048
37.8753071980695 19.9705
37.89884622345676 19.9632
37.92238690911902 19.9636
37.94611318753442 19.9566
37.969657210779765 19.8966
37.99320289834801 19.9429
38.016750251586465 19.9073
38.04048325513017 19.8175
38.06403395679343 19.748
38.087586328183946 19.6671
38.11114037065203 19.7382
38.13488012115898 19.7857
38.1584375229181 19.6946
38.181996599821 19.6648
38.205557353221124 19.6327
38.229303872575656 19.601
38.2528679961576 19.549
38.27643380031219 19.5224
38.30000128639589 19.465999999999998
38.32375459653193 19.4621
38.34732546371299 19.4515
38.37089801690786 19.3477
38.39447225747609 19.2907
38.418232380377425 19.227
38.441810012983396 19.3315
38.46538933705673 19.2243
38.488970353960084 19.213
38.51273731166058 19.2169
38.536321731567014 19.2033
38.55990784840681 19.180999999999997
38.58367995004091 19.0782
38.60726947812959 19.07
38.63086070726198 19.0954
38.654453638806274 19.0622
38.678232613930824 19.0215
38.70182896773327 18.9266
38.72542702806741 18.9106
38.7490267963045 18.9666
38.77281266709232 18.9107
38.79641586862214 18.8963
38.8200207821842 18.8316
38.843627409152944 18.7796
38.86742019782782 18.7491
38.891030269149255 18.7516
38.914642058016156 18.7307
38.938255565806124 18.6418
38.96205529464307 18.6209
38.98567225787121 18.6968
39.00929094417078 18.5849
39.03291135492255 18.6237
39.05671804624804 18.5617
39.080341923549106 18.4799
39.103967529460334 18.4676
39.127594865365744 18.3909
39.15140854155791 18.3541
39.17503935514948 18.3753
39.19867190290282 18.311
39.22249083587951 18.3105
39.24612686969409 18.304000000000002
39.269764641845306 18.2564
39.293404153722804 18.2376
39.317230110864074 18.1583
39.34087311998506 18.1209
39.36451787301696 18.123
39.388164371352595 18.099
39.41199737518003 18.0316
39.43564738196752 18.0258
39.45929913825317 17.9997
39.48295264543308 18.0037
39.506792718520884 17.9516
39.530449745387216 17.9408
39.55410852735203 17.8978
39.57776906581474 17.9088
39.60161623079 17.8206
39.625280300200025 17.8232
39.64894613032202 17.781
39.67261372255866 17.7699
39.6964680021016 17.7027
39.72013913657293 17.6968
39.74381203738292 17.6757
39.76748670593756 17.6492
39.79134812278169 17.6594
39.81502634488497 17.6992
39.83870633896685 17.586
39.862388106436654 17.5201
39.88625668336918 17.5212
39.90994201572829 17.5488
39.933629125719285 17.4366
39.957503091207826 17.4361
39.9811937746168 17.4279
40.00488623990914 17.3069
40.02858048850006 17.3053
40.05246165409549 17.2876
40.076159487492085 17.2529
40.099859108448875 17.2223
40.123560518384345 17.2025
40.1474489070226 17.2104
40.171153913178564 17.1458
40.194860712584955 17.1383
40.2185693066637 17.1328
40.242464941335314 17.0874
40.26617714307655 17.0179
40.289891143772046 17.0561
40.3136069448471 16.9796
40.33750984859743 16.9937
40.3612292688043 16.9259
40.3849504936829 16.9422
40.40867352466194 16.9075
40.43258372059144 16.9141
40.45631038219906 16.8934
40.48003885420956 16.7525
40.503769138055105 16.7726
40.52768664931955 16.7702
40.55142057531802 16.7402
40.57515631746428 16.6663
40.599079334038514 16.6916
40.62281872700477 16.6294
40.64655994043941 16.6241
40.67030297578061 16.6144
40.69423334835778 16.5633
40.71798004609188 16.5744
40.74172857006355 16.4901
40.76547892171441 16.4738
40.7894166736039 16.5038
40.813170699248566 16.402
40.83692655691388 16.385
40.86068424804498 16.4596
40.884629402612525 16.3988
40.908390779366385 16.3707
40.932153993938 16.3005
40.95591904777605 16.3074
40.979871628443995 16.3309
41.003640379561936 16.256
41.02741097430883 16.2198
41.05118341413683 16.230999999999998
41.075143444384416 16.1549
41.098919593177826 16.1527
41.1226975914255 16.1198
41.14647744058318 16.0761
41.170444943946755 16.0555
41.19422851378379 16.0505
41.218013938914645 15.9558
41.24198706625173 15.9663
41.26577622087193 15.9445
41.289567235177785 15.935
41.31336011063129 15.905
41.337340752422875 15.8612
41.361137369129835 15.8657
41.38493585138705 15.8112
41.40873620066004 15.8107
41.43272438060107 15.7615
41.45652848292052 15.745999999999999
41.48033445666918 15.7425
41.50414230331616 15.6781
41.528138045159764 15.7111
41.551949656675205 15.5841
41.575763145513235 15.5932
41.59957851314666 15.5408
41.62358184070442 15.5189
41.64740098505737 15.463
41.6712220126409 15.4933
41.69504492493139 15.5096
41.71905586207357 15.4339
41.74288256296395 15.4586
41.766711153007456 15.4637
41.79054163368412 15.4047
41.814560204340054 15.3715
41.838394485526365 15.3799
41.86223066180303 15.3533
41.88625497706819 15.3323
41.910094962812 15.2886
41.93393684811168 15.2489
41.95778063445365 15.1932
41.981812625263366 15.1566
42.00566023303407 15.1606
42.029509746323676 15.1439
42.05336116662236 15.1144
42.077400857069705 15.0582
42.10125611078846 15.0103
42.12511327600405 14.9622
42.14897235421036 14.9495
42.173019768448455 14.9317
42.19688269209613 14.952
42.22074753323349 14.9126
42.24461429335818 14.8726
42.268669455600495 14.8774
42.292540073217886 14.8835
42.31641261433284 14.7916
42.34028708044675 14.7756
42.36435001496739 14.7472
42.38822835065557 14.7623
42.41210861586426 14.6943
42.4359908120986 14.7037
42.46006154323262 14.7021
42.48394762115317 14.6713
42.507835634632315 14.6544
42.531912233047436 14.6149
42.55580413732265 14.5835
42.579697981698 14.5685
42.60359376768525 14.5552
42.62767820545945 14.5165
42.65157789440821 14.4919
42.67547952952185 14.4761
42.699383112316 14.3812
42.72347541395347 14.3561
42.74738291190531 14.3677
42.771292362102166 14.3287
42.795203766063516 14.3007
42.819303956130405 14.3103
42.843219287476536 14.2622
42.86713657716324 14.2554
42.89105582671383 14.1881
42.91516392983864 14.2302
42.939087119032166 14.2389
42.963012272677304 14.2053
42.98693939230129 14.1139
43.01105543317513 14.0823
43.034986504731386 14.1163
43.05891954686589 14.0754
43.08285456110972 14.0718
43.10697856448665 14.0045
43.130917542983475 13.952
43.15485849820081 13.9685
43.17880143167367 13.9353
43.20293342237094 13.9075
43.226880332449 13.9338
43.25082922540554 13.9371
43.27496722682525 13.8807
43.29892010567796 13.9045
43.32287497204102 13.8262
43.34683182745632 13.7512
43.370977859791836 13.7122
43.39493871351105 13.6914
43.41890156092628 13.6935
43.44286640358341 13.7095
43.46702049182749 13.7025
43.49098934522816 13.6542
43.51496019852649 13.6461
43.5389330532723 13.5789
43.56309522248204 13.5658
43.58707210044314 13.5474
43.61105098451946 13.4897
43.63503187626491 13.4723
43.659202151562134 13.4916
43.68318707902681 13.4849
43.70717401884041 13.4214
43.731162972560874 13.3861
43.75534137913236 13.3448
43.779334381108384 13.4074
43.803329401683186 13.2883
43.82732644241872 13.2717
43.8515130055166 13.3251
43.87551410707659 13.2493
43.89951723350145 13.2473
43.923709934595614 13.1969
43.94771713129917 13.2238
43.97172635758096 13.2111
43.99573761501002 13.1777
44.0199385169922 13.1175
44.04395385732619 13.1243
44.067971233533086 13.1008
44.09199064718605 13.0896
44.11619977548961 13.0143
44.14022328470671 12.9839
44.16424883610785 13.0177
44.18827643127035 12.9774
44.21249381139513 12.9408
44.236525514814076 12.8953
44.26055926674478 12.91
44.28459506876863 12.8959
44.3088207262813 12.8357
44.33286064928722 12.8211
44.35690262714919 12.8478
44.38094666145278 12.7851
44.4051806219871 12.8026
44.42922879003185 12.7619
44.45327901929361 12.7434
44.477331311362136 12.6944
44.501573600619416 12.6256
44.525630039221795 12.6408
44.54968854541895 12.6101
44.573937102200176 12.6082
44.5979997645541 12.659
44.622064499300315 12.5683
44.64613130803592 12.549000000000001
44.67038823869318 12.5456
44.69445921643748 12.4844
44.718532272981385 12.4743
44.742607409926194 12.4709
44.76687274034801 12.4437
44.79095205918753 12.4149
44.81503346325094 12.3884
44.839116954143876 12.3879
44.86339071028742 12.3271
44.88747839599524 12.3372
44.91156817336837 12.3201
44.93566004401666 12.3045
44.959942251908146 12.2247
44.984038330325966 12.2339
45.00813650686762 12.1923
45.03223678314731 12.2488
45.05652746888232 12.1662
45.08063196592069 12.1769
45.104738567558705 12.1684
45.128847275414856 12.1283
45.15314646515866 12.0677
45.17725940679741 12.0774
45.20137445952892 12.0287
45.22568004865265 12.0263
45.24979934496396 12.0054
45.27392075725247 11.98
45.29804428714431 11.9677
45.322358426247604 11.945
45.346486212804315 11.9323
45.370616121861914 11.9282
45.39474815505086 11.9215
45.41907087049246 11.8331
45.4432071734666 11.7797
45.46734560548283 11.8158
45.49148616817604 11.8424
45.51581748638564 11.786
45.5399623320197 11.7346
45.56410931325473 11.7362
45.58825843173002 11.7462
45.61259837920865 11.6854
45.636751793816 11.6923
45.66090735060093 11.624
45.68506505120716 11.6219
45.7094136545275 11.6195
45.73357566449271 11.565999999999999
45.75773982322992 11.5639
45.78190613238733 11.5797
45.806263418194064 11.4839
45.83043404997326 11.5313
45.85460683713677 11.5298
45.87897065658495 11.4606
45.90314777634752 11.4341
45.92732705646868 11.4391
45.9515084986045 11.4014
45.97588104735473 11.3887
46.00006683541565 11.3679
46.02425479047904 11.3085
46.04844491420549 11.3227
46.0728262191024 11.3083
46.09702070211635 11.2768
46.12121735879483 11.2862
46.14541619080294 11.229000000000001
46.169806278764455 11.197000000000001
46.194009483459034 11.2078
46.21821486849841 11.2159
46.24242243555223 11.1059
46.266821333570014 11.1093
46.29103328674601 11.1625
46.31524742696538 11.157
46.33946375590237 11.092
46.36387149104216 11.0624
46.38809221957392 11.0202
46.41231514186606 11.0292
46.436540259597464 11.0056
46.460956858999374 10.9873
46.48518638983522 10.9338
46.509418121166966 10.9504
46.533652054678114 10.9186
46.55807754555709 10.8857
46.58231590571962 10.8865
46.60655647313217 10.8282
46.630988654873654 10.8382
46.655233659129024 10.8032
46.67948087571551 10.7953
46.70373030632484 10.7834
46.72817142736393 10.7599
46.752425308428684 10.7556
46.77668140861147 10.7494
46.80093972960865 10.6889
46.82538981736788 10.6249
46.849652602470904 10.5897
46.87391761349769 10.6198
46.8981848521493 10.61
46.9226439341274 10.5893
46.946915650573224 10.5498
46.97118959976749 10.571
46.99546578341598 10.5315
47.019933887188216 10.5164
47.04421456235744 10.524000000000001
47.06849747711879 10.5236
47.09278263318286 10.4919
47.11725978640143 10.4216
47.14154944775105 10.4183
47.165841355555656 10.4153
47.1901355115306 10.3989
47.214621741924994 10.3962
47.23892041698887 10.3672
47.26322134538975 10.3172
47.28771440635075 10.3541
47.31201986422527 10.3174
47.33632758061436 10.2499
47.360637557241866 10.2447
47.38513974410611 10.2526
47.40945426407847 10.1923
47.43377104948137 10.2031
47.45809010204344 10.1731
47.48260144275502 10.1768
47.506925052572285 10.0971
47.53125093475548 10.0954
47.55557909103813 10.1065
47.58009961361992 10.0717
47.60443234110732 10.0593
47.62876734791564 10.0387
47.65310463578333 10.0037
47.6776343683373 10.0352
47.7019762413987 9.97905
47.72632040075572 9.973419999999999
47.75066684815169 9.95888
47.77520581885936 9.94246
47.799556865477655 9.89356
47.823910205386 9.86793
47.84826584033272 9.873280000000001
47.87281407745551 9.838239999999999
47.89717432569297 9.83558
47.92153687423484 9.82831
47.94609208429692 9.79838
47.97045925671401 9.76918
47.99482873471275 9.76753
48.01920052005013 9.74967
48.04376504619224 9.66922
48.068141469543484 9.70732
48.09252020552573 9.70791
48.11690125590099 9.65354
48.1414751266064 9.67029
48.16586082917454 9.65456
48.19024885144316 9.66798
48.2146391951793 9.62008
48.239222439012764 9.585410000000001
48.26361744916137 9.600769999999999
48.28801478610016 9.60874
48.31241445160131 9.55608
48.337007097209366 9.50676
48.36141144338331 9.540339999999999
48.38581812345755 9.51094
48.41022713920929 9.51174
48.434829215320704 9.47392
48.45924292604658 9.44213
48.48365897780325 9.440430000000001
48.50807737237308 9.4161
48.532688907799276 9.39107
48.55711201168574 9.36775
48.581537463754074 9.362860000000001
48.60615611725119 9.390189999999999
48.63058628942721 9.32875
48.65501881516546 9.28478
48.6794536962573 9.259889999999999
48.70408185970339 9.25407
48.72852147531801 9.23305
48.75296345168211 9.24182
48.77740779059232 9.19925
48.80204549302823 9.202539999999999
48.82649458091802 9.204130000000001
48.85094603676547 9.16292
48.87539986237231 9.14449
48.90004713292306 9.149410000000001
48.92450572200832 9.102360000000001
48.94896668628025 9.12232
48.97343002754588 9.08601
48.99808689542115 9.10245
49.02255501470614 9.07147
49.04702551642794 9.01878
49.0714984023988 8.9876
49.096164896893235 9.00119
49.120642575466796 8.99271
49.145122643748394 8.9754
49.16960510355558 8.9529
49.19428125404938 8.95246
49.2187685210852 8.8971
49.243258185121555 8.933539999999999
49.26794160167084 8.87293
49.2924360839405 8.8438
49.31693296869764 8.80987
49.34143225776915 8.80768
49.36612538195438 8.777519999999999
49.39062950396021 8.80979
49.41513603578346 8.78928
49.4396449792564 8.76886
49.46434784069503 8.752
49.488861631846454 8.71565
49.513377840166804 8.729610000000001
49.537896467493745 8.694339999999999
49.56260909589029 8.65691
49.587132585683285 8.66635
49.611658500018365 8.653789999999999
49.636186840738596 8.576039999999999
49.66090926588511 8.587489999999999
49.685442483902584 8.60401
49.70997813385706 8.55101
49.734516217597076 8.57981
49.75924846937352 8.55725
49.7837914452858 8.514669999999999
49.80833686055187 8.466239999999999
49.83288471702571 8.4763
49.85762682540054 8.49383
49.882179588965734 8.42347
49.9067347993235 8.39777
49.93129245833333 8.431510000000001
49.95604445336378 8.421710000000001
49.98060703442832 8.38776
50.005172069746266 8.370280000000001
50.02993150438364 8.343069999999999
50.05450147301533 8.35896
50.07907390151433 8.33108
50.10364879174981 8.33625
50.12841816587289 8.30952
50.1529980044635 8.27357
50.17758031042124 8.24003
50.20216508562089 8.28088
50.22694442953363 8.22947
50.25153416817468 8.24343
50.27612638170508 8.226360000000001
50.300721072005196 8.15754
50.325510416102105 8.11792
50.350110084975064 8.12403
50.37471223628208 8.12002
50.39931687190919 8.12085
50.424116246675766 8.109910000000001
50.44872587605249 8.098469999999999
50.47333799543065 8.09285
50.49795260670191 8.06582
50.52276204271512 8.04139
50.54738166295838 8.04263
50.57200378079314 8.05354
50.596628398116835 7.98577
50.62144792604559 7.974539999999999
50.646077567609396 7.96232
50.670709714377715 7.94728
50.69553683636198 7.92063
50.72017401885922 7.91131
50.7448137122895 7.91365
50.76945591856022 7.91713
50.79429318636823 7.88722
50.818940443716784 7.861439999999999
50.84359021965163 7.8425199999999995
50.868242516085964 7.841810000000001
50.893089960641895 7.80024
50.917747323549435 7.793130000000001
50.94240721271973 7.76939
50.96706963007175 7.76381
50.99192728239342 7.75016
51.01659478166073 7.78705
51.04126481489051 7.73417
51.06593738400761 7.70362
51.090805275207074 7.682189999999999
51.11548294172845 7.674460000000001
51.14016314993547 7.670839999999999
51.164845901758845 7.647639999999999
51.18972406304274 7.657539999999999
51.21441192780656 7.614669999999999
51.23910234200271 7.57295
51.2637953075678 7.56985
51.288683770237945 7.56755
51.31338186432707 7.5579
51.33808251561888 7.52646
51.362978729967345 7.50328
51.387684521509755 7.48566
51.41239287610203 7.50173
51.437103795691165 7.45325
51.46201036644977 7.49023
51.486726441956634 7.40155
51.51144508832545 7.464519999999999
51.536166307509156 7.47242
51.56108326624387 7.41615
51.58580965706056 7.39468
51.61053862657523 7.386989999999999
51.635270176746864 7.346439999999999
51.66019755512065 7.37338
51.68493429268881 7.3098399999999994
51.70967361681515 7.308789999999999
51.73441552946465 7.28755
51.759353359237934 7.284839999999999
51.7841004750961 7.2729
51.80885018539685 7.24056
51.833602492111254 7.20927
51.8585508051424 7.232060000000001
51.883308330926425 7.23022
51.90806845906181 7.175839999999999
51.932831191525715 7.15292
51.95779001977161 7.15635
51.98255798721516 7.123139999999999
52.00732856494335 7.10389
52.03229530577543 7.09894
52.057071130455945 7.09399
52.081849571391054 7.0582199999999995
52.106630630568695 7.050269999999999
52.13160794279417 7.047510000000001
52.15639426492067 7.05828
52.18118321127822 7.03642
52.205974783860896 7.037039999999999
52.23096269971011 7.01208
52.255759551287994 6.988519999999999
52.280559035098186 6.9756
52.30536115314103 6.95344
52.33035970494467 6.95339
52.35516711807904 6.932760000000001
52.37997717147198 6.96258
52.40478986713005 6.9755899999999995
52.42979908731974 6.8884300000000005
52.454617094216 6.892289999999999
52.47943774942214 6.88373
52.50426105495102 6.82362
52.529280976059844 6.79127
52.554109609024096 6.80512
52.57894089837482 6.810169999999999
52.60377484613117 6.80057
52.62880550079408 6.76297
52.65364479223379 6.725160000000001
52.67848674816189 6.71802
52.70352547971946 6.75369
52.72837279155837 6.70708
52.753222773982785 6.67478
52.778075429022984 6.67508
52.80312495150885 6.67178
52.827982978797436 6.64588
52.85284368481815 6.63457
52.87770707160767 6.63002
52.90276741793998 6.61742
52.92763619336701 6.579739999999999
52.952507655698504 6.590560000000001
52.977381806977576 6.577999999999999
53.00245301017842 6.59492
53.02733256653592 6.59008
53.052214817996074 6.56965
53.077099766608484 6.5306
53.102181859804446 6.51434
53.127072229988265 6.48629
53.15196530349892 6.505780000000001
53.17686108239249 6.475709999999999
53.20195409881522 6.4469199999999995
53.22685531582556 6.43007
53.25175924441303 6.40559
53.27666588664027 6.390219999999999
53.30176985962693 6.3842
53.3266819565689 6.38719
53.35159677336455 6.38155
53.376514312083096 6.38422
53.40162927507703 6.33212
53.42655228516116 6.36373
53.45147802340193 6.30448
53.47660125628886 6.29986
53.50153247842639 6.28024
53.52646643496923 6.226459999999999
53.55140312799818 6.24945
53.576537409691696 6.24726
53.60147960336152 6.21157
53.626424539786164 6.22107
53.65137222105307 6.206169999999999
53.67651758529126 6.19537
53.70147078399681 6.16631
53.72642673383343 6.1557699999999995
53.75138543689533 6.17127
53.776541917524526 6.14987
53.801506154876755 6.12039
53.826473151763246 6.06246
53.851442910284916 6.06578
53.87661054126026 6.065180000000001
53.9015858509782 6.069319999999999
53.92656392866066 6.0604
53.95154477641532 6.040080000000001
53.976723591801296 6.00922
54.00171000771266 6.00721
54.02669920004598 5.99555
54.051691170915745 5.986669999999999
54.076881204886796 5.96609
54.101878760928514 6.01601
54.12687910187696 5.935980000000001
54.152077577768296 5.96775
54.1770835166946 5.9397
54.20209224691339 5.874230000000001
54.22710377055121 5.88192
54.25231352511594 5.88564
54.27733066384342 5.87044
54.30235060239643 5.8058
54.32737334290836 5.84524
54.35259441062629 5.79513
54.377622783395324 5.77935
54.40265396455061 5.76695
54.42768795623251 5.76309
54.45292037169559 5.74826
54.477960012857906 5.71285
54.50300247099511 5.76424
54.52804774825457 5.70553
54.55329154616743 5.64649
54.57834249018678 5.66259
54.6033962597977 5.60458
54.6284528571545 5.63626
54.653708072335164 5.58397
54.67877035378786 5.57828
54.70383546947698 5.551830000000001
54.72890342156389 5.47887
54.7541700889442 5.48073
54.77924374251975 5.55546
54.8043202390049 5.51312
54.82959552413022 5.4263
54.8546777351945 5.44407
54.87976279569621 5.40172
54.90485070780914 5.42955
54.930137506558005 5.3585400000000005
54.95523115074295 5.3990800000000005
54.98032765308844 5.33398
55.005427015775496 5.28629
55.03072536339621 5.25708
55.05583047570572 5.29884
55.080938454927676 5.28673
55.10604930325027 5.25638
55.131359235107396 5.2685
55.15647585066083 5.20279
55.181595341907496 5.1665
55.20671771104285 5.1532
55.232039262617704 5.13011
55.25716741665048 5.16381
55.28229845518636 5.16822
55.30743238042802 5.0618099999999995
55.33276558731939 5.08405
55.357905315183636 5.03178
55.383047936390035 5.0009
55.40819345314859 5.0096300000000005
55.433538351073295 4.95527
55.458689688238415 4.92601
55.483843927614096 4.93283
55.509197623043605 4.88622
55.53435769621134 4.88509
55.55952067826466 4.8069
55.5846865714265 4.85999
55.61005202069737 4.814430000000001
55.63522376553902 4.8025400000000005
55.66039842818645 4.82296
55.68557601087004 4.7725
55.7109532500271 4.6937
55.73613670233794 4.71519
