TT I
1.2716486653135266 7.004580000000001
1.2939594142134223 6.858630000000001
1.3162702121660406 6.84474
1.3385810600174564 7.033810000000001
1.3608919586137629 6.39853
1.383202908801069 6.01786
1.405513911425503 5.7275599999999995
1.4278249673332093 5.9983900000000006
1.4501343378461518 5.86717
1.4724455028545926 6.223730000000001
1.4947567236847858 6.36768
1.517068001182951 6.38135
1.5393793361953272 5.77409
1.5616907295681737 5.2333
1.5840021821477681 5.55668
1.60631369478041 5.05826
1.6286252683124185 4.86645
1.6509369035901333 4.49903
1.6732468618895553 5.157
1.695558623192809 5.1939
1.7178704487808514 4.724
1.7401823395001077 4.69168
1.7625012545597203 4.7162
1.7848028405262486 4.74348
1.8071218901122095 4.61145
1.8294236121921872 4.55957
1.8517427996910911 4.20162
1.8740620574440425 4.3962699999999995
1.8963639900671978 4.31355
1.9186833908139995 4.44294
1.9409854680117449 4.45753
1.9633050151394713 4.6151599999999995
1.9856246367570705 5.14067
2.0079269371922672 4.68475
2.03024671027244 4.42376
2.0525491637446027 4.32545
2.074869091674931 4.45728
2.097171701569106 4.78851
2.1194917877373847 4.9842
2.141811954326636 4.82172
2.164114805233074 4.26542
2.186435135143035 4.96609
2.208738150935709 6.11072
2.231058647554722 6.8437600000000005
2.2533792288321184 7.077780000000001
2.275682498336085 5.6957
2.298003251406138 5.61339
2.3203066942619714 5.43299
2.3426276225136022 5.28863
2.3649486396617507 6.0117
2.387252348930071 6.51272
2.4095735463442893 6.19495
2.4318774374315884 6.16635
2.4541988185014043 7.4172199999999995
2.476502894794693 7.03671
2.498824462909887 7.22205
2.521146125856138 7.6211
2.5434504863470337 7.5547699999999995
2.5657723414244717 7.73793
2.588076895590662 7.764460000000001
2.610398946189713 8.09116
2.6327210958598384 8.48364
2.6550259469304716 8.377880000000001
2.6773482972090137 8.71164
2.6996533504259 8.14057
2.7219759047039602 8.59981
2.744298562293959 8.17319
2.7666039251246595 7.92488
2.7889267918020164 7.89012
2.8112323652516555 8.38396
2.833555444408179 8.70375
2.8558786311183852 8.27564
2.8781845268938557 9.259210000000001
2.9005079311721484 9.41912
2.9228140460410397 9.08403
2.9451376712799635 9.17972
2.967444008632326 9.49702
2.9897678582247247 9.680489999999999
3.0120918213106695 10.3653
3.0343984987899373 10.6301
3.0567226913198637 10.9483
3.079029599759726 11.6235
3.101354025127254 12.1117
3.123678568232338 12.7401
3.145985829517914 13.0209
3.16831061055229 13.6858
3.1906181112775593 14.0946
3.212943133635653 14.4241
3.2352682779763207 14.8114
3.2575761442691227 15.0669
3.2799015350264273 15.3559
3.302209649240067 15.8246
3.3245352898092655 16.3663
3.3468436553365257 17.0707
3.369169549113219 17.1921
3.3914955708171384 18.0698
3.413804319727358 18.6332
3.4361305997334863 18.3971
3.4584396084414553 19.2975
3.4807661501462652 19.4645
3.503092824025881 20.4911
3.5254022288463154 20.3148
3.5477291695206588 20.9178
3.5700388426251948 21.5929
3.5923660534916446 21.9577
3.6146934007816114 23.5181
3.637003482731501 27.8836
3.6593311053109985 29.2357
3.681641464033634 26.3772
3.7039693653009733 24.6506
3.726297407241705 24.4154
3.7486081875460804 24.4982
3.7709365132734978 25.0948
3.793247578841633 26.1086
3.8155761917550093 25.5636
3.8378875459837216 26.3902
3.8602164494827234 26.7185
3.882545499606844 27.4279
3.9048572932539183 27.9825
3.9271866390645718 28.2339
3.9494987298666713 29.0444
3.971828374764527 29.7444
3.9941581705403255 30.3195
4.016470713506008 30.4261
4.038800813471445 31.2228
4.061113662089144 32.1735
4.0834440696459176 32.6319
4.105774632334751 32.503
4.128087945865126 33.8477
4.150418821249301 33.938
4.172732448931298 34.7431
4.195063640413578 35.7354
4.2173775856475215 36.3583
4.239709096631102 39.374
4.262040768704612 54.2172
4.284355196706267 63.8338
4.306687193387355 55.0264
4.329001947444346 44.3199
4.35133427213731 41.8201
4.373666762177566 41.7852
4.395982011761091 42.3158
4.418314834921175 43.4382
4.44063041906622 44.7537
4.4629635787515625 46.7823
4.4852969080429785 47.9024
4.5076130004776225 50.2117
4.529946671403969 55.2547
4.552263106909177 57.4792
4.574597122877047 55.6765
4.596931312711224 53.3359
4.619248269273446 53.0777
4.6415828092605835 53.5573
4.663900117405352 54.3896
4.686235010953232 56.129
4.708552674085913 57.5456
4.730887924602802 59.1929
4.753223354952695 61.1851
4.775541557023902 64.0767
4.797877349456786 66.8759
4.820195915032126 67.7458
4.842532072957498 67.4708
4.864868414979744 70.3527
4.88718753227192 74.5457
4.909524244902505 76.0089
4.931843734218147 75.656
4.954180820867835 77.3926
4.976518095879839 80.5355
4.998838149695359 82.7537
5.021175803844231 86.039
5.043496238205739 89.542
5.065834274903528 93.4795
5.088172504230693 98.6877
5.1104935158799565 103.94200000000001
5.132832132875765 117.117
5.155153533596801 136.971
5.1774925416746225 175.638
5.199814334878411 379.19800000000004
5.2221537374521505 1000.0
5.244493338631803 2826.15
5.266815727034316 8072.04
5.289155727832427 13860.6
5.311478517248165 8343.02
5.333818921080011 2234.75
5.356159527788849 417.255
5.3784829252032536 176.481
5.400823940070432 143.498
5.423147747031976 124.899
5.445489173474152 116.566
5.467830807066149 116.65700000000001
5.490155234831516 116.652
5.512497285125229 110.314
5.534822130975162 104.59100000000001
5.557164601388673 100.941
5.579489868738879 97.53399999999999
5.601832762690846 96.5514
5.6241758697774475 95.7806
5.646501775867269 94.7022
5.668845311622074 93.5389
5.691171647754637 92.9991
5.713515615597765 92.0261
5.735859800852677 91.6235
5.758186788542988 93.5841
5.780531411018185 96.366
5.802858837297399 96.1398
5.825203900414495 96.111
5.8475491852224 97.7115
5.869877275883075 97.3097
5.892223006467101 94.7433
5.914551544266608 93.4946
5.936897724049891 96.3252
5.959244129804903 103.318
5.981573344815301 132.347
6.0039202049061 241.94799999999998
6.026249875609095 473.598
6.04859719346037 962.1469999999999
6.070927323278297 2222.33
6.093275102315365 4791.46
6.115623113320588 5658.5
6.137953938319995 2991.59
6.160302415650845 817.7489999999999
6.182633708324452 192.683
6.2049826554078376 101.98299999999999
6.227331838745022 86.6071
6.249663839443684 80.88600000000001
6.27201349767565 77.4663
6.294345974611799 75.8611
6.316696111167083 74.9971
6.339046488263839 73.6703
6.361379686074702 70.8168
6.383730546639482 68.8611
6.406064229255215 68.5177
6.428415576718203 69.4691
6.450749747566656 67.9631
6.47310158535871 65.4519
6.495453669698332 64.1563
6.517788579421056 63.7774
6.540141159237969 62.7039
6.562476565766648 61.7307
6.5848296444934045 61.7812
6.607182974060425 61.6135
6.6295191323281015 61.387
6.651872965955752 60.0198
6.6742096296068985 61.2098
6.6965639707294615 65.4159
6.71891856698715 65.4303
6.741255995248479 61.1416
6.763611104154477 57.9802
6.785949046381137 57.4898
6.808304671371482 57.8177
6.8306605557940046 58.8944
6.852999275508618 58.0104
6.875355681171544 56.5408
6.897694923437771 55.486000000000004
6.92005185377892 55.3315
6.9423916220322655 55.0594
6.964749080490181 54.3116
6.987106804399774 54.996
7.009447368180821 55.0803
7.031805625367033 54.9911
7.054146723727803 54.1596
7.076505517631004 53.7433
7.098864581288365 53.7276
7.121206488070854 53.7494
7.143566093607822 54.0138
7.165908543567245 55.1867
7.188268694426048 54.9039
7.2106291193438095 53.8803
7.232972390625943 53.3963
7.255333366030969 53.3486
7.277677189091925 57.8849
7.300038718428332 62.9607
7.322400526130865 60.9326
7.344745183422596 55.9984
7.367107550224791 53.6183
7.389452767901992 53.1993
7.411815697249891 53.2593
7.434161478756298 52.2303
7.456524974096713 52.8162
7.478888753837185 52.5665
7.501235387657368 53.188
7.523599738562711 53.4516
7.545946944825532 54.6125
7.568311870344528 54.9696
7.5906770845765665 54.4032
7.613025156078678 53.9345
7.635390950099687 54.1183
7.657739602662809 54.3844
7.680105979923558 55.271
7.702472650212829 55.9627
7.724822180948224 55.3532
7.747189439655568 55.2501
7.769539560075357 55.1084
7.791907410653562 56.0696
7.81425812420825 55.3559
7.836626570110925 55.5316
7.858995315087906 56.6355
7.881346924933401 56.7157
7.903716270417482 57.0646
7.926068482028405 58.1487
7.948438431475253 58.0177
7.9708086843180235 58.7678
7.993161805171116 59.4406
8.015532667162402 59.9253
8.037886398416653 60.8823
8.060257873014221 61.497
8.082629655331942 62.2861
8.104984308787587 62.8337
8.127356708900503 64.4031
8.149711981398308 67.5544
8.172085002766314 68.3911
8.194458336181368 68.315
8.216814543847752 67.8078
8.23918850371002 68.3839
8.26154533906492 69.3788
8.283919928836452 70.8279
8.306277395339652 71.9102
8.328652618483376 73.0569
8.351028159736202 75.2277
8.373386579575245 77.2561
8.395762759396959 78.9344
8.418121819038275 81.8258
8.440498640894003 86.0976
8.462875785192262 95.5566
8.485235811156207 123.603
8.507613602688501 178.521
8.529974277114228 267.718
8.552352719347912 398.968
8.574731488360351 664.428
8.59709314210385 1240.3
8.619472567021075 2035.08
8.64183487789147 2410.08
8.664214962183097 1763.01
8.686577933647762 808.701
8.708958680784317 302.578
8.731339760774953 139.793
8.753703729764451 103.196
8.77608547780821 95.4027
8.798450116065078 92.6798
8.820832535634787 90.7361
8.843215292401656 90.9863
8.865580941199045 90.8149
8.887964374703538 90.3998
8.910330701447199 90.0439
8.932714815164482 89.0369
8.955099270424924 86.3118
8.977466620733543 85.2186
8.999851761421976 83.8274
9.022219798361645 83.1665
9.04460562795561 83.2598
9.066991803441677 83.1476
9.089360876979615 83.2802
9.111747746589993 83.40100000000001
9.13411751544971 82.3338
9.156505082664324 81.5388
9.178875550323522 81.1238
9.20126381862328 81.2812
9.223652438908596 81.3771
9.246023961427412 82.6456
9.26841328802173 82.8416
9.290785518039224 82.9595
9.313175554425882 84.04799999999999
9.335565947154315 85.2361
9.357939245086508 85.4535
9.380330352834827 84.3992
9.40270436697103 84.5658
9.425096193225055 83.9179
9.447488380180165 84.1449
9.469863475295412 83.5866
9.492256385987508 83.9089
9.514632206018318 84.6828
9.537025843935714 85.3323
9.559402392368193 86.15
9.581796761000229 88.5617
9.604191496441521 90.3717
9.626569144158516 92.6
9.648964615551032 92.3261
9.671343000390081 91.5479
9.693739211225699 90.9187
9.716135793237463 91.1707
9.738515290448102 92.1657
9.760912617143402 93.6467
9.783292860202891 95.9272
9.805690935076182 97.5914
9.828089385495742 98.84899999999999
9.850470754023561 99.6356
9.872869957865444 101.334
9.89525208097539 104.859
9.917652041736662 110.444
9.940052382417589 121.598
9.962435644102392 150.52
9.984836746950979 193.18200000000002
10.007220771957746 256.30400000000003
10.029622640473708 360.716
10.052007432299963 539.35
10.074410069984072 850.816
10.096813093716005 1354.22
10.119199042482517 1894.26
10.141602840636468 2088.08
10.163989564971628 1469.55
10.186394141051062 726.0319999999999
10.208799107559706 299.422
10.231187001965623 155.406
10.253592751657669 116.5
10.275981430388155 107.98899999999999
10.298387966769793 105.137
10.320794897965431 104.294
10.343184759907361 103.397
10.36559248305461 102.583
10.387983138083852 104.194
10.410391656691655 110.719
10.432800574501677 122.684
10.455192425893369 138.678
10.47760214443012 165.429
10.499994797678786 211.33900000000003
10.522405320453982 294.471
10.54479877906917 414.565
10.567210109595656 549.625
10.5896218454736 590.622
10.612016518879773 467.173
10.634429067781074 290.07
10.656824555333241 168.845
10.679237920773568 111.605
10.701651695961992 92.45
10.724048411481384 87.51299999999999
10.746463008485165 84.5448
10.768860546937125 83.5436
10.791275969274796 81.663
10.81369180576079 81.0279
10.836090585366925 79.8777
10.858507252467449 78.7149
10.88090686379991 77.6632
10.903324365036394 77.3649
10.925724811614439 76.196
10.948143150509463 76.5436
10.970561909719066 75.9121
10.992963615930844 75.1999
11.015383218085756 74.1825
11.037785768347074 72.5022
11.06020621697282 71.5229
11.082627090322113 70.9251
11.105030913430326 69.9763
11.12745263854165 69.3492
11.149857314510728 69.2769
11.172279894912576 69.723
11.194702904450653 69.0798
11.217108866490921 68.1082
11.239532736615194 67.4421
11.26193956033512 67.0996
11.284364294577085 66.6439
11.306789462371718 65.831
11.329197585398376 65.6184
11.351623622610898 65.6506
11.37403261614354 64.9544
11.396459526308487 65.0496
11.418869393879497 64.4037
11.441297180532617 63.8223
11.463725406927658 63.7123
11.486136592353875 63.4015
11.508565700543707 63.1834
11.530977768845315 63.2199
11.553407762368774 63.0386
11.575838200059769 63.0383
11.598251599479612 62.443999999999996
11.620682927815501 62.5084
11.64309721895548 62.3481
11.665529441478206 62.0442
11.687962112597958 62.0587
11.710377748130886 61.8533
11.732811318753434 61.7702
11.755227854859067 61.5224
11.777662328529495 61.8448
11.800079768750786 61.7801
11.822515149015453 61.6236
11.844950984084935 62.005
11.867369787303163 61.5046
11.889806534289491 61.5615
11.912226250487029 62.1706
11.934663912939751 62.3576
11.9571020346363 62.5281
11.979523127133968 62.81100000000001
12.001962169624331 63.7628
12.024384183972964 65.8158
12.046824150809913 68.9012
12.069264581333726 73.0627
12.091687985297767 79.2676
12.11412934550045 88.6952
12.136553680195208 103.41
12.158995973632788 125.26700000000001
12.181438735204349 157.52100000000002
12.20386447284199 192.457
12.226308172985636 206.095
12.24873485024193 194.394
12.271179492516982 151.429
12.293607112949127 108.178
12.316052700916226 81.6066
12.338498763250042 68.8582
12.360927805303868 64.0954
12.383374818673879 63.1161
12.405804812803074 62.6781
12.428252780773262 62.8306
12.45070122756722 62.9828
12.473132656675375 62.9889
12.49558206341869 63.5462
12.518014453510101 64.0178
12.540464823770117 64.14399999999999
12.562915677315177 63.8179
12.58534951575545 64.1508
12.607801338171472 64.028
12.630236146511358 64.7351
12.652688941369085 65.84899999999999
12.675124723177234 66.1526
12.697578494048786 66.3074
12.720032754458185 66.0575
12.742470003354093 66.1637
12.764925245138771 66.7039
12.787363476431278 66.8562
12.809819703166806 67.4111
12.83227642391173 68.0373
12.854716135692716 68.9528
12.877173846755147 70.1831
12.899614549869717 70.4791
12.9220732548287 71.5746
12.94453245827299 71.9991
12.966974655289818 72.9478
12.989434858002571 73.7446
13.011878055298721 74.2352
13.034339260862497 75.1278
13.056800969391883 76.6124
13.079245674017244 79.9549
13.101708390774869 84.6427
13.12415410463411 92.6853
13.146617833206086 102.61200000000001
13.169064559883248 113.056
13.191529303857127 128.43200000000002
13.213994557076367 151.69
13.236442809902437 189.15099999999998
13.258909083908291 249.99400000000003
13.28135835851934 325.379
13.30382565690295 400.091
13.326293469022952 451.494
13.348744283242008 416.657
13.371213125129904 320.14799999999997
13.39366497011003 216.757
13.416134845360597 145.451
13.438605238843131 111.714
13.46105863690397 103.93
13.483530069144786 106.399
13.505984506951902 112.286
13.528456981549432 122.46700000000001
13.550929978879088 138.42700000000002
13.573385983253365 163.19299999999998
13.595860028340867 202.989
13.618317081455832 258.115
13.64079217790333 328.175
13.663250283359057 383.92400000000004
13.685726434770173 385.996
13.708203115221277 326.652
13.730662806148091 240.12400000000002
13.75314054697177 162.187
13.775601299246777 114.48100000000001
13.798080104050406 91.1164
13.820559442405358 82.669
13.843021793671388 80.2381
13.865502201420897 78.7782
13.887965623051947 78.533
13.910447103807167 77.4028
13.932929122629764 75.9869
13.955394156785959 75.6094
13.977877254034569 74.7621
14.000343367582113 73.8329
14.022827546871707 73.2225
14.045294743423524 72.5869
14.06778000837062 71.9254
14.090265817715476 72.0073
14.112734645763819 71.5414
14.13522154619454 70.9185
14.157691466286913 70.8324
14.180179461423874 70.8116
14.202668005486178 70.3278
14.22513957064374 69.8275
14.247629214846473 69.4551
14.270101881097517 69.0131
14.29259262906496 68.7362
14.315083930490205 68.7573
14.337558255389705 68.4996
14.360050666019726 68.6043
14.382526101071944 68.4537
14.405019624534942 68.1399
14.427513705993134 68.0298
14.449990813291825 67.8624
14.47248601302899 67.597
14.49496423954951 67.8245
14.517460561197822 67.8268
14.539939910570322 67.6541
14.562437357763558 67.9206
14.58493536931253 68.2327
14.607416409993311 68.4569
14.62991555254159 68.6559
14.652397725157423 68.9653
14.674898002342799 69.4079
14.697398848433282 69.7189
14.719882725991326 71.3368
14.74238471217934 73.3088
14.764869730765593 76.6811
14.787372860692983 79.2273
14.809876564079925 84.0825
14.83236330125751 90.2428
14.854868153850365 99.0336
14.877356041159485 113.751
14.899862046604186 132.512
14.922351087688757 160.036
14.944858249632887 194.49900000000002
14.967365991421232 223.792
14.989856770231246 233.06599999999997
15.012365673994204 216.21200000000002
15.03485761569738 175.486
15.05736768508665 132.16899999999998
15.07987833888692 100.87
15.102372032001655 82.4618
15.124883856909658 73.1763
15.14737872204565 70.4299
15.169891721717274 69.1117
15.192405310371893 68.6875
15.214901940621196 68.2682
15.237416709527137 67.5726
15.259914520936249 67.4943
15.282430473753607 66.8803
15.304947020131227 66.1992
15.327446610371178 66.1086
15.349964346154254 65.7344
15.372465126703139 65.5132
15.394984055556009 65.527
15.417486030076159 65.4637
15.44000615566487 64.9732
15.462526881230803 64.73899999999999
15.485030653812652 64.8384
15.507552581617434 64.6841
15.530057557334603 64.71300000000001
15.55258069104857 64.7257
15.575104429329837 64.9621
15.597611216864632 65.3
15.620136166564563 66.2152
15.6426441664095 67.6883
15.665170331202765 69.9553
15.687697105158826 72.7815
15.710206930593545 76.1677
15.732734925158933 80.7143
15.755245972089478 87.2771
15.77777519094324 96.0591
15.800287463046663 109.586
15.822817909869592 129.27100000000002
15.84534897229804 152.139
15.867863089299354 179.708
15.890395385222186 198.717
15.912910736597423 196.225
15.935444269699861 175.43
15.957978423016485 139.474
15.980495633101265 108.425
16.003031029129367 85.0708
16.02554948280019 70.5214
16.048086125229432 64.4123
16.070623392487107 62.1675
16.09314371869582 61.1258
16.11568223789321 60.5239
16.13820381691126 59.9625
16.160743591742527 59.4585
16.183283996022084 58.9995
16.205807461423195 58.3142
16.228349126881973 57.6663
16.25087385432698 57.5109
16.27341678466365 57.145
16.29594277784926 56.6288
16.31848697676433 56.3993
16.341031811604868 55.9536
16.36355971058487 55.9201
16.3861058195587 56.0325
16.40863499352978 55.4338
16.431182380342005 55.2049
16.453730407713202 54.9244
16.476261501364792 54.6339
16.498810812136167 54.232
16.52134319004079 54.4266
16.54389378792203 54.4732
16.566445031001553 54.2969
16.588979342490088 54.1739
16.61153187824822 53.93899999999999
16.634067483263312 53.8577
16.656621315414416 53.6603
16.679175797408888 53.3203
16.701713349928728 53.507
16.72426913389191 53.6615
16.74680798922351 53.7451
16.76936507887444 53.7637
16.791905240734874 53.8969
16.814463639794468 53.7062
16.837022695210294 53.5882
16.859564824093756 53.6778
16.882125194503903 53.8473
16.904668639217885 54.0059
16.927230328348003 54.02
16.949792678493612 54.275
16.972338104193863 54.2331
16.994901778652235 54.4686
17.017448529496576 54.736000000000004
17.040013531998152 55.243
17.06257920018044 55.6446
17.0851279459922 56.4698
17.107694947817667 57.2059
17.130245028099072 58.0838
17.15281336730298 59.4778
17.17536478578733 61.1755
17.19793446610687 63.3856
17.220504818648422 66.6913
17.243058251703697 70.1624
17.265629950971032 75.1331
17.288184731571736 81.059
17.310757781306908 83.5496
17.33333150794385 82.3736
17.355888317140174 78.9821
17.37846339986244 72.7773
17.401021565958885 67.0208
17.42359800851343 62.5728
17.44617513265564 59.9933
17.468735341390783 58.7314
17.491261035594565 58.2246
17.51396340099364 57.9086
17.536490463869136 58.1854
17.559018209820174 58.0846
17.58154663977963 58.3839
17.604251766089718 58.5345
17.626781572227713 58.9189
17.64931206518155 58.8916
17.671843245885103 59.0596
17.69455114821572 59.1528
17.717083712612634 59.398
17.739616967569667 59.9768
17.762150914021706 60.5125
17.78486160749854 60.7094
17.807396945166804 61.8701
17.829932977143503 63.1321
17.85246970436452 64.5457
17.875183204129467 65.9596
17.897721330097664 68.0398
17.920260154126645 70.4706
17.942799677153296 73.6373
17.9655159983646 77.6146
17.988056927677544 83.2194
18.010598558807683 91.3122
18.033140892692916 101.84100000000001
18.05586005052525 114.397
18.07840379824407 127.475
18.10094825154059 138.61
18.12366954819864 142.547
18.146215420998306 137.15
18.16876200220057 123.89299999999999
18.191309292745153 108.23700000000001
18.214033452627167 94.9519
18.236582170236648 86.255
18.259131600016456 83.5889
18.281681742907335 85.0626
18.304408781233683 90.5188
18.32696035875955 97.1051
18.349512652227624 102.19
18.372065662579683 106.221
18.394795594587553 104.714
18.41735004715306 98.0517
18.43990521943684 89.2338
18.46246111238171 80.0958
18.485193953325208 71.6365
18.507751296070428 66.2327
18.530309362314178 63.486000000000004
18.552868153000343 61.9972
18.57560391815056 60.9203
18.59816416623245 60.5791
18.620725141597372 60.1868
18.643286845190268 59.8716
18.666025549835414 59.2959
18.688588718427933 58.6423
18.711152618092243 58.6333
18.73389353884365 58.2705
18.75645890921984 57.8584
18.77902501351406 57.7028
18.801591852673102 57.6676
18.824335739722738 57.1366
18.846904057212626 57.0067
18.8694731124168 56.7057
18.89204290628315 56.7441
18.914789774966803 56.7193
18.937361054791623 56.5223
18.959933076131318 56.2342
18.982505839934877 55.9649
19.00525570560582 55.9916
19.027829963004184 55.8207
19.05040496572238 55.9992
19.072980714710468 56.1993
19.095733592739563 56.2762
19.11831084296757 56.3668
19.140888842324735 56.5992
19.16346759176222 57.0554
19.18622349753803 57.6629
19.208803755869358 58.5907
19.231384767143577 59.851000000000006
19.253966532312948 61.2723
19.276725481241822 63.6991
19.29930876296784 66.2616
19.3218928014549 69.559
19.34465404436217 72.3383
19.36723960516257 74.5875
19.389825925592426 75.2719
19.412413006605938 72.5677
19.43517731967805 68.3892
19.457765930683355 64.2419
19.48035530514408 59.9345
19.50294544401556 56.7232
19.525712842708348 54.7748
19.54830451925909 53.7278
19.570896963095727 53.043
19.593490175174704 52.919
19.616260674962184 52.8423
19.638855432416964 52.6267
19.661450960992624 52.7737
19.68404726164677 52.6401
19.706820878021247 52.5154
19.729418731756834 52.8838
19.752017360452857 52.5828
19.77461676506804 52.8422
19.797393513540218 52.9611
19.819994478951667 53.1558
19.84259622316767 53.7323
19.8651987471481 54.106
19.887978643247177 54.3282
19.91058273574792 54.8269
19.933187610901943 55.603
19.955969879466828 56.6937
19.97857632894404 58.2583
20.00118356396599 60.2505
20.023791585494575 62.6433
20.046577028914875 65.6673
20.069186632506966 68.0178
20.091797025500632 69.8614
20.114408208858933 69.7133
20.137196842715273 68.5199
20.159809615886765 66.1073
20.18242318232135 63.2917
20.20503754298326 61.4101
20.227829382875154 60.8402
20.250445341109344 61.2534
20.27306209647285 62.5197
20.29567964993108 64.0113
20.31847471147704 64.7233
20.34109387027612 65.4294
20.363713830075454 64.5948
20.386334591841646 62.023
20.409132890679302 58.589
20.431755265564437 55.5782
20.454378445325528 53.2096
20.477002430930366 51.6481
20.499803982716553 50.6759
20.522429589228004 49.916000000000004
20.54505600449589 49.5722
20.567683229489194 49.5457
20.590488049900088 49.3457
20.61311690359731 49.1102
20.63574656993626 49.1339
20.658553853717297 48.8357
20.681185154618298 48.99100000000001
20.703817271080066 48.6408
20.72645020407368 48.3815
20.749260783967177 48.2529
20.771895359337133 48.2725
20.794530754161617 48.2754
20.817166969412938 48.198
20.83998086114876 48.0514
20.86261872660049 47.9341
20.885257415405402 47.8214
20.90789692853701 47.7261
20.930714147864748 47.9137
20.953355319030678 48.0121
20.97599731745334 47.9219
20.99864014410749 47.7849
21.021460706796564 47.8781
21.044105199328826 47.9202
21.06675052302631 48.1167
21.089396678865015 48.2351
21.112220600704806 48.8093
21.134868430275347 49.00899999999999
21.15751709492456 49.3037
21.180166595629693 49.7307
21.202993892429635 50.2855
21.22564507473034 50.7856
21.24829709602816 50.8079
21.27112693608965 50.6491
21.293780644891275 50.4431
21.316435195634053 49.6506
21.339090589297417 48.7709
21.361923832041875 48.3727
21.384580921090404 47.9251
21.407238856007325 47.5218
21.429897637773326 47.5726
21.45273429906592 47.64
21.475394784108598 47.6387
21.498056118951983 47.7617
21.520718304578022 48.0626
21.543558400304388 47.9386
21.566222297108816 48.0422
21.58888704765135 48.3102
21.61155265291521 48.6682
21.63439619898156 49.1647
21.657063523335786 49.4556
21.67973170537063 49.7849
21.7024007460706 50.3094
21.72524775840385 51.0115
21.747918526116475 52.3203
21.770590155457388 53.4473
21.79326264741238 55.184
21.816113141960237 56.9607
21.838787368860547 59.0244
21.861462461341976 61.4148
21.884315579735777 63.4549
21.90699241312273 64.376
21.92967011506078 64.1931
21.95234868653799 62.9655
21.9752053151131 60.6717
21.997885635446785 58.6404
22.020566828293532 56.8783
22.04324889464272 55.5798
22.066109049404666 55.1516
22.088792872571794 55.1713
22.111477572219204 55.4673
22.1341631493376 55.5775
22.157026846313123 54.8894
22.179714188221507 53.8304
22.202402410582668 52.5167
22.22509151438863 51.0581
22.24795876962584 50.0013
22.270649646204486 49.2183
22.293341407213727 48.5429
22.316034053646906 48.3399
22.338904883215342 48.1366
22.36159931041458 48.0435
22.38429462602756 47.9963
22.40699083104897 47.6928
22.429865251039757 47.7198
22.452563244831367 47.8684
22.47526213102522 47.8552
22.49813925616515 47.7904
22.520839937143307 47.8349
22.543541513520587 47.7867
22.56624398629403 47.6015
22.589124730075895 47.7257
22.611829005656723 47.9386
22.63453418063466 48.0041
22.657240256008077 48.0902
22.680124634582935 48.2225
22.70283252079775 48.5786
22.725541310413075 48.8805
22.74825100442868 49.1124
22.771139033969575 49.5867
22.79385054687155 49.7255
22.81656296718292 50.4742
22.83927629590484 51.4593
22.862167992606945 52.4283
22.88488314827121 53.7825
22.907599215359284 54.9586
22.93031619487366 56.1649
22.953211574954405 57.0782
22.975930389478226 57.5334
22.998650119445763 57.0395
23.02137076586092 55.9179
23.044269845560063 54.1699
23.06699233506288 52.3426
23.089715744034912 50.6949
23.112617610931565 49.3939
23.135342869061212 48.6968
23.158069049684816 48.196000000000005
23.1807961538087 47.8377
23.20370174880544 47.9596
23.226430710184808 48.0118
23.249160598093425 48.1029
23.271891413539002 48.0408
23.294800752937697 48.0505
23.31753343374794 48.2199
23.340267045128353 48.3469
23.36300158808808 48.8997
23.38591468821339 49.2304
23.408651104658304 49.6414
23.431388455719986 50.3014
23.454126742409 51.0922
23.4770436196085 52.1224
23.499783787914662 53.5883
23.522524894889884 54.8587
23.54526694154616 56.4015
23.56818761219047 57.3693
23.59093154860734 57.6526
23.613676427751283 57.1903
23.636422250635754 55.8572
23.659346731118656 53.7558
23.68209445191868 51.5638
23.704843119509587 49.5307
23.72759273490623 48.0217
23.750521041644767 46.9272
23.77327256312355 46.0871
23.796025035462787 45.5517
23.818956224555475 45.2257
23.841710609113413 45.0518
23.86446594758979 44.9487
23.887222241002014 44.7795
23.910157285144578 44.3949
23.932915498962537 44.4586
23.955674670778713 44.2155
23.978434801611975 44.071999999999996
24.001373717286125 43.9231
24.024135776723917 43.9003
24.046898798245582 43.7071
24.06966278287146 43.7003
24.092605586582614 43.4006
24.115371508023642 43.2673
24.1381383956401 43.2149
24.16090625045381 43.1294
24.183852958731244 43.0005
24.206622758582608 42.9098
24.229393528706886 42.8313
24.252165270127392 42.9127
24.27511589952438 42.9084
24.297889594216997 42.7557
24.32066426328598 42.5004
24.34343990775613 42.5477
24.36639447485003 42.4403
24.38917208083877 42.327
24.41195066531332 42.3253
24.43490819850244 42.4052
24.457688750692377 42.3208
24.48047028445616 42.3234
24.503252800821233 42.4081
24.526214300784112 42.4935
24.548998793132213 42.4891
24.57178427117417 42.3091
24.59457073593893 42.1452
24.617536219319863 42.2957
24.64032466834748 42.2784
24.663114107195035 42.0775
24.685904536893013 41.6778
24.708874020360852 41.6711
24.731666442613744 41.7185
24.754459858818787 41.5705
24.777254270007962 41.5296
24.80022777025625 41.4745
24.82302418230472 41.5419
24.845821592443674 41.4925
24.86862000170663 41.4554
24.891597535453727 41.3853
24.914397953892728 41.7099
24.93719937456671 41.5691
24.96000179851076 41.7136
24.98298338249997 42.0156
25.00578782394922 42.1455
25.028593271784167 42.216
25.05157790644186 42.573
25.07438537804115 42.7525
25.097193859145293 43.049
25.120003350792075 43.1995
25.142992065061257 43.6349
25.165803588823465 43.6397
25.18861612625217 43.8025
25.211429678386736 43.9692
25.234422489079968 44.0128
25.257238081693636 44.0244
25.280054692141732 44.2347
25.3028723214652 44.1933
25.325869245420463 44.3879
25.348688923599397 44.3123
25.371509623787006 44.0441
25.394331347025812 43.659
25.41733240110666 43.0603
25.440156181590016 42.3035
25.46298098826268 41.93899999999999
25.48580682216873 41.292
25.50881202326435 40.9029
25.53163992281684 40.6147
25.55446885274561 40.388000000000005
25.577298814096377 40.104
25.600308179121807 40.1745
25.623140214533745 40.2234
25.64597328451537 39.9984
25.66898578564376 39.8428
25.691820936010206 39.8412
25.714657124097695 39.9559
25.737494350954734 39.8051
25.760511045684957 39.6157
25.783350361364224 39.8665
25.806190718969255 39.8907
25.82903211955018 39.7615
25.852053024868923 39.9274
25.874896522722523 39.8376
25.897741066713106 39.8209
25.920586657892454 39.9519
25.943611790812668 40.2042
25.966459487728237 40.3197
25.989308234998564 40.3056
26.01215803367705 40.7607
26.03518741123814 40.7788
26.05803932412957 41.068000000000005
26.080892291600094 41.2071
26.10374631470478 41.1964
26.12677995397268 41.1271
26.14963609978026 41.0079
26.172493304397875 40.5714
26.19535156888223 40.3127
26.218389486949604 39.9188
26.241249882640123 39.6159
26.26411134137826 39.5286
26.28715248187403 39.5591
26.31001607820869 39.4106
26.3328807407756 39.3187
26.35574647063438 39.4603
26.37879191991473 39.466
26.401659795896734 39.5429
26.424528742360263 39.6136
26.447398760366614 39.7091
26.470448535598294 39.8899
26.49332070826805 40.0531
26.516193955675355 40.4408
26.53906827888316 40.5719
26.562122397260108 40.8753
26.584998883685063 41.2482
26.607876449110325 41.5685
26.63075509460056 41.4708
26.65381357334404 41.5825
26.67669439061878 41.5467
26.699576291163382 41.3185
26.722459276044212 41.081
26.745522132402975 40.821
26.768407297649354 40.5613
26.791293550442003 40.2911
26.814180891848974 40.1082
26.837248143099337 39.8694
26.860137673466657 39.7989
26.88302829566349 39.4305
26.90592001075963 39.2067
26.92899167420566 39.0688
26.951885586870763 38.6683
26.974780595655517 38.5381
26.99785558178161 38.4909
27.020752794605112 38.336
27.043651106772522 38.2256
27.06655051935668 38.2055
27.089629948036183 38.1226
27.112531573292053 38.0133
27.135434302194138 38.0698
27.158338135817015 37.9594
27.181422024430987 37.9364
27.204328079372566 37.8423
27.22723524226965 37.9126
27.250143514198573 37.9843
27.273231880156334 37.859
27.296142382065014 37.8225
27.319053996245536 37.6252
27.341966723775965 37.7473
27.365059584515222 37.9457
27.38797455070062 37.8747
27.410890633481237 37.823
27.433807833936918 37.8714
27.456905206923906 37.8341
27.47982465472398 38.0078
27.502745223449743 38.0196
27.525666914182825 38.0723
27.548768816912457 38.0268
27.571692763693633 38.0388
27.59461783573812 37.7045
27.617723149491244 37.4669
27.640650484125285 37.5015
27.66357894728264 37.5376
27.686508540048052 37.4234
27.709618414237887 37.2421
27.732550278321757 37.1199
27.755483275279115 37.2739
27.778417406196485 37.2815
27.801531858397514 37.2426
27.824468269376716 37.163000000000004
27.847405817586786 37.1524
27.870344504116094 37.3891
27.893463551932008 37.5293
27.916404527281053 37.7875
27.93934664422563 37.8146
27.962289903855886 37.9074
27.98541356491974 38.1117
28.00835912214229 38.1543
28.03130582533231 38.3814
28.054253675581805 38.577
28.077381967556104 38.5614
28.100332124185126 38.411
28.123283431160893 38.3726
28.146235889577238 38.11
28.169368830154156 38.0072
28.192323603752033 37.7633
28.215279532083304 37.5089
28.238415973016764 37.3109
28.261374223145094 37.2475
28.284333631303806 36.9371
28.307294198589954 36.8489
28.330435319167677 36.3829
28.353398217078915 36.1722
28.376362277420153 36.0079
28.39932750129032 35.8058
28.422473319286713 35.6972
28.44544088262495 35.7754
28.468409612800283 35.707
28.491379510913497 35.4158
28.51453004413313 35.3871
28.53750229057244 35.3024
28.56047570826344 35.2584
28.583450298308804 35.1711
28.606605564586562 35.0902
28.629582511831156 35.1193
28.65256063474956 34.9998
28.675539934446338 35.0591
28.698699951647605 34.9794
28.72168161743193 34.9344
28.74466446331978 34.9507
28.767648490417624 34.86
28.790813276438353 34.8545
28.813799678527303 34.7824
28.836787265157085 34.8314
28.859955641890075 34.8417
28.882945610203045 34.754
28.905936766392035 34.6502
28.928929111566863 34.7508
28.952102288520145 34.6064
28.975097024308607 34.5034
28.998092952423807 34.304
29.021090073977508 34.1912
29.04426806913204 34.2472
29.067267590245258 34.1077
29.090268308143695 34.0425
29.11327022394099 33.9448
29.13645305530891 33.8783
29.159457379627167 33.8882
29.18246290519685 33.7347
29.20546963313352 33.6787
29.22865731875826 33.7619
29.25166646419296 33.829
29.27467681535305 33.6613
29.29768837335608 33.6854
29.320880931312562 33.7775
29.34389491580634 33.7063
29.366910110507334 33.744
29.38992651653503 33.5923
29.41312396492981 33.6722
29.436142806456754 33.5862
29.45916286268059 33.3787
29.48236399319994 33.336999999999996
29.50538649169417 33.1296
29.528410208259935 33.2388
29.55143514402014 32.9233
29.574641196749695 32.7681
29.597668583816574 32.6323
29.6206971934585 32.4272
29.64372702680042 32.5624
29.666938019934474 32.5486
29.689970313635285 32.4345
29.713003834422636 32.3233
29.73603858342347 32.4503
29.759254535188578 32.2991
29.78229175361658 32.1734
29.80533020365064 32.2762
29.82836988641968 32.2445
29.85159081507472 32.2158
29.874632976355343 32.1233
29.89767637376955 32.2535
29.920721008448314 32.0678
29.9439469322847 32.0704
29.96699405457564 31.9656
29.9900424175358 32.0684
30.013092022298157 31.9912
30.03632295963995 31.9264
30.059375061131373 31.9812
30.08242840783577 32.036
30.105483000888153 31.8849
30.128718970092244 31.8915
30.151776069006917 31.8984
30.17483441768648 31.8761
30.198074175317235 31.9629
30.221135036724256 31.875999999999998
30.24419715131772 31.7199
30.267260520236203 31.6154
30.290505341942243 31.6812
30.313571232750228 31.8315
30.336638381310948 31.7106
30.35970678876503 31.7262
30.38295669299435 31.6462
30.40602763151657 31.6084
30.429099832366074 31.6429
30.452173296685572 31.4886
30.47542830191959 31.5598
30.498504306502497 31.4065
30.521581577995562 31.5945
30.544660117543582 31.5559
30.56792024229725 31.5793
30.59100133132069 31.5268
30.614083691845494 31.5988
30.637167325018545 31.6883
30.660432587840603 31.7667
30.683518779717886 31.6367
30.70660624769615 31.703000000000003
30.729694992924372 31.8055
30.75296541239743 31.686999999999998
30.77605672557558 31.5164
30.799149319462742 31.4511
30.8224236211637 31.3765
30.845518789950724 31.3701
30.868615242910597 31.2649
30.891712981195973 31.0627
30.91499247215866 30.9556
30.938092794619365 31.0616
30.96119440587579 31.0015
30.984297307082752 30.7833
31.00758200598383 30.7976
31.030687500658694 30.7392
31.053794288760695 30.6367
31.076902371446767 30.5129
31.100192296997445 30.6046
31.12330298246119 30.4784
31.14641496599209 30.4486
31.169528248749216 30.4023
31.19282341969534 30.3607
31.215939314557186 30.3844
31.239056512134788 30.4517
31.262175013589378 30.3529
31.28547544871168 30.4058
31.30859657161541 30.3712
31.331719001892175 30.3435
31.35484274070538 30.4323
31.378148458819545 30.3896
31.401274828443725 30.4261
31.424402510106933 30.4039
31.447712205419993 30.4502
31.470842524931633 30.3216
31.493974159989783 30.4007
31.51710711176168 30.2794
31.54042212308802 30.256999999999998
31.563557722100917 30.1941
31.586694641341655 30.0372
31.609832881979628 30.0275
31.63315322823208 29.928
31.656294125521327 29.9033
31.679436347728515 29.7558
31.70257989602529 29.7109
31.725905596152327 29.6347
31.74905181052835 29.5913
31.772199354521323 29.6674
31.79534822930507 29.6873
31.818679302290967 29.8104
31.84183085259981 29.6805
31.864983737233473 29.7147
31.88813795736804 29.698
31.911474422233013 29.511999999999997
31.934631327356435 29.5966
31.9577895715215 29.5719
31.980949155906522 29.628
32.004291031706956 29.5563
32.027453310562606 29.4033
32.05061693318573 29.2664
32.07396288236386 29.2372
32.09712920658542 29.2128
32.12029687812702 29.0851
32.14346589817093 29.0821
32.166817291729984 28.9656
32.18998902288583 28.9666
32.21316210610336 28.873
32.23633654256711 28.6506
32.259693399663725 28.7022
32.282870556771144 28.6475
32.30604907069099 28.6969
32.329228942610065 28.641
32.35259128243769 28.3897
32.375773884550505 28.3481
32.398957848235646 28.4865
32.422143174682176 28.3543
32.445511016471215 28.2854
32.468699082679954 28.246
32.49188851523011 28.2441
32.51507931531304 28.0272
32.538452678331 28.1373
32.56164622776311 27.9834
32.58484114831493 28.028000000000002
32.60803744118015 28.0357
32.631416344731896 28.0581
32.654615396551876 27.9712
32.67781582427913 27.8688
32.701198898634416 27.7783
32.72440209253756 27.7264
32.747606665947124 27.7071
32.77081262006088 27.694000000000003
32.79420126883317 27.6754
32.81740999876112 27.6391
32.840620112999424 27.5404
32.86383161274818 27.5772
32.88722585534586 27.5443
32.91044014056596 27.603
32.933655814909734 27.5127
32.95687287957963 27.5752
32.98027273544904 27.4845
33.00349259526636 27.4202
33.026713849030116 27.3412
33.04993649794511 27.4242
33.073341986570746 27.3656
33.09656744032826 27.3424
33.11979429286444 27.3895
33.14302254538647 27.2627
33.166433686291185 27.2192
33.18966475336992 27.2633
33.212897224069096 27.1171
33.23613109959831 27.1542
33.259547912343415 27.158
33.2827846121627 27.1735
33.306022720453775 27.016
33.32926223842861 26.878
33.352684742614166 26.9249
33.37592709463173 26.8838
33.399170859982064 26.8162
33.422597648419426 26.7484
33.44584425514446 26.6181
33.46909227885668 26.5424
33.4923417207723 26.5481
33.51577423505344 26.6234
33.539026528130385 26.5292
33.56228024307245 26.476
33.585535381098246 26.2903
33.60897364093058 26.2372
33.63223163992385 26.305999999999997
33.6554910656699 26.2865
33.678751919389796 26.2425
33.702195944520106 26.0815
33.72545966903325 26.1703
33.74872482519663 25.9843
33.771991414233746 26.0152
33.79544122444841 26.0326
33.81871069412428 25.9771
33.84198160035767 25.9691
33.86525394437455 25.9788
33.88870955949969 25.8974
33.911984794020626 25.9015
33.93526147001624 25.8597
33.958539588715006 25.8107
33.98200102861669 25.7273
34.0052820477047 25.5747
34.02856451319451 25.5766
34.05203033759056 25.5832
34.07531571090147 25.6078
34.09860253431845 25.5783
34.121890809074316 25.4267
34.145362493118924 25.5054
34.16865368561615 25.4075
34.191946333164054 25.3928
34.21524043699793 25.3309
34.23871800066799 25.3045
34.26201503218366 25.3032
34.28531352370466 25.2919
34.30861347646881 25.1155
34.33209693978188 24.9951
34.3553998301885 25.1189
34.378704185565205 24.98
34.402010007152356 24.9803
34.42549939016683 24.921
34.44880815937748 24.8035
34.472118398533134 24.8395
34.49543010887669 24.7818
34.51892543169198 24.6392
34.54224009966052 24.7169
34.56555624255917 24.7316
34.58887386163339 24.6244
34.61237514439016 24.544
34.6356957311114 24.5018
34.65901779775809 24.4353
34.68252356662995 24.4459
34.705848608458616 24.4581
34.72917513396849 24.4234
34.75250314440949 24.3982
34.77601490857862 24.3584
34.799345904259795 24.2653
34.82267838863559 24.25
34.846012362958525 24.2363
34.869530142679984 24.2323
34.89286711232212 24.2196
34.91620557568269 24.1613
34.93954553401677 24.1616
34.9630693495876 24.0739
34.986412313340814 24.1147
35.00975677584668 24.1212
35.033102738362956 24.0176
35.05663261012228 23.9557
35.0799815881786 23.9745
35.10333207003229 23.9276
35.12668405694369 23.9208
35.150220005273056 23.8266
35.17357501786656 23.8837
35.19693153931268 23.8187
35.220289570874385 23.778000000000002
35.24383161619786 23.8275
35.267192683604904 23.8145
35.290555264930376 23.7477
35.314101899412165 23.6543
35.33746752422433 23.5731
35.36083466676374 23.6273
35.38420332829803 23.5716
35.407756095629054 23.5737
35.43112781085063 23.6064
35.45450104888391 23.4994
35.477875810999194 23.4808
35.50143473172161 23.4691
35.52481255774625 23.4515
35.54819191167777 23.4126
35.57157279478914 23.3776
35.595137889488406 23.3895
35.61852184675279 23.2831
35.641907337029984 23.2191
35.665294361595684 23.211
35.68886565090076 23.1698
35.7122557598848 23.1367
35.73564740699838 23.1761
35.759040593519934 23.0641
35.78261809810353 23.0151
35.80601437933051 22.9619
35.829412203814705 22.8966
35.85281157283719 22.8271
35.876395313415884 22.9009
35.8997977874528 22.8076
35.92320180988546 22.8308
35.946790244133936 22.7167
35.97019737933222 22.7589
35.993606066789866 22.6557
36.01701630779276 22.6384
36.04061101440684 22.6072
36.06402437852291 22.6038
36.08743930005611 22.5755
36.1108557802951 22.4947
36.13445678011326 22.5904
36.15787639383515 22.4808
36.18129757014299 22.3947
36.20472031032821 22.363000000000003
36.22832762423364 22.3143
36.25175350829375 22.3279
36.275180960119776 22.2672
36.298609981005924 22.3182
36.32222362992669 22.2511
36.34565580510207 22.2237
36.36908955323448 22.118000000000002
36.39252487562093 21.9641
36.416144880530226 22.0458
36.43958336764275 22.0952
36.463023432914625 22.1231
36.486465077645676 21.9737
36.51009145956204 22.026
36.53353627947859 22.0306
36.55698268276811 21.8592
36.58043067073321 21.8338
36.60406345072071 21.771
36.62751462435344 21.7938
36.65096738658405 21.7729
36.67460498210655 21.7612
36.69806093788647 21.764
36.72151848619297 21.7059
36.744977628333636 21.6286
36.76862165890998 21.5637
36.79208400512205 21.5805
36.81554794910557 21.5035
36.83901349217101 21.4878
36.862663978991606 21.4584
36.88613273667352 21.5121
36.90960309738324 21.3907
36.933075062434064 21.3571
36.95673202673572 21.3466
36.98020721697122 21.3355
37.003684015502365 21.2318
37.027162423645365 21.2198
37.050825886711465 21.2302
37.07430753063053 21.1168
37.09779078812467 21.1788
37.121275660513014 21.1399
37.144945643673694 21.0593
37.16843376245278 21.0391
37.19192350009803 21.0611
37.215414857931435 20.8999
37.239091382563885 20.9105
37.262585997426164 20.8666
37.28608223645736 20.901
37.309763684451696 20.819000000000003
37.33326318851098 20.7598
37.356764320726555 20.7654
37.380267082425526 20.8045
37.40395510942588 20.6958
37.42746114683234 20.6384
37.45096881771841 20.7244
37.474478123414166 20.6186
37.49817275092816 20.5137
37.52168534303452 20.5021
37.54519957395567 20.4701
37.568715445024665 20.4971
37.592416694607714 20.4319
37.61593586281424 20.4044
37.63945667518264 20.4043
37.66297913304891 20.3572
37.68668702630454 20.3656
37.710212792059274 20.2845
37.733740207334854 20.2187
37.757269273470364 20.1614
37.780983832050374 20.2063
37.80451621684926 20.1399
37.82805025654007 20.1234
37.851585952464795 20.0759
37.8753071980695 19.997
37.89884622345676 19.9441
37.92238690911902 20.0211
37.94611318753442 19.9471
37.969657210779765 19.9213
37.99320289834801 19.8936
38.016750251586465 19.8107
38.04048325513017 19.8158
38.06403395679343 19.7818
38.087586328183946 19.750999999999998
38.11114037065203 19.75
38.13488012115898 19.7828
38.1584375229181 19.7203
38.181996599821 19.5937
38.205557353221124 19.5955
38.229303872575656 19.5435
38.2528679961576 19.6404
38.27643380031219 19.5153
38.30000128639589 19.4592
38.32375459653193 19.492
38.34732546371299 19.4782
38.37089801690786 19.3748
38.39447225747609 19.3592
38.418232380377425 19.3265
38.441810012983396 19.3837
38.46538933705673 19.305
38.488970353960084 19.2814
38.51273731166058 19.1712
38.536321731567014 19.1581
38.55990784840681 19.1667
38.58367995004091 19.128
38.60726947812959 19.0018
38.63086070726198 19.0768
38.654453638806274 19.1186
38.678232613930824 19.0232
38.70182896773327 18.8783
38.72542702806741 18.9604
38.7490267963045 18.9882
38.77281266709232 18.8765
38.79641586862214 18.8769
38.8200207821842 18.8135
38.843627409152944 18.8219
38.86742019782782 18.8311
38.891030269149255 18.7074
38.914642058016156 18.729
38.938255565806124 18.7059
38.96205529464307 18.579
38.98567225787121 18.555999999999997
39.00929094417078 18.6291
39.03291135492255 18.6031
39.05671804624804 18.5644
39.080341923549106 18.5398
39.103967529460334 18.4977
39.127594865365744 18.4066
39.15140854155791 18.3379
39.17503935514948 18.3425
39.19867190290282 18.4018
39.22249083587951 18.3529
39.24612686969409 18.3118
39.269764641845306 18.3145
39.293404153722804 18.2553
39.317230110864074 18.1483
39.34087311998506 18.1718
39.36451787301696 18.1211
39.388164371352595 18.0432
39.41199737518003 18.0085
39.43564738196752 18.0225
39.45929913825317 18.0053
39.48295264543308 18.033
39.506792718520884 17.9666
39.530449745387216 17.989
39.55410852735203 17.9143
39.57776906581474 17.8817
39.60161623079 17.869
39.625280300200025 17.8122
39.64894613032202 17.7676
39.67261372255866 17.7743
39.6964680021016 17.7438
39.72013913657293 17.7315
39.74381203738292 17.6659
39.76748670593756 17.6673
39.79134812278169 17.7011
39.81502634488497 17.6693
39.83870633896685 17.5855
39.862388106436654 17.5254
39.88625668336918 17.5298
39.90994201572829 17.5194
39.933629125719285 17.4384
39.957503091207826 17.3721
39.9811937746168 17.4402
40.00488623990914 17.3998
40.02858048850006 17.3593
40.05246165409549 17.3274
40.076159487492085 17.2633
40.099859108448875 17.2923
40.123560518384345 17.2617
40.1474489070226 17.1964
40.171153913178564 17.1279
40.194860712584955 17.1512
40.2185693066637 17.1694
40.242464941335314 17.0576
40.26617714307655 17.0583
40.289891143772046 16.9925
40.3136069448471 17.0076
40.33750984859743 17.0438
40.3612292688043 16.9346
40.3849504936829 16.9386
40.40867352466194 16.9452
40.43258372059144 16.8564
40.45631038219906 16.8789
40.48003885420956 16.8012
40.503769138055105 16.8086
40.52768664931955 16.7955
40.55142057531802 16.7283
40.57515631746428 16.7259
40.599079334038514 16.71
40.62281872700477 16.6565
40.64655994043941 16.5837
40.67030297578061 16.5968
40.69423334835778 16.5873
40.71798004609188 16.5778
40.74172857006355 16.5579
40.76547892171441 16.5677
40.7894166736039 16.5239
40.813170699248566 16.4409
40.83692655691388 16.3573
40.86068424804498 16.428
40.884629402612525 16.3633
40.908390779366385 16.3489
40.932153993938 16.337
40.95591904777605 16.3123
40.979871628443995 16.2749
41.003640379561936 16.243
41.02741097430883 16.225
41.05118341413683 16.1915
41.075143444384416 16.1782
41.098919593177826 16.1489
41.1226975914255 16.1277
41.14647744058318 16.070999999999998
41.170444943946755 16.0586
41.19422851378379 16.0795
41.218013938914645 15.9978
41.24198706625173 15.9767
41.26577622087193 15.9821
41.289567235177785 15.9358
41.31336011063129 15.922
41.337340752422875 15.8911
41.361137369129835 15.8889
41.38493585138705 15.8581
41.40873620066004 15.7892
41.43272438060107 15.7902
41.45652848292052 15.7288
41.48033445666918 15.7316
41.50414230331616 15.6998
41.528138045159764 15.6776
41.551949656675205 15.6001
41.575763145513235 15.6381
41.59957851314666 15.5522
41.62358184070442 15.5424
41.64740098505737 15.4972
41.6712220126409 15.468
41.69504492493139 15.4733
41.71905586207357 15.4151
41.74288256296395 15.4786
41.766711153007456 15.3941
41.79054163368412 15.3619
41.814560204340054 15.3768
41.838394485526365 15.3491
41.86223066180303 15.2657
41.88625497706819 15.2502
41.910094962812 15.2407
41.93393684811168 15.1998
41.95778063445365 15.2018
41.981812625263366 15.1372
42.00566023303407 15.12
42.029509746323676 15.0922
42.05336116662236 15.1633
42.077400857069705 15.1133
42.10125611078846 15.0976
42.12511327600405 15.0548
42.14897235421036 14.9982
42.173019768448455 14.9876
42.19688269209613 14.9006
42.22074753323349 14.9315
42.24461429335818 14.9103
42.268669455600495 14.8538
42.292540073217886 14.8761
42.31641261433284 14.8319
42.34028708044675 14.7806
42.36435001496739 14.8047
42.38822835065557 14.8412
42.41210861586426 14.7126
42.4359908120986 14.683
42.46006154323262 14.6461
42.48394762115317 14.6365
42.507835634632315 14.6424
42.531912233047436 14.6172
42.55580413732265 14.5929
42.579697981698 14.5898
42.60359376768525 14.5569
42.62767820545945 14.5393
42.65157789440821 14.484000000000002
42.67547952952185 14.4909
42.699383112316 14.5079
42.72347541395347 14.3992
42.74738291190531 14.3502
42.771292362102166 14.3404
42.795203766063516 14.3745
42.819303956130405 14.3134
42.843219287476536 14.2361
42.86713657716324 14.2407
42.89105582671383 14.2585
42.91516392983864 14.2474
42.939087119032166 14.212
42.963012272677304 14.1806
42.98693939230129 14.1566
43.01105543317513 14.0928
43.034986504731386 14.0921
43.05891954686589 14.1105
43.08285456110972 14.0182
43.10697856448665 14.0383
43.130917542983475 14.0394
43.15485849820081 13.9852
43.17880143167367 13.9708
43.20293342237094 13.8989
43.226880332449 13.8818
43.25082922540554 13.8462
43.27496722682525 13.8684
43.29892010567796 13.8561
43.32287497204102 13.7672
43.34683182745632 13.7855
43.370977859791836 13.7347
43.39493871351105 13.7369
43.41890156092628 13.7133
43.44286640358341 13.6611
43.46702049182749 13.66
43.49098934522816 13.5839
43.51496019852649 13.6086
43.5389330532723 13.5769
43.56309522248204 13.5483
43.58707210044314 13.5985
43.61105098451946 13.4631
43.63503187626491 13.497
43.659202151562134 13.4533
43.68318707902681 13.4426
43.70717401884041 13.414000000000001
43.731162972560874 13.3792
43.75534137913236 13.3551
43.779334381108384 13.352
43.803329401683186 13.3565
43.82732644241872 13.2992
43.8515130055166 13.2881
43.87551410707659 13.3059
43.89951723350145 13.2694
43.923709934595614 13.1805
43.94771713129917 13.187999999999999
43.97172635758096 13.1935
43.99573761501002 13.134
44.0199385169922 13.0991
44.04395385732619 13.0697
44.067971233533086 13.1138
44.09199064718605 13.0692
44.11619977548961 13.039000000000001
44.14022328470671 12.999
44.16424883610785 12.9859
44.18827643127035 12.9837
44.21249381139513 12.9204
44.236525514814076 12.909
44.26055926674478 12.8867
44.28459506876863 12.8948
44.3088207262813 12.8572
44.33286064928722 12.8278
44.35690262714919 12.8227
44.38094666145278 12.8175
44.4051806219871 12.8262
44.42922879003185 12.7221
44.45327901929361 12.7083
44.477331311362136 12.7172
44.501573600619416 12.6793
44.525630039221795 12.6013
44.54968854541895 12.6521
44.573937102200176 12.6453
44.5979997645541 12.6153
44.622064499300315 12.6042
44.64613130803592 12.5702
44.67038823869318 12.5467
44.69445921643748 12.4916
44.718532272981385 12.4694
44.742607409926194 12.4572
44.76687274034801 12.4216
44.79095205918753 12.3786
44.81503346325094 12.3786
44.839116954143876 12.3415
44.86339071028742 12.3562
44.88747839599524 12.2884
44.91156817336837 12.3032
44.93566004401666 12.2745
44.959942251908146 12.3023
44.984038330325966 12.2411
45.00813650686762 12.2149
45.03223678314731 12.2179
45.05652746888232 12.1896
45.08063196592069 12.1991
45.104738567558705 12.1701
45.128847275414856 12.1461
45.15314646515866 12.0414
45.17725940679741 12.0724
45.20137445952892 12.0672
45.22568004865265 12.0234
45.24979934496396 11.9947
45.27392075725247 11.9636
45.29804428714431 11.9458
45.322358426247604 11.9333
45.346486212804315 11.9077
45.370616121861914 11.8938
45.39474815505086 11.8596
45.41907087049246 11.8281
45.4432071734666 11.8278
45.46734560548283 11.8531
45.49148616817604 11.8015
45.51581748638564 11.8063
45.5399623320197 11.7773
45.56410931325473 11.7072
45.58825843173002 11.7247
45.61259837920865 11.7089
45.636751793816 11.6955
45.66090735060093 11.6239
45.68506505120716 11.642999999999999
45.7094136545275 11.587
45.73357566449271 11.5691
45.75773982322992 11.5356
45.78190613238733 11.5483
45.806263418194064 11.5485
45.83043404997326 11.5044
45.85460683713677 11.4787
45.87897065658495 11.4421
45.90314777634752 11.4113
45.92732705646868 11.4251
45.9515084986045 11.4193
45.97588104735473 11.347000000000001
46.00006683541565 11.3553
46.02425479047904 11.3415
46.04844491420549 11.2921
46.0728262191024 11.3256
46.09702070211635 11.3012
46.12121735879483 11.2738
46.14541619080294 11.251
46.169806278764455 11.2299
46.194009483459034 11.2043
46.21821486849841 11.2063
46.24242243555223 11.1248
46.266821333570014 11.1134
46.29103328674601 11.1078
46.31524742696538 11.085999999999999
46.33946375590237 11.0842
46.36387149104216 11.0181
46.38809221957392 11.0023
46.41231514186606 11.0191
46.436540259597464 10.9489
46.460956858999374 10.9689
46.48518638983522 10.9782
46.509418121166966 10.9169
46.533652054678114 10.9101
46.55807754555709 10.8957
46.58231590571962 10.8777
46.60655647313217 10.8528
46.630988654873654 10.8359
46.655233659129024 10.7761
46.67948087571551 10.7504
46.70373030632484 10.7809
46.72817142736393 10.7613
46.752425308428684 10.728
46.77668140861147 10.7181
46.80093972960865 10.6739
46.82538981736788 10.6485
46.849652602470904 10.6256
46.87391761349769 10.6223
46.8981848521493 10.5966
46.9226439341274 10.5862
46.946915650573224 10.5346
46.97118959976749 10.5257
46.99546578341598 10.4951
47.019933887188216 10.5254
47.04421456235744 10.524000000000001
47.06849747711879 10.4865
47.09278263318286 10.447000000000001
47.11725978640143 10.4429
47.14154944775105 10.4249
47.165841355555656 10.4322
47.1901355115306 10.4097
47.214621741924994 10.332
47.23892041698887 10.3569
47.26322134538975 10.3249
47.28771440635075 10.3121
47.31201986422527 10.273
47.33632758061436 10.235
47.360637557241866 10.2249
47.38513974410611 10.2422
47.40945426407847 10.2066
47.43377104948137 10.2275
47.45809010204344 10.1736
47.48260144275502 10.1251
47.506925052572285 10.116
47.53125093475548 10.1282
47.55557909103813 10.1158
47.58009961361992 10.0698
47.60443234110732 10.0162
47.62876734791564 10.054
47.65310463578333 10.0553
47.6776343683373 9.99681
47.7019762413987 9.9422
47.72632040075572 9.959010000000001
47.75066684815169 9.977789999999999
47.77520581885936 9.9542
47.799556865477655 9.90777
47.823910205386 9.86806
47.84826584033272 9.85485
47.87281407745551 9.82848
47.89717432569297 9.83955
47.92153687423484 9.83027
47.94609208429692 9.787239999999999
47.97045925671401 9.791939999999999
47.99482873471275 9.76879
48.01920052005013 9.75005
48.04376504619224 9.732280000000001
48.068141469543484 9.73898
48.09252020552573 9.68863
48.11690125590099 9.66559
48.1414751266064 9.65847
48.16586082917454 9.679269999999999
48.19024885144316 9.61946
48.2146391951793 9.59845
48.239222439012764 9.6168
48.26361744916137 9.53701
48.28801478610016 9.57126
48.31241445160131 9.5324
48.337007097209366 9.5238
48.36141144338331 9.55909
48.38581812345755 9.521419999999999
48.41022713920929 9.49397
48.434829215320704 9.46273
48.45924292604658 9.47707
48.48365897780325 9.42797
48.50807737237308 9.41359
48.532688907799276 9.38677
48.55711201168574 9.40891
48.581537463754074 9.39332
48.60615611725119 9.366539999999999
48.63058628942721 9.302480000000001
48.65501881516546 9.32403
48.6794536962573 9.28482
48.70408185970339 9.27294
48.72852147531801 9.26689
48.75296345168211 9.230410000000001
48.77740779059232 9.22851
48.80204549302823 9.214189999999999
48.82649458091802 9.18052
48.85094603676547 9.12397
48.87539986237231 9.17646
48.90004713292306 9.12923
48.92450572200832 9.12635
48.94896668628025 9.111089999999999
48.97343002754588 9.074110000000001
48.99808689542115 9.05337
49.02255501470614 9.102689999999999
49.04702551642794 9.033489999999999
49.0714984023988 9.04552
49.096164896893235 9.006689999999999
49.120642575466796 8.9838
49.145122643748394 8.99277
49.16960510355558 8.94624
49.19428125404938 8.93253
49.2187685210852 8.8863
49.243258185121555 8.892719999999999
49.26794160167084 8.86862
49.2924360839405 8.83842
49.31693296869764 8.863660000000001
49.34143225776915 8.80904
49.36612538195438 8.81715
49.39062950396021 8.81055
49.41513603578346 8.788030000000001
49.4396449792564 8.73405
49.46434784069503 8.74105
49.488861631846454 8.73514
49.513377840166804 8.729610000000001
49.537896467493745 8.6875
49.56260909589029 8.621319999999999
49.587132585683285 8.676219999999999
49.611658500018365 8.65343
49.636186840738596 8.62066
49.66090926588511 8.6191
49.685442483902584 8.60343
49.70997813385706 8.55132
49.734516217597076 8.55764
49.75924846937352 8.53239
49.7837914452858 8.53678
49.80833686055187 8.49714
49.83288471702571 8.51953
49.85762682540054 8.48072
49.882179588965734 8.440610000000001
49.9067347993235 8.459760000000001
49.93129245833333 8.404
49.95604445336378 8.43343
49.98060703442832 8.37438
50.005172069746266 8.360289999999999
50.02993150438364 8.34954
50.05450147301533 8.359810000000001
50.07907390151433 8.351560000000001
50.10364879174981 8.304089999999999
50.12841816587289 8.29725
50.1529980044635 8.3027
50.17758031042124 8.31905
50.20216508562089 8.271139999999999
50.22694442953363 8.23195
50.25153416817468 8.195039999999999
50.27612638170508 8.22676
50.300721072005196 8.16933
50.325510416102105 8.15165
50.350110084975064 8.15121
50.37471223628208 8.21032
50.39931687190919 8.14443
50.424116246675766 8.11545
50.44872587605249 8.09809
50.47333799543065 8.06977
50.49795260670191 8.03282
50.52276204271512 8.07891
50.54738166295838 8.0485
50.57200378079314 8.03458
50.596628398116835 7.97007
50.62144792604559 7.95702
50.646077567609396 7.926760000000001
50.670709714377715 7.941139999999999
50.69553683636198 7.9367
50.72017401885922 7.919689999999999
50.7448137122895 7.8839999999999995
50.76945591856022 7.87263
50.79429318636823 7.86768
50.818940443716784 7.86437
50.84359021965163 7.85827
50.868242516085964 7.8539699999999995
50.893089960641895 7.831519999999999
50.917747323549435 7.7805
50.94240721271973 7.78218
50.96706963007175 7.7659899999999995
50.99192728239342 7.71585
51.01659478166073 7.74653
51.04126481489051 7.7637100000000006
51.06593738400761 7.72985
51.090805275207074 7.683680000000001
51.11548294172845 7.68705
51.14016314993547 7.6896
51.164845901758845 7.664110000000001
51.18972406304274 7.646210000000001
51.21441192780656 7.602519999999999
51.23910234200271 7.62467
51.2637953075678 7.58197
51.288683770237945 7.550680000000001
51.31338186432707 7.55473
51.33808251561888 7.512060000000001
51.362978729967345 7.49901
51.387684521509755 7.52707
51.41239287610203 7.51728
51.437103795691165 7.50184
51.46201036644977 7.44958
51.486726441956634 7.431210000000001
51.51144508832545 7.443639999999999
51.536166307509156 7.41962
51.56108326624387 7.3956800000000005
51.58580965706056 7.376469999999999
51.61053862657523 7.36084
51.635270176746864 7.33723
51.66019755512065 7.305960000000001
51.68493429268881 7.30766
51.70967361681515 7.32936
51.73441552946465 7.27237
51.759353359237934 7.266710000000001
51.7841004750961 7.2602899999999995
51.80885018539685 7.275530000000001
51.833602492111254 7.26175
51.8585508051424 7.23814
51.883308330926425 7.176660000000001
51.90806845906181 7.15263
51.932831191525715 7.142410000000001
51.95779001977161 7.127619999999999
51.98255798721516 7.133830000000001
52.00732856494335 7.09205
52.03229530577543 7.10112
52.057071130455945 7.104030000000001
52.081849571391054 7.082999999999999
52.106630630568695 7.088989999999999
52.13160794279417 7.06169
52.15639426492067 7.04505
52.18118321127822 7.06843
52.205974783860896 7.01775
52.23096269971011 7.00595
52.255759551287994 6.98888
52.280559035098186 6.956460000000001
52.30536115314103 6.97147
52.33035970494467 6.94681
52.35516711807904 6.944719999999999
52.37997717147198 6.8792
52.40478986713005 6.892760000000001
52.42979908731974 6.84897
52.454617094216 6.85153
52.47943774942214 6.854589999999999
52.50426105495102 6.85275
52.529280976059844 6.81773
52.554109609024096 6.8064
52.57894089837482 6.80877
52.60377484613117 6.82423
52.62880550079408 6.79725
52.65364479223379 6.76951
52.67848674816189 6.7377
52.70352547971946 6.717389999999999
52.72837279155837 6.7367
52.753222773982785 6.728219999999999
52.778075429022984 6.6946699999999995
52.80312495150885 6.66136
52.827982978797436 6.60792
52.85284368481815 6.64827
52.87770707160767 6.59702
52.90276741793998 6.61441
52.92763619336701 6.605739999999999
52.952507655698504 6.5681899999999995
52.977381806977576 6.57295
53.00245301017842 6.55705
53.02733256653592 6.53227
53.052214817996074 6.52345
53.077099766608484 6.49889
53.102181859804446 6.50767
53.127072229988265 6.52119
53.15196530349892 6.45519
53.17686108239249 6.45712
53.20195409881522 6.47122
53.22685531582556 6.44219
53.25175924441303 6.4189099999999994
53.27666588664027 6.39965
53.30176985962693 6.39466
53.3266819565689 6.38276
53.35159677336455 6.36676
53.376514312083096 6.39328
53.40162927507703 6.36126
53.42655228516116 6.3197
53.45147802340193 6.326890000000001
53.47660125628886 6.30359
53.50153247842639 6.2775099999999995
53.52646643496923 6.24328
53.55140312799818 6.281969999999999
53.576537409691696 6.25965
53.60147960336152 6.26639
53.626424539786164 6.19488
53.65137222105307 6.1832199999999995
53.67651758529126 6.20426
53.70147078399681 6.15075
53.72642673383343 6.17363
53.75138543689533 6.16779
53.776541917524526 6.15669
53.801506154876755 6.09856
53.826473151763246 6.14061
53.851442910284916 6.08913
53.87661054126026 6.04946
53.9015858509782 6.0757699999999994
53.92656392866066 6.09952
53.95154477641532 6.07987
53.976723591801296 6.01236
54.00171000771266 6.01492
54.02669920004598 6.0084599999999995
54.051691170915745 5.99869
54.076881204886796 5.96821
54.101878760928514 5.97003
54.12687910187696 5.92238
54.152077577768296 5.94549
54.1770835166946 5.88169
54.20209224691339 5.90979
54.22710377055121 5.91763
54.25231352511594 5.8622
54.27733066384342 5.85195
54.30235060239643 5.86561
54.32737334290836 5.86311
54.35259441062629 5.83271
54.377622783395324 5.79317
54.40265396455061 5.78909
54.42768795623251 5.7733099999999995
54.45292037169559 5.76103
54.477960012857906 5.74672
54.50300247099511 5.73575
54.52804774825457 5.68015
54.55329154616743 5.6610000000000005
54.57834249018678 5.63588
54.6033962597977 5.58643
54.6284528571545 5.62069
54.653708072335164 5.591469999999999
54.67877035378786 5.59693
54.70383546947698 5.5450800000000005
54.72890342156389 5.51318
54.7541700889442 5.4895
54.77924374251975 5.54039
54.8043202390049 5.50506
54.82959552413022 5.4646300000000005
54.8546777351945 5.44685
54.87976279569621 5.41827
54.90485070780914 5.38057
54.930137506558005 5.35582
54.95523115074295 5.4061699999999995
54.98032765308844 5.3657900000000005
55.005427015775496 5.2946
55.03072536339621 5.3362
55.05583047570572 5.29685
55.080938454927676 5.2906699999999995
55.10604930325027 5.25793
55.131359235107396 5.23413
55.15647585066083 5.1734
55.181595341907496 5.19149
55.20671771104285 5.1445099999999995
55.232039262617704 5.17835
55.25716741665048 5.11268
55.28229845518636 5.08823
55.30743238042802 5.04991
55.33276558731939 5.07015
55.357905315183636 5.0761
55.383047936390035 5.01202
55.40819345314859 4.92468
55.433538351073295 4.96155
55.458689688238415 4.96885
55.483843927614096 4.93232
55.509197623043605 4.91654
55.53435769621134 4.8453599999999994
55.55952067826466 4.8274099999999995
55.5846865714265 4.82867
55.61005202069737 4.7869
55.63522376553902 4.7992300000000006
55.66039842818645 4.80926
55.68557601087004 4.76473
55.7109532500271 4.71141
55.73613670233794 4.7114
