TT I
1.2716486653135266 7.22487
1.2939594142134223 7.29523
1.3162702121660406 6.59925
1.3385810600174564 6.58622
1.3608919586137629 6.95372
1.383202908801069 6.4711300000000005
1.405513911425503 6.33879
1.4278249673332093 6.45451
1.4501343378461518 6.32757
1.4724455028545926 6.353
1.4947567236847858 6.1569
1.517068001182951 6.217169999999999
1.5393793361953272 5.83488
1.5616907295681737 5.268680000000001
1.5840021821477681 5.14878
1.60631369478041 4.8764400000000006
1.6286252683124185 5.06452
1.6509369035901333 4.93769
1.6732468618895553 4.89698
1.695558623192809 4.578790000000001
1.7178704487808514 5.06058
1.7401823395001077 4.8469999999999995
1.7625012545597203 5.27053
1.7848028405262486 5.08269
1.8071218901122095 5.0507
1.8294236121921872 4.718369999999999
1.8517427996910911 4.64032
1.8740620574440425 4.68653
1.8963639900671978 4.707730000000001
1.9186833908139995 4.85098
1.9409854680117449 4.96356
1.9633050151394713 5.031280000000001
1.9856246367570705 5.24633
2.0079269371922672 4.5862300000000005
2.03024671027244 4.53261
2.0525491637446027 4.32522
2.074869091674931 4.4747699999999995
2.097171701569106 4.9929
2.1194917877373847 4.76035
2.141811954326636 4.918
2.164114805233074 5.0601199999999995
2.186435135143035 6.157780000000001
2.208738150935709 16.2693
2.231058647554722 35.1366
2.2533792288321184 27.1764
2.275682498336085 11.934000000000001
2.298003251406138 6.4995199999999995
2.3203066942619714 5.834309999999999
2.3426276225136022 5.37785
2.3649486396617507 5.56806
2.387252348930071 6.37974
2.4095735463442893 6.28811
2.4318774374315884 6.15993
2.4541988185014043 6.26159
2.476502894794693 7.27527
2.498824462909887 7.7088600000000005
2.521146125856138 7.71823
2.5434504863470337 6.97927
2.5657723414244717 7.66535
2.588076895590662 8.23815
2.610398946189713 8.058819999999999
2.6327210958598384 8.06259
2.6550259469304716 8.187000000000001
2.6773482972090137 8.013160000000001
2.6996533504259 8.6725
2.7219759047039602 8.72644
2.744298562293959 8.35642
2.7666039251246595 8.22458
2.7889267918020164 8.30156
2.8112323652516555 8.72662
2.833555444408179 8.560360000000001
2.8558786311183852 8.560139999999999
2.8781845268938557 9.2477
2.9005079311721484 9.52477
2.9228140460410397 9.106639999999999
2.9451376712799635 9.61848
2.967444008632326 9.6733
2.9897678582247247 10.1482
3.0120918213106695 10.6538
3.0343984987899373 10.8872
3.0567226913198637 11.1007
3.079029599759726 11.7219
3.101354025127254 12.1574
3.123678568232338 13.1677
3.145985829517914 12.9517
3.16831061055229 14.0405
3.1906181112775593 14.115
3.212943133635653 15.0856
3.2352682779763207 15.1487
3.2575761442691227 15.3939
3.2799015350264273 15.8647
3.302209649240067 16.2813
3.3245352898092655 16.8232
3.3468436553365257 17.613
3.369169549113219 17.6389
3.3914955708171384 18.7264
3.413804319727358 19.1391
3.4361305997334863 18.725
3.4584396084414553 19.3668
3.4807661501462652 20.4583
3.503092824025881 21.0128
3.5254022288463154 21.4406
3.5477291695206588 22.006999999999998
3.5700388426251948 22.4633
3.5923660534916446 24.0665
3.6146934007816114 41.81100000000001
3.637003482731501 106.228
3.6593311053109985 120.301
3.681641464033634 67.1775
3.7039693653009733 32.8583
3.726297407241705 26.2669
3.7486081875460804 26.186999999999998
3.7709365132734978 26.1024
3.793247578841633 26.9185
3.8155761917550093 27.0373
3.8378875459837216 27.2066
3.8602164494827234 27.6543
3.882545499606844 28.1886
3.9048572932539183 28.9087
3.9271866390645718 28.9124
3.9494987298666713 29.5425
3.971828374764527 30.3188
3.9941581705403255 30.5862
4.016470713506008 31.3112
4.038800813471445 32.219
4.061113662089144 32.6005
4.0834440696459176 33.7335
4.105774632334751 34.1672
4.128087945865126 35.1908
4.150418821249301 35.5366
4.172732448931298 37.2772
4.195063640413578 39.6695
4.2173775856475215 43.7901
4.239709096631102 81.1513
4.262040768704612 288.621
4.284355196706267 405.709
4.306687193387355 260.971
4.329001947444346 93.835
4.35133427213731 49.9942
4.373666762177566 44.9189
4.395982011761091 44.2421
4.418314834921175 45.4395
4.44063041906622 55.0512
4.4629635787515625 69.957
4.4852969080429785 69.44800000000001
4.5076130004776225 55.7286
4.529946671403969 50.1457
4.552263106909177 49.6095
4.574597122877047 50.5285
4.596931312711224 51.8549
4.619248269273446 52.4423
4.6415828092605835 53.7294
4.663900117405352 54.8787
4.686235010953232 55.9743
4.708552674085913 57.7565
4.730887924602802 58.7724
4.753223354952695 60.1999
4.775541557023902 61.0238
4.797877349456786 62.489
4.820195915032126 64.4098
4.842532072957498 66.1247
4.864868414979744 67.8419
4.88718753227192 69.8738
4.909524244902505 71.4054
4.931843734218147 73.3914
4.954180820867835 76.1001
4.976518095879839 78.5908
4.998838149695359 81.5234
5.021175803844231 84.5284
5.043496238205739 87.3892
5.065834274903528 91.6974
5.088172504230693 96.166
5.1104935158799565 101.35700000000001
5.132832132875765 124.05799999999999
5.155153533596801 174.33900000000003
5.1774925416746225 208.347
5.199814334878411 289.308
5.2221537374521505 760.025
5.244493338631803 2363.87
5.266815727034316 7221.77
5.289155727832427 12907.5
5.311478517248165 9591.0
5.333818921080011 2968.48
5.356159527788849 540.05
5.3784829252032536 179.99900000000002
5.400823940070432 140.476
5.423147747031976 125.15700000000001
5.445489173474152 116.311
5.467830807066149 110.835
5.490155234831516 107.596
5.512497285125229 103.684
5.534822130975162 101.823
5.557164601388673 99.8627
5.579489868738879 97.111
5.601832762690846 96.7495
5.6241758697774475 95.9339
5.646501775867269 95.2024
5.668845311622074 93.6169
5.691171647754637 92.8759
5.713515615597765 91.0887
5.735859800852677 90.1404
5.758186788542988 89.0223
5.780531411018185 89.3003
5.802858837297399 88.5631
5.825203900414495 88.7925
5.8475491852224 88.6306
5.869877275883075 89.3351
5.892223006467101 90.1853
5.914551544266608 90.723
5.936897724049891 92.54700000000001
5.959244129804903 96.3469
5.981573344815301 108.07600000000001
6.0039202049061 168.732
6.026249875609095 360.92699999999996
6.04859719346037 810.985
6.070927323278297 1993.19
6.093275102315365 4343.47
6.115623113320588 5224.3
6.137953938319995 3251.38
6.160302415650845 942.988
6.182633708324452 233.065
6.2049826554078376 113.416
6.227331838745022 90.47200000000001
6.249663839443684 83.6158
6.27201349767565 81.6237
6.294345974611799 90.3084
6.316696111167083 106.44
6.339046488263839 100.339
6.361379686074702 81.6543
6.383730546639482 71.6114
6.406064229255215 68.1835
6.428415576718203 67.8664
6.450749747566656 66.5177
6.47310158535871 65.2096
6.495453669698332 64.6202
6.517788579421056 64.206
6.540141159237969 63.3756
6.562476565766648 63.0225
6.5848296444934045 62.3915
6.607182974060425 62.3519
6.6295191323281015 62.2059
6.651872965955752 66.4978
6.6742096296068985 98.4026
6.6965639707294615 158.434
6.71891856698715 160.863
6.741255995248479 105.366
6.763611104154477 71.0286
6.785949046381137 60.7077
6.808304671371482 58.1781
6.8306605557940046 58.0374
6.852999275508618 56.9089
6.875355681171544 56.9838
6.897694923437771 56.4562
6.92005185377892 56.5371
6.9423916220322655 56.2694
6.964749080490181 55.4969
6.987106804399774 55.2151
7.009447368180821 55.8339
7.031805625367033 54.9838
7.054146723727803 54.8712
7.076505517631004 55.147
7.098864581288365 55.0925
7.121206488070854 54.7807
7.143566093607822 54.7106
7.165908543567245 54.9004
7.188268694426048 55.1918
7.2106291193438095 55.1472
7.232972390625943 56.9997
7.255333366030969 72.6108
7.277677189091925 138.817
7.300038718428332 203.09799999999998
7.322400526130865 170.993
7.344745183422596 99.8189
7.367107550224791 64.4867
7.389452767901992 56.876999999999995
7.411815697249891 55.4252
7.434161478756298 54.4328
7.456524974096713 54.2075
7.478888753837185 54.0817
7.501235387657368 54.6244
7.523599738562711 54.4937
7.545946944825532 54.4618
7.568311870344528 54.8587
7.5906770845765665 55.5118
7.613025156078678 56.8949
7.635390950099687 58.3379
7.657739602662809 57.0223
7.680105979923558 55.8166
7.702472650212829 55.5086
7.724822180948224 55.3714
7.747189439655568 55.4885
7.769539560075357 55.4806
7.791907410653562 56.0319
7.81425812420825 55.9173
7.836626570110925 55.9756
7.858995315087906 56.7732
7.881346924933401 57.2764
7.903716270417482 57.8458
7.926068482028405 57.886
7.948438431475253 58.6474
7.9708086843180235 59.0791
7.993161805171116 59.5547
8.015532667162402 60.0285
8.037886398416653 60.9742
8.060257873014221 61.4887
8.082629655331942 62.111999999999995
8.104984308787587 63.1594
8.127356708900503 66.9442
8.149711981398308 74.0723
8.172085002766314 77.0735
8.194458336181368 72.8316
8.216814543847752 68.8804
8.23918850371002 68.4893
8.26154533906492 69.1016
8.283919928836452 70.8884
8.306277395339652 71.73100000000001
8.328652618483376 72.653
8.351028159736202 74.3529
8.373386579575245 76.5164
8.395762759396959 78.2293
8.418121819038275 83.5301
8.440498640894003 99.0765
8.462875785192262 114.64299999999999
8.485235811156207 122.337
8.507613602688501 144.164
8.529974277114228 210.81
8.552352719347912 320.564
8.574731488360351 556.975
8.59709314210385 1091.35
8.619472567021075 1815.67
8.64183487789147 2259.18
8.664214962183097 1876.74
8.686577933647762 997.432
8.708958680784317 380.341
8.731339760774953 171.324
8.753703729764451 111.227
8.77608547780821 97.6838
8.798450116065078 93.9917
8.820832535634787 90.9181
8.843215292401656 89.4186
8.865580941199045 88.2041
8.887964374703538 87.4689
8.910330701447199 89.1513
8.932714815164482 92.0054
8.955099270424924 91.5342
8.977466620733543 87.5731
8.999851761421976 84.0088
9.022219798361645 82.314
9.04460562795561 82.3179
9.066991803441677 81.7528
9.089360876979615 81.6447
9.111747746589993 81.433
9.13411751544971 80.7159
9.156505082664324 80.5809
9.178875550323522 80.6339
9.20126381862328 81.2627
9.223652438908596 81.6886
9.246023961427412 81.3344
9.26841328802173 80.33
9.290785518039224 80.2958
9.313175554425882 81.3543
9.335565947154315 80.811
9.357939245086508 81.1805
9.380330352834827 81.2052
9.40270436697103 81.6276
9.425096193225055 81.1911
9.447488380180165 82.2624
9.469863475295412 82.3621
9.492256385987508 83.0321
9.514632206018318 83.6819
9.537025843935714 83.6097
9.559402392368193 84.6965
9.581796761000229 85.6012
9.604191496441521 86.6339
9.626569144158516 91.0185
9.648964615551032 96.7866
9.671343000390081 98.8066
9.693739211225699 95.7438
9.716135793237463 92.5668
9.738515290448102 91.4875
9.760912617143402 92.0927
9.783292860202891 93.1202
9.805690935076182 94.4491
9.828089385495742 95.4824
9.850470754023561 98.0504
9.872869957865444 106.861
9.89525208097539 125.13600000000001
9.917652041736662 141.168
9.940052382417589 138.005
9.962435644102392 134.86700000000002
9.984836746950979 155.19299999999998
10.007220771957746 206.55599999999998
10.029622640473708 293.11
10.052007432299963 457.208
10.074410069984072 734.357
10.096813093716005 1197.61
10.119199042482517 1741.79
10.141602840636468 2022.94
10.163989564971628 1643.27
10.186394141051062 940.8389999999999
10.208799107559706 409.334
10.231187001965623 187.18400000000003
10.253592751657669 125.022
10.275981430388155 111.92399999999999
10.298387966769793 112.137
10.320794897965431 116.302
10.343184759907361 115.432
10.36559248305461 108.71799999999999
10.387983138083852 102.95
10.410391656691655 103.083
10.432800574501677 110.556
10.455192425893369 123.667
10.47760214443012 145.83
10.499994797678786 185.635
10.522405320453982 262.98400000000004
10.54479877906917 387.168
10.567210109595656 516.633
10.5896218454736 578.095
10.612016518879773 510.043
10.634429067781074 345.95300000000003
10.656824555333241 202.03400000000002
10.679237920773568 124.84899999999999
10.701651695961992 95.7389
10.724048411481384 88.0137
10.746463008485165 85.304
10.768860546937125 83.7232
10.791275969274796 81.9175
10.81369180576079 80.8241
10.836090585366925 79.753
10.858507252467449 78.7015
10.88090686379991 77.6813
10.903324365036394 77.2256
10.925724811614439 77.4943
10.948143150509463 79.461
10.970561909719066 78.6932
10.992963615930844 76.47800000000001
11.015383218085756 73.9539
11.037785768347074 72.3927
11.06020621697282 71.7903
11.082627090322113 71.3243
11.105030913430326 70.7503
11.12745263854165 71.8702
11.149857314510728 76.4534
11.172279894912576 84.2366
11.194702904450653 85.2397
11.217108866490921 80.3883
11.239532736615194 75.1447
11.26193956033512 72.3399
11.284364294577085 70.1535
11.306789462371718 67.7968
11.329197585398376 66.4209
11.351623622610898 66.0108
11.37403261614354 65.543
11.396459526308487 65.3885
11.418869393879497 64.6279
11.441297180532617 64.4128
11.463725406927658 64.2471
11.486136592353875 64.04
11.508565700543707 64.773
11.530977768845315 67.4065
11.553407762368774 68.2928
11.575838200059769 68.1526
11.598251599479612 65.2744
11.620682927815501 63.3197
11.64309721895548 62.8882
11.665529441478206 62.5509
11.687962112597958 62.0807
11.710377748130886 62.2051
11.732811318753434 62.2602
11.755227854859067 62.3484
11.777662328529495 62.1023
11.800079768750786 61.7937
11.822515149015453 61.6029
11.844950984084935 61.6363
11.867369787303163 61.718
11.889806534289491 61.643
11.912226250487029 61.9127
11.934663912939751 61.8483
11.9571020346363 61.7816
11.979523127133968 61.6834
12.001962169624331 62.293
12.024384183972964 63.0063
12.046824150809913 65.195
12.069264581333726 69.4684
12.091687985297767 74.9131
12.11412934550045 83.3471
12.136553680195208 97.0352
12.158995973632788 119.65799999999999
12.181438735204349 148.44299999999998
12.20386447284199 186.72799999999998
12.226308172985636 209.253
12.24873485024193 203.31
12.271179492516982 169.84
12.293607112949127 130.519
12.316052700916226 99.0265
12.338498763250042 80.4717
12.360927805303868 71.3109
12.383374818673879 66.4518
12.405804812803074 64.0261
12.428252780773262 63.5023
12.45070122756722 63.3766
12.473132656675375 63.0669
12.49558206341869 63.3566
12.518014453510101 63.3783
12.540464823770117 63.6161
12.562915677315177 63.7315
12.58534951575545 65.0037
12.607801338171472 67.1615
12.630236146511358 73.9136
12.652688941369085 80.0083
12.675124723177234 80.5835
12.697578494048786 75.6792
12.720032754458185 69.9908
12.742470003354093 67.4626
12.764925245138771 66.9526
12.787363476431278 66.8576
12.809819703166806 67.0492
12.83227642391173 68.2192
12.854716135692716 68.6842
12.877173846755147 69.6686
12.899614549869717 69.6779
12.9220732548287 70.611
12.94453245827299 70.7496
12.966974655289818 71.9628
12.989434858002571 72.7607
13.011878055298721 73.4269
13.034339260862497 74.1885
13.056800969391883 75.0389
13.079245674017244 76.9883
13.101708390774869 78.5276
13.12415410463411 83.7603
13.146617833206086 93.7364
13.169064559883248 104.318
13.191529303857127 117.20700000000001
13.213994557076367 136.601
13.236442809902437 170.778
13.258909083908291 223.112
13.28135835851934 289.598
13.30382565690295 369.389
13.326293469022952 429.69800000000004
13.348744283242008 430.152
13.371213125129904 367.209
13.39366497011003 264.829
13.416134845360597 174.829
13.438605238843131 124.041
13.46105863690397 102.792
13.483530069144786 100.294
13.505984506951902 104.08200000000001
13.528456981549432 112.26
13.550929978879088 125.205
13.573385983253365 146.955
13.595860028340867 184.717
13.618317081455832 238.33900000000003
13.64079217790333 302.29200000000003
13.663250283359057 353.485
13.685726434770173 383.82099999999997
13.708203115221277 349.76199999999994
13.730662806148091 264.51599999999996
13.75314054697177 186.141
13.775601299246777 128.91899999999998
13.798080104050406 96.1242
13.820559442405358 84.1817
13.843021793671388 80.4003
13.865502201420897 78.7014
13.887965623051947 78.1956
13.910447103807167 76.9546
13.932929122629764 76.1028
13.955394156785959 75.5636
13.977877254034569 74.7492
14.000343367582113 73.8392
14.022827546871707 73.1722
14.045294743423524 72.484
14.06778000837062 71.7918
14.090265817715476 71.8255
14.112734645763819 71.3927
14.13522154619454 71.4459
14.157691466286913 71.5995
14.180179461423874 71.1768
14.202668005486178 70.6249
14.22513957064374 69.8242
14.247629214846473 69.2044
14.270101881097517 69.0407
14.29259262906496 69.4896
14.315083930490205 70.3604
14.337558255389705 71.1629
14.360050666019726 70.4559
14.382526101071944 69.4028
14.405019624534942 68.3058
14.427513705993134 67.7246
14.449990813291825 67.6261
14.47248601302899 67.6681
14.49496423954951 67.8169
14.517460561197822 67.8196
14.539939910570322 67.4083
14.562437357763558 68.1675
14.58493536931253 69.3444
14.607416409993311 70.3691
14.62991555254159 71.1516
14.652397725157423 70.9949
14.674898002342799 70.0602
14.697398848433282 69.2525
14.719882725991326 69.6058
14.74238471217934 70.0394
14.764869730765593 72.2577
14.787372860692983 75.0916
14.809876564079925 79.0527
14.83236330125751 84.0345
14.854868153850365 91.7711
14.877356041159485 104.295
14.899862046604186 122.061
14.922351087688757 147.579
14.944858249632887 178.398
14.967365991421232 208.143
14.989856770231246 223.148
15.012365673994204 217.704
15.03485761569738 188.37599999999998
15.05736768508665 147.879
15.07987833888692 113.101
15.102372032001655 89.9983
15.124883856909658 76.4608
15.14737872204565 71.3732
15.169891721717274 69.5428
15.192405310371893 69.4163
15.214901940621196 70.0218
15.237416709527137 70.5607
15.259914520936249 70.5696
15.282430473753607 69.6539
15.304947020131227 68.5781
15.327446610371178 67.3921
15.349964346154254 66.4192
15.372465126703139 66.0525
15.394984055556009 65.4773
15.417486030076159 65.255
15.44000615566487 64.9153
15.462526881230803 64.9803
15.485030653812652 65.1142
15.507552581617434 65.3794
15.530057557334603 65.5364
15.55258069104857 65.4373
15.575104429329837 65.1464
15.597611216864632 64.7581
15.620136166564563 64.6319
15.6426441664095 64.9666
15.665170331202765 66.514
15.687697105158826 69.2318
15.710206930593545 72.0766
15.732734925158933 75.7275
15.755245972089478 81.1507
15.77777519094324 89.8404
15.800287463046663 101.882
15.822817909869592 121.00399999999999
15.84534897229804 143.069
15.867863089299354 167.577
15.890395385222186 187.84400000000002
15.912910736597423 194.942
15.935444269699861 183.201
15.957978423016485 156.439
15.980495633101265 122.29700000000001
16.003031029129367 95.1173
16.02554948280019 75.9161
16.048086125229432 67.2676
16.070623392487107 65.0675
16.09314371869582 64.0659
16.11568223789321 63.2747
16.13820381691126 62.3013
16.160743591742527 61.0727
16.183283996022084 59.9529
16.205807461423195 58.7099
16.228349126881973 58.0742
16.25087385432698 58.0938
16.27341678466365 57.5744
16.29594277784926 57.6137
16.31848697676433 58.0931
16.341031811604868 58.6801
16.36355971058487 59.1721
16.3861058195587 59.1148
16.40863499352978 57.3682
16.431182380342005 56.2986
16.453730407713202 55.4469
16.476261501364792 55.0598
16.498810812136167 54.7846
16.52134319004079 54.8949
16.54389378792203 54.7264
16.566445031001553 54.4848
16.588979342490088 54.2929
16.61153187824822 54.2562
16.634067483263312 54.0351
16.656621315414416 54.0278
16.679175797408888 53.7127
16.701713349928728 53.7231
16.72426913389191 54.1439
16.74680798922351 54.3181
16.76936507887444 54.1015
16.791905240734874 54.4487
16.814463639794468 54.0865
16.837022695210294 54.1804
16.859564824093756 54.7215
16.882125194503903 55.4867
16.904668639217885 56.3333
16.927230328348003 56.4124
16.949792678493612 56.716
16.972338104193863 55.872
16.994901778652235 54.9577
17.017448529496576 54.8722
17.040013531998152 54.9456
17.06257920018044 55.1167
17.0851279459922 55.8892
17.107694947817667 56.5418
17.130245028099072 57.3017
17.15281336730298 58.5103
17.17536478578733 60.0994
17.19793446610687 62.1713
17.220504818648422 64.8258
17.243058251703697 68.3011
17.265629950971032 72.7717
17.288184731571736 78.0676
17.310757781306908 82.4439
17.33333150794385 82.9164
17.355888317140174 81.6557
17.37846339986244 76.5428
17.401021565958885 70.0928
17.42359800851343 64.4438
17.44617513265564 60.9176
17.468735341390783 59.1478
17.491261035594565 58.0651
17.51396340099364 57.9292
17.536490463869136 58.0222
17.559018209820174 58.1911
17.58154663977963 58.2448
17.604251766089718 58.4003
17.626781572227713 58.5995
17.64931206518155 58.9045
17.671843245885103 59.4383
17.69455114821572 59.8061
17.717083712612634 60.0961
17.739616967569667 60.055
17.762150914021706 60.1933
17.78486160749854 60.2017
17.807396945166804 60.6862
17.829932977143503 61.1969
17.85246970436452 62.2736
17.875183204129467 63.9048
17.897721330097664 65.8317
17.920260154126645 67.7847
17.942799677153296 70.5551
17.9655159983646 73.9465
17.988056927677544 78.7934
18.010598558807683 86.1184
18.033140892692916 95.9623
18.05586005052525 107.765
18.07840379824407 119.805
18.10094825154059 130.358
18.12366954819864 138.46200000000002
18.146215420998306 137.736
18.16876200220057 129.879
18.191309292745153 115.509
18.214033452627167 101.823
18.236582170236648 90.4004
18.259131600016456 84.3924
18.281681742907335 84.0896
18.304408781233683 88.5575
18.32696035875955 94.1632
18.349512652227624 99.7526
18.372065662579683 104.435
18.394795594587553 105.515
18.41735004715306 102.402
18.43990521943684 95.7299
18.46246111238171 86.0964
18.485193953325208 76.6626
18.507751296070428 69.0957
18.530309362314178 65.1135
18.552868153000343 62.7386
18.57560391815056 61.4164
18.59816416623245 60.8157
18.620725141597372 60.5171
18.643286845190268 59.8649
18.666025549835414 59.3704
18.688588718427933 58.9435
18.711152618092243 58.8259
18.73389353884365 58.6531
18.75645890921984 58.2612
18.77902501351406 57.8047
18.801591852673102 57.6508
18.824335739722738 57.3798
18.846904057212626 57.2284
18.8694731124168 56.8174
18.89204290628315 56.7485
18.914789774966803 56.4724
18.937361054791623 56.2111
18.959933076131318 56.0503
18.982505839934877 56.0656
19.00525570560582 56.4405
19.027829963004184 55.9928
19.05040496572238 56.1429
19.072980714710468 56.1912
19.095733592739563 56.2364
19.11831084296757 56.3344
19.140888842324735 56.8083
19.16346759176222 57.1146
19.18622349753803 57.5388
19.208803755869358 58.166000000000004
19.231384767143577 59.1877
19.253966532312948 60.5983
19.276725481241822 62.6987
19.29930876296784 65.1357
19.3218928014549 68.3965
19.34465404436217 72.0985
19.36723960516257 75.0449
19.389825925592426 76.4041
19.412413006605938 75.4918
19.43517731967805 71.9342
19.457765930683355 67.2694
19.48035530514408 62.5342
19.50294544401556 58.708
19.525712842708348 56.0553
19.54830451925909 54.626000000000005
19.570896963095727 53.565
19.593490175174704 53.1572
19.616260674962184 53.0526
19.638855432416964 52.9414
19.661450960992624 53.0153
19.68404726164677 52.6939
19.706820878021247 52.6713
19.729418731756834 52.7794
19.752017360452857 52.4662
19.77461676506804 52.5596
19.797393513540218 52.4968
19.819994478951667 52.8889
19.84259622316767 53.4962
19.8651987471481 53.7491
19.887978643247177 53.8734
19.91058273574792 54.4962
19.933187610901943 55.102
19.955969879466828 56.1569
19.97857632894404 57.3261
20.00118356396599 58.9791
20.023791585494575 61.0505
20.046577028914875 63.6788
20.069186632506966 66.2702
20.091797025500632 68.4781
20.114408208858933 69.476
20.137196842715273 69.229
20.159809615886765 67.2328
20.18242318232135 64.6968
20.20503754298326 62.3488
20.227829382875154 61.2289
20.250445341109344 61.1676
20.27306209647285 61.9755
20.29567964993108 63.3741
20.31847471147704 64.777
20.34109387027612 65.3128
20.363713830075454 65.1483
20.386334591841646 63.8139
20.409132890679302 61.1779
20.431755265564437 57.9622
20.454378445325528 55.0299
20.477002430930366 53.2013
20.499803982716553 52.0841
20.522429589228004 51.2358
20.54505600449589 50.7
20.567683229489194 50.43
20.590488049900088 50.0299
20.61311690359731 49.5812
20.63574656993626 49.3125
20.658553853717297 48.8525
20.681185154618298 48.9719
20.703817271080066 48.8742
20.72645020407368 48.7001
20.749260783967177 48.5411
20.771895359337133 48.3403
20.794530754161617 48.2216
20.817166969412938 48.121
20.83998086114876 48.3549
20.86261872660049 47.992
20.885257415405402 48.0687
20.90789692853701 47.8459
20.930714147864748 47.8612
20.953355319030678 47.919
20.97599731745334 47.9197
20.99864014410749 47.7413
21.021460706796564 47.8812
21.044105199328826 48.1763
21.06675052302631 48.2264
21.089396678865015 48.4256
21.112220600704806 48.831
21.134868430275347 49.1337
21.15751709492456 49.3813
21.180166595629693 49.5513
21.202993892429635 50.2684
21.22564507473034 50.5721
21.24829709602816 50.8045
21.27112693608965 50.7081
21.293780644891275 50.7181
21.316435195634053 50.0231
21.339090589297417 49.3976
21.361923832041875 48.9079
21.384580921090404 48.3045
21.407238856007325 47.8007
21.429897637773326 47.8792
21.45273429906592 47.8356
21.475394784108598 47.7653
21.498056118951983 47.5658
21.520718304578022 47.8271
21.543558400304388 47.7551
21.566222297108816 47.8955
21.58888704765135 47.9589
21.61155265291521 48.1862
21.63439619898156 48.667
21.657063523335786 48.9228
21.67973170537063 49.3683
21.7024007460706 49.6221
21.72524775840385 50.4361
21.747918526116475 51.3099
21.770590155457388 52.5642
21.79326264741238 54.0609
21.816113141960237 55.8784
21.838787368860547 57.8574
21.861462461341976 59.9413
21.884315579735777 61.9506
21.90699241312273 63.4189
21.92967011506078 63.9827
21.95234868653799 63.6777
21.9752053151131 62.393
21.997885635446785 60.6062
22.020566828293532 58.9765
22.04324889464272 57.1903
22.066109049404666 56.0695
22.088792872571794 55.5205
22.111477572219204 55.6085
22.1341631493376 55.7232
22.157026846313123 55.3074
22.179714188221507 54.6505
22.202402410582668 53.7077
22.22509151438863 52.2606
22.24795876962584 50.9182
22.270649646204486 49.898999999999994
22.293341407213727 49.2523
22.316034053646906 48.5732
22.338904883215342 48.4462
22.36159931041458 48.5122
22.38429462602756 48.4827
22.40699083104897 48.4424
22.429865251039757 48.5012
22.452563244831367 48.4925
22.47526213102522 48.177
22.49813925616515 48.0628
22.520839937143307 47.9859
22.543541513520587 48.0456
22.56624398629403 47.8683
22.589124730075895 47.7896
22.611829005656723 47.8866
22.63453418063466 47.8372
22.657240256008077 47.9988
22.680124634582935 48.3355
22.70283252079775 48.6195
22.725541310413075 48.6028
22.74825100442868 48.7943
22.771139033969575 49.2556
22.79385054687155 49.4287
22.81656296718292 49.9478
22.83927629590484 50.9477
22.862167992606945 51.8577
22.88488314827121 53.1048
22.907599215359284 54.3285
22.93031619487366 55.379
22.953211574954405 56.405
22.975930389478226 57.4165
22.998650119445763 57.5613
23.02137076586092 56.9617
23.044269845560063 55.7017
23.06699233506288 53.9627
23.089715744034912 52.1057
23.112617610931565 50.4883
23.135342869061212 49.3349
23.158069049684816 48.6473
23.1807961538087 48.2297
23.20370174880544 48.1387
23.226430710184808 48.0481
23.249160598093425 48.0029
23.271891413539002 47.9161
23.294800752937697 47.8968
23.31753343374794 48.1665
23.340267045128353 48.3195
23.36300158808808 48.4611
23.38591468821339 48.7425
23.408651104658304 49.1395
23.431388455719986 49.7559
23.454126742409 50.4085
23.4770436196085 51.4132
23.499783787914662 52.8549
23.522524894889884 53.8547
23.54526694154616 55.1519
23.56818761219047 56.3701
23.59093154860734 57.1207
23.613676427751283 57.5074
23.636422250635754 56.8383
23.659346731118656 55.2319
23.68209445191868 53.4541
23.704843119509587 51.0783
23.72759273490623 49.2537
23.750521041644767 47.868
23.77327256312355 46.8957
23.796025035462787 46.1809
23.818956224555475 45.5169
23.841710609113413 45.5252
23.86446594758979 45.2091
23.887222241002014 44.9205
23.910157285144578 44.6654
23.932915498962537 44.7109
23.955674670778713 44.3976
23.978434801611975 44.2412
24.001373717286125 44.159
24.024135776723917 44.2121
24.046898798245582 43.9488
24.06966278287146 43.8289
24.092605586582614 43.693000000000005
24.115371508023642 43.5251
24.1381383956401 43.4887
24.16090625045381 43.4867
24.183852958731244 43.4636
24.206622758582608 43.2337
24.229393528706886 43.0307
24.252165270127392 43.0919
24.27511589952438 43.0833
24.297889594216997 42.9512
24.32066426328598 42.8573
24.34343990775613 42.7976
24.36639447485003 42.6502
24.38917208083877 42.6275
24.41195066531332 42.57
24.43490819850244 42.4406
24.457688750692377 42.4197
24.48047028445616 42.4791
24.503252800821233 42.5886
24.526214300784112 42.7598
24.548998793132213 42.5997
24.57178427117417 42.2788
24.59457073593893 42.3495
24.617536219319863 42.4871
24.64032466834748 42.4802
24.663114107195035 42.3578
24.685904536893013 42.1065
24.708874020360852 42.0306
24.731666442613744 41.9329
24.754459858818787 41.7127
24.777254270007962 41.6379
24.80022777025625 41.6025
24.82302418230472 41.574
24.845821592443674 41.5153
24.86862000170663 41.6077
24.891597535453727 41.4633
24.914397953892728 41.6988
24.93719937456671 41.7057
24.96000179851076 41.691
24.98298338249997 41.8525
25.00578782394922 42.074
25.028593271784167 42.216
25.05157790644186 42.4838
25.07438537804115 42.693000000000005
25.097193859145293 43.0034
25.120003350792075 43.2109
25.142992065061257 43.5107
25.165803588823465 43.7027
25.18861612625217 43.9208
25.211429678386736 44.0669
25.234422489079968 44.1329
25.257238081693636 44.1903
25.280054692141732 44.2891
25.3028723214652 44.2059
25.325869245420463 44.4966
25.348688923599397 44.4944
25.371509623787006 44.3967
25.394331347025812 44.0565
25.41733240110666 43.6071
25.440156181590016 42.9874
25.46298098826268 42.4973
25.48580682216873 41.945
25.50881202326435 41.3819
25.53163992281684 40.8869
25.55446885274561 40.6381
25.577298814096377 40.4185
25.600308179121807 40.2499
25.623140214533745 40.3144
25.64597328451537 40.1589
25.66898578564376 39.9011
25.691820936010206 40.023
25.714657124097695 39.963
25.737494350954734 40.0494
25.760511045684957 39.9585
25.783350361364224 39.8789
25.806190718969255 40.009
25.82903211955018 40.0726
25.852053024868923 40.0832
25.874896522722523 40.1107
25.897741066713106 40.0254
25.920586657892454 40.1591
25.943611790812668 40.2618
25.966459487728237 40.3954
25.989308234998564 40.4109
26.01215803367705 40.7404
26.03518741123814 40.8844
26.05803932412957 40.9726
26.080892291600094 40.9066
26.10374631470478 41.105
26.12677995397268 41.1352
26.14963609978026 41.1417
26.172493304397875 40.8391
26.19535156888223 40.6543
26.218389486949604 40.2143
26.241249882640123 39.9973
26.26411134137826 39.6687
26.28715248187403 39.7097
26.31001607820869 39.6347
26.3328807407756 39.4878
26.35574647063438 39.6038
26.37879191991473 39.4676
26.401659795896734 39.5957
26.424528742360263 39.724000000000004
26.447398760366614 39.7966
26.470448535598294 39.7413
26.49332070826805 40.0639
26.516193955675355 40.4982
26.53906827888316 40.626999999999995
26.562122397260108 40.854
26.584998883685063 41.0919
26.607876449110325 41.4192
26.63075509460056 41.5758
26.65381357334404 41.6953
26.67669439061878 41.6864
26.699576291163382 41.493
26.722459276044212 41.4074
26.745522132402975 41.0812
26.768407297649354 40.9454
26.791293550442003 40.5302
26.814180891848974 40.344
26.837248143099337 40.1147
26.860137673466657 39.936
26.88302829566349 39.783
26.90592001075963 39.6054
26.92899167420566 39.2739
26.951885586870763 38.7744
26.974780595655517 38.7757
26.99785558178161 38.7128
27.020752794605112 38.5301
27.043651106772522 38.2798
27.06655051935668 38.3517
27.089629948036183 38.1992
27.112531573292053 38.1926
27.135434302194138 38.2067
27.158338135817015 38.0997
27.181422024430987 38.0168
27.204328079372566 37.9203
27.22723524226965 38.023
27.250143514198573 38.1799
27.273231880156334 38.0922
27.296142382065014 37.943000000000005
27.319053996245536 37.7236
27.341966723775965 38.0131
27.365059584515222 38.0021
27.38797455070062 38.0224
27.410890633481237 37.9231
27.433807833936918 37.8567
27.456905206923906 38.0347
27.47982465472398 38.0556
27.502745223449743 38.0241
27.525666914182825 38.2095
27.548768816912457 38.0948
27.571692763693633 38.031
27.59461783573812 37.7941
27.617723149491244 37.6518
27.640650484125285 37.7231
27.66357894728264 37.5853
27.686508540048052 37.7056
27.709618414237887 37.5366
27.732550278321757 37.3838
27.755483275279115 37.3443
27.778417406196485 37.3577
27.801531858397514 37.356
27.824468269376716 37.3086
27.847405817586786 37.2416
27.870344504116094 37.4562
27.893463551932008 37.5643
27.916404527281053 37.7523
27.93934664422563 37.8445
27.962289903855886 37.8859
27.98541356491974 38.0727
28.00835912214229 38.1806
28.03130582533231 38.3995
28.054253675581805 38.6651
28.077381967556104 38.6407
28.100332124185126 38.5981
28.123283431160893 38.5157
28.146235889577238 38.2956
28.169368830154156 38.0932
28.192323603752033 38.0011
28.215279532083304 37.6637
28.238415973016764 37.5314
28.261374223145094 37.4036
28.284333631303806 37.1136
28.307294198589954 37.0622
28.330435319167677 36.7746
28.353398217078915 36.5141
28.376362277420153 36.2794
28.39932750129032 36.1088
28.422473319286713 35.8952
28.44544088262495 35.8733
28.468409612800283 35.7245
28.491379510913497 35.6005
28.51453004413313 35.5473
28.53750229057244 35.5524
28.56047570826344 35.4824
28.583450298308804 35.4731
28.606605564586562 35.2257
28.629582511831156 35.1976
28.65256063474956 35.2029
28.675539934446338 35.2247
28.698699951647605 35.211999999999996
28.72168161743193 35.025
28.74466446331978 34.996
28.767648490417624 35.0117
28.790813276438353 34.9476
28.813799678527303 35.0123
28.836787265157085 35.0344
28.859955641890075 35.0175
28.882945610203045 34.9303
28.905936766392035 34.7764
28.928929111566863 34.7932
28.952102288520145 34.7874
28.975097024308607 34.747
28.998092952423807 34.6005
29.021090073977508 34.473
29.04426806913204 34.4333
29.067267590245258 34.1457
29.090268308143695 34.1652
29.11327022394099 34.0815
29.13645305530891 34.0087
29.159457379627167 33.9212
29.18246290519685 33.9626
29.20546963313352 33.9458
29.22865731875826 33.9598
29.25166646419296 33.9454
29.27467681535305 33.8218
29.29768837335608 33.8124
29.320880931312562 33.9101
29.34389491580634 33.8422
29.366910110507334 33.8092
29.38992651653503 33.8965
29.41312396492981 33.8345
29.436142806456754 33.7595
29.45916286268059 33.5877
29.48236399319994 33.585
29.50538649169417 33.4357
29.528410208259935 33.2671
29.55143514402014 33.187
29.574641196749695 32.9911
29.597668583816574 32.9286
29.6206971934585 32.7436
29.64372702680042 32.741
29.666938019934474 32.6868
29.689970313635285 32.613
29.713003834422636 32.6443
29.73603858342347 32.5213
29.759254535188578 32.3911
29.78229175361658 32.4393
29.80533020365064 32.5336
29.82836988641968 32.5658
29.85159081507472 32.302
29.874632976355343 32.3414
29.89767637376955 32.3676
29.920721008448314 32.1924
29.9439469322847 32.2333
29.96699405457564 32.1889
29.9900424175358 32.1165
30.013092022298157 32.2243
30.03632295963995 32.1339
30.059375061131373 32.1408
30.08242840783577 32.1522
30.105483000888153 32.0978
30.128718970092244 31.965999999999998
30.151776069006917 31.9882
30.17483441768648 32.0894
30.198074175317235 32.1039
30.221135036724256 32.0498
30.24419715131772 31.9186
30.267260520236203 31.9071
30.290505341942243 31.8862
30.313571232750228 31.973000000000003
30.336638381310948 31.9561
30.35970678876503 31.866999999999997
30.38295669299435 31.7551
30.40602763151657 31.6927
30.429099832366074 31.6822
30.452173296685572 31.6735
30.47542830191959 31.6293
30.498504306502497 31.6247
30.521581577995562 31.7406
30.544660117543582 31.7462
30.56792024229725 31.7626
30.59100133132069 31.6971
30.614083691845494 31.7366
30.637167325018545 31.8654
30.660432587840603 31.8397
30.683518779717886 31.7681
30.70660624769615 31.9293
30.729694992924372 31.8207
30.75296541239743 31.8522
30.77605672557558 31.8292
30.799149319462742 31.7319
30.8224236211637 31.6031
30.845518789950724 31.5377
30.868615242910597 31.4258
30.891712981195973 31.184
30.91499247215866 31.1972
30.938092794619365 31.1775
30.96119440587579 31.0992
30.984297307082752 31.0032
31.00758200598383 30.9242
31.030687500658694 30.8937
31.053794288760695 30.7574
31.076902371446767 30.6245
31.100192296997445 30.6929
31.12330298246119 30.6827
31.14641496599209 30.4437
31.169528248749216 30.5737
31.19282341969534 30.4964
31.215939314557186 30.4758
31.239056512134788 30.566999999999997
31.262175013589378 30.5092
31.28547544871168 30.4809
31.30859657161541 30.4282
31.331719001892175 30.5025
31.35484274070538 30.6034
31.378148458819545 30.5166
31.401274828443725 30.5074
31.424402510106933 30.4782
31.447712205419993 30.5926
31.470842524931633 30.4139
31.493974159989783 30.4568
31.51710711176168 30.405
31.54042212308802 30.4065
31.563557722100917 30.3295
31.586694641341655 30.2035
31.609832881979628 30.0906
31.63315322823208 30.0658
31.656294125521327 30.052
31.679436347728515 29.896
31.70257989602529 29.8608
31.725905596152327 29.816999999999997
31.74905181052835 29.7401
31.772199354521323 29.7933
31.79534822930507 29.7972
31.818679302290967 29.723000000000003
31.84183085259981 29.7804
31.864983737233473 29.8037
31.88813795736804 29.8267
31.911474422233013 29.6911
31.934631327356435 29.7273
31.9577895715215 29.7432
31.980949155906522 29.6923
32.004291031706956 29.6147
32.027453310562606 29.5257
32.05061693318573 29.4823
32.07396288236386 29.4624
32.09712920658542 29.325
32.12029687812702 29.3017
32.14346589817093 29.189
32.166817291729984 29.191999999999997
32.18998902288583 29.0908
32.21316210610336 29.0056
32.23633654256711 28.8203
32.259693399663725 28.8677
32.282870556771144 28.8508
32.30604907069099 28.8234
32.329228942610065 28.7131
32.35259128243769 28.6562
32.375773884550505 28.5444
32.398957848235646 28.5227
32.422143174682176 28.4565
32.445511016471215 28.4336
32.468699082679954 28.331
32.49188851523011 28.3666
32.51507931531304 28.3227
32.538452678331 28.2464
32.56164622776311 28.2119
32.58484114831493 28.1623
32.60803744118015 28.1479
32.631416344731896 28.1294
32.654615396551876 28.1783
32.67781582427913 28.205
32.701198898634416 27.8999
32.72440209253756 27.9198
32.747606665947124 27.9509
32.77081262006088 27.7867
32.79420126883317 27.8286
32.81740999876112 27.8055
32.840620112999424 27.7997
32.86383161274818 27.6057
32.88722585534586 27.6812
32.91044014056596 27.7448
32.933655814909734 27.589000000000002
32.95687287957963 27.6889
32.98027273544904 27.5906
33.00349259526636 27.5008
33.026713849030116 27.5615
33.04993649794511 27.5046
33.073341986570746 27.4516
33.09656744032826 27.4467
33.11979429286444 27.4866
33.14302254538647 27.4389
33.166433686291185 27.4045
33.18966475336992 27.3117
33.212897224069096 27.2351
33.23613109959831 27.2482
33.259547912343415 27.2248
33.2827846121627 27.2688
33.306022720453775 27.1357
33.32926223842861 27.0621
33.352684742614166 27.1268
33.37592709463173 27.0527
33.399170859982064 26.961
33.422597648419426 26.8986
33.44584425514446 26.7984
33.46909227885668 26.6941
33.4923417207723 26.6855
33.51577423505344 26.6945
33.539026528130385 26.5716
33.56228024307245 26.5099
33.585535381098246 26.4011
33.60897364093058 26.4297
33.63223163992385 26.4025
33.6554910656699 26.3953
33.678751919389796 26.2594
33.702195944520106 26.246
33.72545966903325 26.2611
33.74872482519663 26.1603
33.771991414233746 26.1979
33.79544122444841 26.1404
33.81871069412428 26.0885
33.84198160035767 26.0727
33.86525394437455 26.2048
33.88870955949969 26.0619
33.911984794020626 25.9717
33.93526147001624 25.9274
33.958539588715006 25.967
33.98200102861669 25.836
34.0052820477047 25.7575
34.02856451319451 25.7414
34.05203033759056 25.7084
34.07531571090147 25.6309
34.09860253431845 25.5821
34.121890809074316 25.636
34.145362493118924 25.6011
34.16865368561615 25.5546
34.191946333164054 25.444000000000003
34.21524043699793 25.4307
34.23871800066799 25.4522
34.26201503218366 25.2429
34.28531352370466 25.4104
34.30861347646881 25.3338
34.33209693978188 25.2387
34.3553998301885 25.1723
34.378704185565205 25.1206
34.402010007152356 25.1186
34.42549939016683 25.0941
34.44880815937748 24.9662
34.472118398533134 25.0049
34.49543010887669 24.9039
34.51892543169198 24.8071
34.54224009966052 24.785999999999998
34.56555624255917 24.8598
34.58887386163339 24.8166
34.61237514439016 24.756999999999998
34.6356957311114 24.6235
34.65901779775809 24.612
34.68252356662995 24.6102
34.705848608458616 24.6533
34.72917513396849 24.5746
34.75250314440949 24.4655
34.77601490857862 24.4165
34.799345904259795 24.4402
34.82267838863559 24.345
34.846012362958525 24.3642
34.869530142679984 24.3447
34.89286711232212 24.3242
34.91620557568269 24.2055
34.93954553401677 24.2189
34.9630693495876 24.1569
34.986412313340814 24.1591
35.00975677584668 24.1822
35.033102738362956 24.1373
35.05663261012228 24.0257
35.0799815881786 24.1044
35.10333207003229 24.0713
35.12668405694369 23.9387
35.150220005273056 23.988000000000003
35.17357501786656 24.0375
35.19693153931268 23.9481
35.220289570874385 23.8763
35.24383161619786 23.8639
35.267192683604904 23.8739
35.290555264930376 23.8837
35.314101899412165 23.8144
35.33746752422433 23.7413
35.36083466676374 23.7755
35.38420332829803 23.7272
35.407756095629054 23.7365
35.43112781085063 23.713
35.45450104888391 23.6787
35.477875810999194 23.7422
35.50143473172161 23.6292
35.52481255774625 23.6164
35.54819191167777 23.5389
35.57157279478914 23.5202
35.595137889488406 23.455
35.61852184675279 23.4317
35.641907337029984 23.3817
35.665294361595684 23.3917
35.68886565090076 23.2448
35.7122557598848 23.2732
35.73564740699838 23.2333
35.759040593519934 23.1862
35.78261809810353 23.1823
35.80601437933051 23.0361
35.829412203814705 23.0621
35.85281157283719 23.0135
35.876395313415884 23.0722
35.8997977874528 22.9974
35.92320180988546 22.9525
35.946790244133936 22.8169
35.97019737933222 22.8106
35.993606066789866 22.7572
36.01701630779276 22.7812
36.04061101440684 22.6878
36.06402437852291 22.6938
36.08743930005611 22.6309
36.1108557802951 22.5329
36.13445678011326 22.6758
36.15787639383515 22.6177
36.18129757014299 22.5438
36.20472031032821 22.4874
36.22832762423364 22.4422
36.25175350829375 22.4092
36.275180960119776 22.2283
36.298609981005924 22.3912
36.32222362992669 22.4177
36.34565580510207 22.3801
36.36908955323448 22.2999
36.39252487562093 22.1501
36.416144880530226 22.1518
36.43958336764275 22.1412
36.463023432914625 22.2478
36.486465077645676 22.0904
36.51009145956204 22.0977
36.53353627947859 22.1118
36.55698268276811 22.0886
36.58043067073321 22.0209
36.60406345072071 21.8603
36.62751462435344 21.9157
36.65096738658405 21.9263
36.67460498210655 21.8861
36.69806093788647 21.872
36.72151848619297 21.7813
36.744977628333636 21.7967
36.76862165890998 21.6983
36.79208400512205 21.7139
36.81554794910557 21.7033
36.83901349217101 21.5536
36.862663978991606 21.6095
36.88613273667352 21.5401
36.90960309738324 21.5151
36.933075062434064 21.488000000000003
36.95673202673572 21.4668
36.98020721697122 21.4167
37.003684015502365 21.3009
37.027162423645365 21.2991
37.050825886711465 21.3206
37.07430753063053 21.2173
37.09779078812467 21.2094
37.121275660513014 21.2209
37.144945643673694 21.1515
37.16843376245278 21.1379
37.19192350009803 21.1631
37.215414857931435 21.1133
37.239091382563885 20.9858
37.262585997426164 21.0223
37.28608223645736 20.9781
37.309763684451696 20.9192
37.33326318851098 20.9157
37.356764320726555 20.8648
37.380267082425526 20.8898
37.40395510942588 20.8706
37.42746114683234 20.8007
37.45096881771841 20.7017
37.474478123414166 20.7396
37.49817275092816 20.6907
37.52168534303452 20.7125
37.54519957395567 20.5711
37.568715445024665 20.5541
37.592416694607714 20.4827
37.61593586281424 20.6058
37.63945667518264 20.5744
37.66297913304891 20.4731
37.68668702630454 20.4798
37.710212792059274 20.4499
37.733740207334854 20.3712
37.757269273470364 20.334
37.780983832050374 20.2844
37.80451621684926 20.2864
37.82805025654007 20.2536
37.851585952464795 20.1196
37.8753071980695 20.1362
37.89884622345676 20.0733
37.92238690911902 20.0802
37.94611318753442 19.9835
37.969657210779765 19.9709
37.99320289834801 19.989
38.016750251586465 20.0182
38.04048325513017 19.8815
38.06403395679343 19.8525
38.087586328183946 19.8632
38.11114037065203 19.8477
38.13488012115898 19.8183
38.1584375229181 19.7561
38.181996599821 19.768
38.205557353221124 19.6952
38.229303872575656 19.6802
38.2528679961576 19.7314
38.27643380031219 19.6577
38.30000128639589 19.5939
38.32375459653193 19.602999999999998
38.34732546371299 19.5729
38.37089801690786 19.4823
38.39447225747609 19.3792
38.418232380377425 19.4273
38.441810012983396 19.4556
38.46538933705673 19.3904
38.488970353960084 19.4618
38.51273731166058 19.3348
38.536321731567014 19.2662
38.55990784840681 19.2198
38.58367995004091 19.1588
38.60726947812959 19.1271
38.63086070726198 19.1392
38.654453638806274 19.1953
38.678232613930824 19.0927
38.70182896773327 19.0656
38.72542702806741 19.0467
38.7490267963045 19.0106
38.77281266709232 18.956
38.79641586862214 18.9995
38.8200207821842 18.9282
38.843627409152944 18.9181
38.86742019782782 18.8671
38.891030269149255 18.8549
38.914642058016156 18.7927
38.938255565806124 18.7713
38.96205529464307 18.7405
38.98567225787121 18.7473
39.00929094417078 18.7067
39.03291135492255 18.6803
39.05671804624804 18.6128
39.080341923549106 18.6172
39.103967529460334 18.525
39.127594865365744 18.4858
39.15140854155791 18.4037
39.17503935514948 18.4501
39.19867190290282 18.421
39.22249083587951 18.3813
39.24612686969409 18.3756
39.269764641845306 18.3656
39.293404153722804 18.3203
39.317230110864074 18.2664
39.34087311998506 18.248
39.36451787301696 18.2349
39.388164371352595 18.1652
39.41199737518003 18.1379
39.43564738196752 18.1204
39.45929913825317 18.1474
39.48295264543308 18.1173
39.506792718520884 18.0527
39.530449745387216 18.0434
39.55410852735203 17.9359
39.57776906581474 17.9924
39.60161623079 17.9262
39.625280300200025 17.9358
39.64894613032202 17.8985
39.67261372255866 17.8726
39.6964680021016 17.8846
39.72013913657293 17.8121
39.74381203738292 17.8224
39.76748670593756 17.7739
39.79134812278169 17.7967
39.81502634488497 17.7295
39.83870633896685 17.7239
39.862388106436654 17.6084
39.88625668336918 17.6031
39.90994201572829 17.6272
39.933629125719285 17.5721
39.957503091207826 17.5067
39.9811937746168 17.5723
40.00488623990914 17.5077
40.02858048850006 17.4204
40.05246165409549 17.4053
40.076159487492085 17.3885
40.099859108448875 17.4134
40.123560518384345 17.3937
40.1474489070226 17.2769
40.171153913178564 17.214000000000002
40.194860712584955 17.2491
40.2185693066637 17.2521
40.242464941335314 17.1733
40.26617714307655 17.2311
40.289891143772046 17.2128
40.3136069448471 17.1328
40.33750984859743 17.079
40.3612292688043 17.1036
40.3849504936829 16.9736
40.40867352466194 16.9521
40.43258372059144 16.9697
40.45631038219906 17.022000000000002
40.48003885420956 16.9034
40.503769138055105 16.9178
40.52768664931955 16.9189
40.55142057531802 16.859
40.57515631746428 16.8244
40.599079334038514 16.7618
40.62281872700477 16.7191
40.64655994043941 16.752
40.67030297578061 16.734
40.69423334835778 16.7084
40.71798004609188 16.6996
40.74172857006355 16.7123
40.76547892171441 16.6144
40.7894166736039 16.5755
40.813170699248566 16.5291
40.83692655691388 16.4796
40.86068424804498 16.5219
40.884629402612525 16.5415
40.908390779366385 16.4833
40.932153993938 16.4786
40.95591904777605 16.4179
40.979871628443995 16.4145
41.003640379561936 16.3323
41.02741097430883 16.3014
41.05118341413683 16.3211
41.075143444384416 16.285
41.098919593177826 16.3043
41.1226975914255 16.2854
41.14647744058318 16.2113
41.170444943946755 16.197
41.19422851378379 16.167
41.218013938914645 16.1298
41.24198706625173 16.0899
41.26577622087193 16.0911
41.289567235177785 16.1031
41.31336011063129 15.9894
41.337340752422875 15.9356
41.361137369129835 15.9417
41.38493585138705 15.905
41.40873620066004 15.8846
41.43272438060107 15.9078
41.45652848292052 15.8564
41.48033445666918 15.7778
41.50414230331616 15.7854
41.528138045159764 15.7876
41.551949656675205 15.709000000000001
41.575763145513235 15.6686
41.59957851314666 15.6677
41.62358184070442 15.6549
41.64740098505737 15.6638
41.6712220126409 15.6439
41.69504492493139 15.5806
41.71905586207357 15.5702
41.74288256296395 15.5345
41.766711153007456 15.552999999999999
41.79054163368412 15.4714
41.814560204340054 15.4804
41.838394485526365 15.4755
41.86223066180303 15.3803
41.88625497706819 15.3763
41.910094962812 15.3361
41.93393684811168 15.3307
41.95778063445365 15.2502
41.981812625263366 15.2319
42.00566023303407 15.2315
42.029509746323676 15.1967
42.05336116662236 15.2102
42.077400857069705 15.207
42.10125611078846 15.1927
42.12511327600405 15.1432
42.14897235421036 15.0895
42.173019768448455 15.0554
42.19688269209613 15.0214
42.22074753323349 14.9998
42.24461429335818 14.9879
42.268669455600495 14.9622
42.292540073217886 14.9599
42.31641261433284 14.9757
42.34028708044675 14.8879
42.36435001496739 14.9094
42.38822835065557 14.8688
42.41210861586426 14.8468
42.4359908120986 14.8325
42.46006154323262 14.7527
42.48394762115317 14.7549
42.507835634632315 14.7712
42.531912233047436 14.7223
42.55580413732265 14.7314
42.579697981698 14.6395
42.60359376768525 14.6105
42.62767820545945 14.5768
42.65157789440821 14.5497
42.67547952952185 14.5416
42.699383112316 14.5084
42.72347541395347 14.4504
42.74738291190531 14.4237
42.771292362102166 14.4708
42.795203766063516 14.4701
42.819303956130405 14.41
42.843219287476536 14.3965
42.86713657716324 14.3076
42.89105582671383 14.3625
42.91516392983864 14.3219
42.939087119032166 14.2446
42.963012272677304 14.2616
42.98693939230129 14.1869
43.01105543317513 14.1618
43.034986504731386 14.2184
43.05891954686589 14.2013
43.08285456110972 14.1711
43.10697856448665 14.0642
43.130917542983475 14.0508
43.15485849820081 14.0533
43.17880143167367 14.0197
43.20293342237094 14.0031
43.226880332449 13.9752
43.25082922540554 13.997
43.27496722682525 13.9943
43.29892010567796 13.9187
43.32287497204102 13.883
43.34683182745632 13.8516
43.370977859791836 13.8002
43.39493871351105 13.7971
43.41890156092628 13.8024
43.44286640358341 13.7805
43.46702049182749 13.7446
43.49098934522816 13.6782
43.51496019852649 13.6923
43.5389330532723 13.6763
43.56309522248204 13.6571
43.58707210044314 13.6411
43.61105098451946 13.5558
43.63503187626491 13.5875
43.659202151562134 13.5994
43.68318707902681 13.5379
43.70717401884041 13.4928
43.731162972560874 13.5188
43.75534137913236 13.4942
43.779334381108384 13.436
43.803329401683186 13.4288
43.82732644241872 13.3923
43.8515130055166 13.4142
43.87551410707659 13.3905
43.89951723350145 13.3464
43.923709934595614 13.3282
43.94771713129917 13.2636
43.97172635758096 13.2416
43.99573761501002 13.2257
44.0199385169922 13.2006
44.04395385732619 13.1702
44.067971233533086 13.1444
44.09199064718605 13.1433
44.11619977548961 13.0844
44.14022328470671 13.0682
44.16424883610785 13.0644
44.18827643127035 13.0882
44.21249381139513 13.0483
44.236525514814076 13.038
44.26055926674478 12.9938
44.28459506876863 13.0372
44.3088207262813 12.9692
44.33286064928722 12.8955
44.35690262714919 12.8808
44.38094666145278 12.8783
44.4051806219871 12.872
44.42922879003185 12.8149
44.45327901929361 12.8262
44.477331311362136 12.8165
44.501573600619416 12.7101
44.525630039221795 12.7495
44.54968854541895 12.7131
44.573937102200176 12.7025
44.5979997645541 12.6516
44.622064499300315 12.6592
44.64613130803592 12.6001
44.67038823869318 12.5764
44.69445921643748 12.5983
44.718532272981385 12.5497
44.742607409926194 12.5638
44.76687274034801 12.5303
44.79095205918753 12.449000000000002
44.81503346325094 12.4307
44.839116954143876 12.4157
44.86339071028742 12.4257
44.88747839599524 12.3771
44.91156817336837 12.3978
44.93566004401666 12.3888
44.959942251908146 12.3176
44.984038330325966 12.3151
45.00813650686762 12.2689
45.03223678314731 12.3296
45.05652746888232 12.2834
45.08063196592069 12.2265
45.104738567558705 12.2322
45.128847275414856 12.1762
45.15314646515866 12.1142
45.17725940679741 12.1327
45.20137445952892 12.1116
45.22568004865265 12.095
45.24979934496396 12.0792
45.27392075725247 12.0505
45.29804428714431 12.072000000000001
45.322358426247604 12.0025
45.346486212804315 11.9641
45.370616121861914 11.9685
45.39474815505086 11.9691
45.41907087049246 11.9288
45.4432071734666 11.9236
45.46734560548283 11.8981
45.49148616817604 11.934000000000001
45.51581748638564 11.9246
45.5399623320197 11.8418
45.56410931325473 11.8296
45.58825843173002 11.8107
45.61259837920865 11.7566
45.636751793816 11.7674
45.66090735060093 11.7203
45.68506505120716 11.692
45.7094136545275 11.654000000000002
45.73357566449271 11.6574
45.75773982322992 11.6515
45.78190613238733 11.6503
45.806263418194064 11.5788
45.83043404997326 11.5838
45.85460683713677 11.5823
45.87897065658495 11.5244
45.90314777634752 11.5145
45.92732705646868 11.4878
45.9515084986045 11.5158
45.97588104735473 11.4659
46.00006683541565 11.4136
46.02425479047904 11.4452
46.04844491420549 11.374
46.0728262191024 11.3727
46.09702070211635 11.3825
46.12121735879483 11.3405
46.14541619080294 11.319
46.169806278764455 11.322000000000001
46.194009483459034 11.288
46.21821486849841 11.2688
46.24242243555223 11.229000000000001
46.266821333570014 11.1888
46.29103328674601 11.2
46.31524742696538 11.2442
46.33946375590237 11.1416
46.36387149104216 11.1138
46.38809221957392 11.1007
46.41231514186606 11.0564
46.436540259597464 11.0665
46.460956858999374 11.0414
46.48518638983522 11.0071
46.509418121166966 11.0066
46.533652054678114 10.9811
46.55807754555709 10.9504
46.58231590571962 10.9731
46.60655647313217 10.9422
46.630988654873654 10.9049
46.655233659129024 10.8731
46.67948087571551 10.8164
46.70373030632484 10.8512
46.72817142736393 10.8364
46.752425308428684 10.7912
46.77668140861147 10.7981
46.80093972960865 10.7529
46.82538981736788 10.7247
46.849652602470904 10.7068
46.87391761349769 10.7152
46.8981848521493 10.7197
46.9226439341274 10.6739
46.946915650573224 10.6113
46.97118959976749 10.5936
46.99546578341598 10.5707
47.019933887188216 10.5967
47.04421456235744 10.600999999999999
47.06849747711879 10.5649
47.09278263318286 10.5355
47.11725978640143 10.4761
47.14154944775105 10.4916
47.165841355555656 10.4965
47.1901355115306 10.4819
47.214621741924994 10.4572
47.23892041698887 10.4197
47.26322134538975 10.3697
47.28771440635075 10.3864
47.31201986422527 10.3777
47.33632758061436 10.3158
47.360637557241866 10.3273
47.38513974410611 10.321
47.40945426407847 10.2571
47.43377104948137 10.2537
47.45809010204344 10.2602
47.48260144275502 10.2064
47.506925052572285 10.2095
47.53125093475548 10.1882
47.55557909103813 10.1611
47.58009961361992 10.1491
47.60443234110732 10.1239
47.62876734791564 10.1172
47.65310463578333 10.099
47.6776343683373 10.0576
47.7019762413987 10.0402
47.72632040075572 10.0342
47.75066684815169 10.0103
47.77520581885936 9.99996
47.799556865477655 10.0021
47.823910205386 9.94623
47.84826584033272 9.924560000000001
47.87281407745551 9.93104
47.89717432569297 9.93177
47.92153687423484 9.92714
47.94609208429692 9.903210000000001
47.97045925671401 9.85725
47.99482873471275 9.823789999999999
48.01920052005013 9.84105
48.04376504619224 9.82982
48.068141469543484 9.79916
48.09252020552573 9.808810000000001
48.11690125590099 9.750689999999999
48.1414751266064 9.75155
48.16586082917454 9.729230000000001
48.19024885144316 9.68707
48.2146391951793 9.66592
48.239222439012764 9.693439999999999
48.26361744916137 9.66949
48.28801478610016 9.64297
48.31241445160131 9.60863
48.337007097209366 9.59473
48.36141144338331 9.58987
48.38581812345755 9.53412
48.41022713920929 9.53074
48.434829215320704 9.539860000000001
48.45924292604658 9.52251
48.48365897780325 9.49418
48.50807737237308 9.46857
48.532688907799276 9.45625
48.55711201168574 9.43268
48.581537463754074 9.43421
48.60615611725119 9.44442
48.63058628942721 9.38888
48.65501881516546 9.37925
48.6794536962573 9.3613
48.70408185970339 9.32493
48.72852147531801 9.32399
48.75296345168211 9.29335
48.77740779059232 9.28622
48.80204549302823 9.32961
48.82649458091802 9.2678
48.85094603676547 9.20394
48.87539986237231 9.20262
48.90004713292306 9.222489999999999
48.92450572200832 9.174430000000001
48.94896668628025 9.1695
48.97343002754588 9.13527
48.99808689542115 9.10121
49.02255501470614 9.091569999999999
49.04702551642794 9.11625
49.0714984023988 9.11438
49.096164896893235 9.08359
49.120642575466796 9.05171
49.145122643748394 9.03342
49.16960510355558 9.00956
49.19428125404938 8.97208
49.2187685210852 8.99456
49.243258185121555 8.97242
49.26794160167084 8.9532
49.2924360839405 8.94477
49.31693296869764 8.90692
49.34143225776915 8.90692
49.36612538195438 8.863710000000001
49.39062950396021 8.84965
49.41513603578346 8.84741
49.4396449792564 8.82188
49.46434784069503 8.8228
49.488861631846454 8.76325
49.513377840166804 8.73025
49.537896467493745 8.74918
49.56260909589029 8.73542
49.587132585683285 8.73444
49.611658500018365 8.6935
49.636186840738596 8.70262
49.66090926588511 8.66896
49.685442483902584 8.64432
49.70997813385706 8.66645
49.734516217597076 8.613430000000001
49.75924846937352 8.58772
49.7837914452858 8.568589999999999
49.80833686055187 8.55457
49.83288471702571 8.56237
49.85762682540054 8.52851
49.882179588965734 8.52608
49.9067347993235 8.49376
49.93129245833333 8.49664
49.95604445336378 8.48361
49.98060703442832 8.42211
50.005172069746266 8.45227
50.02993150438364 8.40215
50.05450147301533 8.43067
50.07907390151433 8.38309
50.10364879174981 8.356689999999999
50.12841816587289 8.35115
50.1529980044635 8.32435
50.17758031042124 8.31788
50.20216508562089 8.33378
50.22694442953363 8.30985
50.25153416817468 8.27145
50.27612638170508 8.24339
50.300721072005196 8.24262
50.325510416102105 8.21718
50.350110084975064 8.18175
50.37471223628208 8.182789999999999
50.39931687190919 8.16772
50.424116246675766 8.17121
50.44872587605249 8.15312
50.47333799543065 8.128789999999999
50.49795260670191 8.13031
50.52276204271512 8.10465
50.54738166295838 8.079880000000001
50.57200378079314 8.07877
50.596628398116835 8.05615
50.62144792604559 8.06011
50.646077567609396 8.02886
50.670709714377715 8.029580000000001
50.69553683636198 8.02283
50.72017401885922 8.01341
50.7448137122895 7.9665
50.76945591856022 7.9655
50.79429318636823 7.9000699999999995
50.818940443716784 7.938510000000001
50.84359021965163 7.909560000000001
50.868242516085964 7.893960000000001
50.893089960641895 7.8421899999999996
50.917747323549435 7.836360000000001
50.94240721271973 7.888489999999999
50.96706963007175 7.83294
50.99192728239342 7.7957600000000005
51.01659478166073 7.78835
51.04126481489051 7.78016
51.06593738400761 7.7682199999999995
51.090805275207074 7.75318
51.11548294172845 7.73475
51.14016314993547 7.7300699999999996
51.164845901758845 7.73435
51.18972406304274 7.6836899999999995
51.21441192780656 7.675330000000001
51.23910234200271 7.66953
51.2637953075678 7.64198
51.288683770237945 7.62714
51.31338186432707 7.6006
51.33808251561888 7.56774
51.362978729967345 7.57325
51.387684521509755 7.55271
51.41239287610203 7.54736
51.437103795691165 7.55485
51.46201036644977 7.52425
51.486726441956634 7.5011399999999995
51.51144508832545 7.47612
51.536166307509156 7.459230000000001
51.56108326624387 7.43934
51.58580965706056 7.45372
51.61053862657523 7.42713
51.635270176746864 7.38053
51.66019755512065 7.38127
51.68493429268881 7.38127
51.70967361681515 7.348439999999999
51.73441552946465 7.3425
51.759353359237934 7.32552
51.7841004750961 7.32252
51.80885018539685 7.34466
51.833602492111254 7.27751
51.8585508051424 7.28447
51.883308330926425 7.2771300000000005
51.90806845906181 7.25303
51.932831191525715 7.210489999999999
51.95779001977161 7.1818800000000005
51.98255798721516 7.22385
52.00732856494335 7.1532100000000005
52.03229530577543 7.192139999999999
52.057071130455945 7.12787
52.081849571391054 7.1171
52.106630630568695 7.10884
52.13160794279417 7.108060000000001
52.15639426492067 7.1025100000000005
52.18118321127822 7.11448
52.205974783860896 7.0915
52.23096269971011 7.05503
52.255759551287994 7.0547
52.280559035098186 7.028339999999999
52.30536115314103 6.98608
52.33035970494467 6.994460000000001
52.35516711807904 7.003539999999999
52.37997717147198 6.995089999999999
52.40478986713005 6.94337
52.42979908731974 6.89809
52.454617094216 6.92732
52.47943774942214 6.89801
52.50426105495102 6.9049
52.529280976059844 6.88285
52.554109609024096 6.867839999999999
52.57894089837482 6.8417699999999995
52.60377484613117 6.83632
52.62880550079408 6.82936
52.65364479223379 6.78499
52.67848674816189 6.77073
52.70352547971946 6.76498
52.72837279155837 6.759060000000001
52.753222773982785 6.7220699999999995
52.778075429022984 6.6946
52.80312495150885 6.71621
52.827982978797436 6.71218
52.85284368481815 6.72602
52.87770707160767 6.703930000000001
52.90276741793998 6.694139999999999
52.92763619336701 6.638999999999999
52.952507655698504 6.61083
52.977381806977576 6.62587
53.00245301017842 6.659689999999999
53.02733256653592 6.606510000000001
53.052214817996074 6.599810000000001
53.077099766608484 6.576980000000001
53.102181859804446 6.55195
53.127072229988265 6.580889999999999
53.15196530349892 6.5414900000000005
53.17686108239249 6.49725
53.20195409881522 6.4821800000000005
53.22685531582556 6.49854
53.25175924441303 6.46973
53.27666588664027 6.45636
53.30176985962693 6.4096
53.3266819565689 6.38695
53.35159677336455 6.43096
53.376514312083096 6.3834599999999995
53.40162927507703 6.420059999999999
53.42655228516116 6.3857800000000005
53.45147802340193 6.37844
53.47660125628886 6.35986
53.50153247842639 6.31993
53.52646643496923 6.289630000000001
53.55140312799818 6.31175
53.576537409691696 6.28903
53.60147960336152 6.29686
53.626424539786164 6.2468699999999995
53.65137222105307 6.2397800000000005
53.67651758529126 6.20886
53.70147078399681 6.24049
53.72642673383343 6.21783
53.75138543689533 6.2022699999999995
53.776541917524526 6.2254
53.801506154876755 6.2064900000000005
53.826473151763246 6.20376
53.851442910284916 6.14262
53.87661054126026 6.11201
53.9015858509782 6.15676
53.92656392866066 6.0936
53.95154477641532 6.1117099999999995
53.976723591801296 6.07799
54.00171000771266 6.06043
54.02669920004598 6.05703
54.051691170915745 6.038469999999999
54.076881204886796 6.00819
54.101878760928514 6.01687
54.12687910187696 5.96704
54.152077577768296 5.95493
54.1770835166946 5.9732
54.20209224691339 5.97167
54.22710377055121 5.92746
54.25231352511594 5.87862
54.27733066384342 5.8785300000000005
54.30235060239643 5.912640000000001
54.32737334290836 5.8642900000000004
54.35259441062629 5.8503099999999995
54.377622783395324 5.83286
54.40265396455061 5.81445
54.42768795623251 5.8152
54.45292037169559 5.77038
54.477960012857906 5.75148
54.50300247099511 5.77302
54.52804774825457 5.79
54.55329154616743 5.72205
54.57834249018678 5.73116
54.6033962597977 5.701230000000001
54.6284528571545 5.65857
54.653708072335164 5.59262
54.67877035378786 5.673780000000001
54.70383546947698 5.65109
54.72890342156389 5.57179
54.7541700889442 5.58289
54.77924374251975 5.57249
54.8043202390049 5.53675
54.82959552413022 5.49069
54.8546777351945 5.48453
54.87976279569621 5.45412
54.90485070780914 5.48606
54.930137506558005 5.43885
54.95523115074295 5.4341099999999996
54.98032765308844 5.41904
55.005427015775496 5.3265199999999995
55.03072536339621 5.4051800000000005
55.05583047570572 5.327719999999999
55.080938454927676 5.3207699999999996
55.10604930325027 5.30035
55.131359235107396 5.2769
55.15647585066083 5.25826
55.181595341907496 5.22516
55.20671771104285 5.2221
55.232039262617704 5.18118
55.25716741665048 5.14412
55.28229845518636 5.16374
55.30743238042802 5.077719999999999
55.33276558731939 5.13049
55.357905315183636 5.0883199999999995
55.383047936390035 5.0022199999999994
55.40819345314859 5.02824
55.433538351073295 5.04623
55.458689688238415 5.00965
55.483843927614096 4.9570300000000005
55.509197623043605 4.95844
55.53435769621134 4.86482
55.55952067826466 4.9145900000000005
55.5846865714265 4.8951
55.61005202069737 4.877619999999999
55.63522376553902 4.86905
55.66039842818645 4.81945
55.68557601087004 4.854769999999999
55.7109532500271 4.699990000000001
55.73613670233794 4.7531099999999995
