TT I
1.2716486653135266 7.5277199999999995
1.2939594142134223 7.11252
1.3162702121660406 6.51008
1.3385810600174564 6.73888
1.3608919586137629 6.64836
1.383202908801069 6.22443
1.405513911425503 6.4189
1.4278249673332093 6.47446
1.4501343378461518 5.6723300000000005
1.4724455028545926 5.72665
1.4947567236847858 5.73307
1.517068001182951 5.59467
1.5393793361953272 5.8824
1.5616907295681737 5.19421
1.5840021821477681 5.35904
1.60631369478041 5.29195
1.6286252683124185 5.07146
1.6509369035901333 4.9063300000000005
1.6732468618895553 4.657
1.695558623192809 4.28774
1.7178704487808514 4.87489
1.7401823395001077 4.60415
1.7625012545597203 4.82097
1.7848028405262486 4.84425
1.8071218901122095 4.82784
1.8294236121921872 4.19845
1.8517427996910911 4.26459
1.8740620574440425 4.57679
1.8963639900671978 4.81476
1.9186833908139995 4.46164
1.9409854680117449 5.24825
1.9633050151394713 5.10491
1.9856246367570705 4.79459
2.0079269371922672 4.60813
2.03024671027244 4.65751
2.0525491637446027 4.62863
2.074869091674931 4.2190900000000005
2.097171701569106 4.488569999999999
2.1194917877373847 5.08084
2.141811954326636 4.92628
2.164114805233074 5.18158
2.186435135143035 5.97197
2.208738150935709 14.6103
2.231058647554722 29.7617
2.2533792288321184 22.7595
2.275682498336085 10.236
2.298003251406138 6.263380000000001
2.3203066942619714 5.5810900000000006
2.3426276225136022 5.99975
2.3649486396617507 5.71414
2.387252348930071 6.11278
2.4095735463442893 6.28081
2.4318774374315884 6.253769999999999
2.4541988185014043 6.49343
2.476502894794693 8.08779
2.498824462909887 7.19605
2.521146125856138 7.5327
2.5434504863470337 7.90607
2.5657723414244717 8.51753
2.588076895590662 8.423789999999999
2.610398946189713 9.0607
2.6327210958598384 8.19537
2.6550259469304716 8.63333
2.6773482972090137 8.28621
2.6996533504259 9.02375
2.7219759047039602 8.61759
2.744298562293959 8.48275
2.7666039251246595 8.35116
2.7889267918020164 8.308819999999999
2.8112323652516555 8.44639
2.833555444408179 8.56506
2.8558786311183852 8.640419999999999
2.8781845268938557 8.99898
2.9005079311721484 9.23547
2.9228140460410397 9.24499
2.9451376712799635 9.84425
2.967444008632326 10.0156
2.9897678582247247 9.729460000000001
3.0120918213106695 10.8068
3.0343984987899373 10.7648
3.0567226913198637 11.5606
3.079029599759726 11.8688
3.101354025127254 12.6479
3.123678568232338 14.0081
3.145985829517914 13.5179
3.16831061055229 14.1116
3.1906181112775593 14.7786
3.212943133635653 14.8915
3.2352682779763207 15.1641
3.2575761442691227 15.767000000000001
3.2799015350264273 15.9148
3.302209649240067 16.339000000000002
3.3245352898092655 16.8276
3.3468436553365257 17.7495
3.369169549113219 17.5768
3.3914955708171384 18.51
3.413804319727358 18.9349
3.4361305997334863 19.0896
3.4584396084414553 19.6515
3.4807661501462652 20.6569
3.503092824025881 21.2029
3.5254022288463154 21.0144
3.5477291695206588 21.866999999999997
3.5700388426251948 22.5368
3.5923660534916446 24.2501
3.6146934007816114 39.0659
3.637003482731501 89.5316
3.6593311053109985 100.635
3.681641464033634 58.3354
3.7039693653009733 30.8198
3.726297407241705 26.399
3.7486081875460804 25.6549
3.7709365132734978 25.7535
3.793247578841633 26.3447
3.8155761917550093 26.7424
3.8378875459837216 27.1648
3.8602164494827234 27.5579
3.882545499606844 28.1109
3.9048572932539183 29.1616
3.9271866390645718 29.2404
3.9494987298666713 29.8234
3.971828374764527 30.0407
3.9941581705403255 30.6368
4.016470713506008 31.2876
4.038800813471445 31.9607
4.061113662089144 32.8666
4.0834440696459176 33.1527
4.105774632334751 33.7103
4.128087945865126 34.3537
4.150418821249301 35.6502
4.172732448931298 37.0209
4.195063640413578 38.5349
4.2173775856475215 42.5507
4.239709096631102 74.9572
4.262040768704612 243.92
4.284355196706267 328.353
4.306687193387355 216.075
4.329001947444346 83.8505
4.35133427213731 48.0557
4.373666762177566 44.108999999999995
4.395982011761091 43.9737
4.418314834921175 45.1196
4.44063041906622 53.528999999999996
4.4629635787515625 65.0102
4.4852969080429785 64.8012
4.5076130004776225 53.8794
4.529946671403969 49.5657
4.552263106909177 49.7145
4.574597122877047 50.7386
4.596931312711224 51.4499
4.619248269273446 52.4884
4.6415828092605835 53.4324
4.663900117405352 54.5097
4.686235010953232 56.0326
4.708552674085913 57.251999999999995
4.730887924602802 58.6463
4.753223354952695 59.8596
4.775541557023902 61.2452
4.797877349456786 62.5104
4.820195915032126 64.99600000000001
4.842532072957498 65.9551
4.864868414979744 67.8185
4.88718753227192 69.8442
4.909524244902505 71.8436
4.931843734218147 73.2905
4.954180820867835 75.7486
4.976518095879839 78.7329
4.998838149695359 80.975
5.021175803844231 84.3008
5.043496238205739 86.9245
5.065834274903528 91.148
5.088172504230693 96.0488
5.1104935158799565 101.575
5.132832132875765 121.55
5.155153533596801 163.092
5.1774925416746225 190.805
5.199814334878411 275.315
5.2221537374521505 732.5830000000001
5.244493338631803 2340.2
5.266815727034316 7580.2
5.289155727832427 13517.3
5.311478517248165 9038.63
5.333818921080011 2824.63
5.356159527788849 521.4730000000001
5.3784829252032536 172.62099999999998
5.400823940070432 137.72299999999998
5.423147747031976 123.62799999999999
5.445489173474152 115.35600000000001
5.467830807066149 109.932
5.490155234831516 106.603
5.512497285125229 103.197
5.534822130975162 101.596
5.557164601388673 99.4312
5.579489868738879 97.5302
5.601832762690846 96.0797
5.6241758697774475 95.1931
5.646501775867269 94.0986
5.668845311622074 92.6915
5.691171647754637 91.9996
5.713515615597765 90.8621
5.735859800852677 89.8505
5.758186788542988 89.2627
5.780531411018185 89.6605
5.802858837297399 88.5126
5.825203900414495 88.6538
5.8475491852224 88.4487
5.869877275883075 88.9274
5.892223006467101 90.0349
5.914551544266608 90.5009
5.936897724049891 92.1657
5.959244129804903 96.4412
5.981573344815301 108.065
6.0039202049061 169.519
6.026249875609095 356.72900000000004
6.04859719346037 792.6239999999999
6.070927323278297 2095.32
6.093275102315365 4601.32
6.115623113320588 5380.28
6.137953938319995 3182.11
6.160302415650845 925.747
6.182633708324452 216.114
6.2049826554078376 107.325
6.227331838745022 89.0818
6.249663839443684 82.571
6.27201349767565 80.7981
6.294345974611799 87.6353
6.316696111167083 99.734
6.339046488263839 94.4731
6.361379686074702 78.8542
6.383730546639482 71.203
6.406064229255215 67.6091
6.428415576718203 67.006
6.450749747566656 66.2136
6.47310158535871 65.1883
6.495453669698332 64.5667
6.517788579421056 63.9381
6.540141159237969 62.8644
6.562476565766648 62.5071
6.5848296444934045 62.0432
6.607182974060425 61.49
6.6295191323281015 61.8011
6.651872965955752 66.1346
6.6742096296068985 92.5603
6.6965639707294615 140.378
6.71891856698715 140.372
6.741255995248479 95.3781
6.763611104154477 67.903
6.785949046381137 59.8744
6.808304671371482 57.7448
6.8306605557940046 57.8069
6.852999275508618 56.9447
6.875355681171544 55.9924
6.897694923437771 56.0738
6.92005185377892 55.5835
6.9423916220322655 55.8799
6.964749080490181 55.0886
6.987106804399774 54.9082
7.009447368180821 54.9383
7.031805625367033 54.7757
7.054146723727803 54.7484
7.076505517631004 54.685
7.098864581288365 54.5514
7.121206488070854 54.2786
7.143566093607822 54.1691
7.165908543567245 54.3998
7.188268694426048 54.6026
7.2106291193438095 54.6993
7.232972390625943 56.342
7.255333366030969 69.9326
7.277677189091925 126.625
7.300038718428332 175.053
7.322400526130865 147.316
7.344745183422596 89.8717
7.367107550224791 61.6432
7.389452767901992 55.6595
7.411815697249891 54.8259
7.434161478756298 53.875
7.456524974096713 53.7773
7.478888753837185 53.7678
7.501235387657368 53.9638
7.523599738562711 54.0727
7.545946944825532 54.0352
7.568311870344528 54.6141
7.5906770845765665 54.631
7.613025156078678 56.0822
7.635390950099687 57.5523
7.657739602662809 56.7611
7.680105979923558 55.3578
7.702472650212829 55.348
7.724822180948224 54.9821
7.747189439655568 55.5785
7.769539560075357 55.0739
7.791907410653562 55.5195
7.81425812420825 55.7357
7.836626570110925 55.9803
7.858995315087906 56.6905
7.881346924933401 56.7839
7.903716270417482 57.7636
7.926068482028405 57.8522
7.948438431475253 58.0686
7.9708086843180235 58.6395
7.993161805171116 59.3181
8.015532667162402 60.0611
8.037886398416653 60.7885
8.060257873014221 60.87
8.082629655331942 62.067
8.104984308787587 62.6551
8.127356708900503 66.2474
8.149711981398308 71.9462
8.172085002766314 74.1777
8.194458336181368 71.1004
8.216814543847752 68.6312
8.23918850371002 68.0516
8.26154533906492 68.5951
8.283919928836452 70.1716
8.306277395339652 71.1492
8.328652618483376 72.5919
8.351028159736202 74.2954
8.373386579575245 76.5512
8.395762759396959 78.3267
8.418121819038275 82.9147
8.440498640894003 96.176
8.462875785192262 109.678
8.485235811156207 116.65100000000001
8.507613602688501 142.11700000000002
8.529974277114228 211.351
8.552352719347912 328.11699999999996
8.574731488360351 575.118
8.59709314210385 1130.48
8.619472567021075 1899.41
8.64183487789147 2291.6
8.664214962183097 1820.2
8.686577933647762 930.705
8.708958680784317 354.93300000000005
8.731339760774953 159.481
8.753703729764451 108.124
8.77608547780821 96.3373
8.798450116065078 92.9729
8.820832535634787 90.7087
8.843215292401656 89.15799999999999
8.865580941199045 87.3652
8.887964374703538 86.819
8.910330701447199 88.1344
8.932714815164482 90.4914
8.955099270424924 90.0029
8.977466620733543 86.6258
8.999851761421976 83.7558
9.022219798361645 82.3184
9.04460562795561 81.8436
9.066991803441677 81.426
9.089360876979615 81.10600000000001
9.111747746589993 80.9887
9.13411751544971 80.2714
9.156505082664324 80.1701
9.178875550323522 80.7115
9.20126381862328 80.7781
9.223652438908596 81.4082
9.246023961427412 81.5068
9.26841328802173 80.6558
9.290785518039224 80.3307
9.313175554425882 81.1091
9.335565947154315 80.6296
9.357939245086508 80.8278
9.380330352834827 81.3086
9.40270436697103 81.3725
9.425096193225055 81.3254
9.447488380180165 82.3983
9.469863475295412 82.4071
9.492256385987508 83.0206
9.514632206018318 83.9701
9.537025843935714 83.9822
9.559402392368193 84.3332
9.581796761000229 85.6453
9.604191496441521 86.5228
9.626569144158516 89.6549
9.648964615551032 94.7269
9.671343000390081 96.5974
9.693739211225699 94.3733
9.716135793237463 91.8474
9.738515290448102 90.9842
9.760912617143402 92.0711
9.783292860202891 93.2272
9.805690935076182 94.2069
9.828089385495742 94.9941
9.850470754023561 97.6754
9.872869957865444 105.704
9.89525208097539 120.524
9.917652041736662 132.871
9.940052382417589 131.333
9.962435644102392 131.191
9.984836746950979 154.44799999999998
10.007220771957746 206.40400000000002
10.029622640473708 295.019
10.052007432299963 468.736
10.074410069984072 763.9789999999999
10.096813093716005 1260.23
10.119199042482517 1773.8
10.141602840636468 1990.1
10.163989564971628 1525.0
10.186394141051062 840.922
10.208799107559706 358.945
10.231187001965623 175.31099999999998
10.253592751657669 122.07
10.275981430388155 110.271
10.298387966769793 110.171
10.320794897965431 113.135
10.343184759907361 111.946
10.36559248305461 106.677
10.387983138083852 101.99600000000001
10.410391656691655 102.605
10.432800574501677 110.27
10.455192425893369 122.95
10.47760214443012 146.72799999999998
10.499994797678786 189.74099999999999
10.522405320453982 270.922
10.54479877906917 402.403
10.567210109595656 527.515
10.5896218454736 588.115
10.612016518879773 501.73699999999997
10.634429067781074 347.602
10.656824555333241 196.649
10.679237920773568 120.63799999999999
10.701651695961992 94.1432
10.724048411481384 87.3367
10.746463008485165 84.6349
10.768860546937125 83.29299999999999
10.791275969274796 81.4637
10.81369180576079 80.684
10.836090585366925 79.4161
10.858507252467449 78.2058
10.88090686379991 77.2997
10.903324365036394 76.9874
10.925724811614439 76.9329
10.948143150509463 78.1842
10.970561909719066 77.5801
10.992963615930844 75.5457
11.015383218085756 73.5034
11.037785768347074 71.9594
11.06020621697282 71.5333
11.082627090322113 71.1099
11.105030913430326 70.5899
11.12745263854165 71.078
11.149857314510728 75.0409
11.172279894912576 80.8503
11.194702904450653 81.4516
11.217108866490921 77.5594
11.239532736615194 72.9113
11.26193956033512 70.8617
11.284364294577085 69.1248
11.306789462371718 66.8631
11.329197585398376 65.6907
11.351623622610898 65.5812
11.37403261614354 65.1725
11.396459526308487 64.7157
11.418869393879497 64.5063
11.441297180532617 64.0659
11.463725406927658 63.7786
11.486136592353875 63.4938
11.508565700543707 64.3355
11.530977768845315 66.113
11.553407762368774 67.1363
11.575838200059769 66.324
11.598251599479612 64.4478
11.620682927815501 62.8659
11.64309721895548 62.5224
11.665529441478206 61.9022
11.687962112597958 61.8995
11.710377748130886 61.8039
11.732811318753434 61.6825
11.755227854859067 61.5888
11.777662328529495 61.7141
11.800079768750786 61.4914
11.822515149015453 61.4756
11.844950984084935 61.5073
11.867369787303163 61.2265
11.889806534289491 61.3221
11.912226250487029 61.5054
11.934663912939751 61.5669
11.9571020346363 61.4983
11.979523127133968 61.5022
12.001962169624331 62.1412
12.024384183972964 62.784
12.046824150809913 64.9699
12.069264581333726 69.2563
12.091687985297767 74.8987
12.11412934550045 83.7607
12.136553680195208 98.4583
12.158995973632788 122.73299999999999
12.181438735204349 153.30200000000002
12.20386447284199 186.532
12.226308172985636 205.87900000000002
12.24873485024193 200.358
12.271179492516982 162.452
12.293607112949127 124.07600000000001
12.316052700916226 96.4569
12.338498763250042 77.4825
12.360927805303868 69.4265
12.383374818673879 65.4134
12.405804812803074 63.5162
12.428252780773262 63.196999999999996
12.45070122756722 63.3743
12.473132656675375 62.9426
12.49558206341869 63.0265
12.518014453510101 63.4282
12.540464823770117 63.3268
12.562915677315177 63.4205
12.58534951575545 64.3908
12.607801338171472 66.2492
12.630236146511358 71.9226
12.652688941369085 76.7888
12.675124723177234 76.9359
12.697578494048786 73.0452
12.720032754458185 68.7469
12.742470003354093 66.8168
12.764925245138771 66.3459
12.787363476431278 66.4464
12.809819703166806 66.7836
12.83227642391173 67.5967
12.854716135692716 68.181
12.877173846755147 69.37899999999999
12.899614549869717 69.5784
12.9220732548287 70.3782
12.94453245827299 70.6434
12.966974655289818 71.5113
12.989434858002571 72.3584
13.011878055298721 73.1376
13.034339260862497 74.0258
13.056800969391883 75.0211
13.079245674017244 76.7306
13.101708390774869 78.3222
13.12415410463411 83.6524
13.146617833206086 92.9863
13.169064559883248 103.431
13.191529303857127 117.02
13.213994557076367 137.924
13.236442809902437 174.287
13.258909083908291 232.59400000000002
13.28135835851934 304.585
13.30382565690295 380.005
13.326293469022952 434.04400000000004
13.348744283242008 427.43699999999995
13.371213125129904 346.73400000000004
13.39366497011003 247.18900000000002
13.416134845360597 167.87
13.438605238843131 119.19200000000001
13.46105863690397 101.11399999999999
13.483530069144786 99.6797
13.505984506951902 103.7
13.528456981549432 112.287
13.550929978879088 126.15899999999999
13.573385983253365 149.285
13.595860028340867 189.24900000000002
13.618317081455832 247.12400000000002
13.64079217790333 311.47
13.663250283359057 361.064
13.685726434770173 374.75300000000004
13.708203115221277 329.709
13.730662806148091 251.57299999999998
13.75314054697177 177.202
13.775601299246777 124.257
13.798080104050406 94.7718
13.820559442405358 83.6598
13.843021793671388 79.8739
13.865502201420897 78.4719
13.887965623051947 77.9749
13.910447103807167 76.7753
13.932929122629764 75.6831
13.955394156785959 75.1062
13.977877254034569 74.2877
14.000343367582113 73.593
14.022827546871707 72.7157
14.045294743423524 72.3612
14.06778000837062 71.7229
14.090265817715476 71.607
14.112734645763819 70.854
14.13522154619454 70.8149
14.157691466286913 71.0398
14.180179461423874 70.7966
14.202668005486178 70.2413
14.22513957064374 69.3594
14.247629214846473 68.835
14.270101881097517 68.7011
14.29259262906496 69.1894
14.315083930490205 69.9382
14.337558255389705 69.9725
14.360050666019726 69.9369
14.382526101071944 68.7265
14.405019624534942 68.0739
14.427513705993134 67.3318
14.449990813291825 67.3328
14.47248601302899 67.2604
14.49496423954951 67.1804
14.517460561197822 67.2234
14.539939910570322 67.031
14.562437357763558 67.3114
14.58493536931253 68.881
14.607416409993311 69.6757
14.62991555254159 70.1336
14.652397725157423 69.8921
14.674898002342799 69.5307
14.697398848433282 69.1305
14.719882725991326 69.3579
14.74238471217934 69.6196
14.764869730765593 72.0964
14.787372860692983 74.8941
14.809876564079925 78.7033
14.83236330125751 83.9262
14.854868153850365 91.8712
14.877356041159485 105.484
14.899862046604186 124.65100000000001
14.922351087688757 151.49200000000002
14.944858249632887 184.229
14.967365991421232 213.602
14.989856770231246 229.33700000000002
15.012365673994204 218.408
15.03485761569738 185.003
15.05736768508665 146.556
15.07987833888692 110.97200000000001
15.102372032001655 87.7642
15.124883856909658 75.0244
15.14737872204565 70.7628
15.169891721717274 69.1716
15.192405310371893 68.9308
15.214901940621196 69.4351
15.237416709527137 69.5688
15.259914520936249 69.7964
15.282430473753607 68.71
15.304947020131227 67.5929
15.327446610371178 66.7808
15.349964346154254 65.8487
15.372465126703139 65.6739
15.394984055556009 65.3094
15.417486030076159 65.1847
15.44000615566487 64.6675
15.462526881230803 64.8161
15.485030653812652 64.8825
15.507552581617434 64.8897
15.530057557334603 64.9207
15.55258069104857 64.8289
15.575104429329837 64.8526
15.597611216864632 64.3486
15.620136166564563 64.6215
15.6426441664095 65.1273
15.665170331202765 66.5609
15.687697105158826 68.9748
15.710206930593545 71.9238
15.732734925158933 75.7499
15.755245972089478 81.3568
15.77777519094324 90.2329
15.800287463046663 103.296
15.822817909869592 123.824
15.84534897229804 148.334
15.867863089299354 174.593
15.890395385222186 192.755
15.912910736597423 198.14700000000002
15.935444269699861 181.69400000000002
15.957978423016485 150.849
15.980495633101265 119.958
16.003031029129367 94.1479
16.02554948280019 76.1068
16.048086125229432 66.7433
16.070623392487107 64.0653
16.09314371869582 63.3184
16.11568223789321 62.43
16.13820381691126 61.325
16.160743591742527 60.4052
16.183283996022084 59.6176
16.205807461423195 58.373999999999995
16.228349126881973 57.8225
16.25087385432698 57.835
16.27341678466365 57.1614
16.29594277784926 57.0181
16.31848697676433 57.52
16.341031811604868 57.8287
16.36355971058487 58.1345
16.3861058195587 57.8242
16.40863499352978 56.6934
16.431182380342005 55.8197
16.453730407713202 55.2776
16.476261501364792 54.9297
16.498810812136167 54.556000000000004
16.52134319004079 54.4963
16.54389378792203 54.2294
16.566445031001553 54.0451
16.588979342490088 53.9868
16.61153187824822 53.9415
16.634067483263312 53.7377
16.656621315414416 53.7394
16.679175797408888 53.5521
16.701713349928728 53.423
16.72426913389191 53.8105
16.74680798922351 53.9343
16.76936507887444 53.788000000000004
16.791905240734874 53.9797
16.814463639794468 53.8667
16.837022695210294 53.8633
16.859564824093756 54.1858
16.882125194503903 54.8039
16.904668639217885 55.6787
16.927230328348003 55.8039
16.949792678493612 55.8296
16.972338104193863 55.2857
16.994901778652235 54.6625
17.017448529496576 54.4899
17.040013531998152 54.5109
17.06257920018044 54.8913
17.0851279459922 55.3154
17.107694947817667 56.2534
17.130245028099072 57.0082
17.15281336730298 58.4682
17.17536478578733 59.8089
17.19793446610687 61.816
17.220504818648422 65.0827
17.243058251703697 68.7202
17.265629950971032 73.5865
17.288184731571736 78.3818
17.310757781306908 82.1956
17.33333150794385 82.7504
17.355888317140174 80.2204
17.37846339986244 75.221
17.401021565958885 69.0758
17.42359800851343 64.1231
17.44617513265564 60.6528
17.468735341390783 58.7118
17.491261035594565 57.9261
17.51396340099364 57.4755
17.536490463869136 57.693000000000005
17.559018209820174 57.8734
17.58154663977963 58.0324
17.604251766089718 58.2125
17.626781572227713 58.3721
17.64931206518155 58.5123
17.671843245885103 59.068999999999996
17.69455114821572 59.3452
17.717083712612634 59.6028
17.739616967569667 59.5504
17.762150914021706 59.912
17.78486160749854 59.8489
17.807396945166804 60.6789
17.829932977143503 61.1032
17.85246970436452 62.1428
17.875183204129467 63.7581
17.897721330097664 65.6491
17.920260154126645 67.8829
17.942799677153296 70.683
17.9655159983646 74.06
17.988056927677544 79.3971
18.010598558807683 86.9975
18.033140892692916 97.8138
18.05586005052525 110.213
18.07840379824407 122.615
18.10094825154059 132.041
18.12366954819864 137.718
18.146215420998306 135.168
18.16876200220057 124.62200000000001
18.191309292745153 111.186
18.214033452627167 98.76899999999999
18.236582170236648 88.1594
18.259131600016456 83.5363
18.281681742907335 84.1855
18.304408781233683 89.1417
18.32696035875955 95.1555
18.349512652227624 100.265
18.372065662579683 105.191
18.394795594587553 105.49600000000001
18.41735004715306 101.01799999999999
18.43990521943684 93.8544
18.46246111238171 84.6524
18.485193953325208 75.4321
18.507751296070428 68.362
18.530309362314178 64.5086
18.552868153000343 62.3614
18.57560391815056 60.8492
18.59816416623245 60.4117
18.620725141597372 60.0455
18.643286845190268 59.5729
18.666025549835414 59.0916
18.688588718427933 58.7505
18.711152618092243 58.5506
18.73389353884365 58.2106
18.75645890921984 57.8048
18.77902501351406 57.5544
18.801591852673102 57.4939
18.824335739722738 57.083
18.846904057212626 57.0569
18.8694731124168 56.7126
18.89204290628315 56.4357
18.914789774966803 56.3541
18.937361054791623 56.1245
18.959933076131318 55.8955
18.982505839934877 55.9358
19.00525570560582 55.9579
19.027829963004184 55.7351
19.05040496572238 55.7346
19.072980714710468 55.9322
19.095733592739563 55.8518
19.11831084296757 55.9592
19.140888842324735 56.4205
19.16346759176222 56.7303
19.18622349753803 57.2473
19.208803755869358 58.0772
19.231384767143577 58.9775
19.253966532312948 60.6349
19.276725481241822 62.9243
19.29930876296784 65.6498
19.3218928014549 69.0565
19.34465404436217 71.9733
19.36723960516257 74.9744
19.389825925592426 75.2573
19.412413006605938 73.9206
19.43517731967805 70.1233
19.457765930683355 66.1299
19.48035530514408 61.4747
19.50294544401556 57.9584
19.525712842708348 55.294
19.54830451925909 54.0204
19.570896963095727 52.9628
19.593490175174704 52.9755
19.616260674962184 53.0008
19.638855432416964 52.5703
19.661450960992624 52.661
19.68404726164677 52.5119
19.706820878021247 52.1538
19.729418731756834 52.467
19.752017360452857 52.2594
19.77461676506804 52.3478
19.797393513540218 52.3254
19.819994478951667 52.6638
19.84259622316767 53.321999999999996
19.8651987471481 53.5961
19.887978643247177 53.727
19.91058273574792 54.1816
19.933187610901943 54.8415
19.955969879466828 56.0192
19.97857632894404 57.253
20.00118356396599 59.1721
20.023791585494575 61.3996
20.046577028914875 64.4212
20.069186632506966 66.9399
20.091797025500632 68.5965
20.114408208858933 68.6569
20.137196842715273 67.9567
20.159809615886765 66.4801
20.18242318232135 63.7731
20.20503754298326 62.0008
20.227829382875154 61.1074
20.250445341109344 61.1384
20.27306209647285 61.8909
20.29567964993108 63.3397
20.31847471147704 64.16
20.34109387027612 64.9717
20.363713830075454 64.3986
20.386334591841646 62.7287
20.409132890679302 59.7981
20.431755265564437 57.028
20.454378445325528 54.458999999999996
20.477002430930366 52.3945
20.499803982716553 51.4511
20.522429589228004 50.5844
20.54505600449589 50.238
20.567683229489194 50.0319
20.590488049900088 49.5987
20.61311690359731 49.2951
20.63574656993626 49.1056
20.658553853717297 48.7453
20.681185154618298 48.6937
20.703817271080066 48.5313
20.72645020407368 48.1851
20.749260783967177 48.1634
20.771895359337133 48.1246
20.794530754161617 48.0528
20.817166969412938 47.7316
20.83998086114876 47.7537
20.86261872660049 47.5917
20.885257415405402 47.6797
20.90789692853701 47.4296
20.930714147864748 47.5017
20.953355319030678 47.581
20.97599731745334 47.5519
20.99864014410749 47.5069
21.021460706796564 47.5135
21.044105199328826 47.7198
21.06675052302631 47.8004
21.089396678865015 48.1207
21.112220600704806 48.417
21.134868430275347 48.8083
21.15751709492456 49.1018
21.180166595629693 49.455
21.202993892429635 50.1833
21.22564507473034 50.3831
21.24829709602816 50.6999
21.27112693608965 50.3112
21.293780644891275 50.1695
21.316435195634053 49.61
21.339090589297417 48.9959
21.361923832041875 48.5189
21.384580921090404 47.9418
21.407238856007325 47.5257
21.429897637773326 47.4191
21.45273429906592 47.4397
21.475394784108598 47.2707
21.498056118951983 47.3759
21.520718304578022 47.6043
21.543558400304388 47.588
21.566222297108816 47.7832
21.58888704765135 47.8357
21.61155265291521 48.147
21.63439619898156 48.3546
21.657063523335786 48.7405
21.67973170537063 49.0756
21.7024007460706 49.5811
21.72524775840385 50.3067
21.747918526116475 51.2648
21.770590155457388 52.5655
21.79326264741238 54.2036
21.816113141960237 56.0602
21.838787368860547 58.422
21.861462461341976 60.2567
21.884315579735777 62.2085
21.90699241312273 63.4577
21.92967011506078 63.4994
21.95234868653799 62.7494
21.9752053151131 61.6905
21.997885635446785 59.7985
22.020566828293532 58.0658
22.04324889464272 56.7198
22.066109049404666 55.6429
22.088792872571794 55.1276
22.111477572219204 55.3169
22.1341631493376 55.0583
22.157026846313123 54.833
22.179714188221507 54.1678
22.202402410582668 53.1648
22.22509151438863 51.4743
22.24795876962584 50.5725
22.270649646204486 49.5785
22.293341407213727 48.8408
22.316034053646906 48.3704
22.338904883215342 48.2089
22.36159931041458 48.1971
22.38429462602756 48.0823
22.40699083104897 47.9889
22.429865251039757 48.0569
22.452563244831367 47.8373
22.47526213102522 47.8829
22.49813925616515 47.7205
22.520839937143307 47.7055
22.543541513520587 47.6569
22.56624398629403 47.4786
22.589124730075895 47.4255
22.611829005656723 47.7289
22.63453418063466 47.547
22.657240256008077 47.7931
22.680124634582935 47.9539
22.70283252079775 48.1083
22.725541310413075 48.4282
22.74825100442868 48.6958
22.771139033969575 48.8761
22.79385054687155 49.2477
22.81656296718292 49.9025
22.83927629590484 50.8349
22.862167992606945 51.9404
22.88488314827121 53.1299
22.907599215359284 54.2626
22.93031619487366 55.6753
22.953211574954405 56.4823
22.975930389478226 57.0754
22.998650119445763 57.1548
23.02137076586092 56.1168
23.044269845560063 54.6946
23.06699233506288 53.2183
23.089715744034912 51.391000000000005
23.112617610931565 49.8962
23.135342869061212 48.7217
23.158069049684816 48.2723
23.1807961538087 47.8888
23.20370174880544 47.7143
23.226430710184808 47.7743
23.249160598093425 47.6886
23.271891413539002 47.8743
23.294800752937697 47.6083
23.31753343374794 47.7861
23.340267045128353 48.0032
23.36300158808808 48.1663
23.38591468821339 48.3959
23.408651104658304 48.9388
23.431388455719986 49.6624
23.454126742409 50.4485
23.4770436196085 51.6603
23.499783787914662 53.1214
23.522524894889884 54.1748
23.54526694154616 55.493
23.56818761219047 56.5061
23.59093154860734 56.8373
23.613676427751283 56.9763
23.636422250635754 56.0472
23.659346731118656 54.4461
23.68209445191868 52.5833
23.704843119509587 50.4575
23.72759273490623 48.6565
23.750521041644767 47.3233
23.77327256312355 46.4446
23.796025035462787 45.6649
23.818956224555475 45.3833
23.841710609113413 45.1515
23.86446594758979 44.8122
23.887222241002014 44.6525
23.910157285144578 44.3842
23.932915498962537 44.2467
23.955674670778713 44.1192
23.978434801611975 43.956
24.001373717286125 43.9092
24.024135776723917 43.8402
24.046898798245582 43.7645
24.06966278287146 43.6335
24.092605586582614 43.3466
24.115371508023642 43.2656
24.1381383956401 43.3251
24.16090625045381 43.3226
24.183852958731244 43.0597
24.206622758582608 42.945
24.229393528706886 42.7696
24.252165270127392 42.7493
24.27511589952438 42.6206
24.297889594216997 42.4957
24.32066426328598 42.458
24.34343990775613 42.4784
24.36639447485003 42.3936
24.38917208083877 42.3977
24.41195066531332 42.2555
24.43490819850244 42.3535
24.457688750692377 42.1412
24.48047028445616 42.0607
24.503252800821233 42.2534
24.526214300784112 42.2005
24.548998793132213 42.3974
24.57178427117417 42.24100000000001
24.59457073593893 42.2354
24.617536219319863 42.0453
24.64032466834748 42.0358
24.663114107195035 42.0367
24.685904536893013 41.7638
24.708874020360852 41.8374
24.731666442613744 41.6262
24.754459858818787 41.5086
24.777254270007962 41.4903
24.80022777025625 41.3299
24.82302418230472 41.4242
24.845821592443674 41.4828
24.86862000170663 41.4546
24.891597535453727 41.1207
24.914397953892728 41.3689
24.93719937456671 41.3421
24.96000179851076 41.5424
24.98298338249997 41.583
25.00578782394922 41.7852
25.028593271784167 41.9621
25.05157790644186 42.3936
25.07438537804115 42.4455
25.097193859145293 42.7475
25.120003350792075 42.9182
25.142992065061257 43.3299
25.165803588823465 43.5165
25.18861612625217 43.7345
25.211429678386736 43.693000000000005
25.234422489079968 44.0195
25.257238081693636 44.0044
25.280054692141732 44.0978
25.3028723214652 44.1571
25.325869245420463 44.2292
25.348688923599397 44.2074
25.371509623787006 44.0964
25.394331347025812 43.6699
25.41733240110666 43.3192
25.440156181590016 42.6107
25.46298098826268 42.0891
25.48580682216873 41.5163
25.50881202326435 41.068999999999996
25.53163992281684 40.5822
25.55446885274561 40.4018
25.577298814096377 40.1148
25.600308179121807 40.0854
25.623140214533745 40.1146
25.64597328451537 40.0796
25.66898578564376 39.887
25.691820936010206 39.8277
25.714657124097695 39.8583
25.737494350954734 39.7988
25.760511045684957 39.7126
25.783350361364224 39.7007
25.806190718969255 39.6944
25.82903211955018 39.9067
25.852053024868923 39.8822
25.874896522722523 40.0097
25.897741066713106 39.7824
25.920586657892454 39.7835
25.943611790812668 39.9994
25.966459487728237 40.2108
25.989308234998564 40.1776
26.01215803367705 40.5593
26.03518741123814 40.7568
26.05803932412957 40.9045
26.080892291600094 40.8246
26.10374631470478 40.7974
26.12677995397268 40.9407
26.14963609978026 40.9122
26.172493304397875 40.5259
26.19535156888223 40.2361
26.218389486949604 39.8937
26.241249882640123 39.7268
26.26411134137826 39.5503
26.28715248187403 39.4773
26.31001607820869 39.3176
26.3328807407756 39.0764
26.35574647063438 39.3034
26.37879191991473 39.249
26.401659795896734 39.3078
26.424528742360263 39.4291
26.447398760366614 39.4509
26.470448535598294 39.6396
26.49332070826805 39.9048
26.516193955675355 40.2261
26.53906827888316 40.3638
26.562122397260108 40.7473
26.584998883685063 41.0581
26.607876449110325 41.2883
26.63075509460056 41.4072
26.65381357334404 41.5297
26.67669439061878 41.3272
26.699576291163382 41.2197
26.722459276044212 41.0629
26.745522132402975 40.8558
26.768407297649354 40.6357
26.791293550442003 40.2537
26.814180891848974 40.0656
26.837248143099337 39.8445
26.860137673466657 39.7009
26.88302829566349 39.4472
26.90592001075963 39.1612
26.92899167420566 39.0292
26.951885586870763 38.664
26.974780595655517 38.5763
26.99785558178161 38.4014
27.020752794605112 38.2254
27.043651106772522 38.0207
27.06655051935668 37.9635
27.089629948036183 37.9777
27.112531573292053 38.0231
27.135434302194138 37.9337
27.158338135817015 37.8506
27.181422024430987 37.8576
27.204328079372566 37.7125
27.22723524226965 37.8233
27.250143514198573 37.8759
27.273231880156334 37.7919
27.296142382065014 37.6861
27.319053996245536 37.6703
27.341966723775965 37.5795
27.365059584515222 37.6808
27.38797455070062 37.8528
27.410890633481237 37.6485
27.433807833936918 37.6334
27.456905206923906 37.8521
27.47982465472398 37.7748
27.502745223449743 37.7865
27.525666914182825 37.9904
27.548768816912457 37.8883
27.571692763693633 37.7659
27.59461783573812 37.4956
27.617723149491244 37.4732
27.640650484125285 37.4303
27.66357894728264 37.3482
27.686508540048052 37.3075
27.709618414237887 37.1291
27.732550278321757 37.025
27.755483275279115 37.0163
27.778417406196485 36.9855
27.801531858397514 37.0609
27.824468269376716 36.9737
27.847405817586786 36.994
27.870344504116094 37.2258
27.893463551932008 37.3727
27.916404527281053 37.5778
27.93934664422563 37.6094
27.962289903855886 37.9005
27.98541356491974 38.0712
28.00835912214229 38.0131
28.03130582533231 38.3075
28.054253675581805 38.2216
28.077381967556104 38.2047
28.100332124185126 38.2085
28.123283431160893 38.2776
28.146235889577238 38.0476
28.169368830154156 37.8989
28.192323603752033 37.7659
28.215279532083304 37.4206
28.238415973016764 37.1732
28.261374223145094 37.0382
28.284333631303806 36.8532
28.307294198589954 36.8807
28.330435319167677 36.5209
28.353398217078915 36.2626
28.376362277420153 35.991
28.39932750129032 35.9018
28.422473319286713 35.7537
28.44544088262495 35.657
28.468409612800283 35.5145
28.491379510913497 35.3926
28.51453004413313 35.3251
28.53750229057244 35.2995
28.56047570826344 35.2757
28.583450298308804 35.1715
28.606605564586562 35.0164
28.629582511831156 34.9951
28.65256063474956 34.8664
28.675539934446338 34.829
28.698699951647605 34.9354
28.72168161743193 34.7355
28.74466446331978 34.787
28.767648490417624 34.7681
28.790813276438353 34.7619
28.813799678527303 34.7987
28.836787265157085 34.814
28.859955641890075 34.7231
28.882945610203045 34.6928
28.905936766392035 34.5765
28.928929111566863 34.7488
28.952102288520145 34.6005
28.975097024308607 34.4709
28.998092952423807 34.3011
29.021090073977508 34.2526
29.04426806913204 34.2471
29.067267590245258 34.0224
29.090268308143695 34.0662
29.11327022394099 33.8749
29.13645305530891 33.8241
29.159457379627167 33.7099
29.18246290519685 33.8309
29.20546963313352 33.7011
29.22865731875826 33.6623
29.25166646419296 33.6865
29.27467681535305 33.7116
29.29768837335608 33.785
29.320880931312562 33.7149
29.34389491580634 33.5547
29.366910110507334 33.6497
29.38992651653503 33.6905
29.41312396492981 33.6793
29.436142806456754 33.6581
29.45916286268059 33.483000000000004
29.48236399319994 33.3177
29.50538649169417 33.0996
29.528410208259935 33.1086
29.55143514402014 32.9174
29.574641196749695 32.7682
29.597668583816574 32.5685
29.6206971934585 32.5211
29.64372702680042 32.5126
29.666938019934474 32.4346
29.689970313635285 32.3521
29.713003834422636 32.3894
29.73603858342347 32.3508
29.759254535188578 32.2319
29.78229175361658 32.1955
29.80533020365064 32.247
29.82836988641968 32.1678
29.85159081507472 32.1695
29.874632976355343 32.0774
29.89767637376955 32.0771
29.920721008448314 31.985
29.9439469322847 31.9521
29.96699405457564 31.9004
29.9900424175358 31.9756
30.013092022298157 31.9028
30.03632295963995 31.8243
30.059375061131373 31.9262
30.08242840783577 31.9128
30.105483000888153 31.8986
30.128718970092244 31.8909
30.151776069006917 31.7784
30.17483441768648 31.8639
30.198074175317235 31.9219
30.221135036724256 31.8272
30.24419715131772 31.6936
30.267260520236203 31.6961
30.290505341942243 31.7183
30.313571232750228 31.7257
30.336638381310948 31.7002
30.35970678876503 31.691999999999997
30.38295669299435 31.565
30.40602763151657 31.6221
30.429099832366074 31.5718
30.452173296685572 31.5438
30.47542830191959 31.4938
30.498504306502497 31.325
30.521581577995562 31.4528
30.544660117543582 31.4946
30.56792024229725 31.561
30.59100133132069 31.5218
30.614083691845494 31.5392
30.637167325018545 31.6425
30.660432587840603 31.7476
30.683518779717886 31.6274
30.70660624769615 31.645
30.729694992924372 31.6791
30.75296541239743 31.6349
30.77605672557558 31.4316
30.799149319462742 31.4471
30.8224236211637 31.3785
30.845518789950724 31.3261
30.868615242910597 31.2363
30.891712981195973 31.1774
30.91499247215866 30.9949
30.938092794619365 30.9725
30.96119440587579 30.8149
30.984297307082752 30.7802
31.00758200598383 30.7014
31.030687500658694 30.6657
31.053794288760695 30.6243
31.076902371446767 30.4651
31.100192296997445 30.5481
31.12330298246119 30.4484
31.14641496599209 30.3259
31.169528248749216 30.4339
31.19282341969534 30.4027
31.215939314557186 30.3189
31.239056512134788 30.4292
31.262175013589378 30.358
31.28547544871168 30.3382
31.30859657161541 30.2627
31.331719001892175 30.2572
31.35484274070538 30.3887
31.378148458819545 30.4068
31.401274828443725 30.2825
31.424402510106933 30.2844
31.447712205419993 30.293000000000003
31.470842524931633 30.2664
31.493974159989783 30.2391
31.51710711176168 30.2017
31.54042212308802 30.1731
31.563557722100917 30.2572
31.586694641341655 30.0434
31.609832881979628 30.0344
31.63315322823208 29.9219
31.656294125521327 29.8056
31.679436347728515 29.7615
31.70257989602529 29.706
31.725905596152327 29.6149
31.74905181052835 29.6209
31.772199354521323 29.7283
31.79534822930507 29.5811
31.818679302290967 29.497
31.84183085259981 29.5846
31.864983737233473 29.6301
31.88813795736804 29.6
31.911474422233013 29.4933
31.934631327356435 29.6291
31.9577895715215 29.469
31.980949155906522 29.4707
32.004291031706956 29.4291
32.027453310562606 29.3438
32.05061693318573 29.2422
32.07396288236386 29.2705
32.09712920658542 29.2192
32.12029687812702 29.0617
32.14346589817093 29.0628
32.166817291729984 28.9916
32.18998902288583 28.8496
32.21316210610336 28.7802
32.23633654256711 28.656999999999996
32.259693399663725 28.6533
32.282870556771144 28.6784
32.30604907069099 28.7172
32.329228942610065 28.5362
32.35259128243769 28.3874
32.375773884550505 28.3882
32.398957848235646 28.3677
32.422143174682176 28.2741
32.445511016471215 28.2886
32.468699082679954 28.1711
32.49188851523011 28.1924
32.51507931531304 28.0492
32.538452678331 28.0891
32.56164622776311 28.0148
32.58484114831493 27.879
32.60803744118015 27.9399
32.631416344731896 27.9828
32.654615396551876 27.9518
32.67781582427913 27.8445
32.701198898634416 27.8541
32.72440209253756 27.7378
32.747606665947124 27.823
32.77081262006088 27.6484
32.79420126883317 27.6384
32.81740999876112 27.7197
32.840620112999424 27.5443
32.86383161274818 27.5253
32.88722585534586 27.4589
32.91044014056596 27.5562
32.933655814909734 27.4907
32.95687287957963 27.5139
32.98027273544904 27.3952
33.00349259526636 27.3393
33.026713849030116 27.4232
33.04993649794511 27.3319
33.073341986570746 27.3522
33.09656744032826 27.303
33.11979429286444 27.3113
33.14302254538647 27.31
33.166433686291185 27.2599
33.18966475336992 27.1584
33.212897224069096 27.0193
33.23613109959831 27.123
33.259547912343415 27.0289
33.2827846121627 27.0171
33.306022720453775 26.9478
33.32926223842861 26.8675
33.352684742614166 26.8597
33.37592709463173 26.9453
33.399170859982064 26.8432
33.422597648419426 26.8386
33.44584425514446 26.6554
33.46909227885668 26.6401
33.4923417207723 26.479
33.51577423505344 26.4969
33.539026528130385 26.4699
33.56228024307245 26.4047
33.585535381098246 26.33
33.60897364093058 26.2954
33.63223163992385 26.2535
33.6554910656699 26.1029
33.678751919389796 26.2003
33.702195944520106 26.1354
33.72545966903325 26.1388
33.74872482519663 25.9768
33.771991414233746 25.941
33.79544122444841 25.9362
33.81871069412428 25.9248
33.84198160035767 25.9199
33.86525394437455 25.9169
33.88870955949969 25.8012
33.911984794020626 25.8106
33.93526147001624 25.8205
33.958539588715006 25.7014
33.98200102861669 25.6148
34.0052820477047 25.6375
34.02856451319451 25.5817
34.05203033759056 25.4905
34.07531571090147 25.4834
34.09860253431845 25.4692
34.121890809074316 25.4828
34.145362493118924 25.4414
34.16865368561615 25.3836
34.191946333164054 25.3191
34.21524043699793 25.2581
34.23871800066799 25.355
34.26201503218366 25.1924
34.28531352370466 25.1809
34.30861347646881 25.0894
34.33209693978188 25.0628
34.3553998301885 25.0065
34.378704185565205 24.9802
34.402010007152356 24.9619
34.42549939016683 24.9767
34.44880815937748 24.8181
34.472118398533134 24.7969
34.49543010887669 24.7803
34.51892543169198 24.7104
34.54224009966052 24.6951
34.56555624255917 24.7215
34.58887386163339 24.6214
34.61237514439016 24.6182
34.6356957311114 24.4355
34.65901779775809 24.5264
34.68252356662995 24.5313
34.705848608458616 24.4842
34.72917513396849 24.374000000000002
34.75250314440949 24.3504
34.77601490857862 24.3098
34.799345904259795 24.1775
34.82267838863559 24.2299
34.846012362958525 24.2122
34.869530142679984 24.1558
34.89286711232212 24.1955
34.91620557568269 24.1882
34.93954553401677 24.1609
34.9630693495876 24.0306
34.986412313340814 24.0884
35.00975677584668 24.0074
35.033102738362956 23.9669
35.05663261012228 23.9607
35.0799815881786 23.9582
35.10333207003229 23.825
35.12668405694369 23.8009
35.150220005273056 23.7419
35.17357501786656 23.7689
35.19693153931268 23.7649
35.220289570874385 23.6953
35.24383161619786 23.6585
35.267192683604904 23.7297
35.290555264930376 23.6633
35.314101899412165 23.6729
35.33746752422433 23.6248
35.36083466676374 23.6091
35.38420332829803 23.631
35.407756095629054 23.588
35.43112781085063 23.5758
35.45450104888391 23.4915
35.477875810999194 23.5554
35.50143473172161 23.3852
35.52481255774625 23.4233
35.54819191167777 23.3875
35.57157279478914 23.393
35.595137889488406 23.2513
35.61852184675279 23.3132
35.641907337029984 23.3051
35.665294361595684 23.23
35.68886565090076 23.178
35.7122557598848 23.1075
35.73564740699838 23.1705
35.759040593519934 23.0423
35.78261809810353 23.0235
35.80601437933051 22.995
35.829412203814705 22.9532
35.85281157283719 22.8083
35.876395313415884 22.8755
35.8997977874528 22.6827
35.92320180988546 22.7482
35.946790244133936 22.7769
35.97019737933222 22.7614
35.993606066789866 22.7586
36.01701630779276 22.6187
36.04061101440684 22.6042
36.06402437852291 22.6144
36.08743930005611 22.5159
36.1108557802951 22.4791
36.13445678011326 22.49
36.15787639383515 22.5045
36.18129757014299 22.4435
36.20472031032821 22.3269
36.22832762423364 22.3614
36.25175350829375 22.3652
36.275180960119776 22.2449
36.298609981005924 22.2769
36.32222362992669 22.2499
36.34565580510207 22.1972
36.36908955323448 22.1746
36.39252487562093 22.0903
36.416144880530226 22.0095
36.43958336764275 22.041999999999998
36.463023432914625 22.0507
36.486465077645676 22.0471
36.51009145956204 22.0445
36.53353627947859 22.0744
36.55698268276811 21.9539
36.58043067073321 21.8844
36.60406345072071 21.7783
36.62751462435344 21.7803
36.65096738658405 21.7538
36.67460498210655 21.7709
36.69806093788647 21.7111
36.72151848619297 21.6385
36.744977628333636 21.6433
36.76862165890998 21.5766
36.79208400512205 21.588
36.81554794910557 21.5663
36.83901349217101 21.4479
36.862663978991606 21.4869
36.88613273667352 21.4497
36.90960309738324 21.4001
36.933075062434064 21.308000000000003
36.95673202673572 21.3488
36.98020721697122 21.2413
37.003684015502365 21.1825
37.027162423645365 21.194000000000003
37.050825886711465 21.1569
37.07430753063053 21.1281
37.09779078812467 21.1187
37.121275660513014 21.1171
37.144945643673694 21.0258
37.16843376245278 21.0744
37.19192350009803 21.074
37.215414857931435 21.0169
37.239091382563885 20.9191
37.262585997426164 20.8949
37.28608223645736 20.9075
37.309763684451696 20.7684
37.33326318851098 20.779
37.356764320726555 20.7699
37.380267082425526 20.7922
37.40395510942588 20.7123
37.42746114683234 20.675
37.45096881771841 20.627
37.474478123414166 20.6314
37.49817275092816 20.4573
37.52168534303452 20.5094
37.54519957395567 20.4864
37.568715445024665 20.4297
37.592416694607714 20.3754
37.61593586281424 20.3949
37.63945667518264 20.4748
37.66297913304891 20.3492
37.68668702630454 20.3025
37.710212792059274 20.24
37.733740207334854 20.3125
37.757269273470364 20.2702
37.780983832050374 20.1719
37.80451621684926 20.1075
37.82805025654007 20.0514
37.851585952464795 20.0843
37.8753071980695 20.0702
37.89884622345676 20.022000000000002
37.92238690911902 19.9759
37.94611318753442 19.872
37.969657210779765 19.8158
37.99320289834801 19.855999999999998
38.016750251586465 19.8353
38.04048325513017 19.802
38.06403395679343 19.8137
38.087586328183946 19.755
38.11114037065203 19.7174
38.13488012115898 19.7583
38.1584375229181 19.5839
38.181996599821 19.6028
38.205557353221124 19.6198
38.229303872575656 19.5622
38.2528679961576 19.5546
38.27643380031219 19.4519
38.30000128639589 19.4569
38.32375459653193 19.4915
38.34732546371299 19.4771
38.37089801690786 19.3887
38.39447225747609 19.3714
38.418232380377425 19.3114
38.441810012983396 19.265
38.46538933705673 19.2808
38.488970353960084 19.3069
38.51273731166058 19.1909
38.536321731567014 19.1616
38.55990784840681 19.0899
38.58367995004091 19.1072
38.60726947812959 19.0591
38.63086070726198 19.1226
38.654453638806274 19.0713
38.678232613930824 19.0149
38.70182896773327 18.9029
38.72542702806741 18.8889
38.7490267963045 18.8957
38.77281266709232 18.9201
38.79641586862214 18.8695
38.8200207821842 18.7963
38.843627409152944 18.7872
38.86742019782782 18.7466
38.891030269149255 18.7189
38.914642058016156 18.6913
38.938255565806124 18.6476
38.96205529464307 18.6326
38.98567225787121 18.5595
39.00929094417078 18.581
39.03291135492255 18.5808
39.05671804624804 18.4785
39.080341923549106 18.4905
39.103967529460334 18.452
39.127594865365744 18.3817
39.15140854155791 18.2891
39.17503935514948 18.337
39.19867190290282 18.3239
39.22249083587951 18.3236
39.24612686969409 18.37
39.269764641845306 18.2612
39.293404153722804 18.2199
39.317230110864074 18.1706
39.34087311998506 18.1269
39.36451787301696 18.1292
39.388164371352595 18.0841
39.41199737518003 18.0283
39.43564738196752 18.0143
39.45929913825317 17.9901
39.48295264543308 17.9926
39.506792718520884 17.9634
39.530449745387216 17.9406
39.55410852735203 17.8738
39.57776906581474 17.9104
39.60161623079 17.8253
39.625280300200025 17.8528
39.64894613032202 17.7915
39.67261372255866 17.7693
39.6964680021016 17.7181
39.72013913657293 17.722
39.74381203738292 17.7468
39.76748670593756 17.6658
39.79134812278169 17.6531
39.81502634488497 17.6461
39.83870633896685 17.5727
39.862388106436654 17.5351
39.88625668336918 17.5197
39.90994201572829 17.5522
39.933629125719285 17.4863
39.957503091207826 17.4419
39.9811937746168 17.4806
40.00488623990914 17.3861
40.02858048850006 17.3416
40.05246165409549 17.3126
40.076159487492085 17.2758
40.099859108448875 17.2904
40.123560518384345 17.2674
40.1474489070226 17.2864
40.171153913178564 17.2138
40.194860712584955 17.1373
40.2185693066637 17.0992
40.242464941335314 17.1247
40.26617714307655 17.0775
40.289891143772046 17.0794
40.3136069448471 17.0455
40.33750984859743 17.0493
40.3612292688043 16.972
40.3849504936829 16.9711
40.40867352466194 16.9945
40.43258372059144 16.8972
40.45631038219906 16.8942
40.48003885420956 16.8044
40.503769138055105 16.8407
40.52768664931955 16.8121
40.55142057531802 16.7401
40.57515631746428 16.6933
40.599079334038514 16.737000000000002
40.62281872700477 16.7103
40.64655994043941 16.6663
40.67030297578061 16.6143
40.69423334835778 16.6192
40.71798004609188 16.5581
40.74172857006355 16.5558
40.76547892171441 16.5625
40.7894166736039 16.5244
40.813170699248566 16.4742
40.83692655691388 16.4265
40.86068424804498 16.486
40.884629402612525 16.434
40.908390779366385 16.3576
40.932153993938 16.4073
40.95591904777605 16.3039
40.979871628443995 16.3688
41.003640379561936 16.2558
41.02741097430883 16.2546
41.05118341413683 16.239
41.075143444384416 16.1839
41.098919593177826 16.1553
41.1226975914255 16.112000000000002
41.14647744058318 16.1149
41.170444943946755 16.1118
41.19422851378379 16.0762
41.218013938914645 16.0069
41.24198706625173 16.0228
41.26577622087193 15.985
41.289567235177785 15.9704
41.31336011063129 15.9252
41.337340752422875 15.9091
41.361137369129835 15.8636
41.38493585138705 15.8475
41.40873620066004 15.8091
41.43272438060107 15.7924
41.45652848292052 15.7584
41.48033445666918 15.687999999999999
41.50414230331616 15.6487
41.528138045159764 15.6143
41.551949656675205 15.6154
41.575763145513235 15.5527
41.59957851314666 15.5759
41.62358184070442 15.515999999999998
41.64740098505737 15.464
41.6712220126409 15.4626
41.69504492493139 15.4416
41.71905586207357 15.4794
41.74288256296395 15.4484
41.766711153007456 15.4212
41.79054163368412 15.3868
41.814560204340054 15.3856
41.838394485526365 15.3971
41.86223066180303 15.2938
41.88625497706819 15.337
41.910094962812 15.3331
41.93393684811168 15.2233
41.95778063445365 15.2022
41.981812625263366 15.174000000000001
42.00566023303407 15.1477
42.029509746323676 15.1191
42.05336116662236 15.1451
42.077400857069705 15.097999999999999
42.10125611078846 15.0702
42.12511327600405 15.0456
42.14897235421036 14.9357
42.173019768448455 14.9754
42.19688269209613 14.9836
42.22074753323349 14.9408
42.24461429335818 14.9172
42.268669455600495 14.8669
42.292540073217886 14.8243
42.31641261433284 14.7776
42.34028708044675 14.8101
42.36435001496739 14.784
42.38822835065557 14.7658
42.41210861586426 14.7187
42.4359908120986 14.6727
42.46006154323262 14.6865
42.48394762115317 14.7022
42.507835634632315 14.6424
42.531912233047436 14.6044
42.55580413732265 14.6118
42.579697981698 14.5494
42.60359376768525 14.4869
42.62767820545945 14.5044
42.65157789440821 14.5004
42.67547952952185 14.4587
42.699383112316 14.4427
42.72347541395347 14.4214
42.74738291190531 14.4431
42.771292362102166 14.4217
42.795203766063516 14.3641
42.819303956130405 14.3535
42.843219287476536 14.2709
42.86713657716324 14.319
42.89105582671383 14.2601
42.91516392983864 14.218
42.939087119032166 14.2134
42.963012272677304 14.1942
42.98693939230129 14.1281
43.01105543317513 14.1153
43.034986504731386 14.0751
43.05891954686589 14.043
43.08285456110972 14.0621
43.10697856448665 14.0473
43.130917542983475 13.9867
43.15485849820081 14.0026
43.17880143167367 13.9345
43.20293342237094 13.9073
43.226880332449 13.8484
43.25082922540554 13.8747
43.27496722682525 13.8903
43.29892010567796 13.7901
43.32287497204102 13.7946
43.34683182745632 13.7537
43.370977859791836 13.727
43.39493871351105 13.7027
43.41890156092628 13.712
43.44286640358341 13.7102
43.46702049182749 13.6755
43.49098934522816 13.620999999999999
43.51496019852649 13.6209
43.5389330532723 13.5384
43.56309522248204 13.5004
43.58707210044314 13.545
43.61105098451946 13.5309
43.63503187626491 13.5329
43.659202151562134 13.4394
43.68318707902681 13.4699
43.70717401884041 13.4032
43.731162972560874 13.3748
43.75534137913236 13.363
43.779334381108384 13.3651
43.803329401683186 13.3292
43.82732644241872 13.3419
43.8515130055166 13.3461
43.87551410707659 13.2882
43.89951723350145 13.2264
43.923709934595614 13.2131
43.94771713129917 13.2182
43.97172635758096 13.1875
43.99573761501002 13.2056
44.0199385169922 13.105
44.04395385732619 13.0541
44.067971233533086 13.0858
44.09199064718605 13.1079
44.11619977548961 13.088
44.14022328470671 12.9956
44.16424883610785 13.0157
44.18827643127035 13.005
44.21249381139513 12.9846
44.236525514814076 12.9165
44.26055926674478 12.9219
44.28459506876863 12.8569
44.3088207262813 12.853
44.33286064928722 12.7989
44.35690262714919 12.831
44.38094666145278 12.7551
44.4051806219871 12.7758
44.42922879003185 12.7688
44.45327901929361 12.722999999999999
44.477331311362136 12.6859
44.501573600619416 12.6679
44.525630039221795 12.6632
44.54968854541895 12.6422
44.573937102200176 12.6504
44.5979997645541 12.6222
44.622064499300315 12.5741
44.64613130803592 12.5217
44.67038823869318 12.5626
44.69445921643748 12.5142
44.718532272981385 12.4588
44.742607409926194 12.48
44.76687274034801 12.4462
44.79095205918753 12.4042
44.81503346325094 12.3842
44.839116954143876 12.3701
44.86339071028742 12.375
44.88747839599524 12.3614
44.91156817336837 12.2788
44.93566004401666 12.2524
44.959942251908146 12.2657
44.984038330325966 12.2215
45.00813650686762 12.2006
45.03223678314731 12.1858
45.05652746888232 12.1613
45.08063196592069 12.172
45.104738567558705 12.137
45.128847275414856 12.1135
45.15314646515866 12.0876
45.17725940679741 12.0585
45.20137445952892 12.011
45.22568004865265 12.0246
45.24979934496396 12.0434
45.27392075725247 12.0196
45.29804428714431 11.9678
45.322358426247604 11.9331
45.346486212804315 11.9075
45.370616121861914 11.9007
45.39474815505086 11.8719
45.41907087049246 11.8632
45.4432071734666 11.8266
45.46734560548283 11.7917
45.49148616817604 11.770999999999999
45.51581748638564 11.7763
45.5399623320197 11.7483
45.56410931325473 11.7511
45.58825843173002 11.7486
45.61259837920865 11.7029
45.636751793816 11.7194
45.66090735060093 11.6392
45.68506505120716 11.6239
45.7094136545275 11.6305
45.73357566449271 11.5852
45.75773982322992 11.5158
45.78190613238733 11.524000000000001
45.806263418194064 11.4483
45.83043404997326 11.5107
45.85460683713677 11.4808
45.87897065658495 11.4797
45.90314777634752 11.4526
45.92732705646868 11.4315
45.9515084986045 11.4261
45.97588104735473 11.3886
46.00006683541565 11.3785
46.02425479047904 11.3947
46.04844491420549 11.3434
46.0728262191024 11.3165
46.09702070211635 11.3183
46.12121735879483 11.295
46.14541619080294 11.2724
46.169806278764455 11.2349
46.194009483459034 11.2129
46.21821486849841 11.2172
46.24242243555223 11.1912
46.266821333570014 11.1169
46.29103328674601 11.1668
46.31524742696538 11.1375
46.33946375590237 11.1031
46.36387149104216 11.068
46.38809221957392 11.0299
46.41231514186606 11.0297
46.436540259597464 11.0311
46.460956858999374 11.0082
46.48518638983522 10.9643
46.509418121166966 10.9146
46.533652054678114 10.8835
46.55807754555709 10.9055
46.58231590571962 10.8845
46.60655647313217 10.8676
46.630988654873654 10.8444
46.655233659129024 10.7983
46.67948087571551 10.7829
46.70373030632484 10.7804
46.72817142736393 10.7805
46.752425308428684 10.745
46.77668140861147 10.7654
46.80093972960865 10.6939
46.82538981736788 10.6638
46.849652602470904 10.6256
46.87391761349769 10.6052
46.8981848521493 10.5969
46.9226439341274 10.6041
46.946915650573224 10.5644
46.97118959976749 10.5745
46.99546578341598 10.52
47.019933887188216 10.5154
47.04421456235744 10.4881
47.06849747711879 10.4991
47.09278263318286 10.4522
47.11725978640143 10.4806
47.14154944775105 10.4216
47.165841355555656 10.4004
47.1901355115306 10.3726
47.214621741924994 10.3632
47.23892041698887 10.362
47.26322134538975 10.357999999999999
47.28771440635075 10.2982
47.31201986422527 10.3317
47.33632758061436 10.2889
47.360637557241866 10.2627
47.38513974410611 10.2624
47.40945426407847 10.2175
47.43377104948137 10.2293
47.45809010204344 10.18
47.48260144275502 10.1256
47.506925052572285 10.1687
47.53125093475548 10.1312
47.55557909103813 10.1101
47.58009961361992 10.1023
47.60443234110732 10.0557
47.62876734791564 10.0786
47.65310463578333 9.98725
47.6776343683373 10.0128
47.7019762413987 9.95617
47.72632040075572 9.97613
47.75066684815169 9.94254
47.77520581885936 9.96759
47.799556865477655 9.91301
47.823910205386 9.91411
47.84826584033272 9.933639999999999
47.87281407745551 9.85667
47.89717432569297 9.8249
47.92153687423484 9.79508
47.94609208429692 9.84398
47.97045925671401 9.815430000000001
47.99482873471275 9.7677
48.01920052005013 9.76872
48.04376504619224 9.74667
48.068141469543484 9.7156
48.09252020552573 9.72225
48.11690125590099 9.70704
48.1414751266064 9.67389
48.16586082917454 9.628810000000001
48.19024885144316 9.606710000000001
48.2146391951793 9.63185
48.239222439012764 9.640039999999999
48.26361744916137 9.62856
48.28801478610016 9.57189
48.31241445160131 9.54036
48.337007097209366 9.57264
48.36141144338331 9.510710000000001
48.38581812345755 9.49262
48.41022713920929 9.50491
48.434829215320704 9.469330000000001
48.45924292604658 9.41222
48.48365897780325 9.45125
48.50807737237308 9.455739999999999
48.532688907799276 9.40456
48.55711201168574 9.373289999999999
48.581537463754074 9.39175
48.60615611725119 9.377139999999999
48.63058628942721 9.33312
48.65501881516546 9.26999
48.6794536962573 9.34905
48.70408185970339 9.33292
48.72852147531801 9.24643
48.75296345168211 9.23607
48.77740779059232 9.202589999999999
48.80204549302823 9.20838
48.82649458091802 9.198360000000001
48.85094603676547 9.149569999999999
48.87539986237231 9.18074
48.90004713292306 9.166319999999999
48.92450572200832 9.14563
48.94896668628025 9.14033
48.97343002754588 9.09592
48.99808689542115 9.08071
49.02255501470614 9.09248
49.04702551642794 9.04804
49.0714984023988 8.98659
49.096164896893235 8.98344
49.120642575466796 8.98831
49.145122643748394 8.97985
49.16960510355558 8.93546
49.19428125404938 8.96001
49.2187685210852 8.927769999999999
49.243258185121555 8.91724
49.26794160167084 8.90524
49.2924360839405 8.8553
49.31693296869764 8.81216
49.34143225776915 8.815660000000001
49.36612538195438 8.79539
49.39062950396021 8.802769999999999
49.41513603578346 8.80363
49.4396449792564 8.73445
49.46434784069503 8.76093
49.488861631846454 8.74441
49.513377840166804 8.71296
49.537896467493745 8.680019999999999
49.56260909589029 8.63922
49.587132585683285 8.63658
49.611658500018365 8.66203
49.636186840738596 8.63463
49.66090926588511 8.60774
49.685442483902584 8.60117
49.70997813385706 8.546
49.734516217597076 8.5455
49.75924846937352 8.54162
49.7837914452858 8.53735
49.80833686055187 8.5096
49.83288471702571 8.45027
49.85762682540054 8.51349
49.882179588965734 8.44485
49.9067347993235 8.44882
49.93129245833333 8.42412
49.95604445336378 8.43431
49.98060703442832 8.389619999999999
50.005172069746266 8.39398
50.02993150438364 8.382610000000001
50.05450147301533 8.334610000000001
50.07907390151433 8.30387
50.10364879174981 8.32187
50.12841816587289 8.29375
50.1529980044635 8.291
50.17758031042124 8.242389999999999
50.20216508562089 8.26263
50.22694442953363 8.22679
50.25153416817468 8.215069999999999
50.27612638170508 8.22162
50.300721072005196 8.16496
50.325510416102105 8.16741
50.350110084975064 8.16463
50.37471223628208 8.193389999999999
50.39931687190919 8.11811
50.424116246675766 8.08007
50.44872587605249 8.090589999999999
50.47333799543065 8.06714
50.49795260670191 8.04781
50.52276204271512 8.055
50.54738166295838 8.025030000000001
50.57200378079314 8.0348
50.596628398116835 7.98268
50.62144792604559 7.996060000000001
50.646077567609396 8.01479
50.670709714377715 7.96537
50.69553683636198 7.95132
50.72017401885922 7.928310000000001
50.7448137122895 7.90733
50.76945591856022 7.88077
50.79429318636823 7.8647100000000005
50.818940443716784 7.885160000000001
50.84359021965163 7.859189999999999
50.868242516085964 7.85985
50.893089960641895 7.79548
50.917747323549435 7.7782
50.94240721271973 7.822430000000001
50.96706963007175 7.77106
50.99192728239342 7.786239999999999
51.01659478166073 7.7656600000000005
51.04126481489051 7.717969999999999
51.06593738400761 7.7476899999999995
51.090805275207074 7.713589999999999
51.11548294172845 7.68152
51.14016314993547 7.69658
51.164845901758845 7.68041
51.18972406304274 7.63537
51.21441192780656 7.61215
51.23910234200271 7.62327
51.2637953075678 7.610410000000001
51.288683770237945 7.5722
51.31338186432707 7.51242
51.33808251561888 7.51842
51.362978729967345 7.53838
51.387684521509755 7.50477
51.41239287610203 7.47673
51.437103795691165 7.491280000000001
51.46201036644977 7.452719999999999
51.486726441956634 7.43566
51.51144508832545 7.45622
51.536166307509156 7.40809
51.56108326624387 7.40429
51.58580965706056 7.37398
51.61053862657523 7.37858
51.635270176746864 7.36728
51.66019755512065 7.377610000000001
51.68493429268881 7.3268699999999995
51.70967361681515 7.33869
51.73441552946465 7.31033
51.759353359237934 7.29565
51.7841004750961 7.27658
51.80885018539685 7.2557
51.833602492111254 7.246560000000001
51.8585508051424 7.219539999999999
51.883308330926425 7.22819
51.90806845906181 7.20085
51.932831191525715 7.166510000000001
51.95779001977161 7.147930000000001
51.98255798721516 7.1330800000000005
52.00732856494335 7.13594
52.03229530577543 7.11148
52.057071130455945 7.1273100000000005
52.081849571391054 7.096989999999999
52.106630630568695 7.1026
52.13160794279417 7.0138
52.15639426492067 6.98982
52.18118321127822 7.0004100000000005
52.205974783860896 7.03938
52.23096269971011 6.99335
52.255759551287994 6.97783
52.280559035098186 6.93699
52.30536115314103 6.95182
52.33035970494467 6.9649399999999995
52.35516711807904 6.95602
52.37997717147198 6.93094
52.40478986713005 6.931139999999999
52.42979908731974 6.88179
52.454617094216 6.868689999999999
52.47943774942214 6.853839999999999
52.50426105495102 6.85802
52.529280976059844 6.8508
52.554109609024096 6.83432
52.57894089837482 6.826410000000001
52.60377484613117 6.78493
52.62880550079408 6.77195
52.65364479223379 6.760210000000001
52.67848674816189 6.740460000000001
52.70352547971946 6.7344800000000005
52.72837279155837 6.720269999999999
52.753222773982785 6.71678
52.778075429022984 6.7161800000000005
52.80312495150885 6.70458
52.827982978797436 6.66045
52.85284368481815 6.65932
52.87770707160767 6.631689999999999
52.90276741793998 6.6064300000000005
52.92763619336701 6.59767
52.952507655698504 6.5658199999999995
52.977381806977576 6.5639
53.00245301017842 6.577319999999999
53.02733256653592 6.6005
53.052214817996074 6.525930000000001
53.077099766608484 6.5406
53.102181859804446 6.51724
53.127072229988265 6.53897
53.15196530349892 6.51015
53.17686108239249 6.49329
53.20195409881522 6.45553
53.22685531582556 6.45019
53.25175924441303 6.4204099999999995
53.27666588664027 6.39355
53.30176985962693 6.40842
53.3266819565689 6.39511
53.35159677336455 6.38734
53.376514312083096 6.37093
53.40162927507703 6.38432
53.42655228516116 6.34357
53.45147802340193 6.33691
53.47660125628886 6.30143
53.50153247842639 6.28671
53.52646643496923 6.249619999999999
53.55140312799818 6.27606
53.576537409691696 6.2678400000000005
53.60147960336152 6.24561
53.626424539786164 6.2207099999999995
53.65137222105307 6.2381400000000005
53.67651758529126 6.2188099999999995
53.70147078399681 6.18809
53.72642673383343 6.18382
53.75138543689533 6.16381
53.776541917524526 6.16343
53.801506154876755 6.12865
53.826473151763246 6.1229
53.851442910284916 6.07541
53.87661054126026 6.09017
53.9015858509782 6.06295
53.92656392866066 6.08983
53.95154477641532 6.04228
53.976723591801296 6.0717
54.00171000771266 6.0881
54.02669920004598 6.0408800000000005
54.051691170915745 6.00416
54.076881204886796 5.99909
54.101878760928514 6.0232
54.12687910187696 5.96166
54.152077577768296 5.961119999999999
54.1770835166946 5.88353
54.20209224691339 5.8866
54.22710377055121 5.909730000000001
54.25231352511594 5.90805
54.27733066384342 5.832730000000001
54.30235060239643 5.85419
54.32737334290836 5.83146
54.35259441062629 5.78916
54.377622783395324 5.80796
54.40265396455061 5.81682
54.42768795623251 5.75683
54.45292037169559 5.74221
54.477960012857906 5.72136
54.50300247099511 5.70993
54.52804774825457 5.73171
54.55329154616743 5.713480000000001
54.57834249018678 5.72282
54.6033962597977 5.65068
54.6284528571545 5.61391
54.653708072335164 5.59834
54.67877035378786 5.5963
54.70383546947698 5.57965
54.72890342156389 5.53823
54.7541700889442 5.52188
54.77924374251975 5.50636
54.8043202390049 5.45491
54.82959552413022 5.45412
54.8546777351945 5.46512
54.87976279569621 5.4442
54.90485070780914 5.40996
54.930137506558005 5.383830000000001
54.95523115074295 5.3659300000000005
54.98032765308844 5.3552599999999995
55.005427015775496 5.3488
55.03072536339621 5.31005
55.05583047570572 5.26909
55.080938454927676 5.28153
55.10604930325027 5.22587
55.131359235107396 5.17834
55.15647585066083 5.1906
55.181595341907496 5.210780000000001
55.20671771104285 5.1668
55.232039262617704 5.12994
55.25716741665048 5.12864
55.28229845518636 5.11066
55.30743238042802 5.04484
55.33276558731939 5.0461800000000006
55.357905315183636 5.0577
55.383047936390035 4.99068
55.40819345314859 5.02603
55.433538351073295 5.01985
55.458689688238415 5.00967
55.483843927614096 4.92363
55.509197623043605 4.93684
55.53435769621134 4.88722
55.55952067826466 4.87574
55.5846865714265 4.87006
55.61005202069737 4.80556
55.63522376553902 4.79634
55.66039842818645 4.8121
55.68557601087004 4.80831
55.7109532500271 4.72323
55.73613670233794 4.7695300000000005
