TT I
1.2716486653135266 7.580239999999999
1.2939594142134223 7.2866100000000005
1.3162702121660406 6.9325
1.3385810600174564 6.2933699999999995
1.3608919586137629 6.1795800000000005
1.383202908801069 5.74795
1.405513911425503 5.2363800000000005
1.4278249673332093 6.03771
1.4501343378461518 6.13729
1.4724455028545926 5.41801
1.4947567236847858 6.1113
1.517068001182951 5.88373
1.5393793361953272 5.56079
1.5616907295681737 5.61677
1.5840021821477681 5.2032300000000005
1.60631369478041 5.129
1.6286252683124185 4.81884
1.6509369035901333 5.20876
1.6732468618895553 5.01553
1.695558623192809 4.47765
1.7178704487808514 5.16504
1.7401823395001077 5.4362
1.7625012545597203 4.69341
1.7848028405262486 4.8516
1.8071218901122095 5.01085
1.8294236121921872 4.64354
1.8517427996910911 4.8465300000000004
1.8740620574440425 4.68519
1.8963639900671978 5.01185
1.9186833908139995 4.7430900000000005
1.9409854680117449 5.4694
1.9633050151394713 4.74748
1.9856246367570705 4.97652
2.0079269371922672 4.4679199999999994
2.03024671027244 4.18423
2.0525491637446027 4.75354
2.074869091674931 4.51987
2.097171701569106 4.83287
2.1194917877373847 4.9690199999999995
2.141811954326636 5.0413
2.164114805233074 5.11827
2.186435135143035 6.61672
2.208738150935709 17.135
2.231058647554722 35.769
2.2533792288321184 28.4129
2.275682498336085 12.7134
2.298003251406138 7.048080000000001
2.3203066942619714 5.96976
2.3426276225136022 5.26534
2.3649486396617507 5.5258400000000005
2.387252348930071 5.7114400000000005
2.4095735463442893 5.99165
2.4318774374315884 6.22631
2.4541988185014043 6.0532
2.476502894794693 7.63512
2.498824462909887 7.254739999999999
2.521146125856138 7.2364
2.5434504863470337 7.783739999999999
2.5657723414244717 8.35928
2.588076895590662 8.67445
2.610398946189713 8.55413
2.6327210958598384 8.26862
2.6550259469304716 8.29208
2.6773482972090137 8.3279
2.6996533504259 8.070789999999999
2.7219759047039602 8.658560000000001
2.744298562293959 8.490269999999999
2.7666039251246595 8.68253
2.7889267918020164 8.47748
2.8112323652516555 8.54826
2.833555444408179 8.94239
2.8558786311183852 8.74274
2.8781845268938557 9.07658
2.9005079311721484 9.70734
2.9228140460410397 9.111369999999999
2.9451376712799635 9.189210000000001
2.967444008632326 9.57512
2.9897678582247247 10.1179
3.0120918213106695 10.8705
3.0343984987899373 11.1722
3.0567226913198637 10.98
3.079029599759726 11.9035
3.101354025127254 12.3633
3.123678568232338 13.4854
3.145985829517914 12.9288
3.16831061055229 13.6382
3.1906181112775593 14.5795
3.212943133635653 15.2011
3.2352682779763207 15.1818
3.2575761442691227 15.387
3.2799015350264273 15.4618
3.302209649240067 16.2441
3.3245352898092655 16.6901
3.3468436553365257 17.0698
3.369169549113219 17.8217
3.3914955708171384 18.6657
3.413804319727358 19.1616
3.4361305997334863 19.1392
3.4584396084414553 19.8035
3.4807661501462652 20.1333
3.503092824025881 20.4941
3.5254022288463154 21.241999999999997
3.5477291695206588 21.6706
3.5700388426251948 22.5268
3.5923660534916446 24.3676
3.6146934007816114 42.195
3.637003482731501 109.73299999999999
3.6593311053109985 124.934
3.681641464033634 68.76899999999999
3.7039693653009733 32.9687
3.726297407241705 26.6158
3.7486081875460804 26.0003
3.7709365132734978 26.4955
3.793247578841633 26.81
3.8155761917550093 26.7268
3.8378875459837216 27.1911
3.8602164494827234 28.1638
3.882545499606844 28.7123
3.9048572932539183 28.9653
3.9271866390645718 29.1289
3.9494987298666713 29.4868
3.971828374764527 30.4081
3.9941581705403255 30.8535
4.016470713506008 31.5217
4.038800813471445 32.1536
4.061113662089144 32.7401
4.0834440696459176 33.7805
4.105774632334751 33.5506
4.128087945865126 34.9963
4.150418821249301 35.9651
4.172732448931298 37.2063
4.195063640413578 38.8114
4.2173775856475215 43.6129
4.239709096631102 82.8244
4.262040768704612 299.397
4.284355196706267 422.134
4.306687193387355 271.789
4.329001947444346 97.0127
4.35133427213731 50.0023
4.373666762177566 45.0528
4.395982011761091 44.6683
4.418314834921175 45.8276
4.44063041906622 55.181999999999995
4.4629635787515625 70.2321
4.4852969080429785 70.4258
4.5076130004776225 56.0731
4.529946671403969 50.2249
4.552263106909177 49.2219
4.574597122877047 50.4672
4.596931312711224 52.0126
4.619248269273446 52.6723
4.6415828092605835 53.3659
4.663900117405352 54.6917
4.686235010953232 56.3717
4.708552674085913 57.333999999999996
4.730887924602802 58.4653
4.753223354952695 59.6061
4.775541557023902 60.7902
4.797877349456786 62.3857
4.820195915032126 64.955
4.842532072957498 66.0721
4.864868414979744 68.2058
4.88718753227192 69.6815
4.909524244902505 71.6283
4.931843734218147 72.7968
4.954180820867835 75.2762
4.976518095879839 78.4111
4.998838149695359 80.9717
5.021175803844231 83.4302
5.043496238205739 86.8155
5.065834274903528 91.101
5.088172504230693 95.3537
5.1104935158799565 101.236
5.132832132875765 124.073
5.155153533596801 175.64700000000002
5.1774925416746225 210.26
5.199814334878411 286.113
5.2221537374521505 747.572
5.244493338631803 2301.02
5.266815727034316 7144.53
5.289155727832427 13059.4
5.311478517248165 9700.03
5.333818921080011 3004.31
5.356159527788849 549.932
5.3784829252032536 181.551
5.400823940070432 140.836
5.423147747031976 125.257
5.445489173474152 116.439
5.467830807066149 111.10600000000001
5.490155234831516 106.663
5.512497285125229 103.507
5.534822130975162 102.115
5.557164601388673 100.35799999999999
5.579489868738879 97.7128
5.601832762690846 96.7028
5.6241758697774475 95.9855
5.646501775867269 94.9671
5.668845311622074 93.3152
5.691171647754637 91.9922
5.713515615597765 91.305
5.735859800852677 90.1825
5.758186788542988 89.1993
5.780531411018185 89.1244
5.802858837297399 88.6407
5.825203900414495 88.6803
5.8475491852224 88.7062
5.869877275883075 89.0342
5.892223006467101 89.7476
5.914551544266608 90.2863
5.936897724049891 92.2133
5.959244129804903 96.0808
5.981573344815301 107.319
6.0039202049061 165.195
6.026249875609095 351.173
6.04859719346037 788.748
6.070927323278297 1964.62
6.093275102315365 4251.13
6.115623113320588 5359.02
6.137953938319995 3313.45
6.160302415650845 964.93
6.182633708324452 240.611
6.2049826554078376 114.29700000000001
6.227331838745022 90.76799999999999
6.249663839443684 83.7965
6.27201349767565 82.1065
6.294345974611799 90.6428
6.316696111167083 107.915
6.339046488263839 102.257
6.361379686074702 82.5549
6.383730546639482 71.8292
6.406064229255215 68.1224
6.428415576718203 67.6647
6.450749747566656 66.4289
6.47310158535871 65.4206
6.495453669698332 65.1059
6.517788579421056 64.5706
6.540141159237969 63.1511
6.562476565766648 62.4974
6.5848296444934045 62.203
6.607182974060425 62.0851
6.6295191323281015 62.3899
6.651872965955752 66.4942
6.6742096296068985 99.7611
6.6965639707294615 162.35299999999998
6.71891856698715 166.50599999999997
6.741255995248479 107.838
6.763611104154477 71.5758
6.785949046381137 60.8808
6.808304671371482 58.2121
6.8306605557940046 57.6301
6.852999275508618 56.7798
6.875355681171544 56.876999999999995
6.897694923437771 56.641999999999996
6.92005185377892 56.4804
6.9423916220322655 56.1253
6.964749080490181 55.3462
6.987106804399774 55.5391
7.009447368180821 55.1977
7.031805625367033 55.4475
7.054146723727803 55.3648
7.076505517631004 54.957
7.098864581288365 55.1467
7.121206488070854 54.9905
7.143566093607822 54.5687
7.165908543567245 54.818000000000005
7.188268694426048 54.9038
7.2106291193438095 55.4027
7.232972390625943 57.1614
7.255333366030969 72.7252
7.277677189091925 142.255
7.300038718428332 211.87400000000002
7.322400526130865 178.187
7.344745183422596 102.96799999999999
7.367107550224791 64.7821
7.389452767901992 56.7722
7.411815697249891 55.4665
7.434161478756298 54.1089
7.456524974096713 54.2443
7.478888753837185 53.9163
7.501235387657368 54.32899999999999
7.523599738562711 54.5711
7.545946944825532 54.2434
7.568311870344528 54.8628
7.5906770845765665 55.3066
7.613025156078678 56.5551
7.635390950099687 58.3826
7.657739602662809 57.4208
7.680105979923558 55.5365
7.702472650212829 55.3101
7.724822180948224 55.3231
7.747189439655568 55.305
7.769539560075357 55.3275
7.791907410653562 56.0986
7.81425812420825 55.9444
7.836626570110925 56.2862
7.858995315087906 56.7907
7.881346924933401 57.056000000000004
7.903716270417482 57.5895
7.926068482028405 58.0733
7.948438431475253 58.4423
7.9708086843180235 59.0492
7.993161805171116 59.4911
8.015532667162402 60.0276
8.037886398416653 61.1259
8.060257873014221 61.2881
8.082629655331942 61.7556
8.104984308787587 62.893
8.127356708900503 66.8607
8.149711981398308 74.0691
8.172085002766314 77.2032
8.194458336181368 72.8837
8.216814543847752 68.9468
8.23918850371002 68.3665
8.26154533906492 68.8831
8.283919928836452 70.2437
8.306277395339652 71.4387
8.328652618483376 72.40100000000001
8.351028159736202 74.6358
8.373386579575245 76.572
8.395762759396959 78.2875
8.418121819038275 83.5101
8.440498640894003 99.1197
8.462875785192262 116.31
8.485235811156207 122.337
8.507613602688501 142.793
8.529974277114228 208.143
8.552352719347912 319.83
8.574731488360351 549.735
8.59709314210385 1073.07
8.619472567021075 1768.12
8.64183487789147 2237.99
8.664214962183097 1873.91
8.686577933647762 1039.88
8.708958680784317 392.14599999999996
8.731339760774953 174.615
8.753703729764451 111.469
8.77608547780821 97.2629
8.798450116065078 94.0869
8.820832535634787 90.7867
8.843215292401656 89.2598
8.865580941199045 87.7806
8.887964374703538 87.0601
8.910330701447199 88.8086
8.932714815164482 92.6419
8.955099270424924 92.2303
8.977466620733543 88.3141
8.999851761421976 84.4885
9.022219798361645 82.4395
9.04460562795561 82.0806
9.066991803441677 81.468
9.089360876979615 81.3755
9.111747746589993 80.8282
9.13411751544971 80.3314
9.156505082664324 80.2512
9.178875550323522 81.0814
9.20126381862328 81.2987
9.223652438908596 82.0263
9.246023961427412 81.322
9.26841328802173 80.5977
9.290785518039224 80.3927
9.313175554425882 81.2558
9.335565947154315 80.7414
9.357939245086508 81.2096
9.380330352834827 81.5495
9.40270436697103 81.6513
9.425096193225055 81.6416
9.447488380180165 82.3645
9.469863475295412 82.5604
9.492256385987508 83.3515
9.514632206018318 83.7544
9.537025843935714 83.5697
9.559402392368193 84.6318
9.581796761000229 85.0543
9.604191496441521 86.3798
9.626569144158516 90.4977
9.648964615551032 96.7065
9.671343000390081 99.1449
9.693739211225699 96.2796
9.716135793237463 92.391
9.738515290448102 91.463
9.760912617143402 92.2936
9.783292860202891 93.2547
9.805690935076182 94.2093
9.828089385495742 95.1828
9.850470754023561 97.7604
9.872869957865444 106.564
9.89525208097539 126.025
9.917652041736662 141.567
9.940052382417589 139.46
9.962435644102392 134.548
9.984836746950979 152.97899999999998
10.007220771957746 203.46
10.029622640473708 288.04900000000004
10.052007432299963 446.36
10.074410069984072 719.7819999999999
10.096813093716005 1178.11
10.119199042482517 1717.75
10.141602840636468 2049.62
10.163989564971628 1661.43
10.186394141051062 954.752
10.208799107559706 424.384
10.231187001965623 191.19799999999998
10.253592751657669 125.78399999999999
10.275981430388155 111.948
10.298387966769793 112.587
10.320794897965431 116.73899999999999
10.343184759907361 115.561
10.36559248305461 108.921
10.387983138083852 102.45299999999999
10.410391656691655 102.728
10.432800574501677 110.764
10.455192425893369 123.117
10.47760214443012 145.131
10.499994797678786 184.65599999999998
10.522405320453982 259.151
10.54479877906917 382.45
10.567210109595656 504.467
10.5896218454736 574.42
10.612016518879773 514.63
10.634429067781074 346.075
10.656824555333241 204.558
10.679237920773568 127.18299999999999
10.701651695961992 96.0185
10.724048411481384 88.1559
10.746463008485165 85.1356
10.768860546937125 83.4664
10.791275969274796 81.5233
10.81369180576079 81.0631
10.836090585366925 79.6708
10.858507252467449 78.5259
10.88090686379991 77.6954
10.903324365036394 77.3381
10.925724811614439 77.5923
10.948143150509463 79.462
10.970561909719066 78.9631
10.992963615930844 76.2656
11.015383218085756 74.2012
11.037785768347074 72.4562
11.06020621697282 71.6756
11.082627090322113 71.4414
11.105030913430326 70.7339
11.12745263854165 71.8128
11.149857314510728 76.483
11.172279894912576 84.7453
11.194702904450653 86.4414
11.217108866490921 81.2031
11.239532736615194 75.2887
11.26193956033512 72.2094
11.284364294577085 70.4495
11.306789462371718 68.0745
11.329197585398376 66.3291
11.351623622610898 65.9026
11.37403261614354 65.2911
11.396459526308487 65.1142
11.418869393879497 64.5593
11.441297180532617 64.3786
11.463725406927658 63.8865
11.486136592353875 63.7973
11.508565700543707 64.8757
11.530977768845315 67.3318
11.553407762368774 68.5025
11.575838200059769 67.8631
11.598251599479612 65.4473
11.620682927815501 63.6462
11.64309721895548 62.5255
11.665529441478206 62.3723
11.687962112597958 61.8488
11.710377748130886 62.1276
11.732811318753434 61.7586
11.755227854859067 61.8129
11.777662328529495 61.7637
11.800079768750786 61.7328
11.822515149015453 61.3524
11.844950984084935 61.5232
11.867369787303163 61.2805
11.889806534289491 61.6806
11.912226250487029 61.8173
11.934663912939751 61.628
11.9571020346363 61.6608
11.979523127133968 61.6516
12.001962169624331 62.0601
12.024384183972964 62.6645
12.046824150809913 65.0583
12.069264581333726 69.5529
12.091687985297767 74.7413
12.11412934550045 83.1223
12.136553680195208 96.3342
12.158995973632788 118.30799999999999
12.181438735204349 148.22299999999998
12.20386447284199 183.84799999999998
12.226308172985636 207.68
12.24873485024193 204.65599999999998
12.271179492516982 171.261
12.293607112949127 130.917
12.316052700916226 98.6338
12.338498763250042 80.5662
12.360927805303868 71.2076
12.383374818673879 66.3086
12.405804812803074 64.0526
12.428252780773262 63.5431
12.45070122756722 63.3178
12.473132656675375 63.3327
12.49558206341869 63.273
12.518014453510101 63.3407
12.540464823770117 63.4584
12.562915677315177 63.6678
12.58534951575545 64.7935
12.607801338171472 67.6453
12.630236146511358 74.3115
12.652688941369085 80.6008
12.675124723177234 81.1587
12.697578494048786 76.306
12.720032754458185 70.2856
12.742470003354093 67.2143
12.764925245138771 66.7538
12.787363476431278 66.9971
12.809819703166806 67.1053
12.83227642391173 67.7217
12.854716135692716 68.41199999999999
12.877173846755147 69.4295
12.899614549869717 69.6152
12.9220732548287 70.3772
12.94453245827299 70.6269
12.966974655289818 71.4093
12.989434858002571 72.3702
13.011878055298721 73.4277
13.034339260862497 74.0472
13.056800969391883 75.3056
13.079245674017244 76.8031
13.101708390774869 78.2638
13.12415410463411 83.2739
13.146617833206086 93.2134
13.169064559883248 103.314
13.191529303857127 116.065
13.213994557076367 135.958
13.236442809902437 168.835
13.258909083908291 219.145
13.28135835851934 287.533
13.30382565690295 367.17
13.326293469022952 427.601
13.348744283242008 435.088
13.371213125129904 372.815
13.39366497011003 269.189
13.416134845360597 178.91400000000002
13.438605238843131 125.385
13.46105863690397 103.012
13.483530069144786 100.119
13.505984506951902 103.493
13.528456981549432 111.27799999999999
13.550929978879088 124.13799999999999
13.573385983253365 146.19
13.595860028340867 183.11700000000002
13.618317081455832 237.43200000000002
13.64079217790333 298.502
13.663250283359057 351.082
13.685726434770173 385.311
13.708203115221277 350.52
13.730662806148091 268.538
13.75314054697177 188.047
13.775601299246777 129.686
13.798080104050406 96.8422
13.820559442405358 84.1237
13.843021793671388 80.3897
13.865502201420897 78.6053
13.887965623051947 78.2655
13.910447103807167 77.0319
13.932929122629764 75.6251
13.955394156785959 75.2885
13.977877254034569 74.6479
14.000343367582113 73.5583
14.022827546871707 73.0053
14.045294743423524 72.1438
14.06778000837062 71.6995
14.090265817715476 71.8654
14.112734645763819 71.4136
14.13522154619454 71.4157
14.157691466286913 71.5115
14.180179461423874 71.1318
14.202668005486178 70.4972
14.22513957064374 69.5855
14.247629214846473 69.1308
14.270101881097517 69.0726
14.29259262906496 69.6926
14.315083930490205 70.5181
14.337558255389705 71.0517
14.360050666019726 70.8571
14.382526101071944 69.4369
14.405019624534942 68.3527
14.427513705993134 67.5077
14.449990813291825 67.5136
14.47248601302899 67.4828
14.49496423954951 67.3903
14.517460561197822 67.5893
14.539939910570322 67.3018
14.562437357763558 67.7668
14.58493536931253 69.2743
14.607416409993311 70.5187
14.62991555254159 71.4553
14.652397725157423 71.1138
14.674898002342799 70.032
14.697398848433282 69.2642
14.719882725991326 69.3898
14.74238471217934 69.9297
14.764869730765593 72.3202
14.787372860692983 74.7995
14.809876564079925 78.4184
14.83236330125751 83.5264
14.854868153850365 90.8478
14.877356041159485 103.27600000000001
14.899862046604186 121.03399999999999
14.922351087688757 146.504
14.944858249632887 177.696
14.967365991421232 209.07299999999998
14.989856770231246 225.25
15.012365673994204 219.967
15.03485761569738 191.445
15.05736768508665 150.234
15.07987833888692 113.76799999999999
15.102372032001655 90.2873
15.124883856909658 76.266
15.14737872204565 71.2941
15.169891721717274 69.449
15.192405310371893 69.3754
15.214901940621196 70.1493
15.237416709527137 70.6674
15.259914520936249 70.8777
15.282430473753607 70.0155
15.304947020131227 68.3527
15.327446610371178 67.2759
15.349964346154254 66.1791
15.372465126703139 65.5882
15.394984055556009 65.4211
15.417486030076159 65.3505
15.44000615566487 64.9206
15.462526881230803 64.9709
15.485030653812652 65.1766
15.507552581617434 65.217
15.530057557334603 65.418
15.55258069104857 65.0196
15.575104429329837 64.9727
15.597611216864632 64.4883
15.620136166564563 64.4886
15.6426441664095 64.7564
15.665170331202765 66.1838
15.687697105158826 68.8803
15.710206930593545 71.577
15.732734925158933 75.1636
15.755245972089478 80.4705
15.77777519094324 89.0062
15.800287463046663 100.855
15.822817909869592 119.639
15.84534897229804 141.213
15.867863089299354 166.141
15.890395385222186 186.399
15.912910736597423 195.167
15.935444269699861 184.752
15.957978423016485 158.92
15.980495633101265 124.09200000000001
16.003031029129367 96.0978
16.02554948280019 76.7595
16.048086125229432 67.5088
16.070623392487107 64.7841
16.09314371869582 64.3579
16.11568223789321 63.6099
16.13820381691126 62.2518
16.160743591742527 61.0061
16.183283996022084 59.828
16.205807461423195 58.9862
16.228349126881973 58.4233
16.25087385432698 58.2026
16.27341678466365 57.4641
16.29594277784926 57.6234
16.31848697676433 57.8789
16.341031811604868 58.4956
16.36355971058487 59.3779
16.3861058195587 58.8188
16.40863499352978 57.3808
16.431182380342005 56.398999999999994
16.453730407713202 55.4866
16.476261501364792 54.9326
16.498810812136167 54.6028
16.52134319004079 54.7322
16.54389378792203 54.4601
16.566445031001553 54.4847
16.588979342490088 54.1423
16.61153187824822 54.1199
16.634067483263312 54.119
16.656621315414416 54.1059
16.679175797408888 53.6544
16.701713349928728 53.6517
16.72426913389191 53.9008
16.74680798922351 54.0573
16.76936507887444 54.2289
16.791905240734874 54.2324
16.814463639794468 53.9406
16.837022695210294 53.9396
16.859564824093756 54.4554
16.882125194503903 55.4052
16.904668639217885 56.4002
16.927230328348003 56.5932
16.949792678493612 56.733999999999995
16.972338104193863 55.9615
16.994901778652235 55.023
17.017448529496576 54.7698
17.040013531998152 54.6534
17.06257920018044 55.0099
17.0851279459922 55.7697
17.107694947817667 56.3901
17.130245028099072 57.2399
17.15281336730298 58.2299
17.17536478578733 59.7923
17.19793446610687 61.8467
17.220504818648422 64.4586
17.243058251703697 67.7811
17.265629950971032 72.5474
17.288184731571736 77.5999
17.310757781306908 82.6878
17.33333150794385 83.0498
17.355888317140174 81.5709
17.37846339986244 76.657
17.401021565958885 70.2157
17.42359800851343 64.5709
17.44617513265564 60.9686
17.468735341390783 58.8963
17.491261035594565 58.0825
17.51396340099364 58.0528
17.536490463869136 58.1681
17.559018209820174 58.3247
17.58154663977963 58.286
17.604251766089718 58.2132
17.626781572227713 58.5308
17.64931206518155 58.7769
17.671843245885103 59.4001
17.69455114821572 59.6146
17.717083712612634 59.9158
17.739616967569667 60.0005
17.762150914021706 60.2911
17.78486160749854 60.0353
17.807396945166804 60.4905
17.829932977143503 61.058
17.85246970436452 62.2582
17.875183204129467 63.7656
17.897721330097664 65.7614
17.920260154126645 67.8223
17.942799677153296 70.5647
17.9655159983646 73.6932
17.988056927677544 78.3478
18.010598558807683 85.5329
18.033140892692916 95.3429
18.05586005052525 106.723
18.07840379824407 118.839
18.10094825154059 129.512
18.12366954819864 137.889
18.146215420998306 138.321
18.16876200220057 130.384
18.191309292745153 115.944
18.214033452627167 102.604
18.236582170236648 90.9361
18.259131600016456 84.4882
18.281681742907335 84.0499
18.304408781233683 88.1823
18.32696035875955 93.7148
18.349512652227624 99.06200000000001
18.372065662579683 103.75200000000001
18.394795594587553 105.389
18.41735004715306 102.77
18.43990521943684 95.9863
18.46246111238171 86.8615
18.485193953325208 76.8742
18.507751296070428 69.5876
18.530309362314178 65.3283
18.552868153000343 62.596000000000004
18.57560391815056 61.3554
18.59816416623245 60.8405
18.620725141597372 60.2139
18.643286845190268 59.8168
18.666025549835414 59.3362
18.688588718427933 58.9068
18.711152618092243 58.5273
18.73389353884365 58.4639
18.75645890921984 58.0285
18.77902501351406 57.6783
18.801591852673102 57.6025
18.824335739722738 57.2034
18.846904057212626 57.1692
18.8694731124168 56.7639
18.89204290628315 56.7822
18.914789774966803 56.5443
18.937361054791623 56.2165
18.959933076131318 56.0884
18.982505839934877 56.1762
19.00525570560582 56.4177
19.027829963004184 56.0723
19.05040496572238 56.1976
19.072980714710468 55.9957
19.095733592739563 56.169
19.11831084296757 56.3584
19.140888842324735 56.7133
19.16346759176222 57.0478
19.18622349753803 57.5909
19.208803755869358 58.1811
19.231384767143577 59.2857
19.253966532312948 60.4484
19.276725481241822 62.2618
19.29930876296784 64.9913
19.3218928014549 67.7917
19.34465404436217 71.7521
19.36723960516257 74.7883
19.389825925592426 76.5046
19.412413006605938 75.5752
19.43517731967805 72.265
19.457765930683355 67.5325
19.48035530514408 62.8275
19.50294544401556 59.0301
19.525712842708348 56.2611
19.54830451925909 54.7068
19.570896963095727 53.3963
19.593490175174704 53.0641
19.616260674962184 53.1786
19.638855432416964 52.7524
19.661450960992624 52.9716
19.68404726164677 52.5677
19.706820878021247 52.4475
19.729418731756834 52.6592
19.752017360452857 52.4096
19.77461676506804 52.5886
19.797393513540218 52.6607
19.819994478951667 52.8238
19.84259622316767 53.345
19.8651987471481 53.7127
19.887978643247177 53.964
19.91058273574792 54.3409
19.933187610901943 54.9874
19.955969879466828 56.0646
19.97857632894404 57.2807
20.00118356396599 58.7074
20.023791585494575 60.8195
20.046577028914875 63.5747
20.069186632506966 66.0205
20.091797025500632 68.2339
20.114408208858933 69.1162
20.137196842715273 69.0092
20.159809615886765 67.4785
20.18242318232135 64.8298
20.20503754298326 62.5341
20.227829382875154 61.3959
20.250445341109344 61.1315
20.27306209647285 61.5883
20.29567964993108 63.2163
20.31847471147704 64.439
20.34109387027612 65.3135
20.363713830075454 65.2738
20.386334591841646 63.8518
20.409132890679302 61.0481
20.431755265564437 58.0741
20.454378445325528 55.1957
20.477002430930366 53.0763
20.499803982716553 51.9402
20.522429589228004 51.2683
20.54505600449589 50.5886
20.567683229489194 50.456
20.590488049900088 50.1513
20.61311690359731 49.6124
20.63574656993626 49.2843
20.658553853717297 48.8552
20.681185154618298 48.9093
20.703817271080066 48.9357
20.72645020407368 48.56
20.749260783967177 48.3722
20.771895359337133 48.2686
20.794530754161617 48.0773
20.817166969412938 48.1472
20.83998086114876 48.0009
20.86261872660049 47.8065
20.885257415405402 47.9292
20.90789692853701 47.9372
20.930714147864748 47.8159
20.953355319030678 47.8453
20.97599731745334 48.01
20.99864014410749 47.8253
21.021460706796564 47.8715
21.044105199328826 48.0555
21.06675052302631 48.1741
21.089396678865015 48.262
21.112220600704806 48.6202
21.134868430275347 49.0656
21.15751709492456 49.1502
21.180166595629693 49.6424
21.202993892429635 50.0738
21.22564507473034 50.5067
21.24829709602816 50.6583
21.27112693608965 50.7213
21.293780644891275 50.6361
21.316435195634053 50.0339
21.339090589297417 49.315
21.361923832041875 48.7716
21.384580921090404 48.3032
21.407238856007325 47.7609
21.429897637773326 47.7201
21.45273429906592 47.6138
21.475394784108598 47.5741
21.498056118951983 47.5573
21.520718304578022 47.8222
21.543558400304388 47.7666
21.566222297108816 47.8055
21.58888704765135 48.0137
21.61155265291521 48.1664
21.63439619898156 48.5642
21.657063523335786 48.6369
21.67973170537063 49.111999999999995
21.7024007460706 49.4819
21.72524775840385 50.2557
21.747918526116475 51.3272
21.770590155457388 52.4733
21.79326264741238 53.9261
21.816113141960237 55.5422
21.838787368860547 57.617
21.861462461341976 59.6451
21.884315579735777 61.7281
21.90699241312273 63.2902
21.92967011506078 64.0364
21.95234868653799 63.9641
21.9752053151131 62.8145
21.997885635446785 60.6439
22.020566828293532 58.7012
22.04324889464272 57.0808
22.066109049404666 56.1146
22.088792872571794 55.4187
22.111477572219204 55.415
22.1341631493376 55.6462
22.157026846313123 55.4923
22.179714188221507 54.7587
22.202402410582668 53.667
22.22509151438863 52.1687
22.24795876962584 50.7526
22.270649646204486 49.8413
22.293341407213727 49.2252
22.316034053646906 48.6681
22.338904883215342 48.44
22.36159931041458 48.3177
22.38429462602756 48.2298
22.40699083104897 48.2626
22.429865251039757 48.4521
22.452563244831367 48.2688
22.47526213102522 48.2616
22.49813925616515 48.0531
22.520839937143307 47.9418
22.543541513520587 48.0274
22.56624398629403 47.7849
22.589124730075895 47.7857
22.611829005656723 47.7827
22.63453418063466 47.7989
22.657240256008077 47.989
22.680124634582935 47.9116
22.70283252079775 48.3532
22.725541310413075 48.4527
22.74825100442868 48.6175
22.771139033969575 49.0885
22.79385054687155 49.4839
22.81656296718292 49.9396
22.83927629590484 50.7198
22.862167992606945 51.8366
22.88488314827121 52.9437
22.907599215359284 54.1571
22.93031619487366 55.273999999999994
22.953211574954405 56.2534
22.975930389478226 57.3364
22.998650119445763 57.5116
23.02137076586092 56.8185
23.044269845560063 55.7707
23.06699233506288 54.0544
23.089715744034912 52.1054
23.112617610931565 50.5355
23.135342869061212 49.3469
23.158069049684816 48.5251
23.1807961538087 48.0704
23.20370174880544 47.989
23.226430710184808 48.0717
23.249160598093425 47.9549
23.271891413539002 47.9729
23.294800752937697 47.824
23.31753343374794 48.0739
23.340267045128353 48.1616
23.36300158808808 48.5192
23.38591468821339 48.6644
23.408651104658304 49.0361
23.431388455719986 49.6953
23.454126742409 50.3866
23.4770436196085 51.3697
23.499783787914662 52.8179
23.522524894889884 53.9901
23.54526694154616 54.9874
23.56818761219047 56.2889
23.59093154860734 56.8568
23.613676427751283 57.4715
23.636422250635754 56.8737
23.659346731118656 55.3522
23.68209445191868 53.3998
23.704843119509587 51.1314
23.72759273490623 49.1597
23.750521041644767 47.7487
23.77327256312355 46.9624
23.796025035462787 46.088
23.818956224555475 45.4698
23.841710609113413 45.3793
23.86446594758979 45.0995
23.887222241002014 44.799
23.910157285144578 44.5414
23.932915498962537 44.6188
23.955674670778713 44.5032
23.978434801611975 44.3487
24.001373717286125 44.1961
24.024135776723917 44.0246
24.046898798245582 44.0612
24.06966278287146 43.8339
24.092605586582614 43.5796
24.115371508023642 43.5901
24.1381383956401 43.4919
24.16090625045381 43.4554
24.183852958731244 43.3404
24.206622758582608 43.1953
24.229393528706886 42.9745
24.252165270127392 43.0465
24.27511589952438 43.0621
24.297889594216997 42.8942
24.32066426328598 42.6284
24.34343990775613 42.706
24.36639447485003 42.5028
24.38917208083877 42.5082
24.41195066531332 42.3911
24.43490819850244 42.4611
24.457688750692377 42.4928
24.48047028445616 42.3924
24.503252800821233 42.3862
24.526214300784112 42.4537
24.548998793132213 42.3843
24.57178427117417 42.3173
24.59457073593893 42.3939
24.617536219319863 42.3295
24.64032466834748 42.4472
24.663114107195035 42.163999999999994
24.685904536893013 41.9946
24.708874020360852 41.9497
24.731666442613744 41.7855
24.754459858818787 41.6356
24.777254270007962 41.8015
24.80022777025625 41.5755
24.82302418230472 41.6599
24.845821592443674 41.6777
24.86862000170663 41.5094
24.891597535453727 41.2417
24.914397953892728 41.54600000000001
24.93719937456671 41.5452
24.96000179851076 41.5717
24.98298338249997 41.7783
25.00578782394922 42.1151
25.028593271784167 42.1711
25.05157790644186 42.5746
25.07438537804115 42.5474
25.097193859145293 42.7873
25.120003350792075 42.9954
25.142992065061257 43.5043
25.165803588823465 43.5842
25.18861612625217 43.9657
25.211429678386736 43.9278
25.234422489079968 44.0633
25.257238081693636 44.0768
25.280054692141732 44.1336
25.3028723214652 44.2143
25.325869245420463 44.3645
25.348688923599397 44.2872
25.371509623787006 44.2389
25.394331347025812 44.0786
25.41733240110666 43.7778
25.440156181590016 42.9559
25.46298098826268 42.4242
25.48580682216873 41.8819
25.50881202326435 41.3133
25.53163992281684 40.8597
25.55446885274561 40.571999999999996
25.577298814096377 40.3112
25.600308179121807 40.2321
25.623140214533745 40.2624
25.64597328451537 40.1845
25.66898578564376 40.0099
25.691820936010206 40.0047
25.714657124097695 39.9023
25.737494350954734 39.8737
25.760511045684957 39.9408
25.783350361364224 39.9995
25.806190718969255 39.8871
25.82903211955018 39.967
25.852053024868923 39.9227
25.874896522722523 39.9695
25.897741066713106 39.8355
25.920586657892454 40.0189
25.943611790812668 40.256
25.966459487728237 40.4295
25.989308234998564 40.3224
26.01215803367705 40.5798
26.03518741123814 40.8141
26.05803932412957 40.8315
26.080892291600094 41.0032
26.10374631470478 41.0826
26.12677995397268 41.0945
26.14963609978026 41.0903
26.172493304397875 40.8479
26.19535156888223 40.6024
26.218389486949604 40.179
26.241249882640123 40.0204
26.26411134137826 39.6786
26.28715248187403 39.5656
26.31001607820869 39.5685
26.3328807407756 39.367
26.35574647063438 39.5699
26.37879191991473 39.4908
26.401659795896734 39.4442
26.424528742360263 39.6304
26.447398760366614 39.6939
26.470448535598294 39.9261
26.49332070826805 40.1397
26.516193955675355 40.3851
26.53906827888316 40.5073
26.562122397260108 40.8337
26.584998883685063 41.2366
26.607876449110325 41.4441
26.63075509460056 41.5097
26.65381357334404 41.691
26.67669439061878 41.6736
26.699576291163382 41.5015
26.722459276044212 41.42
26.745522132402975 41.2333
26.768407297649354 40.9948
26.791293550442003 40.6
26.814180891848974 40.3378
26.837248143099337 39.9878
26.860137673466657 39.8317
26.88302829566349 39.6147
26.90592001075963 39.5185
26.92899167420566 39.341
26.951885586870763 39.0016
26.974780595655517 38.7524
26.99785558178161 38.6146
27.020752794605112 38.5029
27.043651106772522 38.4055
27.06655051935668 38.2413
27.089629948036183 38.1144
27.112531573292053 38.0952
27.135434302194138 38.1395
27.158338135817015 37.9445
27.181422024430987 37.9457
27.204328079372566 37.814
27.22723524226965 37.9408
27.250143514198573 38.0105
27.273231880156334 37.8492
27.296142382065014 37.7631
27.319053996245536 37.7541
27.341966723775965 37.8405
27.365059584515222 37.9467
27.38797455070062 37.9952
27.410890633481237 37.86
27.433807833936918 37.8639
27.456905206923906 37.8728
27.47982465472398 37.9456
27.502745223449743 38.1089
27.525666914182825 38.1324
27.548768816912457 38.0807
27.571692763693633 37.963
27.59461783573812 37.8337
27.617723149491244 37.6972
27.640650484125285 37.5241
27.66357894728264 37.6202
27.686508540048052 37.507
27.709618414237887 37.4435
27.732550278321757 37.3184
27.755483275279115 37.2364
27.778417406196485 37.2662
27.801531858397514 37.2258
27.824468269376716 37.2207
27.847405817586786 37.2808
27.870344504116094 37.2847
27.893463551932008 37.4903
27.916404527281053 37.7161
27.93934664422563 37.7147
27.962289903855886 37.7274
27.98541356491974 38.1433
28.00835912214229 38.1663
28.03130582533231 38.541
28.054253675581805 38.5609
28.077381967556104 38.56
28.100332124185126 38.5208
28.123283431160893 38.3927
28.146235889577238 38.3029
28.169368830154156 38.1296
28.192323603752033 37.9316
28.215279532083304 37.6817
28.238415973016764 37.5696
28.261374223145094 37.4013
28.284333631303806 37.2234
28.307294198589954 37.063
28.330435319167677 36.6498
28.353398217078915 36.5196
28.376362277420153 36.3382
28.39932750129032 36.0464
28.422473319286713 35.9024
28.44544088262495 35.8073
28.468409612800283 35.7287
28.491379510913497 35.7227
28.51453004413313 35.52
28.53750229057244 35.4108
28.56047570826344 35.4377
28.583450298308804 35.4366
28.606605564586562 35.2381
28.629582511831156 35.1918
28.65256063474956 35.0142
28.675539934446338 35.0967
28.698699951647605 35.138000000000005
28.72168161743193 35.0637
28.74466446331978 35.0645
28.767648490417624 34.9711
28.790813276438353 34.9061
28.813799678527303 34.9817
28.836787265157085 34.9302
28.859955641890075 35.0431
28.882945610203045 34.9739
28.905936766392035 34.8532
28.928929111566863 34.8759
28.952102288520145 34.8563
28.975097024308607 34.749
28.998092952423807 34.5645
29.021090073977508 34.4585
29.04426806913204 34.3485
29.067267590245258 34.1422
29.090268308143695 34.1332
29.11327022394099 34.0981
29.13645305530891 33.9343
29.159457379627167 33.9493
29.18246290519685 33.8136
29.20546963313352 33.8247
29.22865731875826 33.8068
29.25166646419296 33.7992
29.27467681535305 33.751
29.29768837335608 33.8291
29.320880931312562 33.8339
29.34389491580634 33.8269
29.366910110507334 33.7788
29.38992651653503 33.8285
29.41312396492981 33.7995
29.436142806456754 33.7587
29.45916286268059 33.6148
29.48236399319994 33.5126
29.50538649169417 33.3614
29.528410208259935 33.2324
29.55143514402014 33.1543
29.574641196749695 32.9886
29.597668583816574 32.8408
29.6206971934585 32.7198
29.64372702680042 32.7393
29.666938019934474 32.6562
29.689970313635285 32.5188
29.713003834422636 32.4675
29.73603858342347 32.4909
29.759254535188578 32.4309
29.78229175361658 32.4778
29.80533020365064 32.4929
29.82836988641968 32.4708
29.85159081507472 32.2677
29.874632976355343 32.2267
29.89767637376955 32.3886
29.920721008448314 32.0858
29.9439469322847 32.0687
29.96699405457564 32.0523
29.9900424175358 32.0116
30.013092022298157 32.0011
30.03632295963995 31.9714
30.059375061131373 31.9271
30.08242840783577 32.014
30.105483000888153 32.077
30.128718970092244 31.9323
30.151776069006917 31.9294
30.17483441768648 32.0268
30.198074175317235 31.9561
30.221135036724256 31.9413
30.24419715131772 31.9295
30.267260520236203 31.7851
30.290505341942243 31.8658
30.313571232750228 32.0368
30.336638381310948 31.930999999999997
30.35970678876503 31.8878
30.38295669299435 31.8553
30.40602763151657 31.7806
30.429099832366074 31.6489
30.452173296685572 31.56
30.47542830191959 31.7209
30.498504306502497 31.6469
30.521581577995562 31.596999999999998
30.544660117543582 31.7127
30.56792024229725 31.7535
30.59100133132069 31.6332
30.614083691845494 31.668000000000003
30.637167325018545 31.7377
30.660432587840603 31.6904
30.683518779717886 31.6817
30.70660624769615 31.7419
30.729694992924372 31.7446
30.75296541239743 31.829
30.77605672557558 31.7454
30.799149319462742 31.6382
30.8224236211637 31.4836
30.845518789950724 31.4716
30.868615242910597 31.5733
30.891712981195973 31.2359
30.91499247215866 31.2111
30.938092794619365 31.212
30.96119440587579 31.0862
30.984297307082752 30.9316
31.00758200598383 30.9439
31.030687500658694 30.8358
31.053794288760695 30.7021
31.076902371446767 30.671
31.100192296997445 30.7303
31.12330298246119 30.6865
31.14641496599209 30.4954
31.169528248749216 30.5631
31.19282341969534 30.5004
31.215939314557186 30.4815
31.239056512134788 30.5287
31.262175013589378 30.5299
31.28547544871168 30.4029
31.30859657161541 30.3561
31.331719001892175 30.4108
31.35484274070538 30.4722
31.378148458819545 30.46
31.401274828443725 30.4067
31.424402510106933 30.4833
31.447712205419993 30.4789
31.470842524931633 30.3827
31.493974159989783 30.3949
31.51710711176168 30.4829
31.54042212308802 30.3561
31.563557722100917 30.2696
31.586694641341655 30.2138
31.609832881979628 30.098000000000003
31.63315322823208 30.1264
31.656294125521327 29.8781
31.679436347728515 29.8634
31.70257989602529 29.9254
31.725905596152327 29.721999999999998
31.74905181052835 29.7154
31.772199354521323 29.8079
31.79534822930507 29.6351
31.818679302290967 29.7844
31.84183085259981 29.7515
31.864983737233473 29.7447
31.88813795736804 29.779
31.911474422233013 29.613000000000003
31.934631327356435 29.6594
31.9577895715215 29.6694
31.980949155906522 29.6338
32.004291031706956 29.6014
32.027453310562606 29.434
32.05061693318573 29.3772
32.07396288236386 29.3917
32.09712920658542 29.3218
32.12029687812702 29.2635
32.14346589817093 29.2057
32.166817291729984 29.1772
32.18998902288583 29.002
32.21316210610336 28.9764
32.23633654256711 28.8668
32.259693399663725 28.9503
32.282870556771144 28.7917
32.30604907069099 28.8412
32.329228942610065 28.726999999999997
32.35259128243769 28.6029
32.375773884550505 28.5538
32.398957848235646 28.5582
32.422143174682176 28.4587
32.445511016471215 28.3871
32.468699082679954 28.3444
32.49188851523011 28.3952
32.51507931531304 28.2254
32.538452678331 28.2134
32.56164622776311 28.2206
32.58484114831493 28.0955
32.60803744118015 28.1037
32.631416344731896 28.1345
32.654615396551876 28.0874
32.67781582427913 28.0194
32.701198898634416 27.9794
32.72440209253756 27.9444
32.747606665947124 27.8802
32.77081262006088 27.7886
32.79420126883317 27.7602
32.81740999876112 27.8287
32.840620112999424 27.6741
32.86383161274818 27.6082
32.88722585534586 27.6785
32.91044014056596 27.5966
32.933655814909734 27.5721
32.95687287957963 27.6432
32.98027273544904 27.5465
33.00349259526636 27.5784
33.026713849030116 27.5159
33.04993649794511 27.5252
33.073341986570746 27.3145
33.09656744032826 27.4066
33.11979429286444 27.463
33.14302254538647 27.4348
33.166433686291185 27.3865
33.18966475336992 27.2881
33.212897224069096 27.3215
33.23613109959831 27.2252
33.259547912343415 27.2272
33.2827846121627 27.1469
33.306022720453775 27.1514
33.32926223842861 27.0602
33.352684742614166 27.1023
33.37592709463173 27.0952
33.399170859982064 26.9115
33.422597648419426 26.8404
33.44584425514446 26.8009
33.46909227885668 26.6853
33.4923417207723 26.624000000000002
33.51577423505344 26.6434
33.539026528130385 26.6024
33.56228024307245 26.5605
33.585535381098246 26.4483
33.60897364093058 26.4103
33.63223163992385 26.3674
33.6554910656699 26.3279
33.678751919389796 26.3214
33.702195944520106 26.2246
33.72545966903325 26.1846
33.74872482519663 26.15
33.771991414233746 26.1644
33.79544122444841 26.1214
33.81871069412428 26.0416
33.84198160035767 26.1034
33.86525394437455 26.1354
33.88870955949969 26.0128
33.911984794020626 25.9409
33.93526147001624 25.9659
33.958539588715006 25.8777
33.98200102861669 25.7285
34.0052820477047 25.6864
34.02856451319451 25.6701
34.05203033759056 25.6188
34.07531571090147 25.6692
34.09860253431845 25.5336
34.121890809074316 25.4996
34.145362493118924 25.5616
34.16865368561615 25.4957
34.191946333164054 25.4432
34.21524043699793 25.4211
34.23871800066799 25.4497
34.26201503218366 25.2953
34.28531352370466 25.3322
34.30861347646881 25.2687
34.33209693978188 25.1901
34.3553998301885 25.1305
34.378704185565205 25.1724
34.402010007152356 25.0941
34.42549939016683 25.0088
34.44880815937748 24.9539
34.472118398533134 24.9106
34.49543010887669 24.8981
34.51892543169198 24.8218
34.54224009966052 24.7547
34.56555624255917 24.8026
34.58887386163339 24.6717
34.61237514439016 24.611
34.6356957311114 24.644000000000002
34.65901779775809 24.5628
34.68252356662995 24.6075
34.705848608458616 24.5607
34.72917513396849 24.4137
34.75250314440949 24.4921
34.77601490857862 24.410999999999998
34.799345904259795 24.3521
34.82267838863559 24.3862
34.846012362958525 24.2988
34.869530142679984 24.2731
34.89286711232212 24.3247
34.91620557568269 24.284000000000002
34.93954553401677 24.3412
34.9630693495876 24.1493
34.986412313340814 24.1987
35.00975677584668 24.1422
35.033102738362956 24.1317
35.05663261012228 23.9952
35.0799815881786 23.9948
35.10333207003229 24.0286
35.12668405694369 23.9996
35.150220005273056 24.0166
35.17357501786656 23.9178
35.19693153931268 23.933000000000003
35.220289570874385 23.8271
35.24383161619786 23.8194
35.267192683604904 23.7797
35.290555264930376 23.7921
35.314101899412165 23.748
35.33746752422433 23.7751
35.36083466676374 23.7782
35.38420332829803 23.6683
35.407756095629054 23.6301
35.43112781085063 23.6812
35.45450104888391 23.6295
35.477875810999194 23.5492
35.50143473172161 23.5192
35.52481255774625 23.4895
35.54819191167777 23.4593
35.57157279478914 23.4428
35.595137889488406 23.4036
35.61852184675279 23.3691
35.641907337029984 23.2892
35.665294361595684 23.3043
35.68886565090076 23.3009
35.7122557598848 23.213
35.73564740699838 23.2343
35.759040593519934 23.199
35.78261809810353 23.2015
35.80601437933051 23.1035
35.829412203814705 23.0666
35.85281157283719 22.9636
35.876395313415884 23.0041
35.8997977874528 22.901
35.92320180988546 22.9102
35.946790244133936 22.8485
35.97019737933222 22.8002
35.993606066789866 22.7996
36.01701630779276 22.7907
36.04061101440684 22.6745
36.06402437852291 22.6967
36.08743930005611 22.7235
36.1108557802951 22.618000000000002
36.13445678011326 22.6004
36.15787639383515 22.5554
36.18129757014299 22.4742
36.20472031032821 22.4825
36.22832762423364 22.3678
36.25175350829375 22.4487
36.275180960119776 22.3526
36.298609981005924 22.4577
36.32222362992669 22.4026
36.34565580510207 22.2962
36.36908955323448 22.3104
36.39252487562093 22.2109
36.416144880530226 22.1457
36.43958336764275 22.1286
36.463023432914625 22.1742
36.486465077645676 22.0369
36.51009145956204 22.1859
36.53353627947859 22.1401
36.55698268276811 22.0779
36.58043067073321 21.9952
36.60406345072071 21.9217
36.62751462435344 21.933000000000003
36.65096738658405 21.8455
36.67460498210655 21.8541
36.69806093788647 21.8655
36.72151848619297 21.7495
36.744977628333636 21.8252
36.76862165890998 21.7029
36.79208400512205 21.74
36.81554794910557 21.6729
36.83901349217101 21.6093
36.862663978991606 21.5567
36.88613273667352 21.5427
36.90960309738324 21.5914
36.933075062434064 21.5314
36.95673202673572 21.443
36.98020721697122 21.4087
37.003684015502365 21.3015
37.027162423645365 21.3146
37.050825886711465 21.3338
37.07430753063053 21.2356
37.09779078812467 21.1661
37.121275660513014 21.2021
37.144945643673694 21.1337
37.16843376245278 21.22
37.19192350009803 21.1354
37.215414857931435 21.0947
37.239091382563885 21.0024
37.262585997426164 21.0239
37.28608223645736 21.0096
37.309763684451696 20.9517
37.33326318851098 20.8691
37.356764320726555 20.8391
37.380267082425526 20.8523
37.40395510942588 20.8213
37.42746114683234 20.7338
37.45096881771841 20.701999999999998
37.474478123414166 20.7573
37.49817275092816 20.6732
37.52168534303452 20.6994
37.54519957395567 20.638
37.568715445024665 20.6627
37.592416694607714 20.5223
37.61593586281424 20.5289
37.63945667518264 20.5212
37.66297913304891 20.418
37.68668702630454 20.474
37.710212792059274 20.3532
37.733740207334854 20.3341
37.757269273470364 20.3175
37.780983832050374 20.3021
37.80451621684926 20.2981
37.82805025654007 20.1875
37.851585952464795 20.151
37.8753071980695 20.1524
37.89884622345676 20.0719
37.92238690911902 20.0931
37.94611318753442 19.9852
37.969657210779765 19.9768
37.99320289834801 20.0331
38.016750251586465 19.928
38.04048325513017 19.8639
38.06403395679343 19.8738
38.087586328183946 19.8802
38.11114037065203 19.8174
38.13488012115898 19.8742
38.1584375229181 19.7761
38.181996599821 19.7634
38.205557353221124 19.7395
38.229303872575656 19.65
38.2528679961576 19.6652
38.27643380031219 19.6897
38.30000128639589 19.5879
38.32375459653193 19.5255
38.34732546371299 19.5683
38.37089801690786 19.5142
38.39447225747609 19.4259
38.418232380377425 19.4271
38.441810012983396 19.4291
38.46538933705673 19.38
38.488970353960084 19.3291
38.51273731166058 19.3225
38.536321731567014 19.2454
38.55990784840681 19.2239
38.58367995004091 19.2282
38.60726947812959 19.1022
38.63086070726198 19.1998
38.654453638806274 19.1918
38.678232613930824 19.1049
38.70182896773327 19.0587
38.72542702806741 19.0521
38.7490267963045 19.0189
38.77281266709232 18.9938
38.79641586862214 18.9321
38.8200207821842 18.8983
38.843627409152944 18.88
38.86742019782782 18.7859
38.891030269149255 18.7742
38.914642058016156 18.8029
38.938255565806124 18.7693
38.96205529464307 18.7023
38.98567225787121 18.6735
39.00929094417078 18.6889
39.03291135492255 18.7289
39.05671804624804 18.6392
39.080341923549106 18.5734
39.103967529460334 18.5631
39.127594865365744 18.4875
39.15140854155791 18.4845
39.17503935514948 18.4744
39.19867190290282 18.4219
39.22249083587951 18.3638
39.24612686969409 18.3673
39.269764641845306 18.363
39.293404153722804 18.3232
39.317230110864074 18.2208
39.34087311998506 18.2045
39.36451787301696 18.2126
39.388164371352595 18.1833
39.41199737518003 18.1261
39.43564738196752 18.1212
39.45929913825317 18.1469
39.48295264543308 18.0967
39.506792718520884 18.0863
39.530449745387216 17.9991
39.55410852735203 18.0115
39.57776906581474 18.0347
39.60161623079 17.9811
39.625280300200025 17.8968
39.64894613032202 17.8873
39.67261372255866 17.8528
39.6964680021016 17.8371
39.72013913657293 17.8851
39.74381203738292 17.8158
39.76748670593756 17.8084
39.79134812278169 17.7237
39.81502634488497 17.7311
39.83870633896685 17.6758
39.862388106436654 17.6268
39.88625668336918 17.5986
39.90994201572829 17.5992
39.933629125719285 17.5582
39.957503091207826 17.5406
39.9811937746168 17.5155
40.00488623990914 17.4818
40.02858048850006 17.4414
40.05246165409549 17.4314
40.076159487492085 17.3655
40.099859108448875 17.348
40.123560518384345 17.3082
40.1474489070226 17.3483
40.171153913178564 17.21
40.194860712584955 17.2701
40.2185693066637 17.2162
40.242464941335314 17.1314
40.26617714307655 17.121
40.289891143772046 17.1115
40.3136069448471 17.1099
40.33750984859743 17.0502
40.3612292688043 17.0845
40.3849504936829 17.0335
40.40867352466194 17.03
40.43258372059144 16.9969
40.45631038219906 16.9813
40.48003885420956 16.8737
40.503769138055105 16.9012
40.52768664931955 16.8918
40.55142057531802 16.8318
40.57515631746428 16.7982
40.599079334038514 16.7866
40.62281872700477 16.7394
40.64655994043941 16.7277
40.67030297578061 16.7056
40.69423334835778 16.7014
40.71798004609188 16.6759
40.74172857006355 16.6416
40.76547892171441 16.6217
40.7894166736039 16.5879
40.813170699248566 16.5838
40.83692655691388 16.5063
40.86068424804498 16.5135
40.884629402612525 16.4647
40.908390779366385 16.4866
40.932153993938 16.4022
40.95591904777605 16.3917
40.979871628443995 16.4217
41.003640379561936 16.3424
41.02741097430883 16.3326
41.05118341413683 16.3335
41.075143444384416 16.3086
41.098919593177826 16.2354
41.1226975914255 16.2081
41.14647744058318 16.1896
41.170444943946755 16.1641
41.19422851378379 16.1591
41.218013938914645 16.0794
41.24198706625173 16.0768
41.26577622087193 16.0648
41.289567235177785 15.9323
41.31336011063129 15.9344
41.337340752422875 15.9311
41.361137369129835 16.0463
41.38493585138705 15.9485
41.40873620066004 15.8715
41.43272438060107 15.8468
41.45652848292052 15.8529
41.48033445666918 15.7544
41.50414230331616 15.7308
41.528138045159764 15.7749
41.551949656675205 15.6947
41.575763145513235 15.7062
41.59957851314666 15.6476
41.62358184070442 15.6349
41.64740098505737 15.6696
41.6712220126409 15.61
41.69504492493139 15.5611
41.71905586207357 15.5663
41.74288256296395 15.5258
41.766711153007456 15.5528
41.79054163368412 15.4508
41.814560204340054 15.4842
41.838394485526365 15.4374
41.86223066180303 15.3906
41.88625497706819 15.3527
41.910094962812 15.3519
41.93393684811168 15.331
41.95778063445365 15.2587
41.981812625263366 15.2327
42.00566023303407 15.2202
42.029509746323676 15.2077
42.05336116662236 15.2446
42.077400857069705 15.1954
42.10125611078846 15.1589
42.12511327600405 15.1039
42.14897235421036 15.1283
42.173019768448455 15.0926
42.19688269209613 15.0281
42.22074753323349 15.0067
42.24461429335818 14.9891
42.268669455600495 14.9766
42.292540073217886 14.9143
42.31641261433284 14.9109
42.34028708044675 14.9377
42.36435001496739 14.9074
42.38822835065557 14.8772
42.41210861586426 14.7938
42.4359908120986 14.7748
42.46006154323262 14.7343
42.48394762115317 14.7373
42.507835634632315 14.7266
42.531912233047436 14.719000000000001
42.55580413732265 14.665
42.579697981698 14.6213
42.60359376768525 14.6417
42.62767820545945 14.558
42.65157789440821 14.5688
42.67547952952185 14.561
42.699383112316 14.5311
42.72347541395347 14.4848
42.74738291190531 14.4478
42.771292362102166 14.4988
42.795203766063516 14.4195
42.819303956130405 14.3983
42.843219287476536 14.4157
42.86713657716324 14.350999999999999
42.89105582671383 14.3424
42.91516392983864 14.325
42.939087119032166 14.2954
42.963012272677304 14.229000000000001
42.98693939230129 14.2538
43.01105543317513 14.1872
43.034986504731386 14.1767
43.05891954686589 14.2096
43.08285456110972 14.1852
43.10697856448665 14.0879
43.130917542983475 14.0509
43.15485849820081 14.0736
43.17880143167367 14.0297
43.20293342237094 13.944
43.226880332449 13.9459
43.25082922540554 13.9474
43.27496722682525 13.9275
43.29892010567796 13.9292
43.32287497204102 13.8847
43.34683182745632 13.8834
43.370977859791836 13.889000000000001
43.39493871351105 13.831
43.41890156092628 13.7766
43.44286640358341 13.7351
43.46702049182749 13.7163
43.49098934522816 13.7041
43.51496019852649 13.6861
43.5389330532723 13.6617
43.56309522248204 13.6202
43.58707210044314 13.6074
43.61105098451946 13.5991
43.63503187626491 13.5199
43.659202151562134 13.5674
43.68318707902681 13.5461
43.70717401884041 13.505999999999998
43.731162972560874 13.5113
43.75534137913236 13.4441
43.779334381108384 13.4135
43.803329401683186 13.3737
43.82732644241872 13.3499
43.8515130055166 13.3991
43.87551410707659 13.3491
43.89951723350145 13.2955
43.923709934595614 13.2874
43.94771713129917 13.2738
43.97172635758096 13.2273
43.99573761501002 13.2455
44.0199385169922 13.2237
44.04395385732619 13.1912
44.067971233533086 13.1334
44.09199064718605 13.1142
44.11619977548961 13.1142
44.14022328470671 13.0474
44.16424883610785 13.0355
44.18827643127035 13.1021
44.21249381139513 13.0201
44.236525514814076 12.9875
44.26055926674478 12.9644
44.28459506876863 12.9695
44.3088207262813 12.9312
44.33286064928722 12.9272
44.35690262714919 12.9148
44.38094666145278 12.8173
44.4051806219871 12.8446
44.42922879003185 12.8605
44.45327901929361 12.7966
44.477331311362136 12.770999999999999
44.501573600619416 12.7968
44.525630039221795 12.7316
44.54968854541895 12.7376
44.573937102200176 12.6675
44.5979997645541 12.6515
44.622064499300315 12.6583
44.64613130803592 12.6364
44.67038823869318 12.6259
44.69445921643748 12.5699
44.718532272981385 12.5051
44.742607409926194 12.5217
44.76687274034801 12.514000000000001
44.79095205918753 12.5155
44.81503346325094 12.4766
44.839116954143876 12.412
44.86339071028742 12.4041
44.88747839599524 12.4166
44.91156817336837 12.382
44.93566004401666 12.3752
44.959942251908146 12.365
44.984038330325966 12.3106
45.00813650686762 12.2614
45.03223678314731 12.299000000000001
45.05652746888232 12.251
45.08063196592069 12.225
45.104738567558705 12.1372
45.128847275414856 12.1735
45.15314646515866 12.1103
45.17725940679741 12.084000000000001
45.20137445952892 12.0902
45.22568004865265 12.107000000000001
45.24979934496396 12.1422
45.27392075725247 12.0405
45.29804428714431 12.0522
45.322358426247604 12.0201
45.346486212804315 11.9765
45.370616121861914 12.0117
45.39474815505086 11.9838
45.41907087049246 11.9067
45.4432071734666 11.8753
45.46734560548283 11.8902
45.49148616817604 11.8647
45.51581748638564 11.8804
45.5399623320197 11.8073
45.56410931325473 11.795
45.58825843173002 11.7992
45.61259837920865 11.7823
45.636751793816 11.767999999999999
45.66090735060093 11.7183
45.68506505120716 11.708
45.7094136545275 11.6659
45.73357566449271 11.6318
45.75773982322992 11.6351
45.78190613238733 11.6327
45.806263418194064 11.5663
45.83043404997326 11.5731
45.85460683713677 11.5471
45.87897065658495 11.5607
45.90314777634752 11.5261
45.92732705646868 11.4852
45.9515084986045 11.4566
45.97588104735473 11.4345
46.00006683541565 11.3824
46.02425479047904 11.3817
46.04844491420549 11.3902
46.0728262191024 11.3704
46.09702070211635 11.3373
46.12121735879483 11.3686
46.14541619080294 11.3264
46.169806278764455 11.339
46.194009483459034 11.2729
46.21821486849841 11.2542
46.24242243555223 11.2305
46.266821333570014 11.2331
46.29103328674601 11.1677
46.31524742696538 11.1988
46.33946375590237 11.1609
46.36387149104216 11.157
46.38809221957392 11.0919
46.41231514186606 11.0831
46.436540259597464 11.0804
46.460956858999374 11.0491
46.48518638983522 11.0127
46.509418121166966 10.9778
46.533652054678114 10.9292
46.55807754555709 10.9299
46.58231590571962 10.9469
46.60655647313217 10.9033
46.630988654873654 10.9036
46.655233659129024 10.8794
46.67948087571551 10.8468
46.70373030632484 10.8394
46.72817142736393 10.834000000000001
46.752425308428684 10.7491
46.77668140861147 10.7769
46.80093972960865 10.7587
46.82538981736788 10.6993
46.849652602470904 10.7336
46.87391761349769 10.7276
46.8981848521493 10.654000000000002
46.9226439341274 10.6662
46.946915650573224 10.6514
46.97118959976749 10.6008
46.99546578341598 10.6011
47.019933887188216 10.5546
47.04421456235744 10.5706
47.06849747711879 10.567
47.09278263318286 10.5343
47.11725978640143 10.5183
47.14154944775105 10.5174
47.165841355555656 10.4644
47.1901355115306 10.4634
47.214621741924994 10.4494
47.23892041698887 10.4283
47.26322134538975 10.3712
47.28771440635075 10.3604
47.31201986422527 10.3382
47.33632758061436 10.3418
47.360637557241866 10.29
47.38513974410611 10.2976
47.40945426407847 10.2938
47.43377104948137 10.2769
47.45809010204344 10.2458
47.48260144275502 10.1991
47.506925052572285 10.1688
47.53125093475548 10.1368
47.55557909103813 10.1793
47.58009961361992 10.1367
47.60443234110732 10.1109
47.62876734791564 10.1298
47.65310463578333 10.0925
47.6776343683373 10.0546
47.7019762413987 10.0248
47.72632040075572 10.0214
47.75066684815169 9.993210000000001
47.77520581885936 10.0014
47.799556865477655 9.93305
47.823910205386 9.94096
47.84826584033272 9.94678
47.87281407745551 9.91274
47.89717432569297 9.91383
47.92153687423484 9.925410000000001
47.94609208429692 9.88519
47.97045925671401 9.81995
47.99482873471275 9.786660000000001
48.01920052005013 9.802669999999999
48.04376504619224 9.779710000000001
48.068141469543484 9.80406
48.09252020552573 9.76017
48.11690125590099 9.75606
48.1414751266064 9.70531
48.16586082917454 9.71304
48.19024885144316 9.68554
48.2146391951793 9.65948
48.239222439012764 9.652439999999999
48.26361744916137 9.6264
48.28801478610016 9.6446
48.31241445160131 9.606069999999999
48.337007097209366 9.58147
48.36141144338331 9.593869999999999
48.38581812345755 9.5733
48.41022713920929 9.542910000000001
48.434829215320704 9.54471
48.45924292604658 9.487919999999999
48.48365897780325 9.525089999999999
48.50807737237308 9.47584
48.532688907799276 9.44383
48.55711201168574 9.44533
48.581537463754074 9.39095
48.60615611725119 9.383980000000001
48.63058628942721 9.38977
48.65501881516546 9.37621
48.6794536962573 9.35058
48.70408185970339 9.32809
48.72852147531801 9.30423
48.75296345168211 9.31841
48.77740779059232 9.27462
48.80204549302823 9.28118
48.82649458091802 9.26322
48.85094603676547 9.19766
48.87539986237231 9.20385
48.90004713292306 9.135580000000001
48.92450572200832 9.15241
48.94896668628025 9.13022
48.97343002754588 9.12706
48.99808689542115 9.13397
49.02255501470614 9.114519999999999
49.04702551642794 9.064910000000001
49.0714984023988 9.08455
49.096164896893235 9.045160000000001
49.120642575466796 9.008
49.145122643748394 9.01786
49.16960510355558 8.99713
49.19428125404938 8.99878
49.2187685210852 9.000060000000001
49.243258185121555 8.95464
49.26794160167084 8.92866
49.2924360839405 8.9304
49.31693296869764 8.9157
49.34143225776915 8.86127
49.36612538195438 8.84868
49.39062950396021 8.8407
49.41513603578346 8.82743
49.4396449792564 8.78745
49.46434784069503 8.78968
49.488861631846454 8.77327
49.513377840166804 8.73061
49.537896467493745 8.71747
49.56260909589029 8.685830000000001
49.587132585683285 8.70986
49.611658500018365 8.68425
49.636186840738596 8.68785
49.66090926588511 8.69888
49.685442483902584 8.64662
49.70997813385706 8.629430000000001
49.734516217597076 8.62614
49.75924846937352 8.62168
49.7837914452858 8.58827
49.80833686055187 8.54857
49.83288471702571 8.49958
49.85762682540054 8.53561
49.882179588965734 8.51325
49.9067347993235 8.4988
49.93129245833333 8.4852
49.95604445336378 8.44841
49.98060703442832 8.47942
50.005172069746266 8.4371
50.02993150438364 8.41009
50.05450147301533 8.42595
50.07907390151433 8.38307
50.10364879174981 8.34056
50.12841816587289 8.35292
50.1529980044635 8.32965
50.17758031042124 8.3059
50.20216508562089 8.29388
50.22694442953363 8.28073
50.25153416817468 8.27489
50.27612638170508 8.23964
50.300721072005196 8.234630000000001
50.325510416102105 8.250760000000001
50.350110084975064 8.209
50.37471223628208 8.224860000000001
50.39931687190919 8.15925
50.424116246675766 8.17465
50.44872587605249 8.15362
50.47333799543065 8.138539999999999
50.49795260670191 8.13332
50.52276204271512 8.06546
50.54738166295838 8.06179
50.57200378079314 8.04088
50.596628398116835 8.08365
50.62144792604559 8.058069999999999
50.646077567609396 8.030330000000001
50.670709714377715 8.00018
50.69553683636198 7.966260000000001
50.72017401885922 7.9752
50.7448137122895 7.99414
50.76945591856022 7.953530000000001
50.79429318636823 7.942489999999999
50.818940443716784 7.91914
50.84359021965163 7.859030000000001
50.868242516085964 7.84968
50.893089960641895 7.85266
50.917747323549435 7.842169999999999
50.94240721271973 7.82786
50.96706963007175 7.844189999999999
50.99192728239342 7.80575
51.01659478166073 7.78188
51.04126481489051 7.78529
51.06593738400761 7.761939999999999
51.090805275207074 7.75904
51.11548294172845 7.73578
51.14016314993547 7.727069999999999
51.164845901758845 7.711289999999999
51.18972406304274 7.67471
51.21441192780656 7.6433800000000005
51.23910234200271 7.66323
51.2637953075678 7.58067
51.288683770237945 7.58484
51.31338186432707 7.58719
51.33808251561888 7.561839999999999
51.362978729967345 7.571969999999999
51.387684521509755 7.57653
51.41239287610203 7.559830000000001
51.437103795691165 7.52774
51.46201036644977 7.49909
51.486726441956634 7.48716
51.51144508832545 7.464010000000001
51.536166307509156 7.45248
51.56108326624387 7.479889999999999
51.58580965706056 7.43618
51.61053862657523 7.43487
51.635270176746864 7.36733
51.66019755512065 7.399489999999999
51.68493429268881 7.385489999999999
51.70967361681515 7.33975
51.73441552946465 7.330889999999999
51.759353359237934 7.379519999999999
51.7841004750961 7.31347
51.80885018539685 7.31129
51.833602492111254 7.30253
51.8585508051424 7.26125
51.883308330926425 7.2594199999999995
51.90806845906181 7.278760000000001
51.932831191525715 7.245019999999999
51.95779001977161 7.21512
51.98255798721516 7.156280000000001
52.00732856494335 7.1382699999999994
52.03229530577543 7.10975
52.057071130455945 7.1232
52.081849571391054 7.09311
52.106630630568695 7.10894
52.13160794279417 7.054010000000001
52.15639426492067 7.06123
52.18118321127822 7.07568
52.205974783860896 7.069489999999999
52.23096269971011 7.03113
52.255759551287994 7.03746
52.280559035098186 7.00288
52.30536115314103 7.009989999999999
52.33035970494467 6.985189999999999
52.35516711807904 6.964639999999999
52.37997717147198 6.950710000000001
52.40478986713005 6.96817
52.42979908731974 6.9323
52.454617094216 6.9579699999999995
52.47943774942214 6.90492
52.50426105495102 6.88868
52.529280976059844 6.9210899999999995
52.554109609024096 6.8625300000000005
52.57894089837482 6.82948
52.60377484613117 6.82535
52.62880550079408 6.81688
52.65364479223379 6.7947
52.67848674816189 6.79051
52.70352547971946 6.813789999999999
52.72837279155837 6.80686
52.753222773982785 6.747210000000001
52.778075429022984 6.771439999999999
52.80312495150885 6.73165
52.827982978797436 6.72757
52.85284368481815 6.703539999999999
52.87770707160767 6.665789999999999
52.90276741793998 6.658460000000001
52.92763619336701 6.64664
52.952507655698504 6.6273
52.977381806977576 6.63618
53.00245301017842 6.60887
53.02733256653592 6.599130000000001
53.052214817996074 6.54055
53.077099766608484 6.55165
53.102181859804446 6.5399400000000005
53.127072229988265 6.5666
53.15196530349892 6.52356
53.17686108239249 6.50256
53.20195409881522 6.50012
53.22685531582556 6.49927
53.25175924441303 6.48731
53.27666588664027 6.44452
53.30176985962693 6.41624
53.3266819565689 6.42776
53.35159677336455 6.392
53.376514312083096 6.42413
53.40162927507703 6.40724
53.42655228516116 6.3767
53.45147802340193 6.34374
53.47660125628886 6.35428
53.50153247842639 6.34205
53.52646643496923 6.32886
53.55140312799818 6.34825
53.576537409691696 6.315840000000001
53.60147960336152 6.267469999999999
53.626424539786164 6.24296
53.65137222105307 6.26401
53.67651758529126 6.2045900000000005
53.70147078399681 6.22171
53.72642673383343 6.19033
53.75138543689533 6.21558
53.776541917524526 6.1959599999999995
53.801506154876755 6.18861
53.826473151763246 6.17861
53.851442910284916 6.1313699999999995
53.87661054126026 6.1193800000000005
53.9015858509782 6.0971400000000004
53.92656392866066 6.08218
53.95154477641532 6.10705
53.976723591801296 6.05586
54.00171000771266 6.0457
54.02669920004598 6.06393
54.051691170915745 6.03932
54.076881204886796 6.02767
54.101878760928514 6.00919
54.12687910187696 5.95573
54.152077577768296 5.95759
54.1770835166946 5.94068
54.20209224691339 5.91766
54.22710377055121 5.92034
54.25231352511594 5.90533
54.27733066384342 5.8868599999999995
54.30235060239643 5.893730000000001
54.32737334290836 5.89583
54.35259441062629 5.83426
54.377622783395324 5.79697
54.40265396455061 5.82423
54.42768795623251 5.82456
54.45292037169559 5.82292
54.477960012857906 5.79135
54.50300247099511 5.77487
54.52804774825457 5.71466
54.55329154616743 5.70889
54.57834249018678 5.66937
54.6033962597977 5.67246
54.6284528571545 5.68086
54.653708072335164 5.63049
54.67877035378786 5.59893
54.70383546947698 5.59238
54.72890342156389 5.5376900000000004
54.7541700889442 5.51175
54.77924374251975 5.52573
54.8043202390049 5.50807
54.82959552413022 5.52082
54.8546777351945 5.46905
54.87976279569621 5.4021
54.90485070780914 5.44022
54.930137506558005 5.4094
54.95523115074295 5.44802
54.98032765308844 5.41929
55.005427015775496 5.3711199999999995
55.03072536339621 5.3524199999999995
55.05583047570572 5.35768
55.080938454927676 5.30122
55.10604930325027 5.28504
55.131359235107396 5.26551
55.15647585066083 5.2237800000000005
55.181595341907496 5.18326
55.20671771104285 5.22065
55.232039262617704 5.2015199999999995
55.25716741665048 5.18994
55.28229845518636 5.15606
55.30743238042802 5.05185
55.33276558731939 5.04826
55.357905315183636 5.02449
55.383047936390035 5.017119999999999
55.40819345314859 4.97933
55.433538351073295 5.00566
55.458689688238415 4.97561
55.483843927614096 4.90444
55.509197623043605 4.96572
55.53435769621134 4.967
55.55952067826466 4.89724
55.5846865714265 4.836069999999999
55.61005202069737 4.82637
55.63522376553902 4.85003
55.66039842818645 4.81335
55.68557601087004 4.82244
55.7109532500271 4.74547
55.73613670233794 4.7811
