TT I
1.2716486653135266 6.90648
1.2939594142134223 7.0243
1.3162702121660406 6.6432199999999995
1.3385810600174564 5.82978
1.3608919586137629 6.06752
1.383202908801069 5.864
1.405513911425503 6.6460300000000005
1.4278249673332093 6.00002
1.4501343378461518 6.10636
1.4724455028545926 5.53702
1.4947567236847858 6.5873
1.517068001182951 6.11788
1.5393793361953272 5.93524
1.5616907295681737 5.206580000000001
1.5840021821477681 5.298769999999999
1.60631369478041 5.69449
1.6286252683124185 4.81239
1.6509369035901333 4.85677
1.6732468618895553 5.4201
1.695558623192809 4.56286
1.7178704487808514 4.93618
1.7401823395001077 4.5265699999999995
1.7625012545597203 4.47179
1.7848028405262486 5.268
1.8071218901122095 4.5635900000000005
1.8294236121921872 5.1153900000000005
1.8517427996910911 4.910019999999999
1.8740620574440425 4.50221
1.8963639900671978 4.96476
1.9186833908139995 4.97618
1.9409854680117449 4.09342
1.9633050151394713 4.51043
1.9856246367570705 5.16015
2.0079269371922672 4.650869999999999
2.03024671027244 4.92295
2.0525491637446027 4.88014
2.074869091674931 4.25552
2.097171701569106 4.33459
2.1194917877373847 4.42969
2.141811954326636 4.6843699999999995
2.164114805233074 4.99835
2.186435135143035 5.0306
2.208738150935709 5.46282
2.231058647554722 6.72081
2.2533792288321184 6.657830000000001
2.275682498336085 4.76611
2.298003251406138 5.2792
2.3203066942619714 4.927980000000001
2.3426276225136022 5.43499
2.3649486396617507 5.35686
2.387252348930071 5.989380000000001
2.4095735463442893 6.659960000000001
2.4318774374315884 6.6329
2.4541988185014043 6.73135
2.476502894794693 7.03587
2.498824462909887 7.99328
2.521146125856138 7.99003
2.5434504863470337 7.55083
2.5657723414244717 8.05814
2.588076895590662 9.11717
2.610398946189713 8.95941
2.6327210958598384 8.22642
2.6550259469304716 8.46396
2.6773482972090137 8.86476
2.6996533504259 8.715119999999999
2.7219759047039602 8.680060000000001
2.744298562293959 8.077069999999999
2.7666039251246595 8.22297
2.7889267918020164 8.362039999999999
2.8112323652516555 8.17225
2.833555444408179 7.95127
2.8558786311183852 8.03074
2.8781845268938557 8.38188
2.9005079311721484 8.84265
2.9228140460410397 8.89905
2.9451376712799635 9.29255
2.967444008632326 9.19908
2.9897678582247247 9.43024
3.0120918213106695 10.1503
3.0343984987899373 11.114
3.0567226913198637 11.0129
3.079029599759726 11.36
3.101354025127254 11.9836
3.123678568232338 12.6583
3.145985829517914 12.6893
3.16831061055229 13.4195
3.1906181112775593 13.8709
3.212943133635653 14.3987
3.2352682779763207 14.5651
3.2575761442691227 15.0393
3.2799015350264273 15.4508
3.302209649240067 15.6444
3.3245352898092655 15.8382
3.3468436553365257 16.5227
3.369169549113219 17.0382
3.3914955708171384 18.0691
3.413804319727358 18.6571
3.4361305997334863 18.5921
3.4584396084414553 19.0732
3.4807661501462652 19.4403
3.503092824025881 20.2297
3.5254022288463154 20.3116
3.5477291695206588 20.9797
3.5700388426251948 21.5744
3.5923660534916446 21.9463
3.6146934007816114 23.7128
3.637003482731501 28.3005
3.6593311053109985 29.6684
3.681641464033634 26.802
3.7039693653009733 24.7385
3.726297407241705 24.6556
3.7486081875460804 24.6096
3.7709365132734978 25.2032
3.793247578841633 25.5599
3.8155761917550093 25.6962
3.8378875459837216 26.5938
3.8602164494827234 26.9779
3.882545499606844 27.4947
3.9048572932539183 27.8545
3.9271866390645718 28.2945
3.9494987298666713 29.3869
3.971828374764527 29.311999999999998
3.9941581705403255 29.8836
4.016470713506008 30.5015
4.038800813471445 31.3862
4.061113662089144 31.944000000000003
4.0834440696459176 32.1187
4.105774632334751 32.7903
4.128087945865126 33.1604
4.150418821249301 33.8516
4.172732448931298 34.7788
4.195063640413578 36.085
4.2173775856475215 36.5224
4.239709096631102 39.4173
4.262040768704612 54.7259
4.284355196706267 64.2389
4.306687193387355 55.263999999999996
4.329001947444346 44.0831
4.35133427213731 41.3841
4.373666762177566 41.9207
4.395982011761091 42.3037
4.418314834921175 43.3846
4.44063041906622 44.7399
4.4629635787515625 46.3153
4.4852969080429785 47.7382
4.5076130004776225 49.778999999999996
4.529946671403969 54.5211
4.552263106909177 57.4563
4.574597122877047 55.5982
4.596931312711224 53.1234
4.619248269273446 53.0947
4.6415828092605835 53.9058
4.663900117405352 54.5639
4.686235010953232 56.3205
4.708552674085913 57.6813
4.730887924602802 59.0907
4.753223354952695 60.6363
4.775541557023902 63.9361
4.797877349456786 66.5354
4.820195915032126 67.9477
4.842532072957498 67.6574
4.864868414979744 70.64
4.88718753227192 74.8846
4.909524244902505 76.1829
4.931843734218147 76.1274
4.954180820867835 77.5311
4.976518095879839 80.1747
4.998838149695359 82.5614
5.021175803844231 86.3493
5.043496238205739 89.4275
5.065834274903528 93.15100000000001
5.088172504230693 97.2931
5.1104935158799565 103.06299999999999
5.132832132875765 116.066
5.155153533596801 135.111
5.1774925416746225 175.78400000000002
5.199814334878411 373.445
5.2221537374521505 995.725
5.244493338631803 2814.32
5.266815727034316 8092.93
5.289155727832427 13725.9
5.311478517248165 8379.01
5.333818921080011 2211.7
5.356159527788849 407.44699999999995
5.3784829252032536 177.355
5.400823940070432 143.415
5.423147747031976 124.73899999999999
5.445489173474152 116.31
5.467830807066149 116.931
5.490155234831516 116.64299999999999
5.512497285125229 110.36
5.534822130975162 104.449
5.557164601388673 100.86399999999999
5.579489868738879 98.4042
5.601832762690846 96.5831
5.6241758697774475 95.244
5.646501775867269 94.6846
5.668845311622074 93.8268
5.691171647754637 93.4635
5.713515615597765 91.9401
5.735859800852677 91.6208
5.758186788542988 93.4286
5.780531411018185 96.9702
5.802858837297399 96.3272
5.825203900414495 96.5276
5.8475491852224 98.1828
5.869877275883075 97.4738
5.892223006467101 94.4092
5.914551544266608 93.225
5.936897724049891 95.7764
5.959244129804903 103.353
5.981573344815301 131.785
6.0039202049061 239.422
6.026249875609095 470.969
6.04859719346037 958.322
6.070927323278297 2222.08
6.093275102315365 4801.68
6.115623113320588 5653.79
6.137953938319995 3026.36
6.160302415650845 838.959
6.182633708324452 195.0
6.2049826554078376 101.749
6.227331838745022 86.4006
6.249663839443684 81.1298
6.27201349767565 77.27
6.294345974611799 75.7852
6.316696111167083 75.1688
6.339046488263839 74.0646
6.361379686074702 70.785
6.383730546639482 69.206
6.406064229255215 68.6748
6.428415576718203 69.0466
6.450749747566656 68.0783
6.47310158535871 65.8832
6.495453669698332 64.3193
6.517788579421056 63.7431
6.540141159237969 62.3498
6.562476565766648 61.5152
6.5848296444934045 61.8027
6.607182974060425 61.9793
6.6295191323281015 61.4201
6.651872965955752 60.3888
6.6742096296068985 61.4472
6.6965639707294615 65.0678
6.71891856698715 65.2645
6.741255995248479 61.1359
6.763611104154477 57.9194
6.785949046381137 57.4848
6.808304671371482 57.659
6.8306605557940046 59.3301
6.852999275508618 58.3876
6.875355681171544 56.5628
6.897694923437771 55.6519
6.92005185377892 54.9956
6.9423916220322655 55.123999999999995
6.964749080490181 54.5836
6.987106804399774 54.7295
7.009447368180821 55.0761
7.031805625367033 54.7287
7.054146723727803 54.2352
7.076505517631004 53.6228
7.098864581288365 53.5913
7.121206488070854 53.4579
7.143566093607822 53.9305
7.165908543567245 54.8419
7.188268694426048 54.7404
7.2106291193438095 53.4919
7.232972390625943 53.14
7.255333366030969 53.5417
7.277677189091925 58.0578
7.300038718428332 63.4338
7.322400526130865 61.388000000000005
7.344745183422596 56.3247
7.367107550224791 53.5363
7.389452767901992 53.4262
7.411815697249891 52.7942
7.434161478756298 52.7749
7.456524974096713 52.678999999999995
7.478888753837185 52.7265
7.501235387657368 53.0731
7.523599738562711 53.4109
7.545946944825532 54.169
7.568311870344528 54.5796
7.5906770845765665 54.1003
7.613025156078678 53.644
7.635390950099687 54.4167
7.657739602662809 54.428999999999995
7.680105979923558 54.7165
7.702472650212829 55.7076
7.724822180948224 55.4112
7.747189439655568 55.3941
7.769539560075357 55.114
7.791907410653562 55.5203
7.81425812420825 55.298
7.836626570110925 55.7313
7.858995315087906 56.5849
7.881346924933401 56.8317
7.903716270417482 57.1086
7.926068482028405 57.2644
7.948438431475253 58.4242
7.9708086843180235 58.7957
7.993161805171116 59.4275
8.015532667162402 60.0215
8.037886398416653 61.2916
8.060257873014221 61.4822
8.082629655331942 62.1899
8.104984308787587 63.0964
8.127356708900503 64.4361
8.149711981398308 67.3561
8.172085002766314 68.7816
8.194458336181368 68.2936
8.216814543847752 67.6602
8.23918850371002 68.5714
8.26154533906492 69.3011
8.283919928836452 70.6171
8.306277395339652 71.8737
8.328652618483376 73.2909
8.351028159736202 75.1249
8.373386579575245 77.5326
8.395762759396959 79.1662
8.418121819038275 81.7157
8.440498640894003 86.3546
8.462875785192262 96.2113
8.485235811156207 123.206
8.507613602688501 178.058
8.529974277114228 265.645
8.552352719347912 395.784
8.574731488360351 661.704
8.59709314210385 1246.71
8.619472567021075 2029.7
8.64183487789147 2386.34
8.664214962183097 1757.35
8.686577933647762 815.105
8.708958680784317 303.562
8.731339760774953 139.78799999999998
8.753703729764451 103.351
8.77608547780821 95.2303
8.798450116065078 92.6604
8.820832535634787 90.8674
8.843215292401656 90.9852
8.865580941199045 90.7465
8.887964374703538 89.9667
8.910330701447199 89.6526
8.932714815164482 89.1118
8.955099270424924 86.5102
8.977466620733543 84.4475
8.999851761421976 83.9324
9.022219798361645 83.2311
9.04460562795561 83.1334
9.066991803441677 83.1401
9.089360876979615 83.5641
9.111747746589993 83.4911
9.13411751544971 82.4891
9.156505082664324 81.5755
9.178875550323522 81.4668
9.20126381862328 81.1097
9.223652438908596 81.6284
9.246023961427412 82.1096
9.26841328802173 82.5495
9.290785518039224 82.1564
9.313175554425882 83.7998
9.335565947154315 85.1504
9.357939245086508 85.3954
9.380330352834827 84.7267
9.40270436697103 84.4614
9.425096193225055 84.1993
9.447488380180165 84.4053
9.469863475295412 83.5847
9.492256385987508 83.6338
9.514632206018318 84.1297
9.537025843935714 85.1085
9.559402392368193 86.0137
9.581796761000229 88.4173
9.604191496441521 90.1058
9.626569144158516 92.072
9.648964615551032 92.4807
9.671343000390081 91.6425
9.693739211225699 91.2574
9.716135793237463 91.2437
9.738515290448102 92.1481
9.760912617143402 93.9455
9.783292860202891 96.0197
9.805690935076182 97.8084
9.828089385495742 98.7079
9.850470754023561 99.574
9.872869957865444 101.53200000000001
9.89525208097539 104.819
9.917652041736662 110.23700000000001
9.940052382417589 121.26
9.962435644102392 149.556
9.984836746950979 191.503
10.007220771957746 254.84900000000002
10.029622640473708 358.519
10.052007432299963 536.009
10.074410069984072 843.568
10.096813093716005 1348.94
10.119199042482517 1890.54
10.141602840636468 2098.49
10.163989564971628 1481.25
10.186394141051062 719.425
10.208799107559706 294.351
10.231187001965623 152.93
10.253592751657669 115.94
10.275981430388155 108.161
10.298387966769793 105.477
10.320794897965431 104.506
10.343184759907361 103.595
10.36559248305461 102.456
10.387983138083852 103.92200000000001
10.410391656691655 110.927
10.432800574501677 122.615
10.455192425893369 138.786
10.47760214443012 165.02700000000002
10.499994797678786 211.59099999999998
10.522405320453982 297.795
10.54479877906917 419.935
10.567210109595656 559.822
10.5896218454736 602.122
10.612016518879773 467.142
10.634429067781074 288.374
10.656824555333241 192.476
10.679237920773568 116.351
10.701651695961992 94.2191
10.724048411481384 87.8009
10.746463008485165 84.6411
10.768860546937125 83.2979
10.791275969274796 81.7972
10.81369180576079 80.9086
10.836090585366925 79.7033
10.858507252467449 78.1745
10.88090686379991 77.4418
10.903324365036394 77.0867
10.925724811614439 76.2589
10.948143150509463 76.1376
10.970561909719066 75.8208
10.992963615930844 75.1606
11.015383218085756 73.9944
11.037785768347074 72.4477
11.06020621697282 71.8282
11.082627090322113 71.2733
11.105030913430326 70.3124
11.12745263854165 69.6803
11.149857314510728 69.0761
11.172279894912576 69.7045
11.194702904450653 68.9916
11.217108866490921 67.9416
11.239532736615194 67.1769
11.26193956033512 66.7217
11.284364294577085 66.5441
11.306789462371718 65.8248
11.329197585398376 65.8188
11.351623622610898 65.6145
11.37403261614354 64.8357
11.396459526308487 64.8986
11.418869393879497 64.4475
11.441297180532617 64.0679
11.463725406927658 63.8238
11.486136592353875 63.4992
11.508565700543707 62.9186
11.530977768845315 63.3123
11.553407762368774 62.8195
11.575838200059769 63.0419
11.598251599479612 62.5398
11.620682927815501 62.0599
11.64309721895548 62.1832
11.665529441478206 62.0379
11.687962112597958 61.794
11.710377748130886 61.7316
11.732811318753434 61.5061
11.755227854859067 61.5721
11.777662328529495 61.4958
11.800079768750786 61.7709
11.822515149015453 61.7048
11.844950984084935 61.9382
11.867369787303163 61.3458
11.889806534289491 61.4037
11.912226250487029 62.0303
11.934663912939751 61.8917
11.9571020346363 62.2236
11.979523127133968 62.6242
12.001962169624331 63.9
12.024384183972964 65.5916
12.046824150809913 68.8906
12.069264581333726 73.115
12.091687985297767 79.2151
12.11412934550045 88.4098
12.136553680195208 104.315
12.158995973632788 126.07600000000001
12.181438735204349 158.061
12.20386447284199 190.899
12.226308172985636 205.729
12.24873485024193 195.437
12.271179492516982 152.596
12.293607112949127 110.72200000000001
12.316052700916226 82.6506
12.338498763250042 68.6518
12.360927805303868 64.0955
12.383374818673879 63.1539
12.405804812803074 62.7485
12.428252780773262 62.7803
12.45070122756722 62.6896
12.473132656675375 63.034
12.49558206341869 63.7465
12.518014453510101 63.6276
12.540464823770117 63.7877
12.562915677315177 63.7406
12.58534951575545 63.8921
12.607801338171472 64.0858
12.630236146511358 64.4601
12.652688941369085 65.7105
12.675124723177234 66.17
12.697578494048786 66.1895
12.720032754458185 66.0351
12.742470003354093 66.4134
12.764925245138771 66.6593
12.787363476431278 66.9775
12.809819703166806 67.3185
12.83227642391173 68.1796
12.854716135692716 68.5982
12.877173846755147 69.9685
12.899614549869717 70.4374
12.9220732548287 71.4261
12.94453245827299 71.837
12.966974655289818 72.8482
12.989434858002571 73.6624
13.011878055298721 74.3139
13.034339260862497 75.3877
13.056800969391883 76.7789
13.079245674017244 79.8125
13.101708390774869 84.353
13.12415410463411 92.5723
13.146617833206086 102.436
13.169064559883248 113.06
13.191529303857127 128.00799999999998
13.213994557076367 151.409
13.236442809902437 189.55200000000002
13.258909083908291 249.282
13.28135835851934 327.494
13.30382565690295 401.126
13.326293469022952 453.495
13.348744283242008 417.861
13.371213125129904 319.351
13.39366497011003 218.22099999999998
13.416134845360597 145.97
13.438605238843131 111.935
13.46105863690397 103.56200000000001
13.483530069144786 105.846
13.505984506951902 111.897
13.528456981549432 122.521
13.550929978879088 138.36700000000002
13.573385983253365 163.013
13.595860028340867 202.838
13.618317081455832 259.955
13.64079217790333 327.889
13.663250283359057 387.77099999999996
13.685726434770173 386.231
13.708203115221277 327.29200000000003
13.730662806148091 240.18200000000002
13.75314054697177 162.74200000000002
13.775601299246777 114.20299999999999
13.798080104050406 90.9293
13.820559442405358 82.6668
13.843021793671388 79.9017
13.865502201420897 78.5429
13.887965623051947 78.4137
13.910447103807167 77.467
13.932929122629764 76.1714
13.955394156785959 75.7749
13.977877254034569 74.8588
14.000343367582113 74.0703
14.022827546871707 73.2608
14.045294743423524 72.71
14.06778000837062 72.3247
14.090265817715476 71.8151
14.112734645763819 71.2062
14.13522154619454 70.9444
14.157691466286913 70.5313
14.180179461423874 70.6643
14.202668005486178 70.2105
14.22513957064374 69.9254
14.247629214846473 69.2177
14.270101881097517 68.6975
14.29259262906496 68.5575
14.315083930490205 68.543
14.337558255389705 68.5366
14.360050666019726 68.7082
14.382526101071944 68.1994
14.405019624534942 68.0137
14.427513705993134 67.9339
14.449990813291825 67.7271
14.47248601302899 67.7687
14.49496423954951 67.9643
14.517460561197822 67.8428
14.539939910570322 67.5978
14.562437357763558 67.9495
14.58493536931253 68.1829
14.607416409993311 68.3541
14.62991555254159 68.7977
14.652397725157423 68.8042
14.674898002342799 69.2238
14.697398848433282 69.6758
14.719882725991326 71.2911
14.74238471217934 73.1094
14.764869730765593 76.4657
14.787372860692983 79.4259
14.809876564079925 83.8326
14.83236330125751 90.1265
14.854868153850365 98.9565
14.877356041159485 113.266
14.899862046604186 132.06799999999998
14.922351087688757 159.649
14.944858249632887 193.41400000000002
14.967365991421232 221.82299999999998
14.989856770231246 233.472
15.012365673994204 215.56
15.03485761569738 174.858
15.05736768508665 131.687
15.07987833888692 100.473
15.102372032001655 81.9836
15.124883856909658 73.194
15.14737872204565 70.4645
15.169891721717274 69.016
15.192405310371893 68.6804
15.214901940621196 68.3425
15.237416709527137 67.7025
15.259914520936249 67.615
15.282430473753607 67.0164
15.304947020131227 66.5027
15.327446610371178 65.9826
15.349964346154254 65.6753
15.372465126703139 65.7981
15.394984055556009 65.6452
15.417486030076159 65.4014
15.44000615566487 65.0038
15.462526881230803 64.8437
15.485030653812652 64.7604
15.507552581617434 64.7457
15.530057557334603 64.8207
15.55258069104857 64.8679
15.575104429329837 65.0736
15.597611216864632 65.2298
15.620136166564563 65.9126
15.6426441664095 67.45
15.665170331202765 69.9527
15.687697105158826 72.5998
15.710206930593545 76.1408
15.732734925158933 80.2301
15.755245972089478 87.0354
15.77777519094324 96.16
15.800287463046663 109.27
15.822817909869592 129.529
15.84534897229804 152.51
15.867863089299354 180.245
15.890395385222186 198.69799999999998
15.912910736597423 196.55200000000002
15.935444269699861 175.355
15.957978423016485 139.036
15.980495633101265 107.823
16.003031029129367 84.6035
16.02554948280019 70.7442
16.048086125229432 64.4885
16.070623392487107 62.3306
16.09314371869582 61.2498
16.11568223789321 60.4276
16.13820381691126 59.8552
16.160743591742527 59.3896
16.183283996022084 58.7308
16.205807461423195 58.0112
16.228349126881973 57.5988
16.25087385432698 57.4118
16.27341678466365 56.9495
16.29594277784926 56.7454
16.31848697676433 56.5969
16.341031811604868 55.9951
16.36355971058487 55.8125
16.3861058195587 55.8391
16.40863499352978 55.3195
16.431182380342005 55.1505
16.453730407713202 54.8376
16.476261501364792 54.7394
16.498810812136167 54.3822
16.52134319004079 54.3816
16.54389378792203 54.3651
16.566445031001553 54.4211
16.588979342490088 54.2071
16.61153187824822 53.8726
16.634067483263312 53.7762
16.656621315414416 53.7415
16.679175797408888 53.4138
16.701713349928728 53.4845
16.72426913389191 53.6892
16.74680798922351 53.6528
16.76936507887444 53.7128
16.791905240734874 53.7298
16.814463639794468 53.5758
16.837022695210294 53.7392
16.859564824093756 53.7454
16.882125194503903 53.8336
16.904668639217885 54.077
16.927230328348003 54.0273
16.949792678493612 54.2504
16.972338104193863 54.298
16.994901778652235 54.1852
17.017448529496576 54.6173
17.040013531998152 55.2321
17.06257920018044 55.7278
17.0851279459922 56.5035
17.107694947817667 57.1976
17.130245028099072 58.0212
17.15281336730298 59.361000000000004
17.17536478578733 60.897
17.19793446610687 63.2642
17.220504818648422 66.6571
17.243058251703697 70.3577
17.265629950971032 75.5185
17.288184731571736 80.4092
17.310757781306908 83.7971
17.33333150794385 82.6346
17.355888317140174 79.5099
17.37846339986244 72.9905
17.401021565958885 66.8336
17.42359800851343 62.32899999999999
17.44617513265564 59.7574
17.468735341390783 58.8724
17.491261035594565 58.1384
17.51396340099364 57.9794
17.536490463869136 58.0072
17.559018209820174 58.1856
17.58154663977963 58.2433
17.604251766089718 58.3678
17.626781572227713 58.7849
17.64931206518155 58.765
17.671843245885103 59.125
17.69455114821572 59.2312
17.717083712612634 59.5834
17.739616967569667 59.9972
17.762150914021706 60.6793
17.78486160749854 60.7385
17.807396945166804 61.7074
17.829932977143503 63.3102
17.85246970436452 64.5604
17.875183204129467 66.2602
17.897721330097664 68.0916
17.920260154126645 70.2691
17.942799677153296 73.9164
17.9655159983646 77.7705
17.988056927677544 83.1131
18.010598558807683 90.7244
18.033140892692916 101.425
18.05586005052525 113.991
18.07840379824407 127.76799999999999
18.10094825154059 138.175
18.12366954819864 142.916
18.146215420998306 137.031
18.16876200220057 124.24600000000001
18.191309292745153 108.43700000000001
18.214033452627167 94.8127
18.236582170236648 86.156
18.259131600016456 83.4808
18.281681742907335 85.2342
18.304408781233683 90.4272
18.32696035875955 97.3009
18.349512652227624 102.728
18.372065662579683 106.766
18.394795594587553 105.075
18.41735004715306 98.3326
18.43990521943684 89.0028
18.46246111238171 80.2192
18.485193953325208 71.9269
18.507751296070428 66.1442
18.530309362314178 63.3082
18.552868153000343 61.9263
18.57560391815056 60.9981
18.59816416623245 60.6016
18.620725141597372 60.1506
18.643286845190268 59.7717
18.666025549835414 59.3414
18.688588718427933 58.7301
18.711152618092243 58.5184
18.73389353884365 58.2223
18.75645890921984 57.9082
18.77902501351406 57.6592
18.801591852673102 57.7822
18.824335739722738 57.0392
18.846904057212626 56.9009
18.8694731124168 56.7402
18.89204290628315 56.7693
18.914789774966803 56.526
18.937361054791623 56.1322
18.959933076131318 56.1492
18.982505839934877 56.055
19.00525570560582 55.9996
19.027829963004184 55.748999999999995
19.05040496572238 55.8408
19.072980714710468 55.9904
19.095733592739563 56.2272
19.11831084296757 56.323
19.140888842324735 56.5318
19.16346759176222 57.013000000000005
19.18622349753803 57.4604
19.208803755869358 58.531000000000006
19.231384767143577 59.948
19.253966532312948 61.2382
19.276725481241822 63.5995
19.29930876296784 66.1784
19.3218928014549 69.3524
19.34465404436217 72.337
19.36723960516257 74.6426
19.389825925592426 75.3219
19.412413006605938 72.9231
19.43517731967805 68.6251
19.457765930683355 64.0322
19.48035530514408 59.873000000000005
19.50294544401556 56.7255
19.525712842708348 54.918
19.54830451925909 54.0894
19.570896963095727 53.1143
19.593490175174704 52.8883
19.616260674962184 53.0366
19.638855432416964 52.687
19.661450960992624 52.9149
19.68404726164677 52.7735
19.706820878021247 52.5671
19.729418731756834 52.8402
19.752017360452857 52.4894
19.77461676506804 52.7789
19.797393513540218 52.9026
19.819994478951667 53.02
19.84259622316767 53.5469
19.8651987471481 54.0411
19.887978643247177 54.263999999999996
19.91058273574792 54.6621
19.933187610901943 55.6382
19.955969879466828 56.8785
19.97857632894404 58.3165
20.00118356396599 59.958
20.023791585494575 62.4915
20.046577028914875 65.6813
20.069186632506966 68.1624
20.091797025500632 69.9498
20.114408208858933 69.757
20.137196842715273 68.6425
20.159809615886765 66.382
20.18242318232135 63.3368
20.20503754298326 61.3917
20.227829382875154 60.7206
20.250445341109344 61.2217
20.27306209647285 62.458999999999996
20.29567964993108 63.9598
20.31847471147704 65.2562
20.34109387027612 65.6165
20.363713830075454 64.5064
20.386334591841646 61.8411
20.409132890679302 58.8448
20.431755265564437 55.8141
20.454378445325528 53.2377
20.477002430930366 51.5127
20.499803982716553 50.601000000000006
20.522429589228004 49.9075
20.54505600449589 49.6152
20.567683229489194 49.5033
20.590488049900088 49.3613
20.61311690359731 49.0895
20.63574656993626 49.1085
20.658553853717297 48.6457
20.681185154618298 48.6393
20.703817271080066 48.5403
20.72645020407368 48.2146
20.749260783967177 48.1724
20.771895359337133 48.1194
20.794530754161617 48.1072
20.817166969412938 47.9676
20.83998086114876 47.9844
20.86261872660049 47.9483
20.885257415405402 48.0043
20.90789692853701 47.9332
20.930714147864748 47.8046
20.953355319030678 47.8994
20.97599731745334 47.952
20.99864014410749 47.6346
21.021460706796564 47.8155
21.044105199328826 48.0655
21.06675052302631 48.2232
21.089396678865015 48.4946
21.112220600704806 48.647
21.134868430275347 49.0355
21.15751709492456 49.224
21.180166595629693 49.7207
21.202993892429635 50.1799
21.22564507473034 50.7369
21.24829709602816 50.7692
21.27112693608965 50.6011
21.293780644891275 50.4298
21.316435195634053 49.6539
21.339090589297417 48.7686
21.361923832041875 48.3195
21.384580921090404 47.7074
21.407238856007325 47.5026
21.429897637773326 47.4767
21.45273429906592 47.632
21.475394784108598 47.599
21.498056118951983 47.648999999999994
21.520718304578022 47.8289
21.543558400304388 47.9438
21.566222297108816 48.1486
21.58888704765135 48.3676
21.61155265291521 48.605
21.63439619898156 49.11
21.657063523335786 49.1958
21.67973170537063 49.745
21.7024007460706 50.1933
21.72524775840385 50.9707
21.747918526116475 52.0583
21.770590155457388 53.413000000000004
21.79326264741238 55.2055
21.816113141960237 56.9293
21.838787368860547 58.9221
21.861462461341976 61.2947
21.884315579735777 63.6574
21.90699241312273 64.5184
21.92967011506078 64.2835
21.95234868653799 62.731
21.9752053151131 60.8994
21.997885635446785 58.696999999999996
22.020566828293532 56.8331
22.04324889464272 55.8046
22.066109049404666 55.1708
22.088792872571794 55.4503
22.111477572219204 55.7477
22.1341631493376 55.6945
22.157026846313123 55.0391
22.179714188221507 53.9359
22.202402410582668 52.6343
22.22509151438863 51.089
22.24795876962584 49.8903
22.270649646204486 49.2213
22.293341407213727 48.6278
22.316034053646906 48.185
22.338904883215342 48.0094
22.36159931041458 48.0952
22.38429462602756 47.9691
22.40699083104897 47.7111
22.429865251039757 47.6669
22.452563244831367 47.5906
22.47526213102522 47.6582
22.49813925616515 47.7215
22.520839937143307 47.7456
22.543541513520587 47.902
22.56624398629403 47.7189
22.589124730075895 47.5818
22.611829005656723 47.9476
22.63453418063466 47.9183
22.657240256008077 48.1685
22.680124634582935 48.2081
22.70283252079775 48.5961
22.725541310413075 48.9258
22.74825100442868 48.9898
22.771139033969575 49.5984
22.79385054687155 49.7582
22.81656296718292 50.437
22.83927629590484 51.3613
22.862167992606945 52.4647
22.88488314827121 53.6766
22.907599215359284 54.7147
22.93031619487366 56.1086
22.953211574954405 57.0709
22.975930389478226 57.4292
22.998650119445763 57.0853
23.02137076586092 55.8861
23.044269845560063 54.0774
23.06699233506288 52.4638
23.089715744034912 50.6684
23.112617610931565 49.5463
23.135342869061212 48.8197
23.158069049684816 48.1201
23.1807961538087 47.8037
23.20370174880544 47.9395
23.226430710184808 48.2022
23.249160598093425 48.0143
23.271891413539002 48.0888
23.294800752937697 48.0327
23.31753343374794 48.3838
23.340267045128353 48.3981
23.36300158808808 48.7856
23.38591468821339 49.1967
23.408651104658304 49.6065
23.431388455719986 50.1959
23.454126742409 51.1613
23.4770436196085 52.1815
23.499783787914662 53.7032
23.522524894889884 54.9671
23.54526694154616 56.1509
23.56818761219047 57.5454
23.59093154860734 57.6356
23.613676427751283 57.2798
23.636422250635754 55.8029
23.659346731118656 53.6682
23.68209445191868 51.641000000000005
23.704843119509587 49.4319
23.72759273490623 47.9846
23.750521041644767 46.8268
23.77327256312355 46.0714
23.796025035462787 45.6566
23.818956224555475 45.3711
23.841710609113413 45.0712
23.86446594758979 44.9186
23.887222241002014 44.6633
23.910157285144578 44.3176
23.932915498962537 44.3155
23.955674670778713 44.2805
23.978434801611975 44.0418
24.001373717286125 43.8365
24.024135776723917 43.7645
24.046898798245582 43.7908
24.06966278287146 43.7721
24.092605586582614 43.5729
24.115371508023642 43.3211
24.1381383956401 43.0544
24.16090625045381 43.059
24.183852958731244 43.0243
24.206622758582608 42.7988
24.229393528706886 42.723
24.252165270127392 42.9149
24.27511589952438 42.7687
24.297889594216997 42.5239
24.32066426328598 42.437
24.34343990775613 42.4564
24.36639447485003 42.3832
24.38917208083877 42.3699
24.41195066531332 42.2909
24.43490819850244 42.2784
24.457688750692377 42.4105
24.48047028445616 42.3992
24.503252800821233 42.1646
24.526214300784112 42.3813
24.548998793132213 42.4771
24.57178427117417 42.2858
24.59457073593893 42.2471
24.617536219319863 42.0342
24.64032466834748 42.0545
24.663114107195035 41.8231
24.685904536893013 41.6528
24.708874020360852 41.6774
24.731666442613744 41.6616
24.754459858818787 41.6213
24.777254270007962 41.5112
24.80022777025625 41.5416
24.82302418230472 41.4559
24.845821592443674 41.4663
24.86862000170663 41.4141
24.891597535453727 41.1976
24.914397953892728 41.6829
24.93719937456671 41.5229
24.96000179851076 41.6266
24.98298338249997 41.8482
25.00578782394922 42.1747
25.028593271784167 42.2358
25.05157790644186 42.693999999999996
25.07438537804115 42.813
25.097193859145293 42.9872
25.120003350792075 43.2438
25.142992065061257 43.5661
25.165803588823465 43.6634
25.18861612625217 43.9173
25.211429678386736 43.9749
25.234422489079968 43.9558
25.257238081693636 44.0318
25.280054692141732 44.1781
25.3028723214652 44.1045
25.325869245420463 44.2354
25.348688923599397 44.2149
25.371509623787006 44.2095
25.394331347025812 43.7566
25.41733240110666 43.0241
25.440156181590016 42.4156
25.46298098826268 41.8568
25.48580682216873 41.2891
25.50881202326435 40.8869
25.53163992281684 40.6078
25.55446885274561 40.4197
25.577298814096377 40.0106
25.600308179121807 39.9965
25.623140214533745 40.1242
25.64597328451537 40.0468
25.66898578564376 39.747
25.691820936010206 39.8727
25.714657124097695 39.8349
25.737494350954734 39.9536
25.760511045684957 39.7349
25.783350361364224 39.6986
25.806190718969255 39.6716
25.82903211955018 39.7901
25.852053024868923 39.8449
25.874896522722523 39.8304
25.897741066713106 39.8881
25.920586657892454 40.1152
25.943611790812668 40.2416
25.966459487728237 40.245
25.989308234998564 40.3605
26.01215803367705 40.5857
26.03518741123814 40.8449
26.05803932412957 41.0477
26.080892291600094 41.0548
26.10374631470478 41.074
26.12677995397268 41.0907
26.14963609978026 40.8953
26.172493304397875 40.4506
26.19535156888223 40.2773
26.218389486949604 39.7698
26.241249882640123 39.7443
26.26411134137826 39.4615
26.28715248187403 39.5323
26.31001607820869 39.4752
26.3328807407756 39.3493
26.35574647063438 39.3492
26.37879191991473 39.4886
26.401659795896734 39.4925
26.424528742360263 39.6063
26.447398760366614 39.8877
26.470448535598294 39.9753
26.49332070826805 40.0798
26.516193955675355 40.3684
26.53906827888316 40.5362
26.562122397260108 40.8633
26.584998883685063 41.2117
26.607876449110325 41.5065
26.63075509460056 41.6627
26.65381357334404 41.6429
26.67669439061878 41.5238
26.699576291163382 41.2416
26.722459276044212 41.0865
26.745522132402975 40.7986
26.768407297649354 40.5353
26.791293550442003 40.2522
26.814180891848974 40.0108
26.837248143099337 39.721
26.860137673466657 39.7266
26.88302829566349 39.3576
26.90592001075963 39.3606
26.92899167420566 39.0743
26.951885586870763 38.7131
26.974780595655517 38.5767
26.99785558178161 38.3616
27.020752794605112 38.3505
27.043651106772522 38.0779
27.06655051935668 38.1786
27.089629948036183 38.2448
27.112531573292053 38.1236
27.135434302194138 38.0374
27.158338135817015 37.9517
27.181422024430987 37.9709
27.204328079372566 37.7414
27.22723524226965 37.783
27.250143514198573 37.9233
27.273231880156334 37.8614
27.296142382065014 37.6377
27.319053996245536 37.7259
27.341966723775965 37.7747
27.365059584515222 37.763000000000005
27.38797455070062 37.8131
27.410890633481237 37.7028
27.433807833936918 37.9455
27.456905206923906 37.9663
27.47982465472398 37.917
27.502745223449743 38.0056
27.525666914182825 38.124
27.548768816912457 37.9527
27.571692763693633 37.8914
27.59461783573812 37.6508
27.617723149491244 37.5798
27.640650484125285 37.4733
27.66357894728264 37.4776
27.686508540048052 37.4285
27.709618414237887 37.3512
27.732550278321757 37.3333
27.755483275279115 37.3056
27.778417406196485 37.2766
27.801531858397514 37.2575
27.824468269376716 37.2121
27.847405817586786 37.1912
27.870344504116094 37.3379
27.893463551932008 37.4395
27.916404527281053 37.6687
27.93934664422563 37.7623
27.962289903855886 37.8396
27.98541356491974 38.0264
28.00835912214229 38.1627
28.03130582533231 38.455
28.054253675581805 38.6128
28.077381967556104 38.4559
28.100332124185126 38.2873
28.123283431160893 38.1736
28.146235889577238 38.0334
28.169368830154156 37.8716
28.192323603752033 37.7407
28.215279532083304 37.5432
28.238415973016764 37.1857
28.261374223145094 37.1177
28.284333631303806 36.8919
28.307294198589954 36.6143
28.330435319167677 36.4682
28.353398217078915 36.2045
28.376362277420153 36.0591
28.39932750129032 35.8598
28.422473319286713 35.7425
28.44544088262495 35.8176
28.468409612800283 35.5813
28.491379510913497 35.3766
28.51453004413313 35.3172
28.53750229057244 35.204
28.56047570826344 35.1281
28.583450298308804 35.2182
28.606605564586562 34.8981
28.629582511831156 35.0943
28.65256063474956 35.0096
28.675539934446338 35.0085
28.698699951647605 34.953
28.72168161743193 34.854
28.74466446331978 34.9652
28.767648490417624 34.8715
28.790813276438353 34.8857
28.813799678527303 34.8514
28.836787265157085 34.8116
28.859955641890075 34.9408
28.882945610203045 34.8731
28.905936766392035 34.68
28.928929111566863 34.7722
28.952102288520145 34.6575
28.975097024308607 34.5669
28.998092952423807 34.4598
29.021090073977508 34.282
29.04426806913204 34.2487
29.067267590245258 34.0491
29.090268308143695 34.0667
29.11327022394099 33.95
29.13645305530891 33.8827
29.159457379627167 33.7459
29.18246290519685 33.7202
29.20546963313352 33.7115
29.22865731875826 33.7534
29.25166646419296 33.6621
29.27467681535305 33.6737
29.29768837335608 33.6359
29.320880931312562 33.7323
29.34389491580634 33.6991
29.366910110507334 33.6926
29.38992651653503 33.7296
29.41312396492981 33.6323
29.436142806456754 33.4838
29.45916286268059 33.3512
29.48236399319994 33.141999999999996
29.50538649169417 33.0466
29.528410208259935 33.1075
29.55143514402014 32.8536
29.574641196749695 32.7585
29.597668583816574 32.722
29.6206971934585 32.5238
29.64372702680042 32.5312
29.666938019934474 32.493
29.689970313635285 32.4972
29.713003834422636 32.5181
29.73603858342347 32.3474
29.759254535188578 32.3775
29.78229175361658 32.3579
29.80533020365064 32.3178
29.82836988641968 32.319
29.85159081507472 32.1166
29.874632976355343 31.9803
29.89767637376955 32.2206
29.920721008448314 31.9351
29.9439469322847 32.014
29.96699405457564 32.0049
29.9900424175358 32.07
30.013092022298157 31.831999999999997
30.03632295963995 31.8325
30.059375061131373 31.8993
30.08242840783577 31.9428
30.105483000888153 31.8759
30.128718970092244 31.7756
30.151776069006917 31.8281
30.17483441768648 31.9239
30.198074175317235 31.8303
30.221135036724256 31.7766
30.24419715131772 31.7489
30.267260520236203 31.699
30.290505341942243 31.8167
30.313571232750228 31.7837
30.336638381310948 31.6822
30.35970678876503 31.6279
30.38295669299435 31.5117
30.40602763151657 31.6407
30.429099832366074 31.6534
30.452173296685572 31.5745
30.47542830191959 31.5353
30.498504306502497 31.5263
30.521581577995562 31.5663
30.544660117543582 31.6629
30.56792024229725 31.6669
30.59100133132069 31.633000000000003
30.614083691845494 31.7237
30.637167325018545 31.6544
30.660432587840603 31.754
30.683518779717886 31.6991
30.70660624769615 31.8149
30.729694992924372 31.7191
30.75296541239743 31.6772
30.77605672557558 31.5659
30.799149319462742 31.4708
30.8224236211637 31.3192
30.845518789950724 31.2363
30.868615242910597 31.2484
30.891712981195973 31.1462
30.91499247215866 31.0674
30.938092794619365 31.0481
30.96119440587579 30.9921
30.984297307082752 30.8591
31.00758200598383 30.7741
31.030687500658694 30.6869
31.053794288760695 30.7029
31.076902371446767 30.5701
31.100192296997445 30.6384
31.12330298246119 30.5274
31.14641496599209 30.4383
31.169528248749216 30.4187
31.19282341969534 30.3989
31.215939314557186 30.4156
31.239056512134788 30.4666
31.262175013589378 30.4623
31.28547544871168 30.2809
31.30859657161541 30.2817
31.331719001892175 30.3368
31.35484274070538 30.4477
31.378148458819545 30.3364
31.401274828443725 30.298000000000002
31.424402510106933 30.3774
31.447712205419993 30.4491
31.470842524931633 30.3085
31.493974159989783 30.3162
31.51710711176168 30.2581
31.54042212308802 30.1797
31.563557722100917 30.2484
31.586694641341655 30.0312
31.609832881979628 29.95
31.63315322823208 29.9963
31.656294125521327 29.875999999999998
31.679436347728515 29.7503
31.70257989602529 29.6968
31.725905596152327 29.6681
31.74905181052835 29.5665
31.772199354521323 29.6242
31.79534822930507 29.5685
31.818679302290967 29.6922
31.84183085259981 29.6804
31.864983737233473 29.5976
31.88813795736804 29.612
31.911474422233013 29.5651
31.934631327356435 29.5601
31.9577895715215 29.5611
31.980949155906522 29.4791
32.004291031706956 29.4296
32.027453310562606 29.35
32.05061693318573 29.3224
32.07396288236386 29.2461
32.09712920658542 29.3042
32.12029687812702 29.1116
32.14346589817093 29.0334
32.166817291729984 29.0702
32.18998902288583 28.9217
32.21316210610336 28.7852
32.23633654256711 28.6926
32.259693399663725 28.679000000000002
32.282870556771144 28.621
32.30604907069099 28.6704
32.329228942610065 28.627
32.35259128243769 28.4308
32.375773884550505 28.5379
32.398957848235646 28.4594
32.422143174682176 28.3377
32.445511016471215 28.3413
32.468699082679954 28.296999999999997
32.49188851523011 28.199
32.51507931531304 28.1135
32.538452678331 28.1133
32.56164622776311 27.9723
32.58484114831493 28.0104
32.60803744118015 27.9204
32.631416344731896 27.9629
32.654615396551876 27.9255
32.67781582427913 27.8539
32.701198898634416 27.8595
32.72440209253756 27.8815
32.747606665947124 27.7136
32.77081262006088 27.6936
32.79420126883317 27.6252
32.81740999876112 27.698
32.840620112999424 27.5684
32.86383161274818 27.4664
32.88722585534586 27.5211
32.91044014056596 27.5387
32.933655814909734 27.5388
32.95687287957963 27.5257
32.98027273544904 27.5334
33.00349259526636 27.4582
33.026713849030116 27.4272
33.04993649794511 27.3636
33.073341986570746 27.3658
33.09656744032826 27.3952
33.11979429286444 27.3672
33.14302254538647 27.3466
33.166433686291185 27.3005
33.18966475336992 27.2763
33.212897224069096 27.087
33.23613109959831 27.1063
33.259547912343415 27.0299
33.2827846121627 27.0752
33.306022720453775 27.0125
33.32926223842861 26.8918
33.352684742614166 26.9559
33.37592709463173 26.8605
33.399170859982064 26.759
33.422597648419426 26.6707
33.44584425514446 26.6395
33.46909227885668 26.5767
33.4923417207723 26.537
33.51577423505344 26.6134
33.539026528130385 26.445
33.56228024307245 26.3851
33.585535381098246 26.3593
33.60897364093058 26.2446
33.63223163992385 26.2664
33.6554910656699 26.1577
33.678751919389796 26.1108
33.702195944520106 26.1171
33.72545966903325 26.153000000000002
33.74872482519663 26.0545
33.771991414233746 26.1071
33.79544122444841 26.0469
33.81871069412428 25.8549
33.84198160035767 25.8262
33.86525394437455 25.8368
33.88870955949969 25.8933
33.911984794020626 25.7824
33.93526147001624 25.802
33.958539588715006 25.7332
33.98200102861669 25.6484
34.0052820477047 25.5923
34.02856451319451 25.6094
34.05203033759056 25.4869
34.07531571090147 25.4283
34.09860253431845 25.4595
34.121890809074316 25.3772
34.145362493118924 25.357
34.16865368561615 25.4118
34.191946333164054 25.2419
34.21524043699793 25.258000000000003
34.23871800066799 25.2925
34.26201503218366 25.2054
34.28531352370466 25.2083
34.30861347646881 25.0624
34.33209693978188 25.1063
34.3553998301885 25.205
34.378704185565205 24.9608
34.402010007152356 24.9644
34.42549939016683 24.9443
34.44880815937748 24.9172
34.472118398533134 24.7551
34.49543010887669 24.8421
34.51892543169198 24.6847
34.54224009966052 24.7315
34.56555624255917 24.7379
34.58887386163339 24.6615
34.61237514439016 24.5623
34.6356957311114 24.5078
34.65901779775809 24.5471
34.68252356662995 24.4625
34.705848608458616 24.4687
34.72917513396849 24.4411
34.75250314440949 24.3715
34.77601490857862 24.2769
34.799345904259795 24.1843
34.82267838863559 24.2748
34.846012362958525 24.2923
34.869530142679984 24.2667
34.89286711232212 24.26
34.91620557568269 24.1597
34.93954553401677 24.1431
34.9630693495876 24.0746
34.986412313340814 24.1239
35.00975677584668 24.0126
35.033102738362956 23.9474
35.05663261012228 23.9566
35.0799815881786 23.9588
35.10333207003229 23.9074
35.12668405694369 23.9198
35.150220005273056 23.8471
35.17357501786656 23.8289
35.19693153931268 23.7261
35.220289570874385 23.6417
35.24383161619786 23.7132
35.267192683604904 23.7082
35.290555264930376 23.745
35.314101899412165 23.6377
35.33746752422433 23.6883
35.36083466676374 23.6393
35.38420332829803 23.5486
35.407756095629054 23.6427
35.43112781085063 23.5145
35.45450104888391 23.5514
35.477875810999194 23.5375
35.50143473172161 23.4219
35.52481255774625 23.4497
35.54819191167777 23.3327
35.57157279478914 23.4132
35.595137889488406 23.3136
35.61852184675279 23.250999999999998
35.641907337029984 23.2745
35.665294361595684 23.1534
35.68886565090076 23.1819
35.7122557598848 23.1791
35.73564740699838 23.1441
35.759040593519934 22.9994
35.78261809810353 23.0001
35.80601437933051 22.9092
35.829412203814705 22.8682
35.85281157283719 22.8053
35.876395313415884 22.855
35.8997977874528 22.7723
35.92320180988546 22.7696
35.946790244133936 22.6658
35.97019737933222 22.6605
35.993606066789866 22.6426
36.01701630779276 22.6461
36.04061101440684 22.676
36.06402437852291 22.6461
36.08743930005611 22.5571
36.1108557802951 22.4777
36.13445678011326 22.4966
36.15787639383515 22.4996
36.18129757014299 22.4168
36.20472031032821 22.3632
36.22832762423364 22.3016
36.25175350829375 22.3124
36.275180960119776 22.2928
36.298609981005924 22.287
36.32222362992669 22.2788
36.34565580510207 22.2296
36.36908955323448 22.1473
36.39252487562093 22.092
36.416144880530226 22.0838
36.43958336764275 22.064
36.463023432914625 22.0052
36.486465077645676 21.9476
36.51009145956204 22.0865
36.53353627947859 22.0334
36.55698268276811 21.9613
36.58043067073321 21.8469
36.60406345072071 21.7839
36.62751462435344 21.7846
36.65096738658405 21.7775
36.67460498210655 21.7294
36.69806093788647 21.7277
36.72151848619297 21.6736
36.744977628333636 21.7246
36.76862165890998 21.6058
36.79208400512205 21.5633
36.81554794910557 21.5621
36.83901349217101 21.545
36.862663978991606 21.5021
36.88613273667352 21.4702
36.90960309738324 21.4614
36.933075062434064 21.3056
36.95673202673572 21.2981
36.98020721697122 21.2536
37.003684015502365 21.2249
37.027162423645365 21.1532
37.050825886711465 21.1808
37.07430753063053 21.0914
37.09779078812467 21.0478
37.121275660513014 21.0732
37.144945643673694 21.0653
37.16843376245278 21.028000000000002
37.19192350009803 20.9541
37.215414857931435 20.9304
37.239091382563885 20.8307
37.262585997426164 20.8392
37.28608223645736 20.8545
37.309763684451696 20.8483
37.33326318851098 20.7927
37.356764320726555 20.7666
37.380267082425526 20.7613
37.40395510942588 20.7282
37.42746114683234 20.625999999999998
37.45096881771841 20.6281
37.474478123414166 20.6128
37.49817275092816 20.5651
37.52168534303452 20.5165
37.54519957395567 20.4775
37.568715445024665 20.4556
37.592416694607714 20.4312
37.61593586281424 20.4402
37.63945667518264 20.4471
37.66297913304891 20.2945
37.68668702630454 20.287
37.710212792059274 20.2581
37.733740207334854 20.2555
37.757269273470364 20.1738
37.780983832050374 20.1895
37.80451621684926 20.1528
37.82805025654007 20.1128
37.851585952464795 20.1226
37.8753071980695 20.0166
37.89884622345676 19.9759
37.92238690911902 19.9486
37.94611318753442 19.912
37.969657210779765 19.9416
37.99320289834801 19.8892
38.016750251586465 19.7824
38.04048325513017 19.7902
38.06403395679343 19.7579
38.087586328183946 19.7148
38.11114037065203 19.7206
38.13488012115898 19.7666
38.1584375229181 19.6509
38.181996599821 19.5751
38.205557353221124 19.5762
38.229303872575656 19.5695
38.2528679961576 19.5559
38.27643380031219 19.5814
38.30000128639589 19.5212
38.32375459653193 19.437
38.34732546371299 19.4655
38.37089801690786 19.3586
38.39447225747609 19.2985
38.418232380377425 19.3447
38.441810012983396 19.3356
38.46538933705673 19.2328
38.488970353960084 19.2876
38.51273731166058 19.2295
38.536321731567014 19.199
38.55990784840681 19.1505
38.58367995004091 19.1291
38.60726947812959 19.0019
38.63086070726198 19.0712
38.654453638806274 18.9874
38.678232613930824 18.969
38.70182896773327 18.9147
38.72542702806741 18.9112
38.7490267963045 18.8668
38.77281266709232 18.7632
38.79641586862214 18.8071
38.8200207821842 18.7534
38.843627409152944 18.777
38.86742019782782 18.7502
38.891030269149255 18.7279
38.914642058016156 18.7284
38.938255565806124 18.7071
38.96205529464307 18.6606
38.98567225787121 18.5664
39.00929094417078 18.5473
39.03291135492255 18.5518
39.05671804624804 18.4881
39.080341923549106 18.4593
39.103967529460334 18.4677
39.127594865365744 18.4345
39.15140854155791 18.3888
39.17503935514948 18.3413
39.19867190290282 18.338
39.22249083587951 18.3619
39.24612686969409 18.3611
39.269764641845306 18.2659
39.293404153722804 18.2432
39.317230110864074 18.1157
39.34087311998506 18.1027
39.36451787301696 18.1653
39.388164371352595 18.074
39.41199737518003 18.0607
39.43564738196752 18.0346
39.45929913825317 18.0308
39.48295264543308 17.9614
39.506792718520884 17.9277
39.530449745387216 17.8712
39.55410852735203 17.9038
39.57776906581474 17.9049
39.60161623079 17.8075
39.625280300200025 17.7684
39.64894613032202 17.750999999999998
39.67261372255866 17.8182
39.6964680021016 17.7366
39.72013913657293 17.7106
39.74381203738292 17.7367
39.76748670593756 17.6608
39.79134812278169 17.6094
39.81502634488497 17.6104
39.83870633896685 17.5723
39.862388106436654 17.5152
39.88625668336918 17.5742
39.90994201572829 17.5036
39.933629125719285 17.484
39.957503091207826 17.38
39.9811937746168 17.4441
40.00488623990914 17.4222
40.02858048850006 17.3788
40.05246165409549 17.2896
40.076159487492085 17.183
40.099859108448875 17.2576
40.123560518384345 17.2722
40.1474489070226 17.1614
40.171153913178564 17.1663
40.194860712584955 17.1406
40.2185693066637 17.1384
40.242464941335314 17.0988
40.26617714307655 17.0683
40.289891143772046 17.0607
40.3136069448471 16.9884
40.33750984859743 17.0122
40.3612292688043 16.9717
40.3849504936829 16.9098
40.40867352466194 16.9142
40.43258372059144 16.9219
40.45631038219906 16.8767
40.48003885420956 16.8181
40.503769138055105 16.7738
40.52768664931955 16.8173
40.55142057531802 16.8101
40.57515631746428 16.7373
40.599079334038514 16.7278
40.62281872700477 16.6112
40.64655994043941 16.6391
40.67030297578061 16.6011
40.69423334835778 16.628
40.71798004609188 16.5437
40.74172857006355 16.535
40.76547892171441 16.5304
40.7894166736039 16.4293
40.813170699248566 16.4348
40.83692655691388 16.4202
40.86068424804498 16.4045
40.884629402612525 16.3482
40.908390779366385 16.357
40.932153993938 16.317
40.95591904777605 16.3109
40.979871628443995 16.2831
41.003640379561936 16.2539
41.02741097430883 16.2101
41.05118341413683 16.207
41.075143444384416 16.1719
41.098919593177826 16.1534
41.1226975914255 16.1203
41.14647744058318 16.075
41.170444943946755 16.0614
41.19422851378379 16.0973
41.218013938914645 16.0372
41.24198706625173 15.9682
41.26577622087193 15.9565
41.289567235177785 15.9822
41.31336011063129 15.9395
41.337340752422875 15.8476
41.361137369129835 15.8448
41.38493585138705 15.831
41.40873620066004 15.7922
41.43272438060107 15.6946
41.45652848292052 15.7327
41.48033445666918 15.7567
41.50414230331616 15.6491
41.528138045159764 15.6826
41.551949656675205 15.6169
41.575763145513235 15.5733
41.59957851314666 15.5985
41.62358184070442 15.5495
41.64740098505737 15.475999999999999
41.6712220126409 15.49
41.69504492493139 15.4656
41.71905586207357 15.4629
41.74288256296395 15.4297
41.766711153007456 15.434000000000001
41.79054163368412 15.4013
41.814560204340054 15.3867
41.838394485526365 15.350999999999999
41.86223066180303 15.2592
41.88625497706819 15.2731
41.910094962812 15.2765
41.93393684811168 15.2147
41.95778063445365 15.1635
41.981812625263366 15.1209
42.00566023303407 15.1794
42.029509746323676 15.1905
42.05336116662236 15.1621
42.077400857069705 15.0747
42.10125611078846 15.0557
42.12511327600405 15.0437
42.14897235421036 15.019
42.173019768448455 14.9977
42.19688269209613 14.9514
42.22074753323349 14.9133
42.24461429335818 14.8801
42.268669455600495 14.8968
42.292540073217886 14.8336
42.31641261433284 14.8314
42.34028708044675 14.7916
42.36435001496739 14.7682
42.38822835065557 14.7805
42.41210861586426 14.7528
42.4359908120986 14.72
42.46006154323262 14.6515
42.48394762115317 14.6223
42.507835634632315 14.6271
42.531912233047436 14.6258
42.55580413732265 14.5891
42.579697981698 14.5275
42.60359376768525 14.5297
42.62767820545945 14.4405
42.65157789440821 14.4856
42.67547952952185 14.4975
42.699383112316 14.4119
42.72347541395347 14.3978
42.74738291190531 14.390999999999998
42.771292362102166 14.3456
42.795203766063516 14.3077
42.819303956130405 14.3165
42.843219287476536 14.2602
42.86713657716324 14.237
42.89105582671383 14.2148
42.91516392983864 14.208
42.939087119032166 14.1944
42.963012272677304 14.1455
42.98693939230129 14.1613
43.01105543317513 14.1298
43.034986504731386 14.113
43.05891954686589 14.0506
43.08285456110972 14.048
43.10697856448665 14.0005
43.130917542983475 13.9633
43.15485849820081 13.975
43.17880143167367 13.9374
43.20293342237094 13.9452
43.226880332449 13.9522
43.25082922540554 13.8786
43.27496722682525 13.8141
43.29892010567796 13.8405
43.32287497204102 13.8023
43.34683182745632 13.7746
43.370977859791836 13.7734
43.39493871351105 13.7681
43.41890156092628 13.7588
43.44286640358341 13.6885
43.46702049182749 13.6944
43.49098934522816 13.6174
43.51496019852649 13.5762
43.5389330532723 13.6318
43.56309522248204 13.5725
43.58707210044314 13.5134
43.61105098451946 13.5387
43.63503187626491 13.4698
43.659202151562134 13.4435
43.68318707902681 13.4477
43.70717401884041 13.3686
43.731162972560874 13.4294
43.75534137913236 13.3923
43.779334381108384 13.3671
43.803329401683186 13.3513
43.82732644241872 13.3216
43.8515130055166 13.2805
43.87551410707659 13.2117
43.89951723350145 13.2313
43.923709934595614 13.2231
43.94771713129917 13.1791
43.97172635758096 13.1503
43.99573761501002 13.1334
44.0199385169922 13.1236
44.04395385732619 13.106
44.067971233533086 13.0723
44.09199064718605 13.0678
44.11619977548961 13.0085
44.14022328470671 13.0129
44.16424883610785 13.0467
44.18827643127035 12.9867
44.21249381139513 12.9664
44.236525514814076 12.8882
44.26055926674478 12.9081
44.28459506876863 12.9124
44.3088207262813 12.8463
44.33286064928722 12.8177
44.35690262714919 12.8341
44.38094666145278 12.7672
44.4051806219871 12.8048
44.42922879003185 12.7509
44.45327901929361 12.7214
44.477331311362136 12.6875
44.501573600619416 12.6458
44.525630039221795 12.6547
44.54968854541895 12.6763
44.573937102200176 12.623
44.5979997645541 12.6241
44.622064499300315 12.5404
44.64613130803592 12.5914
44.67038823869318 12.585999999999999
44.69445921643748 12.5481
44.718532272981385 12.4582
44.742607409926194 12.4572
44.76687274034801 12.4581
44.79095205918753 12.3938
44.81503346325094 12.3855
44.839116954143876 12.402999999999999
44.86339071028742 12.3591
44.88747839599524 12.3532
44.91156817336837 12.2852
44.93566004401666 12.3306
44.959942251908146 12.2874
44.984038330325966 12.2656
45.00813650686762 12.2218
45.03223678314731 12.1894
45.05652746888232 12.1575
45.08063196592069 12.1333
45.104738567558705 12.0816
45.128847275414856 12.0878
45.15314646515866 12.0263
45.17725940679741 12.0791
45.20137445952892 12.1003
45.22568004865265 12.0353
45.24979934496396 11.991
45.27392075725247 11.9686
45.29804428714431 11.9828
45.322358426247604 11.9645
45.346486212804315 11.8825
45.370616121861914 11.9188
45.39474815505086 11.8668
45.41907087049246 11.8415
45.4432071734666 11.7956
45.46734560548283 11.8517
45.49148616817604 11.8431
45.51581748638564 11.7897
45.5399623320197 11.7672
45.56410931325473 11.698
45.58825843173002 11.7427
45.61259837920865 11.6932
45.636751793816 11.7187
45.66090735060093 11.6447
45.68506505120716 11.5982
45.7094136545275 11.5635
45.73357566449271 11.5574
45.75773982322992 11.5529
45.78190613238733 11.5698
45.806263418194064 11.5115
45.83043404997326 11.4721
45.85460683713677 11.4354
45.87897065658495 11.4572
45.90314777634752 11.4238
45.92732705646868 11.3898
45.9515084986045 11.4199
45.97588104735473 11.3682
46.00006683541565 11.3415
46.02425479047904 11.3373
46.04844491420549 11.3373
46.0728262191024 11.2986
46.09702070211635 11.2729
46.12121735879483 11.2873
46.14541619080294 11.2313
46.169806278764455 11.2393
46.194009483459034 11.1983
46.21821486849841 11.2117
46.24242243555223 11.1877
46.266821333570014 11.1573
46.29103328674601 11.1488
46.31524742696538 11.1128
46.33946375590237 11.1337
46.36387149104216 11.1186
46.38809221957392 11.0008
46.41231514186606 10.982000000000001
46.436540259597464 10.9997
46.460956858999374 10.9616
46.48518638983522 10.9685
46.509418121166966 10.8968
46.533652054678114 10.8991
46.55807754555709 10.8839
46.58231590571962 10.8839
46.60655647313217 10.8457
46.630988654873654 10.8062
46.655233659129024 10.7882
46.67948087571551 10.7797
46.70373030632484 10.7871
46.72817142736393 10.7662
46.752425308428684 10.759
46.77668140861147 10.6925
46.80093972960865 10.6542
46.82538981736788 10.672
46.849652602470904 10.633
46.87391761349769 10.5985
46.8981848521493 10.6498
46.9226439341274 10.5795
46.946915650573224 10.5786
46.97118959976749 10.5519
46.99546578341598 10.5121
47.019933887188216 10.5275
47.04421456235744 10.5026
47.06849747711879 10.4443
47.09278263318286 10.4808
47.11725978640143 10.43
47.14154944775105 10.4236
47.165841355555656 10.4162
47.1901355115306 10.364
47.214621741924994 10.3478
47.23892041698887 10.3761
47.26322134538975 10.3104
47.28771440635075 10.3022
47.31201986422527 10.3089
47.33632758061436 10.2621
47.360637557241866 10.2414
47.38513974410611 10.212
47.40945426407847 10.1891
47.43377104948137 10.1655
47.45809010204344 10.1498
47.48260144275502 10.1297
47.506925052572285 10.1206
47.53125093475548 10.0607
47.55557909103813 10.0674
47.58009961361992 10.1233
47.60443234110732 10.0918
47.62876734791564 10.0752
47.65310463578333 10.0632
47.6776343683373 10.0378
47.7019762413987 9.96077
47.72632040075572 9.9395
47.75066684815169 9.95009
47.77520581885936 9.95859
47.799556865477655 9.93953
47.823910205386 9.91045
47.84826584033272 9.87218
47.87281407745551 9.84375
47.89717432569297 9.8293
47.92153687423484 9.80845
47.94609208429692 9.76373
47.97045925671401 9.791319999999999
47.99482873471275 9.79326
48.01920052005013 9.79837
48.04376504619224 9.745569999999999
48.068141469543484 9.7593
48.09252020552573 9.701310000000001
48.11690125590099 9.682939999999999
48.1414751266064 9.65363
48.16586082917454 9.65134
48.19024885144316 9.5925
48.2146391951793 9.595130000000001
48.239222439012764 9.6104
48.26361744916137 9.58877
48.28801478610016 9.57258
48.31241445160131 9.54765
48.337007097209366 9.56626
48.36141144338331 9.52051
48.38581812345755 9.48443
48.41022713920929 9.48877
48.434829215320704 9.43784
48.45924292604658 9.394969999999999
48.48365897780325 9.405619999999999
48.50807737237308 9.37728
48.532688907799276 9.35218
48.55711201168574 9.34055
48.581537463754074 9.3664
48.60615611725119 9.366489999999999
48.63058628942721 9.318439999999999
48.65501881516546 9.28518
48.6794536962573 9.30948
48.70408185970339 9.26375
48.72852147531801 9.23772
48.75296345168211 9.24059
48.77740779059232 9.25747
48.80204549302823 9.21683
48.82649458091802 9.16371
48.85094603676547 9.16183
48.87539986237231 9.1413
48.90004713292306 9.135860000000001
48.92450572200832 9.09908
48.94896668628025 9.09796
48.97343002754588 9.08162
48.99808689542115 9.03156
49.02255501470614 9.04577
49.04702551642794 9.030389999999999
49.0714984023988 8.99376
49.096164896893235 8.9886
49.120642575466796 8.96133
49.145122643748394 8.92496
49.16960510355558 8.92339
49.19428125404938 8.907210000000001
49.2187685210852 8.90825
49.243258185121555 8.89076
49.26794160167084 8.886660000000001
49.2924360839405 8.8666
49.31693296869764 8.84341
49.34143225776915 8.825339999999999
49.36612538195438 8.81765
49.39062950396021 8.79326
49.41513603578346 8.77647
49.4396449792564 8.774389999999999
49.46434784069503 8.733789999999999
49.488861631846454 8.687610000000001
49.513377840166804 8.6871
49.537896467493745 8.692169999999999
49.56260909589029 8.6303
49.587132585683285 8.6556
49.611658500018365 8.65859
49.636186840738596 8.595939999999999
49.66090926588511 8.61801
49.685442483902584 8.56979
49.70997813385706 8.558539999999999
49.734516217597076 8.56532
49.75924846937352 8.53434
49.7837914452858 8.5207
49.80833686055187 8.52091
49.83288471702571 8.50699
49.85762682540054 8.48069
49.882179588965734 8.46302
49.9067347993235 8.431410000000001
49.93129245833333 8.42106
49.95604445336378 8.44587
49.98060703442832 8.38787
50.005172069746266 8.351410000000001
50.02993150438364 8.36148
50.05450147301533 8.38137
50.07907390151433 8.338289999999999
50.10364879174981 8.3102
50.12841816587289 8.3182
50.1529980044635 8.31354
50.17758031042124 8.26239
50.20216508562089 8.252130000000001
50.22694442953363 8.26619
50.25153416817468 8.193430000000001
50.27612638170508 8.18207
50.300721072005196 8.17601
50.325510416102105 8.185360000000001
50.350110084975064 8.174619999999999
50.37471223628208 8.18575
50.39931687190919 8.135060000000001
50.424116246675766 8.12035
50.44872587605249 8.10333
50.47333799543065 8.08372
50.49795260670191 8.04397
50.52276204271512 8.02389
50.54738166295838 8.0436
50.57200378079314 7.99127
50.596628398116835 7.97156
50.62144792604559 7.979769999999999
50.646077567609396 7.9957
50.670709714377715 7.95816
50.69553683636198 7.921539999999999
50.72017401885922 7.9198
50.7448137122895 7.90187
50.76945591856022 7.889639999999999
50.79429318636823 7.867939999999999
50.818940443716784 7.879510000000001
50.84359021965163 7.834230000000001
50.868242516085964 7.82137
50.893089960641895 7.78005
50.917747323549435 7.769419999999999
50.94240721271973 7.77332
50.96706963007175 7.7422699999999995
50.99192728239342 7.74712
51.01659478166073 7.74171
51.04126481489051 7.68615
51.06593738400761 7.711110000000001
51.090805275207074 7.66637
51.11548294172845 7.669689999999999
51.14016314993547 7.70902
51.164845901758845 7.675860000000001
51.18972406304274 7.606660000000001
51.21441192780656 7.61068
51.23910234200271 7.60847
51.2637953075678 7.57015
51.288683770237945 7.5747100000000005
51.31338186432707 7.54568
51.33808251561888 7.56117
51.362978729967345 7.519589999999999
51.387684521509755 7.52018
51.41239287610203 7.50415
51.437103795691165 7.464189999999999
51.46201036644977 7.43544
51.486726441956634 7.443160000000001
51.51144508832545 7.4232
51.536166307509156 7.43094
51.56108326624387 7.4228
51.58580965706056 7.41322
51.61053862657523 7.33577
51.635270176746864 7.35743
51.66019755512065 7.339289999999999
51.68493429268881 7.2938600000000005
51.70967361681515 7.303139999999999
51.73441552946465 7.293189999999999
51.759353359237934 7.28538
51.7841004750961 7.282939999999999
51.80885018539685 7.258319999999999
51.833602492111254 7.20638
51.8585508051424 7.2152
51.883308330926425 7.22175
51.90806845906181 7.22147
51.932831191525715 7.17408
51.95779001977161 7.14652
51.98255798721516 7.16344
52.00732856494335 7.10487
52.03229530577543 7.13007
52.057071130455945 7.08545
52.081849571391054 7.086710000000001
52.106630630568695 7.052560000000001
52.13160794279417 7.052230000000001
52.15639426492067 7.02755
52.18118321127822 7.0482
52.205974783860896 6.996860000000001
52.23096269971011 6.967210000000001
52.255759551287994 6.93843
52.280559035098186 6.93417
52.30536115314103 6.976210000000001
52.33035970494467 6.95558
52.35516711807904 6.949210000000001
52.37997717147198 6.93889
52.40478986713005 6.90481
52.42979908731974 6.8918800000000005
52.454617094216 6.873939999999999
52.47943774942214 6.87453
52.50426105495102 6.8679
52.529280976059844 6.818060000000001
52.554109609024096 6.83604
52.57894089837482 6.766310000000001
52.60377484613117 6.75051
52.62880550079408 6.73538
52.65364479223379 6.7320899999999995
52.67848674816189 6.727930000000001
52.70352547971946 6.74799
52.72837279155837 6.706639999999999
52.753222773982785 6.673089999999999
52.778075429022984 6.68783
52.80312495150885 6.66551
52.827982978797436 6.64657
52.85284368481815 6.5835300000000005
52.87770707160767 6.60762
52.90276741793998 6.61335
52.92763619336701 6.58035
52.952507655698504 6.580989999999999
52.977381806977576 6.568239999999999
53.00245301017842 6.565980000000001
53.02733256653592 6.52146
53.052214817996074 6.51146
53.077099766608484 6.51847
53.102181859804446 6.48502
53.127072229988265 6.52819
53.15196530349892 6.47858
53.17686108239249 6.4613
53.20195409881522 6.42322
53.22685531582556 6.447369999999999
53.25175924441303 6.42382
53.27666588664027 6.388240000000001
53.30176985962693 6.39141
53.3266819565689 6.40848
53.35159677336455 6.3636800000000004
53.376514312083096 6.37526
53.40162927507703 6.3756699999999995
53.42655228516116 6.3425400000000005
53.45147802340193 6.25882
53.47660125628886 6.2899400000000005
53.50153247842639 6.2950800000000005
53.52646643496923 6.29132
53.55140312799818 6.26075
53.576537409691696 6.22613
53.60147960336152 6.19554
53.626424539786164 6.24021
53.65137222105307 6.19412
53.67651758529126 6.215269999999999
53.70147078399681 6.194319999999999
53.72642673383343 6.16439
53.75138543689533 6.12531
53.776541917524526 6.13141
53.801506154876755 6.1227
53.826473151763246 6.12861
53.851442910284916 6.0852699999999995
53.87661054126026 6.08747
53.9015858509782 6.08168
53.92656392866066 6.04111
53.95154477641532 6.08459
53.976723591801296 6.02326
54.00171000771266 6.01537
54.02669920004598 6.03324
54.051691170915745 6.00418
54.076881204886796 5.969069999999999
54.101878760928514 5.967230000000001
54.12687910187696 5.947080000000001
54.152077577768296 5.9313400000000005
54.1770835166946 5.8838099999999995
54.20209224691339 5.8783199999999995
54.22710377055121 5.86341
54.25231352511594 5.87775
54.27733066384342 5.86519
54.30235060239643 5.88036
54.32737334290836 5.8194300000000005
54.35259441062629 5.81431
54.377622783395324 5.80516
54.40265396455061 5.80931
54.42768795623251 5.74949
54.45292037169559 5.71419
54.477960012857906 5.70986
54.50300247099511 5.74025
54.52804774825457 5.69663
54.55329154616743 5.641369999999999
54.57834249018678 5.6303
54.6033962597977 5.63168
54.6284528571545 5.62165
54.653708072335164 5.566319999999999
54.67877035378786 5.59626
54.70383546947698 5.5128
54.72890342156389 5.53911
54.7541700889442 5.4842900000000006
54.77924374251975 5.5368900000000005
54.8043202390049 5.50119
54.82959552413022 5.460430000000001
54.8546777351945 5.40033
54.87976279569621 5.41101
54.90485070780914 5.414569999999999
54.930137506558005 5.389469999999999
54.95523115074295 5.39391
54.98032765308844 5.36207
55.005427015775496 5.34713
55.03072536339621 5.3244
55.05583047570572 5.289619999999999
55.080938454927676 5.2646
55.10604930325027 5.229480000000001
55.131359235107396 5.22776
55.15647585066083 5.21216
55.181595341907496 5.17689
55.20671771104285 5.11718
55.232039262617704 5.109719999999999
55.25716741665048 5.14332
55.28229845518636 5.15244
55.30743238042802 5.0571
55.33276558731939 5.0209
55.357905315183636 5.05935
55.383047936390035 5.01962
55.40819345314859 4.99961
55.433538351073295 4.97296
55.458689688238415 4.97777
55.483843927614096 4.94057
55.509197623043605 4.904319999999999
55.53435769621134 4.87744
55.55952067826466 4.8457300000000005
55.5846865714265 4.86534
55.61005202069737 4.7883
55.63522376553902 4.79876
55.66039842818645 4.78918
55.68557601087004 4.81621
55.7109532500271 4.739319999999999
55.73613670233794 4.701280000000001
