TT I
1.2716486653135266 29.6586
1.2939594142134223 29.3333
1.3162702121660406 27.9736
1.3385810600174564 26.7982
1.3608919586137629 26.6495
1.383202908801069 25.7026
1.405513911425503 24.4258
1.4278249673332093 24.3303
1.4501343378461518 24.0764
1.4724455028545926 23.4493
1.4947567236847858 22.9122
1.517068001182951 22.3308
1.5393793361953272 21.6708
1.5616907295681737 21.5087
1.5840021821477681 20.9789
1.60631369478041 20.726999999999997
1.6286252683124185 20.6605
1.6509369035901333 19.8018
1.6732468618895553 19.6306
1.695558623192809 19.4699
1.7178704487808514 19.3913
1.7401823395001077 19.145
1.7625012545597203 19.1946
1.7848028405262486 18.669
1.8071218901122095 18.7687
1.8294236121921872 18.1994
1.8517427996910911 18.3782
1.8740620574440425 18.4352
1.8963639900671978 17.9768
1.9186833908139995 17.8732
1.9409854680117449 18.1137
1.9633050151394713 17.5326
1.9856246367570705 17.1436
2.0079269371922672 17.933
2.03024671027244 18.0787
2.0525491637446027 17.149
2.074869091674931 17.4092
2.097171701569106 17.1041
2.1194917877373847 17.5314
2.141811954326636 17.9453
2.164114805233074 18.0581
2.186435135143035 17.8087
2.208738150935709 17.7558
2.231058647554722 17.4257
2.2533792288321184 17.9884
2.275682498336085 18.5135
2.298003251406138 18.0433
2.3203066942619714 18.2063
2.3426276225136022 17.8616
2.3649486396617507 17.8781
2.387252348930071 18.3068
2.4095735463442893 17.5936
2.4318774374315884 19.0297
2.4541988185014043 18.924
2.476502894794693 18.8437
2.498824462909887 19.1055
2.521146125856138 19.5041
2.5434504863470337 19.2085
2.5657723414244717 20.185
2.588076895590662 20.831
2.610398946189713 21.2169
2.6327210958598384 20.6886
2.6550259469304716 20.6453
2.6773482972090137 21.8101
2.6996533504259 22.2666
2.7219759047039602 23.7763
2.744298562293959 24.046
2.7666039251246595 25.7638
2.7889267918020164 26.1332
2.8112323652516555 27.8026
2.833555444408179 28.714000000000002
2.8558786311183852 30.2121
2.8781845268938557 32.0623
2.9005079311721484 34.373000000000005
2.9228140460410397 36.4816
2.9451376712799635 39.2945
2.967444008632326 42.2375
2.9897678582247247 45.2812
3.0120918213106695 49.8838
3.0343984987899373 52.88
3.0567226913198637 56.135
3.079029599759726 60.0913
3.101354025127254 63.7438
3.123678568232338 65.2905
3.145985829517914 64.9225
3.16831061055229 63.9317
3.1906181112775593 61.5711
3.212943133635653 58.5312
3.2352682779763207 54.4429
3.2575761442691227 49.3727
3.2799015350264273 44.9702
3.302209649240067 41.0759
3.3245352898092655 38.1528
3.3468436553365257 35.2994
3.369169549113219 32.8644
3.3914955708171384 31.29
3.413804319727358 29.4219
3.4361305997334863 28.3336
3.4584396084414553 27.6122
3.4807661501462652 27.2634
3.503092824025881 26.258000000000003
3.5254022288463154 25.8354
3.5477291695206588 25.5152
3.5700388426251948 25.0022
3.5923660534916446 25.0442
3.6146934007816114 25.2046
3.637003482731501 24.8947
3.6593311053109985 24.3503
3.681641464033634 24.3625
3.7039693653009733 24.0467
3.726297407241705 24.5287
3.7486081875460804 24.4992
3.7709365132734978 24.8194
3.793247578841633 25.0531
3.8155761917550093 24.8463
3.8378875459837216 25.3011
3.8602164494827234 25.0177
3.882545499606844 25.4376
3.9048572932539183 25.7626
3.9271866390645718 25.5967
3.9494987298666713 26.1489
3.971828374764527 26.651999999999997
3.9941581705403255 26.9487
4.016470713506008 27.1144
4.038800813471445 27.656999999999996
4.061113662089144 27.8217
4.0834440696459176 28.8192
4.105774632334751 29.0497
4.128087945865126 28.99
4.150418821249301 29.7205
4.172732448931298 30.4171
4.195063640413578 30.6829
4.2173775856475215 31.1903
4.239709096631102 32.4942
4.262040768704612 33.8211
4.284355196706267 35.1058
4.306687193387355 36.9106
4.329001947444346 38.121
4.35133427213731 39.305
4.373666762177566 39.4583
4.395982011761091 37.9218
4.418314834921175 37.5315
4.44063041906622 37.3625
4.4629635787515625 37.4971
4.4852969080429785 37.8482
4.5076130004776225 38.4991
4.529946671403969 39.5197
4.552263106909177 39.6435
4.574597122877047 40.6668
4.596931312711224 42.0193
4.619248269273446 42.7051
4.6415828092605835 43.6825
4.663900117405352 44.3464
4.686235010953232 45.8205
4.708552674085913 47.0519
4.730887924602802 48.3882
4.753223354952695 50.0362
4.775541557023902 51.5108
4.797877349456786 53.6339
4.820195915032126 55.7484
4.842532072957498 57.6356
4.864868414979744 60.1477
4.88718753227192 63.3697
4.909524244902505 67.2814
4.931843734218147 71.3816
4.954180820867835 77.3796
4.976518095879839 84.8743
4.998838149695359 93.7619
5.021175803844231 105.12799999999999
5.043496238205739 113.991
5.065834274903528 122.47399999999999
5.088172504230693 132.44
5.1104935158799565 147.159
5.132832132875765 169.44099999999997
5.155153533596801 202.267
5.1774925416746225 258.695
5.199814334878411 385.218
5.2221537374521505 654.836
5.244493338631803 995.049
5.266815727034316 1355.56
5.289155727832427 2110.83
5.311478517248165 3496.75
5.333818921080011 4441.4
5.356159527788849 4014.51
5.3784829252032536 2415.99
5.400823940070432 1171.63
5.423147747031976 572.845
5.445489173474152 347.67
5.467830807066149 254.325
5.490155234831516 207.118
5.512497285125229 176.887
5.534822130975162 157.615
5.557164601388673 142.739
5.579489868738879 130.525
5.601832762690846 122.369
5.6241758697774475 116.93299999999999
5.646501775867269 114.179
5.668845311622074 111.948
5.691171647754637 109.26100000000001
5.713515615597765 106.05
5.735859800852677 102.96600000000001
5.758186788542988 101.758
5.780531411018185 101.97200000000001
5.802858837297399 102.109
5.825203900414495 103.51100000000001
5.8475491852224 106.594
5.869877275883075 110.445
5.892223006467101 116.78200000000001
5.914551544266608 124.59899999999999
5.936897724049891 136.562
5.959244129804903 152.822
5.981573344815301 181.701
6.0039202049061 232.856
6.026249875609095 321.36
6.04859719346037 431.455
6.070927323278297 540.951
6.093275102315365 697.698
6.115623113320588 928.702
6.137953938319995 1225.23
6.160302415650845 1273.8
6.182633708324452 967.6439999999999
6.2049826554078376 625.8009999999999
6.227331838745022 379.356
6.249663839443684 246.88299999999998
6.27201349767565 179.19099999999997
6.294345974611799 141.455
6.316696111167083 114.464
6.339046488263839 97.1468
6.361379686074702 85.492
6.383730546639482 77.3154
6.406064229255215 70.8348
6.428415576718203 66.6575
6.450749747566656 63.118
6.47310158535871 59.911
6.495453669698332 57.2529
6.517788579421056 55.4494
6.540141159237969 53.684
6.562476565766648 51.706
6.5848296444934045 50.3709
6.607182974060425 49.3363
6.6295191323281015 48.4648
6.651872965955752 47.6307
6.6742096296068985 46.7694
6.6965639707294615 46.2847
6.71891856698715 45.276
6.741255995248479 44.8436
6.763611104154477 43.7713
6.785949046381137 43.4545
6.808304671371482 43.2705
6.8306605557940046 42.8573
6.852999275508618 42.1941
6.875355681171544 42.2911
6.897694923437771 42.1583
6.92005185377892 42.2421
6.9423916220322655 42.4781
6.964749080490181 41.8681
6.987106804399774 42.1026
7.009447368180821 42.8501
7.031805625367033 43.3416
7.054146723727803 43.8187
7.076505517631004 44.2937
7.098864581288365 44.8903
7.121206488070854 44.3447
7.143566093607822 43.2939
7.165908543567245 42.6513
7.188268694426048 41.5631
7.2106291193438095 40.7986
7.232972390625943 40.6705
7.255333366030969 40.4066
7.277677189091925 40.1471
7.300038718428332 40.4269
7.322400526130865 40.2978
7.344745183422596 40.5705
7.367107550224791 40.4062
7.389452767901992 40.9473
7.411815697249891 41.1091
7.434161478756298 41.3466
7.456524974096713 42.248000000000005
7.478888753837185 44.5755
7.501235387657368 50.5701
7.523599738562711 71.3573
7.545946944825532 125.785
7.568311870344528 188.467
7.5906770845765665 192.515
7.613025156078678 127.586
7.635390950099687 75.4719
7.657739602662809 53.653
7.680105979923558 46.1747
7.702472650212829 43.3248
7.724822180948224 41.7327
7.747189439655568 41.2353
7.769539560075357 40.727
7.791907410653562 40.5631
7.81425812420825 40.1091
7.836626570110925 40.3426
7.858995315087906 40.7649
7.881346924933401 40.7436
7.903716270417482 41.0802
7.926068482028405 41.0232
7.948438431475253 41.2973
7.9708086843180235 41.5043
7.993161805171116 41.918
8.015532667162402 42.2565
8.037886398416653 42.7529
8.060257873014221 42.919
8.082629655331942 43.4076
8.104984308787587 44.1865
8.127356708900503 44.4194
8.149711981398308 44.9604
8.172085002766314 45.8198
8.194458336181368 46.8597
8.216814543847752 47.7593
8.23918850371002 48.9784
8.26154533906492 50.2918
8.283919928836452 51.9604
8.306277395339652 53.4963
8.328652618483376 54.911
8.351028159736202 56.8199
8.373386579575245 58.7694
8.395762759396959 60.7488
8.418121819038275 63.6464
8.440498640894003 68.2817
8.462875785192262 74.5811
8.485235811156207 83.8339
8.507613602688501 100.725
8.529974277114228 132.507
8.552352719347912 171.051
8.574731488360351 207.084
8.59709314210385 228.33
8.619472567021075 262.443
8.64183487789147 346.593
8.664214962183097 516.207
8.686577933647762 704.695
8.708958680784317 753.09
8.731339760774953 630.996
8.753703729764451 414.895
8.77608547780821 253.44099999999997
8.798450116065078 172.695
8.820832535634787 130.82299999999998
8.843215292401656 107.35700000000001
8.865580941199045 93.4031
8.887964374703538 85.242
8.910330701447199 80.2688
8.932714815164482 76.4823
8.955099270424924 73.66
8.977466620733543 71.793
8.999851761421976 69.9315
9.022219798361645 68.3666
9.04460562795561 67.9203
9.066991803441677 67.1651
9.089360876979615 66.90100000000001
9.111747746589993 67.3746
9.13411751544971 67.6741
9.156505082664324 68.7478
9.178875550323522 72.8991
9.20126381862328 82.5839
9.223652438908596 112.713
9.246023961427412 191.27200000000002
9.26841328802173 300.133
9.290785518039224 329.39099999999996
9.313175554425882 245.425
9.335565947154315 140.90200000000002
9.357939245086508 90.8971
9.380330352834827 74.4499
9.40270436697103 68.0396
9.425096193225055 64.6966
9.447488380180165 63.4843
9.469863475295412 61.9768
9.492256385987508 61.2496
9.514632206018318 61.0874
9.537025843935714 60.8005
9.559402392368193 60.5473
9.581796761000229 61.1368
9.604191496441521 61.0349
9.626569144158516 60.9866
9.648964615551032 61.4589
9.671343000390081 61.4692
9.693739211225699 62.0855
9.716135793237463 62.8558
9.738515290448102 63.0681
9.760912617143402 64.0767
9.783292860202891 64.9691
9.805690935076182 66.0823
9.828089385495742 66.7379
9.850470754023561 68.6045
9.872869957865444 70.5647
9.89525208097539 73.4633
9.917652041736662 76.9813
9.940052382417589 82.37700000000001
9.962435644102392 90.0755
9.984836746950979 103.53399999999999
10.007220771957746 127.839
10.029622640473708 162.157
10.052007432299963 191.07
10.074410069984072 202.74599999999998
10.096813093716005 213.74400000000003
10.119199042482517 248.17700000000002
10.141602840636468 331.139
10.163989564971628 474.209
10.186394141051062 657.245
10.208799107559706 727.445
10.231187001965623 636.7819999999999
10.253592751657669 445.30199999999996
10.275981430388155 279.013
10.298387966769793 187.84
10.320794897965431 144.153
10.343184759907361 117.76100000000001
10.36559248305461 101.006
10.387983138083852 91.932
10.410391656691655 87.3859
10.432800574501677 85.6764
10.455192425893369 88.661
10.47760214443012 95.9402
10.499994797678786 101.76
10.522405320453982 102.611
10.54479877906917 103.154
10.567210109595656 108.322
10.5896218454736 124.861
10.612016518879773 162.363
10.634429067781074 215.86900000000003
10.656824555333241 256.365
10.679237920773568 262.931
10.701651695961992 232.173
10.724048411481384 191.942
10.746463008485165 147.002
10.768860546937125 106.023
10.791275969274796 79.0588
10.81369180576079 67.5491
10.836090585366925 61.8883
10.858507252467449 58.3842
10.88090686379991 56.254
10.903324365036394 54.4454
10.925724811614439 53.3197
10.948143150509463 52.701
10.970561909719066 51.6287
10.992963615930844 50.6856
11.015383218085756 49.8039
11.037785768347074 49.0913
11.06020621697282 48.2711
11.082627090322113 47.6619
11.105030913430326 47.5953
11.12745263854165 46.8854
11.149857314510728 46.5871
11.172279894912576 46.413000000000004
11.194702904450653 46.17100000000001
11.217108866490921 45.5242
11.239532736615194 45.1745
11.26193956033512 45.0779
11.284364294577085 44.6549
11.306789462371718 44.4115
11.329197585398376 43.8704
11.351623622610898 43.7978
11.37403261614354 43.2899
11.396459526308487 43.031000000000006
11.418869393879497 42.6833
11.441297180532617 42.6654
11.463725406927658 42.2963
11.486136592353875 42.0474
11.508565700543707 41.9709
11.530977768845315 41.973
11.553407762368774 41.6284
11.575838200059769 41.6835
11.598251599479612 41.6987
11.620682927815501 41.5503
11.64309721895548 41.6834
11.665529441478206 41.4664
11.687962112597958 41.4556
11.710377748130886 41.606
11.732811318753434 41.5716
11.755227854859067 41.7274
11.777662328529495 41.8442
11.800079768750786 41.73
11.822515149015453 42.3197
11.844950984084935 43.1356
11.867369787303163 43.4383
11.889806534289491 45.11
11.912226250487029 49.5846
11.934663912939751 60.7919
11.9571020346363 81.8256
11.979523127133968 103.689
12.001962169624331 108.571
12.024384183972964 92.63600000000001
12.046824150809913 70.0561
12.069264581333726 56.8388
12.091687985297767 52.7794
12.11412934550045 52.2374
12.136553680195208 52.6858
12.158995973632788 53.2668
12.181438735204349 53.7944
12.20386447284199 55.5901
12.226308172985636 59.4221
12.24873485024193 66.0221
12.271179492516982 74.9092
12.293607112949127 84.6832
12.316052700916226 88.9928
12.338498763250042 84.9015
12.360927805303868 74.0481
12.383374818673879 63.8153
12.405804812803074 56.0095
12.428252780773262 51.2426
12.45070122756722 48.1807
12.473132656675375 46.1548
12.49558206341869 45.2067
12.518014453510101 43.8941
12.540464823770117 43.2021
12.562915677315177 42.653
12.58534951575545 42.5218
12.607801338171472 42.0919
12.630236146511358 42.1815
12.652688941369085 41.9624
12.675124723177234 41.9859
12.697578494048786 42.1011
12.720032754458185 42.231
12.742470003354093 42.3691
12.764925245138771 42.47
12.787363476431278 42.7068
12.809819703166806 42.9043
12.83227642391173 42.9369
12.854716135692716 43.3869
12.877173846755147 44.2163
12.899614549869717 44.0564
12.9220732548287 44.8207
12.94453245827299 45.1611
12.966974655289818 45.4248
12.989434858002571 46.2714
13.011878055298721 46.9054
13.034339260862497 48.0749
13.056800969391883 49.5879
13.079245674017244 53.088
13.101708390774869 57.7912
13.12415410463411 64.5822
13.146617833206086 69.4858
13.169064559883248 70.7002
13.191529303857127 71.6544
13.213994557076367 73.8891
13.236442809902437 75.2892
13.258909083908291 75.4432
13.28135835851934 75.8203
13.30382565690295 79.5963
13.326293469022952 88.1913
13.348744283242008 103.15899999999999
13.371213125129904 128.54
13.39366497011003 159.488
13.416134845360597 183.83599999999998
13.438605238843131 186.195
13.46105863690397 164.007
13.483530069144786 133.088
13.505984506951902 108.20200000000001
13.528456981549432 95.3439
13.550929978879088 89.67
13.573385983253365 86.4418
13.595860028340867 82.8779
13.618317081455832 80.2418
13.64079217790333 80.0486
13.663250283359057 83.8018
13.685726434770173 92.6086
13.708203115221277 111.15299999999999
13.730662806148091 137.536
13.75314054697177 163.097
13.775601299246777 176.011
13.798080104050406 163.111
13.820559442405358 130.528
13.843021793671388 100.87299999999999
13.865502201420897 80.6079
13.887965623051947 69.3199
13.910447103807167 62.6215
13.932929122629764 58.0217
13.955394156785959 55.9116
13.977877254034569 53.7949
14.000343367582113 52.5337
14.022827546871707 51.7634
14.045294743423524 50.9894
14.06778000837062 50.8536
14.090265817715476 52.1422
14.112734645763819 54.3759
14.13522154619454 61.6957
14.157691466286913 76.7318
14.180179461423874 92.8892
14.202668005486178 98.3132
14.22513957064374 88.81700000000001
14.247629214846473 71.8193
14.270101881097517 58.1786
14.29259262906496 51.3102
14.315083930490205 48.5781
14.337558255389705 47.0177
14.360050666019726 46.1014
14.382526101071944 45.4218
14.405019624534942 45.0948
14.427513705993134 44.7796
14.449990813291825 44.6459
14.47248601302899 44.3946
14.49496423954951 44.1185
14.517460561197822 44.3021
14.539939910570322 43.9897
14.562437357763558 43.7923
14.58493536931253 43.8527
14.607416409993311 43.8492
14.62991555254159 43.7484
14.652397725157423 43.9159
14.674898002342799 44.0625
14.697398848433282 44.2253
14.719882725991326 44.7058
14.74238471217934 44.6462
14.764869730765593 45.5641
14.787372860692983 46.6131
14.809876564079925 48.7344
14.83236330125751 50.8678
14.854868153850365 52.9479
14.877356041159485 54.2428
14.899862046604186 54.7536
14.922351087688757 54.542
14.944858249632887 55.0408
14.967365991421232 57.0625
14.989856770231246 60.7682
15.012365673994204 67.2971
15.03485761569738 77.734
15.05736768508665 91.0987
15.07987833888692 102.664
15.102372032001655 106.917
15.124883856909658 99.4597
15.14737872204565 86.601
15.169891721717274 73.6146
15.192405310371893 64.4903
15.214901940621196 57.5115
15.237416709527137 52.6534
15.259914520936249 49.5729
15.282430473753607 47.3086
15.304947020131227 45.8072
15.327446610371178 44.8366
15.349964346154254 44.1627
15.372465126703139 43.8905
15.394984055556009 43.4144
15.417486030076159 43.372
15.44000615566487 42.9304
15.462526881230803 42.896
15.485030653812652 42.7742
15.507552581617434 42.4926
15.530057557334603 42.6183
15.55258069104857 42.693999999999996
15.575104429329837 42.7764
15.597611216864632 42.6598
15.620136166564563 42.7116
15.6426441664095 43.0579
15.665170331202765 43.4155
15.687697105158826 44.1927
15.710206930593545 45.7813
15.732734925158933 47.3295
15.755245972089478 48.7963
15.77777519094324 50.2862
15.800287463046663 50.5356
15.822817909869592 50.3783
15.84534897229804 50.3256
15.867863089299354 52.0981
15.890395385222186 54.0216
15.912910736597423 57.617
15.935444269699861 64.2978
15.957978423016485 74.157
15.980495633101265 85.0861
16.003031029129367 94.8084
16.02554948280019 97.9685
16.048086125229432 93.3925
16.070623392487107 85.291
16.09314371869582 78.0289
16.11568223789321 70.9408
16.13820381691126 62.5349
16.160743591742527 54.39
16.183283996022084 48.6794
16.205807461423195 44.6112
16.228349126881973 42.4033
16.25087385432698 41.3144
16.27341678466365 40.2019
16.29594277784926 39.4397
16.31848697676433 38.7827
16.341031811604868 38.0433
16.36355971058487 37.6545
16.3861058195587 37.5048
16.40863499352978 36.9575
16.431182380342005 36.87
16.453730407713202 36.6483
16.476261501364792 36.4136
16.498810812136167 36.067
16.52134319004079 36.1284
16.54389378792203 35.9221
16.566445031001553 35.8963
16.588979342490088 35.7488
16.61153187824822 35.4665
16.634067483263312 35.395
16.656621315414416 35.4687
16.679175797408888 35.1516
16.701713349928728 35.2509
16.72426913389191 35.3883
16.74680798922351 35.2255
16.76936507887444 35.046
16.791905240734874 35.2073
16.814463639794468 35.0535
16.837022695210294 35.1236
16.859564824093756 35.3127
16.882125194503903 35.7068
16.904668639217885 36.6621
16.927230328348003 38.102
16.949792678493612 40.4114
16.972338104193863 42.0232
16.994901778652235 42.5188
17.017448529496576 41.1538
17.040013531998152 39.103
17.06257920018044 37.4066
17.0851279459922 36.6203
17.107694947817667 36.4191
17.130245028099072 36.5503
17.15281336730298 36.9492
17.17536478578733 37.0703
17.19793446610687 37.2477
17.220504818648422 37.3296
17.243058251703697 37.2194
17.265629950971032 37.2591
17.288184731571736 37.731
17.310757781306908 38.4238
17.33333150794385 38.9522
17.355888317140174 40.0078
17.37846339986244 41.9213
17.401021565958885 44.335
17.42359800851343 46.5116
17.44617513265564 47.6439
17.468735341390783 47.2747
17.491261035594565 45.0879
17.51396340099364 42.6075
17.536490463869136 40.7258
17.559018209820174 39.4978
17.58154663977963 38.6744
17.604251766089718 38.3192
17.626781572227713 37.9858
17.64931206518155 37.8795
17.671843245885103 37.9595
17.69455114821572 38.0968
17.717083712612634 38.3858
17.739616967569667 39.1267
17.762150914021706 40.6777
17.78486160749854 42.3851
17.807396945166804 44.1706
17.829932977143503 44.9179
17.85246970436452 44.1127
17.875183204129467 42.7675
17.897721330097664 42.3321
17.920260154126645 42.7747
17.942799677153296 43.4895
17.9655159983646 44.1778
17.988056927677544 44.4606
18.010598558807683 44.6741
18.033140892692916 44.403999999999996
18.05586005052525 44.6788
18.07840379824407 45.1801
18.10094825154059 46.5833
18.12366954819864 48.5089
18.146215420998306 51.6902
18.16876200220057 56.2867
18.191309292745153 63.0931
18.214033452627167 70.7826
18.236582170236648 76.4344
18.259131600016456 77.793
18.281681742907335 73.8425
18.304408781233683 66.6534
18.32696035875955 59.6057
18.349512652227624 54.4261
18.372065662579683 51.5965
18.394795594587553 50.3702
18.41735004715306 50.8037
18.43990521943684 52.5836
18.46246111238171 55.5664
18.485193953325208 58.6439
18.507751296070428 60.5554
18.530309362314178 60.0127
18.552868153000343 57.4996
18.57560391815056 53.8962
18.59816416623245 51.0398
18.620725141597372 48.6605
18.643286845190268 46.2432
18.666025549835414 43.8498
18.688588718427933 41.6504
18.711152618092243 40.5139
18.73389353884365 39.5489
18.75645890921984 39.0489
18.77902501351406 38.7268
18.801591852673102 38.5388
18.824335739722738 37.7867
18.846904057212626 37.8354
18.8694731124168 37.6174
18.89204290628315 37.3947
18.914789774966803 37.3043
18.937361054791623 37.2205
18.959933076131318 36.8691
18.982505839934877 36.8455
19.00525570560582 36.7177
19.027829963004184 36.4938
19.05040496572238 36.6909
19.072980714710468 36.6157
19.095733592739563 36.6112
19.11831084296757 36.3556
19.140888842324735 36.5394
19.16346759176222 36.6159
19.18622349753803 36.8889
19.208803755869358 37.233000000000004
19.231384767143577 37.5296
19.253966532312948 37.639
19.276725481241822 38.2213
19.29930876296784 38.9803
19.3218928014549 40.7889
19.34465404436217 43.2907
19.36723960516257 45.6062
19.389825925592426 46.7963
19.412413006605938 46.3779
19.43517731967805 44.6562
19.457765930683355 43.9875
19.48035530514408 43.9005
19.50294544401556 44.0272
19.525712842708348 44.0309
19.54830451925909 43.247
19.570896963095727 41.2109
19.593490175174704 39.4795
19.616260674962184 38.103
19.638855432416964 36.916
19.661450960992624 36.1041
19.68404726164677 35.5335
19.706820878021247 35.2111
19.729418731756834 35.0849
19.752017360452857 34.577
19.77461676506804 34.4737
19.797393513540218 34.3518
19.819994478951667 34.2504
19.84259622316767 34.4723
19.8651987471481 34.5214
19.887978643247177 34.3526
19.91058273574792 34.4002
19.933187610901943 34.6423
19.955969879466828 34.7029
19.97857632894404 34.5942
20.00118356396599 34.5075
20.023791585494575 34.5017
20.046577028914875 34.7372
20.069186632506966 34.8009
20.091797025500632 35.2234
20.114408208858933 35.6584
20.137196842715273 36.5115
20.159809615886765 37.5389
20.18242318232135 38.5988
20.20503754298326 39.9134
20.227829382875154 41.1075
20.250445341109344 41.4535
20.27306209647285 40.9881
20.29567964993108 39.9412
20.31847471147704 38.5637
20.34109387027612 37.6166
20.363713830075454 36.9199
20.386334591841646 37.1268
20.409132890679302 37.4109
20.431755265564437 38.2377
20.454378445325528 39.0353
20.477002430930366 39.5819
20.499803982716553 39.2443
20.522429589228004 38.137
20.54505600449589 36.7597
20.567683229489194 35.434
20.590488049900088 34.3544
20.61311690359731 33.7347
20.63574656993626 33.2683
20.658553853717297 32.8404
20.681185154618298 32.8328
20.703817271080066 32.6534
20.72645020407368 32.5415
20.749260783967177 32.6628
20.771895359337133 33.3323
20.794530754161617 34.0803
20.817166969412938 34.6275
20.83998086114876 34.8522
20.86261872660049 34.4193
20.885257415405402 33.687
20.90789692853701 32.8173
20.930714147864748 32.0435
20.953355319030678 31.7241
20.97599731745334 31.3882
20.99864014410749 31.1405
21.021460706796564 31.1318
21.044105199328826 31.1528
21.06675052302631 31.1524
21.089396678865015 31.2417
21.112220600704806 30.9627
21.134868430275347 31.0233
21.15751709492456 30.9928
21.180166595629693 30.9481
21.202993892429635 30.883000000000003
21.22564507473034 30.9609
21.24829709602816 31.026999999999997
21.27112693608965 31.1512
21.293780644891275 31.2764
21.316435195634053 31.3288
21.339090589297417 31.7231
21.361923832041875 31.9489
21.384580921090404 32.1377
21.407238856007325 32.3086
21.429897637773326 32.4192
21.45273429906592 32.3193
21.475394784108598 32.0984
21.498056118951983 31.8421
21.520718304578022 31.8406
21.543558400304388 31.8077
21.566222297108816 31.6788
21.58888704765135 31.366
21.61155265291521 31.2247
21.63439619898156 31.2639
21.657063523335786 31.2095
21.67973170537063 31.4851
21.7024007460706 31.6496
21.72524775840385 31.7412
21.747918526116475 32.015
21.770590155457388 31.9234
21.79326264741238 31.8822
21.816113141960237 31.9495
21.838787368860547 31.9837
21.861462461341976 32.1992
21.884315579735777 32.5173
21.90699241312273 32.8414
21.92967011506078 33.165
21.95234868653799 33.8046
21.9752053151131 34.7965
21.997885635446785 35.7337
22.020566828293532 37.2226
22.04324889464272 38.2934
22.066109049404666 38.8796
22.088792872571794 38.8695
22.111477572219204 38.506
22.1341631493376 37.7142
22.157026846313123 37.0881
22.179714188221507 36.979
22.202402410582668 36.8055
22.22509151438863 36.4299
22.24795876962584 35.934
22.270649646204486 35.7877
22.293341407213727 35.4987
22.316034053646906 34.8817
22.338904883215342 34.1247
22.36159931041458 33.4345
22.38429462602756 32.7889
22.40699083104897 32.2339
22.429865251039757 31.949
22.452563244831367 31.799
22.47526213102522 31.581
22.49813925616515 31.3987
22.520839937143307 31.1416
22.543541513520587 31.0986
22.56624398629403 31.1103
22.589124730075895 30.9856
22.611829005656723 31.0344
22.63453418063466 30.941
22.657240256008077 31.0141
22.680124634582935 31.0766
22.70283252079775 31.1197
22.725541310413075 31.3243
22.74825100442868 31.4485
22.771139033969575 31.829
22.79385054687155 31.9751
22.81656296718292 32.1529
22.83927629590484 32.4299
22.862167992606945 32.4106
22.88488314827121 32.1802
22.907599215359284 31.9193
22.93031619487366 31.8481
22.953211574954405 31.7499
22.975930389478226 31.8321
22.998650119445763 32.1562
23.02137076586092 32.3919
23.044269845560063 33.0787
23.06699233506288 33.7733
23.089715744034912 34.5179
23.112617610931565 35.1467
23.135342869061212 35.6955
23.158069049684816 35.6389
23.1807961538087 35.24
23.20370174880544 34.4548
23.226430710184808 33.5786
23.249160598093425 32.6641
23.271891413539002 32.1069
23.294800752937697 31.9211
23.31753343374794 31.7797
23.340267045128353 31.6827
23.36300158808808 31.7541
23.38591468821339 31.9821
23.408651104658304 32.3022
23.431388455719986 32.6255
23.454126742409 32.8334
23.4770436196085 33.0828
23.499783787914662 32.9805
23.522524894889884 32.7106
23.54526694154616 32.3308
23.56818761219047 32.1635
23.59093154860734 31.8668
23.613676427751283 32.1466
23.636422250635754 32.367
23.659346731118656 32.8481
23.68209445191868 33.5745
23.704843119509587 34.3292
23.72759273490623 35.1343
23.750521041644767 35.7615
23.77327256312355 35.646
23.796025035462787 34.9327
23.818956224555475 33.9046
23.841710609113413 32.9498
23.86446594758979 31.988000000000003
23.887222241002014 31.235
23.910157285144578 30.6429
23.932915498962537 30.4109
23.955674670778713 30.0895
23.978434801611975 29.8667
24.001373717286125 29.6382
24.024135776723917 29.5513
24.046898798245582 29.430999999999997
24.06966278287146 29.6498
24.092605586582614 29.5396
24.115371508023642 29.2185
24.1381383956401 29.15
24.16090625045381 28.9479
24.183852958731244 28.6891
24.206622758582608 28.624000000000002
24.229393528706886 28.4487
24.252165270127392 28.4895
24.27511589952438 28.363000000000003
24.297889594216997 28.2349
24.32066426328598 28.1308
24.34343990775613 28.13
24.36639447485003 28.1261
24.38917208083877 28.0634
24.41195066531332 27.9349
24.43490819850244 27.9725
24.457688750692377 27.7521
24.48047028445616 27.791999999999998
24.503252800821233 27.8514
24.526214300784112 27.7603
24.548998793132213 27.717
24.57178427117417 27.5732
24.59457073593893 27.6942
24.617536219319863 27.8829
24.64032466834748 28.0289
24.663114107195035 28.1999
24.685904536893013 28.266
24.708874020360852 28.4006
24.731666442613744 28.3197
24.754459858818787 28.0331
24.777254270007962 27.9185
24.80022777025625 27.6576
24.82302418230472 27.5082
24.845821592443674 27.5067
24.86862000170663 27.3901
24.891597535453727 27.206999999999997
24.914397953892728 27.2555
24.93719937456671 27.1787
24.96000179851076 27.136999999999997
24.98298338249997 27.1681
25.00578782394922 27.3812
25.028593271784167 27.3014
25.05157790644186 27.3037
25.07438537804115 27.2536
25.097193859145293 27.2307
25.120003350792075 27.1877
25.142992065061257 27.3455
25.165803588823465 27.3428
25.18861612625217 27.4088
25.211429678386736 27.435
25.234422489079968 27.4887
25.257238081693636 27.6478
25.280054692141732 27.9603
25.3028723214652 28.0195
25.325869245420463 28.0872
25.348688923599397 28.2858
25.371509623787006 28.1606
25.394331347025812 27.9982
25.41733240110666 27.9995
25.440156181590016 27.9872
25.46298098826268 28.1646
25.48580682216873 28.3339
25.50881202326435 28.4617
25.53163992281684 28.4354
25.55446885274561 28.3848
25.577298814096377 28.0119
25.600308179121807 27.764
25.623140214533745 27.428
25.64597328451537 27.0761
25.66898578564376 26.7305
25.691820936010206 26.7037
25.714657124097695 26.5624
25.737494350954734 26.4638
25.760511045684957 26.4773
25.783350361364224 26.3986
25.806190718969255 26.4534
25.82903211955018 26.6562
25.852053024868923 26.6645
25.874896522722523 26.7229
25.897741066713106 26.5601
25.920586657892454 26.375999999999998
25.943611790812668 26.3634
25.966459487728237 26.1799
25.989308234998564 26.0092
26.01215803367705 26.1014
26.03518741123814 26.0562
26.05803932412957 26.0737
26.080892291600094 25.9937
26.10374631470478 25.9153
26.12677995397268 26.0019
26.14963609978026 26.1615
26.172493304397875 26.0897
26.19535156888223 26.1273
26.218389486949604 26.4087
26.241249882640123 26.5412
26.26411134137826 26.5979
26.28715248187403 26.7559
26.31001607820869 26.644000000000002
26.3328807407756 26.3513
26.35574647063438 26.5193
26.37879191991473 26.281999999999996
26.401659795896734 26.0732
26.424528742360263 26.1182
26.447398760366614 26.1105
26.470448535598294 25.9917
26.49332070826805 25.8879
26.516193955675355 25.9776
26.53906827888316 25.846999999999998
26.562122397260108 25.7646
26.584998883685063 25.7395
26.607876449110325 25.8628
26.63075509460056 25.87
26.65381357334404 25.8516
26.67669439061878 25.7714
26.699576291163382 25.9708
26.722459276044212 26.2123
26.745522132402975 26.3879
26.768407297649354 26.5297
26.791293550442003 26.6819
26.814180891848974 26.8741
26.837248143099337 26.8591
26.860137673466657 26.9338
26.88302829566349 26.8319
26.90592001075963 26.7985
26.92899167420566 26.7552
26.951885586870763 26.7364
26.974780595655517 26.7557
26.99785558178161 26.7119
27.020752794605112 26.6395
27.043651106772522 26.343000000000004
27.06655051935668 26.0895
27.089629948036183 25.8062
27.112531573292053 25.6022
27.135434302194138 25.6273
27.158338135817015 25.4396
27.181422024430987 25.3653
27.204328079372566 25.241
27.22723524226965 25.2396
27.250143514198573 25.2162
27.273231880156334 25.1606
27.296142382065014 25.0462
27.319053996245536 25.0176
27.341966723775965 24.9678
27.365059584515222 24.9657
27.38797455070062 24.9619
27.410890633481237 24.8291
27.433807833936918 24.7431
27.456905206923906 24.875
27.47982465472398 24.8013
27.502745223449743 24.9296
27.525666914182825 25.0029
27.548768816912457 24.9014
27.571692763693633 24.872
27.59461783573812 24.7947
27.617723149491244 24.6882
27.640650484125285 24.7379
27.66357894728264 24.868000000000002
27.686508540048052 24.8736
27.709618414237887 24.8918
27.732550278321757 24.7865
27.755483275279115 24.8494
27.778417406196485 24.8273
27.801531858397514 24.8331
27.824468269376716 24.6713
27.847405817586786 24.6032
27.870344504116094 24.613000000000003
27.893463551932008 24.5193
27.916404527281053 24.4724
27.93934664422563 24.4888
27.962289903855886 24.5125
27.98541356491974 24.6421
28.00835912214229 24.7384
28.03130582533231 24.7568
28.054253675581805 24.8962
28.077381967556104 24.7337
28.100332124185126 24.7415
28.123283431160893 24.6839
28.146235889577238 24.7428
28.169368830154156 24.7627
28.192323603752033 24.8957
28.215279532083304 24.9335
28.238415973016764 25.0778
28.261374223145094 25.0902
28.284333631303806 24.9593
28.307294198589954 24.8567
28.330435319167677 24.784000000000002
28.353398217078915 24.6712
28.376362277420153 24.5674
28.39932750129032 24.5405
28.422473319286713 24.5457
28.44544088262495 24.455
28.468409612800283 24.1852
28.491379510913497 24.1082
28.51453004413313 23.9462
28.53750229057244 23.8071
28.56047570826344 23.7586
28.583450298308804 23.7962
28.606605564586562 23.575
28.629582511831156 23.603
28.65256063474956 23.4835
28.675539934446338 23.4759
28.698699951647605 23.3261
28.72168161743193 23.1313
28.74466446331978 23.1277
28.767648490417624 23.0616
28.790813276438353 23.0276
28.813799678527303 22.9829
28.836787265157085 22.9783
28.859955641890075 22.9228
28.882945610203045 22.8936
28.905936766392035 22.8456
28.928929111566863 22.8786
28.952102288520145 22.8992
28.975097024308607 22.7768
28.998092952423807 22.7641
29.021090073977508 22.8327
29.04426806913204 22.801
29.067267590245258 22.7377
29.090268308143695 22.878
29.11327022394099 22.8148
29.13645305530891 22.7424
29.159457379627167 22.6691
29.18246290519685 22.5794
29.20546963313352 22.5272
29.22865731875826 22.4216
29.25166646419296 22.3765
29.27467681535305 22.2737
29.29768837335608 22.124000000000002
29.320880931312562 22.2248
29.34389491580634 22.2596
29.366910110507334 22.1021
29.38992651653503 22.1356
29.41312396492981 22.1802
29.436142806456754 22.0788
29.45916286268059 22.0121
29.48236399319994 22.0454
29.50538649169417 22.0122
29.528410208259935 22.0044
29.55143514402014 22.011
29.574641196749695 21.9717
29.597668583816574 21.9652
29.6206971934585 21.9665
29.64372702680042 22.0437
29.666938019934474 21.9099
29.689970313635285 21.8029
29.713003834422636 21.6893
29.73603858342347 21.6783
29.759254535188578 21.5065
29.78229175361658 21.4526
29.80533020365064 21.5645
29.82836988641968 21.5716
29.85159081507472 21.3959
29.874632976355343 21.3805
29.89767637376955 21.3813
29.920721008448314 21.3062
29.9439469322847 21.3378
29.96699405457564 21.3441
29.9900424175358 21.3235
30.013092022298157 21.3028
30.03632295963995 21.2553
30.059375061131373 21.3836
30.08242840783577 21.3534
30.105483000888153 21.2679
30.128718970092244 21.1968
30.151776069006917 21.2132
30.17483441768648 21.1613
30.198074175317235 21.1204
30.221135036724256 21.076999999999998
30.24419715131772 21.02
30.267260520236203 20.9346
30.290505341942243 21.046
30.313571232750228 20.988000000000003
30.336638381310948 21.0212
30.35970678876503 20.9963
30.38295669299435 20.9868
30.40602763151657 21.0068
30.429099832366074 21.0735
30.452173296685572 21.008000000000003
30.47542830191959 20.9772
30.498504306502497 20.9534
30.521581577995562 21.0183
30.544660117543582 20.86
30.56792024229725 20.8936
30.59100133132069 20.7535
30.614083691845494 20.7043
30.637167325018545 20.7613
30.660432587840603 20.8157
30.683518779717886 20.8066
30.70660624769615 20.7665
30.729694992924372 20.7171
30.75296541239743 20.7695
30.77605672557558 20.6583
30.799149319462742 20.7374
30.8224236211637 20.8303
30.845518789950724 20.7719
30.868615242910597 20.7817
30.891712981195973 20.824
30.91499247215866 20.8481
30.938092794619365 20.9227
30.96119440587579 20.8318
30.984297307082752 20.749000000000002
31.00758200598383 20.7644
31.030687500658694 20.8217
31.053794288760695 20.7144
31.076902371446767 20.6348
31.100192296997445 20.6571
31.12330298246119 20.6606
31.14641496599209 20.4704
31.169528248749216 20.5644
31.19282341969534 20.3564
31.215939314557186 20.3053
31.239056512134788 20.3431
31.262175013589378 20.2716
31.28547544871168 20.1992
31.30859657161541 20.0992
31.331719001892175 20.1351
31.35484274070538 20.1939
31.378148458819545 20.2173
31.401274828443725 20.1105
31.424402510106933 20.132
31.447712205419993 20.1789
31.470842524931633 20.0183
31.493974159989783 20.0296
31.51710711176168 20.0648
31.54042212308802 20.0901
31.563557722100917 20.141
31.586694641341655 20.0218
31.609832881979628 20.0096
31.63315322823208 20.0225
31.656294125521327 19.9873
31.679436347728515 20.0392
31.70257989602529 20.0324
31.725905596152327 19.9955
31.74905181052835 19.9393
31.772199354521323 19.9576
31.79534822930507 19.9617
31.818679302290967 19.7906
31.84183085259981 19.809
31.864983737233473 19.7628
31.88813795736804 19.7692
31.911474422233013 19.6152
31.934631327356435 19.6044
31.9577895715215 19.5806
31.980949155906522 19.6058
32.004291031706956 19.5698
32.027453310562606 19.4973
32.05061693318573 19.545
32.07396288236386 19.5392
32.09712920658542 19.6654
32.12029687812702 19.5343
32.14346589817093 19.5562
32.166817291729984 19.6251
32.18998902288583 19.5505
32.21316210610336 19.5331
32.23633654256711 19.4864
32.259693399663725 19.4749
32.282870556771144 19.3631
32.30604907069099 19.3295
32.329228942610065 19.2665
32.35259128243769 19.1981
32.375773884550505 19.2188
32.398957848235646 19.189
32.422143174682176 19.1369
32.445511016471215 19.0317
32.468699082679954 19.0218
32.49188851523011 19.0296
32.51507931531304 18.9729
32.538452678331 18.9546
32.56164622776311 18.8187
32.58484114831493 18.7825
32.60803744118015 18.8201
32.631416344731896 18.8598
32.654615396551876 18.7755
32.67781582427913 18.8037
32.701198898634416 18.6677
32.72440209253756 18.628
32.747606665947124 18.6699
32.77081262006088 18.5707
32.79420126883317 18.6202
32.81740999876112 18.6052
32.840620112999424 18.4792
32.86383161274818 18.4732
32.88722585534586 18.500999999999998
32.91044014056596 18.5925
32.933655814909734 18.4917
32.95687287957963 18.4501
32.98027273544904 18.4619
33.00349259526636 18.3692
33.026713849030116 18.4008
33.04993649794511 18.3894
33.073341986570746 18.3977
33.09656744032826 18.3118
33.11979429286444 18.2278
33.14302254538647 18.2387
33.166433686291185 18.1559
33.18966475336992 18.1381
33.212897224069096 18.148
33.23613109959831 18.1379
33.259547912343415 18.1301
33.2827846121627 18.1274
33.306022720453775 18.085
33.32926223842861 18.0622
33.352684742614166 18.085
33.37592709463173 18.1221
33.399170859982064 18.1033
33.422597648419426 18.0492
33.44584425514446 17.9928
33.46909227885668 17.9905
33.4923417207723 17.9777
33.51577423505344 17.9303
33.539026528130385 17.9363
33.56228024307245 17.8793
33.585535381098246 17.849
33.60897364093058 17.8043
33.63223163992385 17.7403
33.6554910656699 17.7269
33.678751919389796 17.6384
33.702195944520106 17.5765
33.72545966903325 17.5868
33.74872482519663 17.5273
33.771991414233746 17.5639
33.79544122444841 17.5728
33.81871069412428 17.4988
33.84198160035767 17.3902
33.86525394437455 17.4523
33.88870955949969 17.4365
33.911984794020626 17.4153
33.93526147001624 17.3588
33.958539588715006 17.3367
33.98200102861669 17.3033
34.0052820477047 17.2622
34.02856451319451 17.2236
34.05203033759056 17.3139
34.07531571090147 17.2502
34.09860253431845 17.1836
34.121890809074316 17.1875
34.145362493118924 17.1855
34.16865368561615 17.1575
34.191946333164054 17.1098
34.21524043699793 17.0738
34.23871800066799 17.0034
34.26201503218366 16.9722
34.28531352370466 16.9841
34.30861347646881 16.9144
34.33209693978188 16.9145
34.3553998301885 16.8878
34.378704185565205 16.852999999999998
34.402010007152356 16.7748
34.42549939016683 16.8123
34.44880815937748 16.8095
34.472118398533134 16.7069
34.49543010887669 16.7741
34.51892543169198 16.769000000000002
34.54224009966052 16.7844
34.56555624255917 16.6642
34.58887386163339 16.5584
34.61237514439016 16.6109
34.6356957311114 16.5957
34.65901779775809 16.5625
34.68252356662995 16.5411
34.705848608458616 16.5999
34.72917513396849 16.4784
34.75250314440949 16.4708
34.77601490857862 16.4585
34.799345904259795 16.3538
34.82267838863559 16.3211
34.846012362958525 16.3389
34.869530142679984 16.32
34.89286711232212 16.3493
34.91620557568269 16.271
34.93954553401677 16.2711
34.9630693495876 16.1866
34.986412313340814 16.2398
35.00975677584668 16.257
35.033102738362956 16.1677
35.05663261012228 16.1109
35.0799815881786 16.1339
35.10333207003229 16.0941
35.12668405694369 16.1279
35.150220005273056 16.1217
35.17357501786656 16.075
35.19693153931268 16.0825
35.220289570874385 15.9904
35.24383161619786 15.9394
35.267192683604904 16.0179
35.290555264930376 15.9828
35.314101899412165 15.8793
35.33746752422433 15.8275
35.36083466676374 15.9081
35.38420332829803 15.8572
35.407756095629054 15.8635
35.43112781085063 15.7873
35.45450104888391 15.794
35.477875810999194 15.7689
35.50143473172161 15.7392
35.52481255774625 15.7756
35.54819191167777 15.7776
35.57157279478914 15.7628
35.595137889488406 15.7362
35.61852184675279 15.7442
35.641907337029984 15.7338
35.665294361595684 15.7263
35.68886565090076 15.6877
35.7122557598848 15.6621
35.73564740699838 15.6832
35.759040593519934 15.6168
35.78261809810353 15.6651
35.80601437933051 15.572000000000001
35.829412203814705 15.4959
35.85281157283719 15.3878
35.876395313415884 15.5201
35.8997977874528 15.4628
35.92320180988546 15.4566
35.946790244133936 15.3696
35.97019737933222 15.4104
35.993606066789866 15.3903
36.01701630779276 15.338
36.04061101440684 15.2668
36.06402437852291 15.2477
36.08743930005611 15.2196
36.1108557802951 15.1878
36.13445678011326 15.181
36.15787639383515 15.2095
36.18129757014299 15.1143
36.20472031032821 15.1125
36.22832762423364 15.0755
36.25175350829375 15.0579
36.275180960119776 14.9959
36.298609981005924 15.0841
36.32222362992669 15.0815
36.34565580510207 15.0833
36.36908955323448 14.9935
36.39252487562093 14.9543
36.416144880530226 14.950999999999999
36.43958336764275 14.9145
36.463023432914625 14.9189
36.486465077645676 14.8521
36.51009145956204 14.9433
36.53353627947859 14.8863
36.55698268276811 14.872
36.58043067073321 14.8429
36.60406345072071 14.7727
36.62751462435344 14.8317
36.65096738658405 14.7661
36.67460498210655 14.7463
36.69806093788647 14.7549
36.72151848619297 14.7592
36.744977628333636 14.7001
36.76862165890998 14.5792
36.79208400512205 14.6006
36.81554794910557 14.6368
36.83901349217101 14.5274
36.862663978991606 14.4644
36.88613273667352 14.5175
36.90960309738324 14.5345
36.933075062434064 14.4381
36.95673202673572 14.5037
36.98020721697122 14.5158
37.003684015502365 14.4016
37.027162423645365 14.3964
37.050825886711465 14.4235
37.07430753063053 14.3492
37.09779078812467 14.3482
37.121275660513014 14.3661
37.144945643673694 14.3241
37.16843376245278 14.232999999999999
37.19192350009803 14.2616
37.215414857931435 14.2142
37.239091382563885 14.1624
37.262585997426164 14.1931
37.28608223645736 14.1595
37.309763684451696 14.1269
37.33326318851098 14.1041
37.356764320726555 14.1008
37.380267082425526 14.142999999999999
37.40395510942588 14.1165
37.42746114683234 14.1084
37.45096881771841 14.0635
37.474478123414166 14.0329
37.49817275092816 13.9428
37.52168534303452 13.9808
37.54519957395567 13.894
37.568715445024665 13.9536
37.592416694607714 13.8344
37.61593586281424 13.9139
37.63945667518264 13.8974
37.66297913304891 13.8378
37.68668702630454 13.8122
37.710212792059274 13.7761
37.733740207334854 13.7668
37.757269273470364 13.7158
37.780983832050374 13.6922
37.80451621684926 13.6869
37.82805025654007 13.6781
37.851585952464795 13.6569
37.8753071980695 13.6016
37.89884622345676 13.589
37.92238690911902 13.5637
37.94611318753442 13.511
37.969657210779765 13.5491
37.99320289834801 13.5321
38.016750251586465 13.4731
38.04048325513017 13.4706
38.06403395679343 13.4486
38.087586328183946 13.3968
38.11114037065203 13.4391
38.13488012115898 13.3936
38.1584375229181 13.3683
38.181996599821 13.3565
38.205557353221124 13.3617
38.229303872575656 13.3167
38.2528679961576 13.2882
38.27643380031219 13.2917
38.30000128639589 13.2045
38.32375459653193 13.3142
38.34732546371299 13.2645
38.37089801690786 13.2358
38.39447225747609 13.1581
38.418232380377425 13.1045
38.441810012983396 13.1468
38.46538933705673 13.0576
38.488970353960084 13.1228
38.51273731166058 13.0487
38.536321731567014 13.0194
38.55990784840681 13.0448
38.58367995004091 12.9961
38.60726947812959 12.9431
38.63086070726198 12.9437
38.654453638806274 12.9135
38.678232613930824 12.9345
38.70182896773327 12.8469
38.72542702806741 12.849
38.7490267963045 12.9115
38.77281266709232 12.8947
38.79641586862214 12.8723
38.8200207821842 12.8108
38.843627409152944 12.8116
38.86742019782782 12.7966
38.891030269149255 12.7053
38.914642058016156 12.7274
38.938255565806124 12.728
38.96205529464307 12.7075
38.98567225787121 12.6793
39.00929094417078 12.695
39.03291135492255 12.6943
39.05671804624804 12.6131
39.080341923549106 12.6147
39.103967529460334 12.6043
39.127594865365744 12.5204
39.15140854155791 12.5321
39.17503935514948 12.502
39.19867190290282 12.5336
39.22249083587951 12.5357
39.24612686969409 12.5319
39.269764641845306 12.5009
39.293404153722804 12.3965
39.317230110864074 12.3491
39.34087311998506 12.329
39.36451787301696 12.3385
39.388164371352595 12.319
39.41199737518003 12.342
39.43564738196752 12.3093
39.45929913825317 12.2667
39.48295264543308 12.2821
39.506792718520884 12.2118
39.530449745387216 12.2439
39.55410852735203 12.2425
39.57776906581474 12.2172
39.60161623079 12.1561
39.625280300200025 12.1663
39.64894613032202 12.1325
39.67261372255866 12.147
39.6964680021016 12.1537
39.72013913657293 12.1209
39.74381203738292 12.1124
39.76748670593756 12.059000000000001
39.79134812278169 12.0599
39.81502634488497 12.0439
39.83870633896685 11.9972
39.862388106436654 11.9763
39.88625668336918 11.9224
39.90994201572829 11.9791
39.933629125719285 11.9693
39.957503091207826 11.8744
39.9811937746168 11.9655
40.00488623990914 11.8919
40.02858048850006 11.8468
40.05246165409549 11.7925
40.076159487492085 11.8375
40.099859108448875 11.834000000000001
40.123560518384345 11.7719
40.1474489070226 11.7731
40.171153913178564 11.7099
40.194860712584955 11.7941
40.2185693066637 11.7997
40.242464941335314 11.7011
40.26617714307655 11.6745
40.289891143772046 11.7058
40.3136069448471 11.6812
40.33750984859743 11.638
40.3612292688043 11.5934
40.3849504936829 11.6078
40.40867352466194 11.5908
40.43258372059144 11.556
40.45631038219906 11.5545
40.48003885420956 11.5253
40.503769138055105 11.5305
40.52768664931955 11.5289
40.55142057531802 11.4853
40.57515631746428 11.4952
40.599079334038514 11.4321
40.62281872700477 11.4348
40.64655994043941 11.4091
40.67030297578061 11.3626
40.69423334835778 11.3611
40.71798004609188 11.3476
40.74172857006355 11.3374
40.76547892171441 11.2934
40.7894166736039 11.282
40.813170699248566 11.3099
40.83692655691388 11.2606
40.86068424804498 11.2769
40.884629402612525 11.2779
40.908390779366385 11.22
40.932153993938 11.1628
40.95591904777605 11.1707
40.979871628443995 11.1949
41.003640379561936 11.1652
41.02741097430883 11.1435
41.05118341413683 11.1117
41.075143444384416 11.132
41.098919593177826 11.1099
41.1226975914255 11.1221
41.14647744058318 11.0884
41.170444943946755 11.0246
41.19422851378379 11.0334
41.218013938914645 10.9904
41.24198706625173 10.9726
41.26577622087193 10.9763
41.289567235177785 10.9608
41.31336011063129 10.9539
41.337340752422875 10.8604
41.361137369129835 10.8783
41.38493585138705 10.8575
41.40873620066004 10.8657
41.43272438060107 10.8465
41.45652848292052 10.7767
41.48033445666918 10.7886
41.50414230331616 10.815999999999999
41.528138045159764 10.8088
41.551949656675205 10.6898
41.575763145513235 10.7198
41.59957851314666 10.7363
41.62358184070442 10.6929
41.64740098505737 10.6578
41.6712220126409 10.674000000000001
41.69504492493139 10.6071
41.71905586207357 10.605
41.74288256296395 10.5534
41.766711153007456 10.6085
41.79054163368412 10.5708
41.814560204340054 10.5392
41.838394485526365 10.5768
41.86223066180303 10.5333
41.88625497706819 10.4736
41.910094962812 10.5211
41.93393684811168 10.4643
41.95778063445365 10.3933
41.981812625263366 10.4264
42.00566023303407 10.4493
42.029509746323676 10.4086
42.05336116662236 10.409
42.077400857069705 10.4064
42.10125611078846 10.3732
42.12511327600405 10.3689
42.14897235421036 10.3501
42.173019768448455 10.3507
42.19688269209613 10.277000000000001
42.22074753323349 10.294
42.24461429335818 10.2455
42.268669455600495 10.2292
42.292540073217886 10.2212
42.31641261433284 10.2246
42.34028708044675 10.1856
42.36435001496739 10.1844
42.38822835065557 10.1776
42.41210861586426 10.1344
42.4359908120986 10.1014
42.46006154323262 10.0997
42.48394762115317 10.099
42.507835634632315 10.0949
42.531912233047436 10.0587
42.55580413732265 10.06
42.579697981698 10.0234
42.60359376768525 10.0388
42.62767820545945 9.9906
42.65157789440821 9.98657
42.67547952952185 9.97594
42.699383112316 9.93516
42.72347541395347 9.95738
42.74738291190531 9.91439
42.771292362102166 9.94244
42.795203766063516 9.8824
42.819303956130405 9.89865
42.843219287476536 9.8381
42.86713657716324 9.83567
42.89105582671383 9.80889
42.91516392983864 9.78598
42.939087119032166 9.74157
42.963012272677304 9.73598
42.98693939230129 9.736
43.01105543317513 9.74205
43.034986504731386 9.75366
43.05891954686589 9.67579
43.08285456110972 9.709719999999999
43.10697856448665 9.69334
43.130917542983475 9.606110000000001
43.15485849820081 9.6233
43.17880143167367 9.63626
43.20293342237094 9.62556
43.226880332449 9.595239999999999
43.25082922540554 9.56931
43.27496722682525 9.56433
43.29892010567796 9.499039999999999
43.32287497204102 9.50652
43.34683182745632 9.47837
43.370977859791836 9.50254
43.39493871351105 9.48023
43.41890156092628 9.47524
43.44286640358341 9.474260000000001
43.46702049182749 9.426960000000001
43.49098934522816 9.397730000000001
43.51496019852649 9.34245
43.5389330532723 9.32644
43.56309522248204 9.34256
43.58707210044314 9.369660000000001
43.61105098451946 9.32666
43.63503187626491 9.329180000000001
43.659202151562134 9.288110000000001
43.68318707902681 9.33206
43.70717401884041 9.29712
43.731162972560874 9.2597
43.75534137913236 9.21702
43.779334381108384 9.223930000000001
43.803329401683186 9.20147
43.82732644241872 9.21566
43.8515130055166 9.18935
43.87551410707659 9.125919999999999
43.89951723350145 9.14661
43.923709934595614 9.13154
43.94771713129917 9.09662
43.97172635758096 9.118139999999999
43.99573761501002 9.12735
44.0199385169922 9.08981
44.04395385732619 9.03535
44.067971233533086 9.04472
44.09199064718605 9.01417
44.11619977548961 9.011560000000001
44.14022328470671 9.00302
44.16424883610785 8.9651
44.18827643127035 8.99325
44.21249381139513 8.96513
44.236525514814076 8.911810000000001
44.26055926674478 8.9749
44.28459506876863 8.937489999999999
44.3088207262813 8.89981
44.33286064928722 8.87307
44.35690262714919 8.840119999999999
44.38094666145278 8.82146
44.4051806219871 8.822189999999999
44.42922879003185 8.81778
44.45327901929361 8.81272
44.477331311362136 8.81594
44.501573600619416 8.79996
44.525630039221795 8.75345
44.54968854541895 8.73836
44.573937102200176 8.72814
44.5979997645541 8.70495
44.622064499300315 8.6957
44.64613130803592 8.67036
44.67038823869318 8.670069999999999
44.69445921643748 8.67277
44.718532272981385 8.62094
44.742607409926194 8.64145
44.76687274034801 8.65152
44.79095205918753 8.58985
44.81503346325094 8.57542
44.839116954143876 8.54997
44.86339071028742 8.56821
44.88747839599524 8.54302
44.91156817336837 8.506730000000001
44.93566004401666 8.48708
44.959942251908146 8.5019
44.984038330325966 8.46597
45.00813650686762 8.4643
45.03223678314731 8.48485
45.05652746888232 8.42126
45.08063196592069 8.4347
45.104738567558705 8.38885
45.128847275414856 8.39402
45.15314646515866 8.32467
45.17725940679741 8.379
45.20137445952892 8.35518
45.22568004865265 8.35228
45.24979934496396 8.33334
45.27392075725247 8.32573
45.29804428714431 8.298160000000001
45.322358426247604 8.29292
45.346486212804315 8.26282
45.370616121861914 8.297419999999999
45.39474815505086 8.22455
45.41907087049246 8.24669
45.4432071734666 8.19541
45.46734560548283 8.2079
45.49148616817604 8.18714
45.51581748638564 8.171389999999999
45.5399623320197 8.13378
45.56410931325473 8.17787
45.58825843173002 8.164719999999999
45.61259837920865 8.14148
45.636751793816 8.09233
45.66090735060093 8.0813
45.68506505120716 8.07221
45.7094136545275 8.07504
45.73357566449271 8.05541
45.75773982322992 8.056339999999999
45.78190613238733 8.05666
45.806263418194064 7.986739999999999
45.83043404997326 7.97197
45.85460683713677 7.99768
45.87897065658495 7.98035
45.90314777634752 7.957999999999999
45.92732705646868 7.94252
45.9515084986045 7.9046
45.97588104735473 7.91978
46.00006683541565 7.907260000000001
46.02425479047904 7.89543
46.04844491420549 7.885439999999999
46.0728262191024 7.8818399999999995
46.09702070211635 7.8596
46.12121735879483 7.821039999999999
46.14541619080294 7.807230000000001
46.169806278764455 7.767
46.194009483459034 7.807060000000001
46.21821486849841 7.76035
46.24242243555223 7.72279
46.266821333570014 7.76932
46.29103328674601 7.71698
46.31524742696538 7.7125
46.33946375590237 7.717510000000001
46.36387149104216 7.703469999999999
46.38809221957392 7.66344
46.41231514186606 7.67329
46.436540259597464 7.64911
46.460956858999374 7.61906
46.48518638983522 7.6371899999999995
46.509418121166966 7.611269999999999
46.533652054678114 7.578689999999999
46.55807754555709 7.56244
46.58231590571962 7.58643
46.60655647313217 7.56147
46.630988654873654 7.544639999999999
46.655233659129024 7.522
46.67948087571551 7.5084
46.70373030632484 7.48452
46.72817142736393 7.47342
46.752425308428684 7.46485
46.77668140861147 7.456239999999999
46.80093972960865 7.452439999999999
46.82538981736788 7.40896
46.849652602470904 7.36257
46.87391761349769 7.3528899999999995
46.8981848521493 7.40238
46.9226439341274 7.371689999999999
46.946915650573224 7.33515
46.97118959976749 7.356730000000001
46.99546578341598 7.34047
47.019933887188216 7.31002
47.04421456235744 7.2991600000000005
47.06849747711879 7.270580000000001
47.09278263318286 7.2554
47.11725978640143 7.244860000000001
47.14154944775105 7.24017
47.165841355555656 7.24764
47.1901355115306 7.242310000000001
47.214621741924994 7.1974100000000005
47.23892041698887 7.17945
47.26322134538975 7.2163699999999995
47.28771440635075 7.202710000000001
47.31201986422527 7.17356
47.33632758061436 7.1352199999999995
47.360637557241866 7.13524
47.38513974410611 7.12545
47.40945426407847 7.13225
47.43377104948137 7.086180000000001
47.45809010204344 7.1049
47.48260144275502 7.09607
47.506925052572285 7.023389999999999
47.53125093475548 7.058960000000001
47.55557909103813 7.05501
47.58009961361992 7.0092300000000005
47.60443234110732 7.00488
47.62876734791564 7.00977
47.65310463578333 6.982939999999999
47.6776343683373 6.96255
47.7019762413987 6.917860000000001
47.72632040075572 6.923830000000001
47.75066684815169 6.91609
47.77520581885936 6.8983
47.799556865477655 6.884239999999999
47.823910205386 6.905639999999999
47.84826584033272 6.8841
47.87281407745551 6.901789999999999
47.89717432569297 6.8672699999999995
47.92153687423484 6.870939999999999
47.94609208429692 6.8212399999999995
47.97045925671401 6.8536600000000005
47.99482873471275 6.81474
48.01920052005013 6.7861199999999995
48.04376504619224 6.80111
48.068141469543484 6.80205
48.09252020552573 6.78148
48.11690125590099 6.7530399999999995
48.1414751266064 6.763389999999999
48.16586082917454 6.712160000000001
48.19024885144316 6.7076199999999995
48.2146391951793 6.74673
48.239222439012764 6.74521
48.26361744916137 6.70432
48.28801478610016 6.70304
48.31241445160131 6.69442
48.337007097209366 6.66425
48.36141144338331 6.6502
48.38581812345755 6.6496699999999995
48.41022713920929 6.6065
48.434829215320704 6.602760000000001
48.45924292604658 6.61707
48.48365897780325 6.62771
48.50807737237308 6.61799
48.532688907799276 6.58018
48.55711201168574 6.57224
48.581537463754074 6.55735
48.60615611725119 6.56115
48.63058628942721 6.52074
48.65501881516546 6.5037
48.6794536962573 6.49226
48.70408185970339 6.48388
48.72852147531801 6.4709
48.75296345168211 6.4473199999999995
48.77740779059232 6.43967
48.80204549302823 6.48189
48.82649458091802 6.42489
48.85094603676547 6.43126
48.87539986237231 6.37315
48.90004713292306 6.36218
48.92450572200832 6.369190000000001
48.94896668628025 6.37729
48.97343002754588 6.3853
48.99808689542115 6.3821900000000005
49.02255501470614 6.3561
49.04702551642794 6.31079
49.0714984023988 6.32481
49.096164896893235 6.28739
49.120642575466796 6.29563
49.145122643748394 6.30647
49.16960510355558 6.28148
49.19428125404938 6.26363
49.2187685210852 6.27391
49.243258185121555 6.2644
49.26794160167084 6.2085300000000005
49.2924360839405 6.17961
49.31693296869764 6.20902
49.34143225776915 6.19191
49.36612538195438 6.180540000000001
49.39062950396021 6.15722
49.41513603578346 6.16218
49.4396449792564 6.1468300000000005
49.46434784069503 6.12672
49.488861631846454 6.10197
49.513377840166804 6.0776
49.537896467493745 6.06773
49.56260909589029 6.077380000000001
49.587132585683285 6.060630000000001
49.611658500018365 6.0823
49.636186840738596 6.04315
49.66090926588511 6.04096
49.685442483902584 6.0227699999999995
49.70997813385706 5.98466
49.734516217597076 5.9821
49.75924846937352 5.99143
49.7837914452858 5.98274
49.80833686055187 5.9439
49.83288471702571 5.94223
49.85762682540054 5.92915
49.882179588965734 5.95109
49.9067347993235 5.92192
49.93129245833333 5.92019
49.95604445336378 5.90797
49.98060703442832 5.88692
50.005172069746266 5.88208
50.02993150438364 5.87864
50.05450147301533 5.8557
50.07907390151433 5.84397
50.10364879174981 5.81341
50.12841816587289 5.80355
50.1529980044635 5.82144
50.17758031042124 5.8139400000000006
50.20216508562089 5.81623
50.22694442953363 5.79692
50.25153416817468 5.77302
50.27612638170508 5.78824
50.300721072005196 5.76795
50.325510416102105 5.75031
50.350110084975064 5.72435
50.37471223628208 5.73453
50.39931687190919 5.72687
50.424116246675766 5.7039599999999995
50.44872587605249 5.732069999999999
50.47333799543065 5.6973400000000005
50.49795260670191 5.69183
50.52276204271512 5.65474
50.54738166295838 5.63865
50.57200378079314 5.62505
50.596628398116835 5.62139
50.62144792604559 5.64317
50.646077567609396 5.61083
50.670709714377715 5.60975
50.69553683636198 5.60497
50.72017401885922 5.5875699999999995
50.7448137122895 5.57923
50.76945591856022 5.58956
50.79429318636823 5.563359999999999
50.818940443716784 5.55679
50.84359021965163 5.57745
50.868242516085964 5.53492
50.893089960641895 5.51209
50.917747323549435 5.50486
50.94240721271973 5.52482
50.96706963007175 5.4689
50.99192728239342 5.46347
51.01659478166073 5.45622
51.04126481489051 5.43951
51.06593738400761 5.46163
51.090805275207074 5.43648
51.11548294172845 5.4042
51.14016314993547 5.422630000000001
51.164845901758845 5.4228
51.18972406304274 5.41065
51.21441192780656 5.39348
51.23910234200271 5.34837
51.2637953075678 5.34976
51.288683770237945 5.35454
51.31338186432707 5.3278099999999995
51.33808251561888 5.34237
51.362978729967345 5.30399
51.387684521509755 5.32785
51.41239287610203 5.31606
51.437103795691165 5.28333
51.46201036644977 5.25282
51.486726441956634 5.2262
51.51144508832545 5.24191
51.536166307509156 5.24589
51.56108326624387 5.2335400000000005
51.58580965706056 5.22055
51.61053862657523 5.234780000000001
51.635270176746864 5.21435
51.66019755512065 5.18545
51.68493429268881 5.17739
51.70967361681515 5.15935
51.73441552946465 5.1744900000000005
51.759353359237934 5.1813400000000005
51.7841004750961 5.16173
51.80885018539685 5.14705
51.833602492111254 5.13736
51.8585508051424 5.09978
51.883308330926425 5.12384
51.90806845906181 5.11713
51.932831191525715 5.10016
51.95779001977161 5.077459999999999
51.98255798721516 5.07855
52.00732856494335 5.03746
52.03229530577543 5.02226
52.057071130455945 5.0205400000000004
52.081849571391054 5.03334
52.106630630568695 5.02041
52.13160794279417 4.97856
52.15639426492067 5.01649
52.18118321127822 4.9736400000000005
52.205974783860896 4.96325
52.23096269971011 4.951969999999999
52.255759551287994 4.95097
52.280559035098186 4.93187
52.30536115314103 4.91226
52.33035970494467 4.94265
52.35516711807904 4.910069999999999
52.37997717147198 4.88417
52.40478986713005 4.9124099999999995
52.42979908731974 4.9054
52.454617094216 4.8914800000000005
52.47943774942214 4.85765
52.50426105495102 4.85135
52.529280976059844 4.83129
52.554109609024096 4.82514
52.57894089837482 4.82039
52.60377484613117 4.80654
52.62880550079408 4.8262599999999996
52.65364479223379 4.7876199999999995
52.67848674816189 4.785819999999999
52.70352547971946 4.76016
52.72837279155837 4.7602199999999995
52.753222773982785 4.75013
52.778075429022984 4.7685
52.80312495150885 4.77925
52.827982978797436 4.72919
52.85284368481815 4.7107
52.87770707160767 4.710459999999999
52.90276741793998 4.73996
52.92763619336701 4.6734800000000005
52.952507655698504 4.72023
52.977381806977576 4.6714199999999995
53.00245301017842 4.67857
53.02733256653592 4.67005
53.052214817996074 4.69006
53.077099766608484 4.65275
53.102181859804446 4.632680000000001
53.127072229988265 4.64593
53.15196530349892 4.6149
53.17686108239249 4.63325
53.20195409881522 4.59436
53.22685531582556 4.591080000000001
53.25175924441303 4.54964
53.27666588664027 4.56131
53.30176985962693 4.54855
53.3266819565689 4.560309999999999
53.35159677336455 4.55328
53.376514312083096 4.53881
53.40162927507703 4.505730000000001
53.42655228516116 4.51354
53.45147802340193 4.5050300000000005
53.47660125628886 4.46816
53.50153247842639 4.46341
53.52646643496923 4.471830000000001
53.55140312799818 4.43605
53.576537409691696 4.45718
53.60147960336152 4.4509
53.626424539786164 4.44433
53.65137222105307 4.4110000000000005
53.67651758529126 4.43519
53.70147078399681 4.377190000000001
53.72642673383343 4.40434
53.75138543689533 4.38985
53.776541917524526 4.38628
53.801506154876755 4.35767
53.826473151763246 4.35991
53.851442910284916 4.3373800000000005
53.87661054126026 4.31045
53.9015858509782 4.31224
53.92656392866066 4.29523
53.95154477641532 4.2577300000000005
53.976723591801296 4.30689
54.00171000771266 4.27541
54.02669920004598 4.26438
54.051691170915745 4.21778
54.076881204886796 4.24721
54.101878760928514 4.26041
54.12687910187696 4.23404
54.152077577768296 4.18761
54.1770835166946 4.18534
54.20209224691339 4.184880000000001
54.22710377055121 4.170730000000001
54.25231352511594 4.166919999999999
54.27733066384342 4.13227
54.30235060239643 4.13812
54.32737334290836 4.16143
54.35259441062629 4.09293
54.377622783395324 4.1109
54.40265396455061 4.10889
54.42768795623251 4.08052
54.45292037169559 4.1017
54.477960012857906 4.05021
54.50300247099511 4.0124
54.52804774825457 4.02517
54.55329154616743 3.97895
54.57834249018678 3.97135
54.6033962597977 3.93238
54.6284528571545 3.9077699999999997
54.653708072335164 3.8703
54.67877035378786 3.8949199999999995
54.70383546947698 3.8900300000000003
54.72890342156389 3.87531
54.7541700889442 3.84116
54.77924374251975 3.88401
54.8043202390049 3.8277699999999997
54.82959552413022 3.8433300000000004
54.8546777351945 3.79673
54.87976279569621 3.7787699999999997
54.90485070780914 3.8209699999999995
54.930137506558005 3.7549300000000003
54.95523115074295 3.75587
54.98032765308844 3.7254400000000003
55.005427015775496 3.7608599999999996
55.03072536339621 3.7628699999999995
55.05583047570572 3.68899
55.080938454927676 3.6568
55.10604930325027 3.64448
55.131359235107396 3.6653800000000003
55.15647585066083 3.6167199999999995
55.181595341907496 3.612
55.20671771104285 3.56501
55.232039262617704 3.56642
55.25716741665048 3.52236
55.28229845518636 3.5212800000000004
55.30743238042802 3.49401
55.33276558731939 3.4606800000000004
55.357905315183636 3.48354
55.383047936390035 3.42225
55.40819345314859 3.46657
55.433538351073295 3.3972599999999997
55.458689688238415 3.3817199999999996
55.483843927614096 3.36714
55.509197623043605 3.3649699999999996
55.53435769621134 3.34712
55.55952067826466 3.3325099999999996
55.5846865714265 3.29527
55.61005202069737 3.3307800000000003
55.63522376553902 3.2960199999999995
55.66039842818645 3.2922300000000004
55.68557601087004 3.3164800000000003
55.7109532500271 3.21981
55.73613670233794 3.27208
