TT I
1.2716486653135266 7.4485
1.2939594142134223 7.27067
1.3162702121660406 6.54942
1.3385810600174564 6.8608199999999995
1.3608919586137629 7.07141
1.383202908801069 7.0221100000000005
1.405513911425503 6.13025
1.4278249673332093 6.04518
1.4501343378461518 5.6951
1.4724455028545926 5.85562
1.4947567236847858 5.886080000000001
1.517068001182951 5.8304599999999995
1.5393793361953272 5.95602
1.5616907295681737 5.60118
1.5840021821477681 5.57228
1.60631369478041 5.29329
1.6286252683124185 5.12855
1.6509369035901333 5.11841
1.6732468618895553 5.08859
1.695558623192809 4.942480000000001
1.7178704487808514 4.83633
1.7401823395001077 4.91361
1.7625012545597203 5.287999999999999
1.7848028405262486 4.69418
1.8071218901122095 4.97091
1.8294236121921872 4.60421
1.8517427996910911 4.6311
1.8740620574440425 4.99788
1.8963639900671978 4.7943
1.9186833908139995 4.98345
1.9409854680117449 4.75715
1.9633050151394713 4.68233
1.9856246367570705 5.12392
2.0079269371922672 4.5354
2.03024671027244 5.0938300000000005
2.0525491637446027 4.75614
2.074869091674931 4.50084
2.097171701569106 4.05588
2.1194917877373847 4.91576
2.141811954326636 4.949319999999999
2.164114805233074 4.868519999999999
2.186435135143035 6.19908
2.208738150935709 13.1653
2.231058647554722 27.1065
2.2533792288321184 21.009
2.275682498336085 9.95459
2.298003251406138 6.30869
2.3203066942619714 5.52934
2.3426276225136022 5.77423
2.3649486396617507 6.17439
2.387252348930071 6.32251
2.4095735463442893 6.09891
2.4318774374315884 6.61073
2.4541988185014043 6.7141399999999996
2.476502894794693 6.285
2.498824462909887 7.00978
2.521146125856138 7.62449
2.5434504863470337 7.710089999999999
2.5657723414244717 7.78912
2.588076895590662 8.40982
2.610398946189713 8.13524
2.6327210958598384 8.288039999999999
2.6550259469304716 8.258
2.6773482972090137 8.37451
2.6996533504259 8.27135
2.7219759047039602 8.73465
2.744298562293959 8.576889999999999
2.7666039251246595 8.21767
2.7889267918020164 8.1766
2.8112323652516555 8.99421
2.833555444408179 8.66484
2.8558786311183852 8.03318
2.8781845268938557 8.70384
2.9005079311721484 9.03423
2.9228140460410397 8.92008
2.9451376712799635 9.77624
2.967444008632326 9.89297
2.9897678582247247 10.4811
3.0120918213106695 10.5559
3.0343984987899373 11.3679
3.0567226913198637 11.4937
3.079029599759726 11.7925
3.101354025127254 12.3992
3.123678568232338 12.6036
3.145985829517914 13.2912
3.16831061055229 13.8535
3.1906181112775593 14.1337
3.212943133635653 14.9693
3.2352682779763207 14.9628
3.2575761442691227 15.1268
3.2799015350264273 16.2306
3.302209649240067 16.3048
3.3245352898092655 16.8637
3.3468436553365257 17.3783
3.369169549113219 17.6618
3.3914955708171384 18.4596
3.413804319727358 18.7022
3.4361305997334863 18.6206
3.4584396084414553 19.5237
3.4807661501462652 19.9816
3.503092824025881 20.7519
3.5254022288463154 21.1182
3.5477291695206588 21.8552
3.5700388426251948 22.3631
3.5923660534916446 23.5663
3.6146934007816114 38.2159
3.637003482731501 85.1336
3.6593311053109985 94.7524
3.681641464033634 55.5824
3.7039693653009733 30.6871
3.726297407241705 25.8101
3.7486081875460804 25.4806
3.7709365132734978 25.9326
3.793247578841633 26.2405
3.8155761917550093 26.1481
3.8378875459837216 26.8328
3.8602164494827234 27.2919
3.882545499606844 28.1958
3.9048572932539183 28.8535
3.9271866390645718 29.2348
3.9494987298666713 29.5203
3.971828374764527 30.2518
3.9941581705403255 30.8818
4.016470713506008 31.0712
4.038800813471445 31.8274
4.061113662089144 32.3951
4.0834440696459176 33.1619
4.105774632334751 33.8617
4.128087945865126 34.4678
4.150418821249301 35.4828
4.172732448931298 37.0718
4.195063640413578 38.5698
4.2173775856475215 42.8478
4.239709096631102 72.8882
4.262040768704612 225.39700000000002
4.284355196706267 304.45099999999996
4.306687193387355 198.03099999999998
4.329001947444346 79.3659
4.35133427213731 47.4228
4.373666762177566 44.5851
4.395982011761091 44.4115
4.418314834921175 45.6895
4.44063041906622 52.8141
4.4629635787515625 63.3098
4.4852969080429785 63.1656
4.5076130004776225 53.5717
4.529946671403969 49.6589
4.552263106909177 49.2668
4.574597122877047 50.776
4.596931312711224 51.9414
4.619248269273446 52.7376
4.6415828092605835 53.5616
4.663900117405352 54.2488
4.686235010953232 56.7624
4.708552674085913 57.7154
4.730887924602802 58.9529
4.753223354952695 60.3483
4.775541557023902 62.0761
4.797877349456786 63.36
4.820195915032126 65.214
4.842532072957498 66.567
4.864868414979744 68.2804
4.88718753227192 70.05199999999999
4.909524244902505 72.3499
4.931843734218147 74.285
4.954180820867835 76.3262
4.976518095879839 79.4673
4.998838149695359 82.1056
5.021175803844231 85.1429
5.043496238205739 88.3606
5.065834274903528 92.2815
5.088172504230693 96.5486
5.1104935158799565 102.77600000000001
5.132832132875765 123.24
5.155153533596801 161.974
5.1774925416746225 192.981
5.199814334878411 301.232
5.2221537374521505 813.7
5.244493338631803 2534.04
5.266815727034316 7560.99
5.289155727832427 12333.1
5.311478517248165 8745.86
5.333818921080011 2658.58
5.356159527788849 497.782
5.3784829252032536 177.428
5.400823940070432 139.589
5.423147747031976 125.488
5.445489173474152 116.32
5.467830807066149 110.744
5.490155234831516 107.42399999999999
5.512497285125229 104.215
5.534822130975162 102.491
5.557164601388673 100.286
5.579489868738879 97.9666
5.601832762690846 97.0784
5.6241758697774475 96.3569
5.646501775867269 95.0723
5.668845311622074 94.2171
5.691171647754637 93.1298
5.713515615597765 91.6081
5.735859800852677 90.757
5.758186788542988 89.7778
5.780531411018185 90.6792
5.802858837297399 89.7243
5.825203900414495 89.5466
5.8475491852224 89.815
5.869877275883075 90.1832
5.892223006467101 90.6864
5.914551544266608 91.8624
5.936897724049891 94.0352
5.959244129804903 98.0836
5.981573344815301 111.624
6.0039202049061 180.334
6.026249875609095 393.903
6.04859719346037 868.695
6.070927323278297 2121.93
6.093275102315365 4421.84
6.115623113320588 5246.91
6.137953938319995 3174.39
6.160302415650845 946.977
6.182633708324452 226.13299999999998
6.2049826554078376 110.26899999999999
6.227331838745022 90.5198
6.249663839443684 83.3355
6.27201349767565 81.4202
6.294345974611799 87.4264
6.316696111167083 98.0319
6.339046488263839 92.7606
6.361379686074702 78.7835
6.383730546639482 70.8155
6.406064229255215 67.9008
6.428415576718203 67.3127
6.450749747566656 66.6414
6.47310158535871 65.4832
6.495453669698332 64.786
6.517788579421056 64.1337
6.540141159237969 62.7153
6.562476565766648 62.7267
6.5848296444934045 62.1209
6.607182974060425 61.6483
6.6295191323281015 61.9745
6.651872965955752 65.6032
6.6742096296068985 90.2149
6.6965639707294615 133.642
6.71891856698715 133.01
6.741255995248479 92.5755
6.763611104154477 67.1902
6.785949046381137 59.6046
6.808304671371482 57.9361
6.8306605557940046 57.8378
6.852999275508618 56.8153
6.875355681171544 56.5508
6.897694923437771 56.6233
6.92005185377892 56.1605
6.9423916220322655 55.8417
6.964749080490181 55.4612
6.987106804399774 55.5941
7.009447368180821 55.2974
7.031805625367033 55.0318
7.054146723727803 54.6947
7.076505517631004 54.3887
7.098864581288365 54.9028
7.121206488070854 54.6264
7.143566093607822 54.1648
7.165908543567245 54.8916
7.188268694426048 55.0908
7.2106291193438095 54.952
7.232972390625943 56.6261
7.255333366030969 69.2629
7.277677189091925 118.745
7.300038718428332 162.523
7.322400526130865 137.465
7.344745183422596 86.3494
7.367107550224791 61.4113
7.389452767901992 55.8457
7.411815697249891 54.7867
7.434161478756298 53.9976
7.456524974096713 53.7633
7.478888753837185 54.0132
7.501235387657368 54.2242
7.523599738562711 54.25
7.545946944825532 54.2484
7.568311870344528 54.6302
7.5906770845765665 54.9732
7.613025156078678 56.1103
7.635390950099687 57.3928
7.657739602662809 56.8327
7.680105979923558 55.4601
7.702472650212829 55.568000000000005
7.724822180948224 55.0907
7.747189439655568 55.461000000000006
7.769539560075357 55.4402
7.791907410653562 55.8654
7.81425812420825 56.1147
7.836626570110925 56.3401
7.858995315087906 56.9548
7.881346924933401 57.2998
7.903716270417482 57.5019
7.926068482028405 57.8812
7.948438431475253 58.9103
7.9708086843180235 59.0019
7.993161805171116 59.6881
8.015532667162402 59.8461
8.037886398416653 61.2243
8.060257873014221 61.7008
8.082629655331942 62.1682
8.104984308787587 63.3337
8.127356708900503 66.2048
8.149711981398308 71.904
8.172085002766314 73.8851
8.194458336181368 70.895
8.216814543847752 68.6293
8.23918850371002 68.2528
8.26154533906492 69.4769
8.283919928836452 70.9686
8.306277395339652 71.8169
8.328652618483376 72.9579
8.351028159736202 74.8971
8.373386579575245 76.9066
8.395762759396959 78.6984
8.418121819038275 83.9844
8.440498640894003 96.0671
8.462875785192262 109.223
8.485235811156207 118.66
8.507613602688501 148.872
8.529974277114228 223.234
8.552352719347912 348.655
8.574731488360351 616.745
8.59709314210385 1156.89
8.619472567021075 1898.71
8.64183487789147 2248.73
8.664214962183097 1801.51
8.686577933647762 926.948
8.708958680784317 363.667
8.731339760774953 169.704
8.753703729764451 110.77
8.77608547780821 97.4956
8.798450116065078 94.0826
8.820832535634787 91.1083
8.843215292401656 89.611
8.865580941199045 88.2419
8.887964374703538 87.4039
8.910330701447199 88.3567
8.932714815164482 90.7217
8.955099270424924 90.0097
8.977466620733543 86.8621
8.999851761421976 84.3037
9.022219798361645 82.9104
9.04460562795561 82.4965
9.066991803441677 82.3153
9.089360876979615 82.0878
9.111747746589993 81.6709
9.13411751544971 81.0908
9.156505082664324 81.0925
9.178875550323522 81.2657
9.20126381862328 81.4496
9.223652438908596 81.8123
9.246023961427412 81.5091
9.26841328802173 80.896
9.290785518039224 80.4975
9.313175554425882 81.8042
9.335565947154315 81.5893
9.357939245086508 81.4843
9.380330352834827 81.6803
9.40270436697103 81.8509
9.425096193225055 82.1847
9.447488380180165 83.2098
9.469863475295412 83.2117
9.492256385987508 83.5344
9.514632206018318 84.1705
9.537025843935714 84.7034
9.559402392368193 85.0531
9.581796761000229 86.2194
9.604191496441521 87.5102
9.626569144158516 90.7004
9.648964615551032 95.03200000000001
9.671343000390081 96.6806
9.693739211225699 94.6376
9.716135793237463 92.4634
9.738515290448102 91.9338
9.760912617143402 92.7368
9.783292860202891 93.87700000000001
9.805690935076182 95.1005
9.828089385495742 96.1625
9.850470754023561 98.2866
9.872869957865444 105.72
9.89525208097539 120.34899999999999
9.917652041736662 132.062
9.940052382417589 130.90200000000002
9.962435644102392 133.398
9.984836746950979 160.08700000000002
10.007220771957746 218.373
10.029622640473708 315.2
10.052007432299963 489.10900000000004
10.074410069984072 793.547
10.096813093716005 1276.38
10.119199042482517 1756.33
10.141602840636468 1954.0
10.163989564971628 1559.63
10.186394141051062 889.2239999999999
10.208799107559706 395.973
10.231187001965623 183.925
10.253592751657669 124.113
10.275981430388155 111.569
10.298387966769793 111.012
10.320794897965431 112.876
10.343184759907361 112.10600000000001
10.36559248305461 106.98200000000001
10.387983138083852 102.624
10.410391656691655 104.381
10.432800574501677 113.181
10.455192425893369 128.094
10.47760214443012 152.85299999999998
10.499994797678786 196.96099999999998
10.522405320453982 281.209
10.54479877906917 407.019
10.567210109595656 533.943
10.5896218454736 581.489
10.612016518879773 509.18699999999995
10.634429067781074 351.634
10.656824555333241 200.662
10.679237920773568 123.01799999999999
10.701651695961992 96.34299999999999
10.724048411481384 88.286
10.746463008485165 85.2882
10.768860546937125 83.7645
10.791275969274796 82.11399999999999
10.81369180576079 81.3439
10.836090585366925 80.1914
10.858507252467449 79.1199
10.88090686379991 77.8873
10.903324365036394 77.438
10.925724811614439 77.5544
10.948143150509463 78.3345
10.970561909719066 77.86399999999999
10.992963615930844 76.0853
11.015383218085756 73.6907
11.037785768347074 72.5489
11.06020621697282 72.0342
11.082627090322113 71.4061
11.105030913430326 70.9083
11.12745263854165 71.6807
11.149857314510728 74.8052
11.172279894912576 80.8145
11.194702904450653 81.2465
11.217108866490921 77.1009
11.239532736615194 72.9136
11.26193956033512 71.1259
11.284364294577085 69.4304
11.306789462371718 67.3943
11.329197585398376 66.3856
11.351623622610898 66.1754
11.37403261614354 65.3481
11.396459526308487 65.0598
11.418869393879497 64.4493
11.441297180532617 64.5533
11.463725406927658 64.2425
11.486136592353875 63.8701
11.508565700543707 64.4357
11.530977768845315 66.3395
11.553407762368774 67.3221
11.575838200059769 66.5968
11.598251599479612 64.3444
11.620682927815501 63.1153
11.64309721895548 62.8861
11.665529441478206 62.3865
11.687962112597958 61.9861
11.710377748130886 62.129
11.732811318753434 62.2227
11.755227854859067 62.284
11.777662328529495 62.3065
11.800079768750786 61.9304
11.822515149015453 61.7317
11.844950984084935 62.1176
11.867369787303163 61.5113
11.889806534289491 61.6432
11.912226250487029 62.0345
11.934663912939751 61.7017
11.9571020346363 61.8727
11.979523127133968 62.1247
12.001962169624331 62.763999999999996
12.024384183972964 63.4767
12.046824150809913 65.8665
12.069264581333726 69.9839
12.091687985297767 75.8387
12.11412934550045 84.5618
12.136553680195208 99.6369
12.158995973632788 124.046
12.181438735204349 154.041
12.20386447284199 192.423
12.226308172985636 212.238
12.24873485024193 202.57299999999998
12.271179492516982 167.743
12.293607112949127 124.801
12.316052700916226 93.944
12.338498763250042 77.2659
12.360927805303868 69.2085
12.383374818673879 65.527
12.405804812803074 63.6782
12.428252780773262 63.3528
12.45070122756722 63.178999999999995
12.473132656675375 63.518
12.49558206341869 63.6796
12.518014453510101 63.7367
12.540464823770117 63.6677
12.562915677315177 63.7669
12.58534951575545 64.6113
12.607801338171472 66.9637
12.630236146511358 71.67
12.652688941369085 76.2226
12.675124723177234 76.0267
12.697578494048786 72.9154
12.720032754458185 68.8486
12.742470003354093 67.2187
12.764925245138771 66.87
12.787363476431278 66.8074
12.809819703166806 67.4089
12.83227642391173 67.9446
12.854716135692716 68.4383
12.877173846755147 69.7446
12.899614549869717 70.0651
12.9220732548287 70.8986
12.94453245827299 71.1414
12.966974655289818 71.9186
12.989434858002571 72.9249
13.011878055298721 73.5553
13.034339260862497 74.355
13.056800969391883 75.8531
13.079245674017244 77.5879
13.101708390774869 79.4174
13.12415410463411 84.8438
13.146617833206086 95.1079
13.169064559883248 106.385
13.191529303857127 119.806
13.213994557076367 142.275
13.236442809902437 179.793
13.258909083908291 236.271
13.28135835851934 306.96299999999997
13.30382565690295 377.358
13.326293469022952 419.265
13.348744283242008 416.47900000000004
13.371213125129904 347.82800000000003
13.39366497011003 255.25400000000002
13.416134845360597 169.167
13.438605238843131 121.569
13.46105863690397 103.09299999999999
13.483530069144786 101.579
13.505984506951902 105.91
13.528456981549432 115.13799999999999
13.550929978879088 129.726
13.573385983253365 154.662
13.595860028340867 195.62099999999998
13.618317081455832 252.123
13.64079217790333 314.76
13.663250283359057 361.286
13.685726434770173 378.305
13.708203115221277 334.44800000000004
13.730662806148091 259.483
13.75314054697177 181.96400000000003
13.775601299246777 126.01
13.798080104050406 96.0434
13.820559442405358 84.3435
13.843021793671388 80.4988
13.865502201420897 79.2062
13.887965623051947 78.5656
13.910447103807167 77.4261
13.932929122629764 75.8495
13.955394156785959 75.7784
13.977877254034569 74.9294
14.000343367582113 74.1124
14.022827546871707 73.3614
14.045294743423524 72.8357
14.06778000837062 72.1383
14.090265817715476 71.9442
14.112734645763819 71.9279
14.13522154619454 71.2275
14.157691466286913 71.319
14.180179461423874 71.1148
14.202668005486178 70.808
14.22513957064374 70.0848
14.247629214846473 69.4223
14.270101881097517 69.1842
14.29259262906496 69.7836
14.315083930490205 70.2506
14.337558255389705 70.47
14.360050666019726 70.0492
14.382526101071944 69.1901
14.405019624534942 68.3261
14.427513705993134 68.0146
14.449990813291825 67.9516
14.47248601302899 67.8638
14.49496423954951 67.8852
14.517460561197822 67.9805
14.539939910570322 67.4331
14.562437357763558 68.0282
14.58493536931253 69.2187
14.607416409993311 70.1762
14.62991555254159 70.7762
14.652397725157423 70.4752
14.674898002342799 69.5018
14.697398848433282 69.1335
14.719882725991326 69.8538
14.74238471217934 70.6477
14.764869730765593 73.0755
14.787372860692983 76.1521
14.809876564079925 80.4301
14.83236330125751 85.4729
14.854868153850365 93.9817
14.877356041159485 107.48100000000001
14.899862046604186 126.46
14.922351087688757 154.091
14.944858249632887 187.11599999999999
14.967365991421232 213.55700000000002
14.989856770231246 227.53599999999997
15.012365673994204 218.237
15.03485761569738 189.078
15.05736768508665 147.34
15.07987833888692 113.038
15.102372032001655 90.0707
15.124883856909658 76.441
15.14737872204565 71.5496
15.169891721717274 69.8681
15.192405310371893 69.5494
15.214901940621196 69.9622
15.237416709527137 69.8097
15.259914520936249 70.0423
15.282430473753607 69.1106
15.304947020131227 67.9557
15.327446610371178 67.0101
15.349964346154254 66.2505
15.372465126703139 65.9777
15.394984055556009 65.8337
15.417486030076159 65.7467
15.44000615566487 65.3366
15.462526881230803 65.1924
15.485030653812652 65.2025
15.507552581617434 65.4061
15.530057557334603 65.5989
15.55258069104857 65.5
15.575104429329837 65.1948
15.597611216864632 64.8214
15.620136166564563 64.8982
15.6426441664095 65.5031
15.665170331202765 67.3525
15.687697105158826 69.9802
15.710206930593545 73.229
15.732734925158933 77.0393
15.755245972089478 83.3429
15.77777519094324 92.4483
15.800287463046663 105.96
15.822817909869592 126.15
15.84534897229804 149.08
15.867863089299354 172.28
15.890395385222186 189.801
15.912910736597423 191.59400000000002
15.935444269699861 180.52200000000002
15.957978423016485 151.321
15.980495633101265 119.92399999999999
16.003031029129367 93.4679
16.02554948280019 75.5961
16.048086125229432 67.2989
16.070623392487107 64.5221
16.09314371869582 63.5161
16.11568223789321 62.6769
16.13820381691126 61.8578
16.160743591742527 60.6408
16.183283996022084 59.6279
16.205807461423195 58.7742
16.228349126881973 58.2981
16.25087385432698 57.9915
16.27341678466365 57.7956
16.29594277784926 57.662
16.31848697676433 57.8508
16.341031811604868 58.2773
16.36355971058487 58.2612
16.3861058195587 57.9672
16.40863499352978 56.8759
16.431182380342005 56.1337
16.453730407713202 55.2893
16.476261501364792 55.0457
16.498810812136167 54.8978
16.52134319004079 54.8758
16.54389378792203 54.6714
16.566445031001553 54.3463
16.588979342490088 54.4197
16.61153187824822 54.1908
16.634067483263312 53.9988
16.656621315414416 54.0957
16.679175797408888 53.8786
16.701713349928728 53.9196
16.72426913389191 54.0518
16.74680798922351 54.1142
16.76936507887444 54.2645
16.791905240734874 54.2069
16.814463639794468 54.0738
16.837022695210294 54.0874
16.859564824093756 54.5831
16.882125194503903 55.1748
16.904668639217885 55.8872
16.927230328348003 55.9872
16.949792678493612 55.9395
16.972338104193863 55.3361
16.994901778652235 54.8722
17.017448529496576 54.7521
17.040013531998152 54.9203
17.06257920018044 55.2547
17.0851279459922 56.0629
17.107694947817667 56.7681
17.130245028099072 57.7137
17.15281336730298 58.9316
17.17536478578733 60.4626
17.19793446610687 62.9554
17.220504818648422 65.8008
17.243058251703697 69.2636
17.265629950971032 73.9758
17.288184731571736 79.0728
17.310757781306908 82.2586
17.33333150794385 83.2391
17.355888317140174 81.2974
17.37846339986244 76.0881
17.401021565958885 69.9712
17.42359800851343 64.4518
17.44617513265564 60.9776
17.468735341390783 59.2282
17.491261035594565 58.3058
17.51396340099364 58.145
17.536490463869136 58.4828
17.559018209820174 58.3846
17.58154663977963 58.4181
17.604251766089718 58.5205
17.626781572227713 58.7563
17.64931206518155 59.1491
17.671843245885103 59.5982
17.69455114821572 59.6767
17.717083712612634 60.0285
17.739616967569667 60.215
17.762150914021706 60.4322
17.78486160749854 60.3833
17.807396945166804 60.9287
17.829932977143503 61.8109
17.85246970436452 62.7863
17.875183204129467 64.5306
17.897721330097664 66.6501
17.920260154126645 68.76
17.942799677153296 71.8577
17.9655159983646 75.4849
17.988056927677544 80.6886
18.010598558807683 88.5625
18.033140892692916 99.1223
18.05586005052525 110.499
18.07840379824407 121.97399999999999
18.10094825154059 132.02
18.12366954819864 137.748
18.146215420998306 135.966
18.16876200220057 127.2
18.191309292745153 113.45
18.214033452627167 101.2
18.236582170236648 90.4288
18.259131600016456 85.0714
18.281681742907335 85.8012
18.304408781233683 90.588
18.32696035875955 96.005
18.349512652227624 100.431
18.372065662579683 103.654
18.394795594587553 103.69
18.41735004715306 100.348
18.43990521943684 93.4563
18.46246111238171 84.7425
18.485193953325208 76.187
18.507751296070428 68.9889
18.530309362314178 64.918
18.552868153000343 62.7683
18.57560391815056 61.1833
18.59816416623245 60.9171
18.620725141597372 60.5864
18.643286845190268 60.103
18.666025549835414 59.6341
18.688588718427933 59.0486
18.711152618092243 58.9885
18.73389353884365 58.4852
18.75645890921984 58.18
18.77902501351406 57.9998
18.801591852673102 58.0938
18.824335739722738 57.3766
18.846904057212626 57.1645
18.8694731124168 56.7784
18.89204290628315 56.99100000000001
18.914789774966803 56.7808
18.937361054791623 56.4841
18.959933076131318 56.3505
18.982505839934877 56.1895
19.00525570560582 56.2006
19.027829963004184 56.181000000000004
19.05040496572238 56.3296
19.072980714710468 56.2002
19.095733592739563 56.2309
19.11831084296757 56.5461
19.140888842324735 57.0101
19.16346759176222 56.9796
19.18622349753803 57.7596
19.208803755869358 58.4035
19.231384767143577 59.6311
19.253966532312948 61.4445
19.276725481241822 63.2688
19.29930876296784 66.1601
19.3218928014549 69.1371
19.34465404436217 71.9549
19.36723960516257 75.0766
19.389825925592426 75.5851
19.412413006605938 74.6665
19.43517731967805 70.9623
19.457765930683355 66.5573
19.48035530514408 62.2304
19.50294544401556 58.6421
19.525712842708348 55.9249
19.54830451925909 54.4984
19.570896963095727 53.5162
19.593490175174704 53.1395
19.616260674962184 53.2281
19.638855432416964 53.0094
19.661450960992624 52.933
19.68404726164677 52.8534
19.706820878021247 52.6809
19.729418731756834 52.8308
19.752017360452857 52.5461
19.77461676506804 52.6529
19.797393513540218 52.864
19.819994478951667 52.9155
19.84259622316767 53.6025
19.8651987471481 53.997
19.887978643247177 54.2539
19.91058273574792 54.6288
19.933187610901943 55.3541
19.955969879466828 56.5234
19.97857632894404 58.1088
20.00118356396599 59.797
20.023791585494575 62.0446
20.046577028914875 64.8007
20.069186632506966 66.85
20.091797025500632 68.345
20.114408208858933 69.0376
20.137196842715273 68.9303
20.159809615886765 67.2406
20.18242318232135 64.6803
20.20503754298326 62.7403
20.227829382875154 61.7558
20.250445341109344 61.9025
20.27306209647285 62.6862
20.29567964993108 63.6721
20.31847471147704 64.4461
20.34109387027612 64.9061
20.363713830075454 64.8646
20.386334591841646 63.1859
20.409132890679302 60.738
20.431755265564437 57.5043
20.454378445325528 54.9877
20.477002430930366 53.0833
20.499803982716553 51.8531
20.522429589228004 51.0554
20.54505600449589 50.5771
20.567683229489194 50.3479
20.590488049900088 49.8968
20.61311690359731 49.5726
20.63574656993626 49.4396
20.658553853717297 49.0635
20.681185154618298 48.9438
20.703817271080066 48.8471
20.72645020407368 48.5856
20.749260783967177 48.5342
20.771895359337133 48.3711
20.794530754161617 48.3802
20.817166969412938 48.4198
20.83998086114876 48.3365
20.86261872660049 48.1684
20.885257415405402 48.1132
20.90789692853701 48.0815
20.930714147864748 47.9135
20.953355319030678 47.9449
20.97599731745334 48.0671
20.99864014410749 47.8395
21.021460706796564 47.8457
21.044105199328826 48.2
21.06675052302631 48.3523
21.089396678865015 48.3365
21.112220600704806 48.8298
21.134868430275347 49.103
21.15751709492456 49.5078
21.180166595629693 50.0129
21.202993892429635 50.27
21.22564507473034 50.7601
21.24829709602816 50.8336
21.27112693608965 50.8389
21.293780644891275 50.8229
21.316435195634053 49.9956
21.339090589297417 49.2909
21.361923832041875 49.2827
21.384580921090404 48.4837
21.407238856007325 48.1638
21.429897637773326 48.0188
21.45273429906592 47.7317
21.475394784108598 47.7014
21.498056118951983 47.7209
21.520718304578022 47.8691
21.543558400304388 47.9073
21.566222297108816 48.3541
21.58888704765135 48.2777
21.61155265291521 48.3753
21.63439619898156 48.7275
21.657063523335786 49.0944
21.67973170537063 49.4629
21.7024007460706 50.0598
21.72524775840385 50.7462
21.747918526116475 51.5854
21.770590155457388 52.885
21.79326264741238 54.6604
21.816113141960237 56.5774
21.838787368860547 58.5149
21.861462461341976 60.498999999999995
21.884315579735777 62.2887
21.90699241312273 63.4726
21.92967011506078 63.652
21.95234868653799 63.3281
21.9752053151131 62.0894
21.997885635446785 60.1192
22.020566828293532 58.4901
22.04324889464272 57.1007
22.066109049404666 55.7795
22.088792872571794 55.5564
22.111477572219204 55.5722
22.1341631493376 55.3314
22.157026846313123 54.9947
22.179714188221507 54.4
22.202402410582668 53.4393
22.22509151438863 51.9231
22.24795876962584 50.7618
22.270649646204486 49.8413
22.293341407213727 49.1052
22.316034053646906 48.8678
22.338904883215342 48.4038
22.36159931041458 48.4697
22.38429462602756 48.3867
22.40699083104897 48.1956
22.429865251039757 48.1964
22.452563244831367 48.2251
22.47526213102522 48.2814
22.49813925616515 48.1501
22.520839937143307 47.9305
22.543541513520587 47.8766
22.56624398629403 47.8084
22.589124730075895 47.7962
22.611829005656723 48.0027
22.63453418063466 47.9852
22.657240256008077 48.1608
22.680124634582935 48.2837
22.70283252079775 48.6757
22.725541310413075 48.761
22.74825100442868 48.7842
22.771139033969575 49.3609
22.79385054687155 49.7015
22.81656296718292 50.433
22.83927629590484 51.4586
22.862167992606945 52.3226
22.88488314827121 53.4379
22.907599215359284 54.6726
22.93031619487366 55.6657
22.953211574954405 56.754
22.975930389478226 57.2428
22.998650119445763 57.4492
23.02137076586092 56.4107
23.044269845560063 55.1674
23.06699233506288 53.78
23.089715744034912 52.02
23.112617610931565 50.5596
23.135342869061212 49.2067
23.158069049684816 48.5267
23.1807961538087 48.1897
23.20370174880544 48.1823
23.226430710184808 48.2123
23.249160598093425 48.183
23.271891413539002 48.003
23.294800752937697 47.9676
23.31753343374794 48.3139
23.340267045128353 48.3766
23.36300158808808 48.8657
23.38591468821339 49.1455
23.408651104658304 49.5936
23.431388455719986 50.2364
23.454126742409 51.0626
23.4770436196085 52.1554
23.499783787914662 53.403
23.522524894889884 54.3915
23.54526694154616 55.5371
23.56818761219047 56.73
23.59093154860734 57.0105
23.613676427751283 57.2166
23.636422250635754 56.2219
23.659346731118656 54.9413
23.68209445191868 53.0253
23.704843119509587 50.9098
23.72759273490623 49.1006
23.750521041644767 47.7912
23.77327256312355 46.6797
23.796025035462787 46.0652
23.818956224555475 45.5689
23.841710609113413 45.3551
23.86446594758979 45.2574
23.887222241002014 45.0205
23.910157285144578 44.7392
23.932915498962537 44.7175
23.955674670778713 44.4751
23.978434801611975 44.2223
24.001373717286125 44.3737
24.024135776723917 44.1422
24.046898798245582 43.8988
24.06966278287146 43.9044
24.092605586582614 43.6661
24.115371508023642 43.7833
24.1381383956401 43.5305
24.16090625045381 43.4486
24.183852958731244 43.4915
24.206622758582608 43.3129
24.229393528706886 43.0268
24.252165270127392 43.1488
24.27511589952438 43.1136
24.297889594216997 42.9978
24.32066426328598 42.9646
24.34343990775613 42.7352
24.36639447485003 42.8174
24.38917208083877 42.7202
24.41195066531332 42.4786
24.43490819850244 42.6564
24.457688750692377 42.4319
24.48047028445616 42.4081
24.503252800821233 42.6764
24.526214300784112 42.6705
24.548998793132213 42.5854
24.57178427117417 42.4191
24.59457073593893 42.5995
24.617536219319863 42.4527
24.64032466834748 42.3578
24.663114107195035 42.2854
24.685904536893013 41.9997
24.708874020360852 41.9937
24.731666442613744 41.9374
24.754459858818787 41.7356
24.777254270007962 41.8359
24.80022777025625 41.766999999999996
24.82302418230472 41.5951
24.845821592443674 41.5996
24.86862000170663 41.6988
24.891597535453727 41.5728
24.914397953892728 41.7508
24.93719937456671 41.5361
24.96000179851076 41.7572
24.98298338249997 41.9875
25.00578782394922 42.1726
25.028593271784167 42.2956
25.05157790644186 42.5789
25.07438537804115 42.8991
25.097193859145293 43.1859
25.120003350792075 43.3768
25.142992065061257 43.6453
25.165803588823465 43.7739
25.18861612625217 44.0197
25.211429678386736 44.1048
25.234422489079968 44.1625
25.257238081693636 44.3649
25.280054692141732 44.4934
25.3028723214652 44.442
25.325869245420463 44.4395
25.348688923599397 44.573
25.371509623787006 44.3482
25.394331347025812 44.0614
25.41733240110666 43.6007
25.440156181590016 42.9814
25.46298098826268 42.4254
25.48580682216873 41.9673
25.50881202326435 41.3575
25.53163992281684 41.056999999999995
25.55446885274561 40.5846
25.577298814096377 40.3671
25.600308179121807 40.4544
25.623140214533745 40.3947
25.64597328451537 40.2606
25.66898578564376 40.1021
25.691820936010206 39.9821
25.714657124097695 40.0107
25.737494350954734 40.1201
25.760511045684957 39.8171
25.783350361364224 39.9666
25.806190718969255 39.9723
25.82903211955018 40.0559
25.852053024868923 40.1399
25.874896522722523 40.1693
25.897741066713106 39.9992
25.920586657892454 40.2491
25.943611790812668 40.3486
25.966459487728237 40.3943
25.989308234998564 40.4234
26.01215803367705 40.8706
26.03518741123814 40.9216
26.05803932412957 41.1201
26.080892291600094 41.0754
26.10374631470478 41.0864
26.12677995397268 41.2358
26.14963609978026 41.1341
26.172493304397875 40.7805
26.19535156888223 40.7255
26.218389486949604 40.3031
26.241249882640123 40.0233
26.26411134137826 39.7275
26.28715248187403 39.7828
26.31001607820869 39.5747
26.3328807407756 39.5011
26.35574647063438 39.6232
26.37879191991473 39.6534
26.401659795896734 39.5676
26.424528742360263 39.7581
26.447398760366614 39.8084
26.470448535598294 40.1621
26.49332070826805 40.2813
26.516193955675355 40.6291
26.53906827888316 40.8163
26.562122397260108 40.9472
26.584998883685063 41.2983
26.607876449110325 41.4975
26.63075509460056 41.6311
26.65381357334404 41.7792
26.67669439061878 41.4506
26.699576291163382 41.5456
26.722459276044212 41.3962
26.745522132402975 41.1756
26.768407297649354 40.7623
26.791293550442003 40.5492
26.814180891848974 40.4159
26.837248143099337 40.0131
26.860137673466657 39.9698
26.88302829566349 39.6745
26.90592001075963 39.4475
26.92899167420566 39.3759
26.951885586870763 39.0614
26.974780595655517 38.8056
26.99785558178161 38.7952
27.020752794605112 38.5839
27.043651106772522 38.452
27.06655051935668 38.3898
27.089629948036183 38.3282
27.112531573292053 38.2641
27.135434302194138 38.2638
27.158338135817015 38.0862
27.181422024430987 38.1444
27.204328079372566 37.9673
27.22723524226965 37.8778
27.250143514198573 37.9749
27.273231880156334 38.1048
27.296142382065014 37.8628
27.319053996245536 37.871
27.341966723775965 37.9648
27.365059584515222 37.9063
27.38797455070062 37.9897
27.410890633481237 38.037
27.433807833936918 38.0592
27.456905206923906 38.0187
27.47982465472398 38.0982
27.502745223449743 38.0084
27.525666914182825 38.0387
27.548768816912457 38.0711
27.571692763693633 37.9688
27.59461783573812 37.8801
27.617723149491244 37.6652
27.640650484125285 37.8169
27.66357894728264 37.7957
27.686508540048052 37.4936
27.709618414237887 37.4972
27.732550278321757 37.4216
27.755483275279115 37.3544
27.778417406196485 37.5113
27.801531858397514 37.3474
27.824468269376716 37.2204
27.847405817586786 37.2345
27.870344504116094 37.3811
27.893463551932008 37.4872
27.916404527281053 37.8667
27.93934664422563 37.9697
27.962289903855886 37.9704
27.98541356491974 38.2214
28.00835912214229 38.2818
28.03130582533231 38.5996
28.054253675581805 38.5464
28.077381967556104 38.5513
28.100332124185126 38.49
28.123283431160893 38.4214
28.146235889577238 38.422
28.169368830154156 38.2957
28.192323603752033 38.0783
28.215279532083304 37.7739
28.238415973016764 37.3846
28.261374223145094 37.2718
28.284333631303806 37.1681
28.307294198589954 37.0004
28.330435319167677 36.6641
28.353398217078915 36.4385
28.376362277420153 36.2495
28.39932750129032 36.116
28.422473319286713 36.0594
28.44544088262495 35.9355
28.468409612800283 35.783
28.491379510913497 35.5122
28.51453004413313 35.5331
28.53750229057244 35.6096
28.56047570826344 35.5221
28.583450298308804 35.4391
28.606605564586562 35.214
28.629582511831156 35.3926
28.65256063474956 35.2263
28.675539934446338 35.2473
28.698699951647605 35.1737
28.72168161743193 35.0914
28.74466446331978 35.1261
28.767648490417624 35.0675
28.790813276438353 34.8944
28.813799678527303 35.0525
28.836787265157085 35.0337
28.859955641890075 35.0482
28.882945610203045 35.0327
28.905936766392035 34.9674
28.928929111566863 34.8165
28.952102288520145 34.7986
28.975097024308607 34.7734
28.998092952423807 34.5157
29.021090073977508 34.5552
29.04426806913204 34.4003
29.067267590245258 34.2223
29.090268308143695 34.2703
29.11327022394099 34.2263
29.13645305530891 34.0227
29.159457379627167 34.0966
29.18246290519685 33.897
29.20546963313352 33.8358
29.22865731875826 33.9356
29.25166646419296 33.9872
29.27467681535305 33.7931
29.29768837335608 33.924
29.320880931312562 33.9498
29.34389491580634 33.9345
29.366910110507334 33.7948
29.38992651653503 33.8984
29.41312396492981 33.8157
29.436142806456754 33.7045
29.45916286268059 33.6641
29.48236399319994 33.5251
29.50538649169417 33.3974
29.528410208259935 33.2026
29.55143514402014 33.0825
29.574641196749695 33.0397
29.597668583816574 32.9929
29.6206971934585 32.8761
29.64372702680042 32.7807
29.666938019934474 32.7491
29.689970313635285 32.6321
29.713003834422636 32.5216
29.73603858342347 32.4494
29.759254535188578 32.372
29.78229175361658 32.3182
29.80533020365064 32.4943
29.82836988641968 32.5448
29.85159081507472 32.4471
29.874632976355343 32.2595
29.89767637376955 32.35
29.920721008448314 32.2961
29.9439469322847 32.2322
29.96699405457564 32.263000000000005
29.9900424175358 32.1671
30.013092022298157 32.1793
30.03632295963995 32.1547
30.059375061131373 32.1141
30.08242840783577 32.1678
30.105483000888153 32.1479
30.128718970092244 32.0379
30.151776069006917 32.0244
30.17483441768648 32.0461
30.198074175317235 32.0788
30.221135036724256 32.1135
30.24419715131772 31.9934
30.267260520236203 31.8562
30.290505341942243 31.8812
30.313571232750228 31.9749
30.336638381310948 31.9473
30.35970678876503 31.8569
30.38295669299435 31.7585
30.40602763151657 31.9015
30.429099832366074 31.6887
30.452173296685572 31.7259
30.47542830191959 31.644000000000002
30.498504306502497 31.6961
30.521581577995562 31.7548
30.544660117543582 31.8292
30.56792024229725 31.7972
30.59100133132069 31.7695
30.614083691845494 31.8368
30.637167325018545 31.8866
30.660432587840603 31.8743
30.683518779717886 31.7979
30.70660624769615 31.8534
30.729694992924372 31.7798
30.75296541239743 31.8887
30.77605672557558 31.7681
30.799149319462742 31.6116
30.8224236211637 31.5907
30.845518789950724 31.509
30.868615242910597 31.3733
30.891712981195973 31.2334
30.91499247215866 31.2902
30.938092794619365 31.1667
30.96119440587579 31.1709
30.984297307082752 31.0097
31.00758200598383 30.9719
31.030687500658694 30.8479
31.053794288760695 30.7848
31.076902371446767 30.6718
31.100192296997445 30.8369
31.12330298246119 30.6715
31.14641496599209 30.5894
31.169528248749216 30.5766
31.19282341969534 30.5437
31.215939314557186 30.5908
31.239056512134788 30.595
31.262175013589378 30.551
31.28547544871168 30.5089
31.30859657161541 30.3872
31.331719001892175 30.444000000000003
31.35484274070538 30.5535
31.378148458819545 30.5157
31.401274828443725 30.5591
31.424402510106933 30.5276
31.447712205419993 30.5284
31.470842524931633 30.4247
31.493974159989783 30.4392
31.51710711176168 30.3461
31.54042212308802 30.3799
31.563557722100917 30.3528
31.586694641341655 30.2137
31.609832881979628 30.1595
31.63315322823208 30.1131
31.656294125521327 29.9121
31.679436347728515 29.8745
31.70257989602529 29.9201
31.725905596152327 29.8269
31.74905181052835 29.7341
31.772199354521323 29.8619
31.79534822930507 29.7848
31.818679302290967 29.7711
31.84183085259981 29.8045
31.864983737233473 29.6634
31.88813795736804 29.7328
31.911474422233013 29.6809
31.934631327356435 29.77
31.9577895715215 29.7353
31.980949155906522 29.6688
32.004291031706956 29.6097
32.027453310562606 29.5844
32.05061693318573 29.3826
32.07396288236386 29.4279
32.09712920658542 29.3641
32.12029687812702 29.2263
32.14346589817093 29.2538
32.166817291729984 29.2174
32.18998902288583 29.0292
32.21316210610336 28.9847
32.23633654256711 28.9825
32.259693399663725 28.8871
32.282870556771144 28.7914
32.30604907069099 28.7663
32.329228942610065 28.7551
32.35259128243769 28.6918
32.375773884550505 28.5732
32.398957848235646 28.5605
32.422143174682176 28.5988
32.445511016471215 28.4488
32.468699082679954 28.4407
32.49188851523011 28.3367
32.51507931531304 28.2516
32.538452678331 28.3337
32.56164622776311 28.2375
32.58484114831493 28.103
32.60803744118015 28.1325
32.631416344731896 28.1606
32.654615396551876 28.0454
32.67781582427913 28.0515
32.701198898634416 27.9182
32.72440209253756 27.8803
32.747606665947124 27.8932
32.77081262006088 27.7306
32.79420126883317 27.7283
32.81740999876112 27.8284
32.840620112999424 27.656999999999996
32.86383161274818 27.5761
32.88722585534586 27.6904
32.91044014056596 27.7132
32.933655814909734 27.6719
32.95687287957963 27.7216
32.98027273544904 27.6709
33.00349259526636 27.517
33.026713849030116 27.592
33.04993649794511 27.5856
33.073341986570746 27.4773
33.09656744032826 27.5131
33.11979429286444 27.4654
33.14302254538647 27.5049
33.166433686291185 27.3692
33.18966475336992 27.3385
33.212897224069096 27.264
33.23613109959831 27.2943
33.259547912343415 27.2403
33.2827846121627 27.3364
33.306022720453775 27.214000000000002
33.32926223842861 27.1272
33.352684742614166 27.1046
33.37592709463173 27.1282
33.399170859982064 27.0083
33.422597648419426 26.8648
33.44584425514446 26.7808
33.46909227885668 26.7476
33.4923417207723 26.5986
33.51577423505344 26.7313
33.539026528130385 26.6274
33.56228024307245 26.6097
33.585535381098246 26.401
33.60897364093058 26.4142
33.63223163992385 26.3858
33.6554910656699 26.3532
33.678751919389796 26.3353
33.702195944520106 26.2902
33.72545966903325 26.2485
33.74872482519663 26.1989
33.771991414233746 26.2826
33.79544122444841 26.2103
33.81871069412428 26.0385
33.84198160035767 26.0395
33.86525394437455 26.058000000000003
33.88870955949969 26.014
33.911984794020626 25.9522
33.93526147001624 26.0176
33.958539588715006 25.9206
33.98200102861669 25.8025
34.0052820477047 25.7652
34.02856451319451 25.8124
34.05203033759056 25.6731
34.07531571090147 25.6727
34.09860253431845 25.6085
34.121890809074316 25.5495
34.145362493118924 25.5198
34.16865368561615 25.4708
34.191946333164054 25.4795
34.21524043699793 25.5069
34.23871800066799 25.4027
34.26201503218366 25.3249
34.28531352370466 25.3001
34.30861347646881 25.2535
34.33209693978188 25.1934
34.3553998301885 25.1999
34.378704185565205 25.1462
34.402010007152356 25.03
34.42549939016683 25.1239
34.44880815937748 24.9913
34.472118398533134 24.9699
34.49543010887669 24.9347
34.51892543169198 24.83
34.54224009966052 24.9071
34.56555624255917 24.8908
34.58887386163339 24.7854
34.61237514439016 24.6735
34.6356957311114 24.6484
34.65901779775809 24.6503
34.68252356662995 24.5973
34.705848608458616 24.6445
34.72917513396849 24.4947
34.75250314440949 24.5497
34.77601490857862 24.3905
34.799345904259795 24.3105
34.82267838863559 24.3528
34.846012362958525 24.4289
34.869530142679984 24.2973
34.89286711232212 24.2386
34.91620557568269 24.234
34.93954553401677 24.2791
34.9630693495876 24.1789
34.986412313340814 24.1288
35.00975677584668 24.1244
35.033102738362956 24.1104
35.05663261012228 24.0094
35.0799815881786 24.0431
35.10333207003229 24.0382
35.12668405694369 24.0498
35.150220005273056 23.9277
35.17357501786656 24.0189
35.19693153931268 23.8897
35.220289570874385 23.8448
35.24383161619786 23.8716
35.267192683604904 23.939
35.290555264930376 23.8837
35.314101899412165 23.8128
35.33746752422433 23.7208
35.36083466676374 23.796999999999997
35.38420332829803 23.7423
35.407756095629054 23.7018
35.43112781085063 23.6635
35.45450104888391 23.6865
35.477875810999194 23.6371
35.50143473172161 23.546
35.52481255774625 23.5991
35.54819191167777 23.5541
35.57157279478914 23.4438
35.595137889488406 23.4969
35.61852184675279 23.4516
35.641907337029984 23.3223
35.665294361595684 23.4066
35.68886565090076 23.3177
35.7122557598848 23.1376
35.73564740699838 23.1665
35.759040593519934 23.1984
35.78261809810353 23.1998
35.80601437933051 23.1162
35.829412203814705 23.0517
35.85281157283719 23.0036
35.876395313415884 23.0637
35.8997977874528 22.9163
35.92320180988546 22.9195
35.946790244133936 22.8223
35.97019737933222 22.9173
35.993606066789866 22.8424
36.01701630779276 22.8725
36.04061101440684 22.7439
36.06402437852291 22.8364
36.08743930005611 22.7448
36.1108557802951 22.6197
36.13445678011326 22.654
36.15787639383515 22.5719
36.18129757014299 22.568
36.20472031032821 22.5323
36.22832762423364 22.430999999999997
36.25175350829375 22.4286
36.275180960119776 22.3797
36.298609981005924 22.4137
36.32222362992669 22.4208
36.34565580510207 22.2802
36.36908955323448 22.2283
36.39252487562093 22.1078
36.416144880530226 22.145
36.43958336764275 22.1776
36.463023432914625 22.1668
36.486465077645676 22.0723
36.51009145956204 22.1591
36.53353627947859 22.1702
36.55698268276811 22.1237
36.58043067073321 22.0651
36.60406345072071 21.9315
36.62751462435344 21.93
36.65096738658405 21.8682
36.67460498210655 21.9354
36.69806093788647 21.857
36.72151848619297 21.795
36.744977628333636 21.755
36.76862165890998 21.721999999999998
36.79208400512205 21.7303
36.81554794910557 21.6452
36.83901349217101 21.5951
36.862663978991606 21.5269
36.88613273667352 21.5229
36.90960309738324 21.5422
36.933075062434064 21.4573
36.95673202673572 21.4551
36.98020721697122 21.4326
37.003684015502365 21.3739
37.027162423645365 21.3322
37.050825886711465 21.2968
37.07430753063053 21.2723
37.09779078812467 21.1954
37.121275660513014 21.209
37.144945643673694 21.1371
37.16843376245278 21.1637
37.19192350009803 21.1144
37.215414857931435 21.1392
37.239091382563885 21.039
37.262585997426164 20.9706
37.28608223645736 21.0252
37.309763684451696 21.018
37.33326318851098 20.8936
37.356764320726555 20.8578
37.380267082425526 20.8507
37.40395510942588 20.9457
37.42746114683234 20.7976
37.45096881771841 20.7317
37.474478123414166 20.796
37.49817275092816 20.6882
37.52168534303452 20.7049
37.54519957395567 20.6276
37.568715445024665 20.5704
37.592416694607714 20.5225
37.61593586281424 20.6289
37.63945667518264 20.5774
37.66297913304891 20.4493
37.68668702630454 20.4145
37.710212792059274 20.3429
37.733740207334854 20.3252
37.757269273470364 20.3337
37.780983832050374 20.3528
37.80451621684926 20.338
37.82805025654007 20.2158
37.851585952464795 20.2212
37.8753071980695 20.1345
37.89884622345676 20.0997
37.92238690911902 20.1092
37.94611318753442 20.0351
37.969657210779765 20.0204
37.99320289834801 20.032
38.016750251586465 19.9387
38.04048325513017 19.9456
38.06403395679343 19.8827
38.087586328183946 19.8878
38.11114037065203 19.912
38.13488012115898 19.8209
38.1584375229181 19.7932
38.181996599821 19.8228
38.205557353221124 19.75
38.229303872575656 19.6743
38.2528679961576 19.6933
38.27643380031219 19.6121
38.30000128639589 19.5593
38.32375459653193 19.5486
38.34732546371299 19.5828
38.37089801690786 19.4456
38.39447225747609 19.4394
38.418232380377425 19.4224
38.441810012983396 19.4096
38.46538933705673 19.3952
38.488970353960084 19.3891
38.51273731166058 19.3777
38.536321731567014 19.2786
38.55990784840681 19.2604
38.58367995004091 19.1937
38.60726947812959 19.1588
38.63086070726198 19.1724
38.654453638806274 19.2016
38.678232613930824 19.1196
38.70182896773327 19.0831
38.72542702806741 18.9645
38.7490267963045 19.0004
38.77281266709232 18.9686
38.79641586862214 18.9669
38.8200207821842 18.9125
38.843627409152944 18.8766
38.86742019782782 18.8674
38.891030269149255 18.8467
38.914642058016156 18.8266
38.938255565806124 18.787
38.96205529464307 18.7453
38.98567225787121 18.7491
39.00929094417078 18.7108
39.03291135492255 18.7017
39.05671804624804 18.6447
39.080341923549106 18.6143
39.103967529460334 18.5972
39.127594865365744 18.4718
39.15140854155791 18.554000000000002
39.17503935514948 18.4585
39.19867190290282 18.4367
39.22249083587951 18.4208
39.24612686969409 18.3935
39.269764641845306 18.3889
39.293404153722804 18.3692
39.317230110864074 18.2782
39.34087311998506 18.2593
39.36451787301696 18.3074
39.388164371352595 18.2196
39.41199737518003 18.1163
39.43564738196752 18.1373
39.45929913825317 18.1003
39.48295264543308 18.0475
39.506792718520884 18.0426
39.530449745387216 18.0477
39.55410852735203 17.9751
39.57776906581474 18.0134
39.60161623079 17.9804
39.625280300200025 17.917
39.64894613032202 17.8646
39.67261372255866 17.8672
39.6964680021016 17.8539
39.72013913657293 17.8418
39.74381203738292 17.7511
39.76748670593756 17.7506
39.79134812278169 17.75
39.81502634488497 17.7061
39.83870633896685 17.6785
39.862388106436654 17.6694
39.88625668336918 17.6053
39.90994201572829 17.6465
39.933629125719285 17.5854
39.957503091207826 17.524
39.9811937746168 17.5542
40.00488623990914 17.4627
40.02858048850006 17.4299
40.05246165409549 17.4437
40.076159487492085 17.3326
40.099859108448875 17.3361
40.123560518384345 17.4136
40.1474489070226 17.3425
40.171153913178564 17.2799
40.194860712584955 17.2412
40.2185693066637 17.2538
40.242464941335314 17.1547
40.26617714307655 17.1962
40.289891143772046 17.143
40.3136069448471 17.0946
40.33750984859743 17.117
40.3612292688043 17.0559
40.3849504936829 16.997
40.40867352466194 17.0024
40.43258372059144 16.9389
40.45631038219906 17.0116
40.48003885420956 16.9352
40.503769138055105 16.8891
40.52768664931955 16.9353
40.55142057531802 16.8907
40.57515631746428 16.7949
40.599079334038514 16.7588
40.62281872700477 16.7606
40.64655994043941 16.7465
40.67030297578061 16.7594
40.69423334835778 16.6998
40.71798004609188 16.6452
40.74172857006355 16.6709
40.76547892171441 16.6822
40.7894166736039 16.6187
40.813170699248566 16.564
40.83692655691388 16.5261
40.86068424804498 16.5029
40.884629402612525 16.4974
40.908390779366385 16.4393
40.932153993938 16.4317
40.95591904777605 16.403
40.979871628443995 16.4389
41.003640379561936 16.3573
41.02741097430883 16.3405
41.05118341413683 16.2811
41.075143444384416 16.2404
41.098919593177826 16.2622
41.1226975914255 16.2596
41.14647744058318 16.2316
41.170444943946755 16.2019
41.19422851378379 16.1475
41.218013938914645 16.0926
41.24198706625173 16.0886
41.26577622087193 16.1165
41.289567235177785 16.0147
41.31336011063129 16.0098
41.337340752422875 16.0313
41.361137369129835 16.0243
41.38493585138705 15.9631
41.40873620066004 15.9111
41.43272438060107 15.8682
41.45652848292052 15.8233
41.48033445666918 15.7826
41.50414230331616 15.7654
41.528138045159764 15.7397
41.551949656675205 15.742
41.575763145513235 15.7063
41.59957851314666 15.6484
41.62358184070442 15.6525
41.64740098505737 15.648
41.6712220126409 15.6281
41.69504492493139 15.5837
41.71905586207357 15.5379
41.74288256296395 15.5316
41.766711153007456 15.5094
41.79054163368412 15.5224
41.814560204340054 15.4918
41.838394485526365 15.4883
41.86223066180303 15.3671
41.88625497706819 15.3752
41.910094962812 15.3075
41.93393684811168 15.3142
41.95778063445365 15.2993
41.981812625263366 15.235999999999999
42.00566023303407 15.2304
42.029509746323676 15.2094
42.05336116662236 15.1855
42.077400857069705 15.1717
42.10125611078846 15.1588
42.12511327600405 15.0789
42.14897235421036 15.0546
42.173019768448455 15.0158
42.19688269209613 15.0037
42.22074753323349 15.0156
42.24461429335818 14.9673
42.268669455600495 14.9964
42.292540073217886 14.9555
42.31641261433284 14.9603
42.34028708044675 14.865
42.36435001496739 14.8749
42.38822835065557 14.9092
42.41210861586426 14.8347
42.4359908120986 14.7852
42.46006154323262 14.7557
42.48394762115317 14.7548
42.507835634632315 14.7128
42.531912233047436 14.7113
42.55580413732265 14.6772
42.579697981698 14.6435
42.60359376768525 14.5946
42.62767820545945 14.5691
42.65157789440821 14.6004
42.67547952952185 14.5501
42.699383112316 14.5148
42.72347541395347 14.5098
42.74738291190531 14.4898
42.771292362102166 14.487
42.795203766063516 14.4785
42.819303956130405 14.4526
42.843219287476536 14.3993
42.86713657716324 14.359000000000002
42.89105582671383 14.3198
42.91516392983864 14.3517
42.939087119032166 14.3205
42.963012272677304 14.2745
42.98693939230129 14.2488
43.01105543317513 14.2045
43.034986504731386 14.2294
43.05891954686589 14.1823
43.08285456110972 14.1355
43.10697856448665 14.1221
43.130917542983475 14.0645
43.15485849820081 14.0583
43.17880143167367 14.0047
43.20293342237094 13.9836
43.226880332449 13.9989
43.25082922540554 14.0236
43.27496722682525 13.9401
43.29892010567796 13.8895
43.32287497204102 13.8588
43.34683182745632 13.8355
43.370977859791836 13.8185
43.39493871351105 13.8259
43.41890156092628 13.825
43.44286640358341 13.7651
43.46702049182749 13.7415
43.49098934522816 13.6961
43.51496019852649 13.7513
43.5389330532723 13.6854
43.56309522248204 13.6383
43.58707210044314 13.6232
43.61105098451946 13.575999999999999
43.63503187626491 13.5966
43.659202151562134 13.5217
43.68318707902681 13.475999999999999
43.70717401884041 13.5312
43.731162972560874 13.4716
43.75534137913236 13.4668
43.779334381108384 13.4643
43.803329401683186 13.3613
43.82732644241872 13.3542
43.8515130055166 13.3535
43.87551410707659 13.3533
43.89951723350145 13.342
43.923709934595614 13.3033
43.94771713129917 13.3032
43.97172635758096 13.2818
43.99573761501002 13.2282
44.0199385169922 13.1862
44.04395385732619 13.1709
44.067971233533086 13.1607
44.09199064718605 13.1755
44.11619977548961 13.1074
44.14022328470671 13.1055
44.16424883610785 13.1118
44.18827643127035 13.0845
44.21249381139513 13.043
44.236525514814076 12.9884
44.26055926674478 13.0432
44.28459506876863 13.0434
44.3088207262813 12.9029
44.33286064928722 12.9169
44.35690262714919 12.8736
44.38094666145278 12.8953
44.4051806219871 12.8703
44.42922879003185 12.8089
44.45327901929361 12.7853
44.477331311362136 12.7698
44.501573600619416 12.7846
44.525630039221795 12.7245
44.54968854541895 12.696
44.573937102200176 12.6957
44.5979997645541 12.6891
44.622064499300315 12.6297
44.64613130803592 12.6283
44.67038823869318 12.6313
44.69445921643748 12.6299
44.718532272981385 12.5629
44.742607409926194 12.5251
44.76687274034801 12.505
44.79095205918753 12.5082
44.81503346325094 12.5098
44.839116954143876 12.4465
44.86339071028742 12.4362
44.88747839599524 12.3984
44.91156817336837 12.3924
44.93566004401666 12.4145
44.959942251908146 12.3827
44.984038330325966 12.3477
45.00813650686762 12.2946
45.03223678314731 12.2713
45.05652746888232 12.2667
45.08063196592069 12.2403
45.104738567558705 12.1972
45.128847275414856 12.1877
45.15314646515866 12.0905
45.17725940679741 12.1202
45.20137445952892 12.1557
45.22568004865265 12.1063
45.24979934496396 12.0592
45.27392075725247 12.0999
45.29804428714431 12.038
45.322358426247604 12.0233
45.346486212804315 11.9651
45.370616121861914 11.966
45.39474815505086 11.9538
45.41907087049246 11.8831
45.4432071734666 11.875
45.46734560548283 11.9045
45.49148616817604 11.9161
45.51581748638564 11.845999999999998
45.5399623320197 11.8063
45.56410931325473 11.7782
45.58825843173002 11.8633
45.61259837920865 11.7939
45.636751793816 11.7826
45.66090735060093 11.7141
45.68506505120716 11.7166
45.7094136545275 11.6573
45.73357566449271 11.6368
45.75773982322992 11.6375
45.78190613238733 11.6343
45.806263418194064 11.5838
45.83043404997326 11.5639
45.85460683713677 11.5777
45.87897065658495 11.5942
45.90314777634752 11.5069
45.92732705646868 11.4516
45.9515084986045 11.4351
45.97588104735473 11.427999999999999
46.00006683541565 11.4178
46.02425479047904 11.3747
46.04844491420549 11.4042
46.0728262191024 11.4403
46.09702070211635 11.3952
46.12121735879483 11.3685
46.14541619080294 11.325
46.169806278764455 11.2808
46.194009483459034 11.2589
46.21821486849841 11.2533
46.24242243555223 11.2433
46.266821333570014 11.2123
46.29103328674601 11.2091
46.31524742696538 11.2128
46.33946375590237 11.1774
46.36387149104216 11.1454
46.38809221957392 11.1032
46.41231514186606 11.1303
46.436540259597464 11.1279
46.460956858999374 11.0913
46.48518638983522 11.0312
46.509418121166966 11.0345
46.533652054678114 11.0353
46.55807754555709 10.9676
46.58231590571962 10.9576
46.60655647313217 10.927999999999999
46.630988654873654 10.9289
46.655233659129024 10.9005
46.67948087571551 10.8838
46.70373030632484 10.8617
46.72817142736393 10.8649
46.752425308428684 10.8019
46.77668140861147 10.7747
46.80093972960865 10.7541
46.82538981736788 10.7523
46.849652602470904 10.7391
46.87391761349769 10.7133
46.8981848521493 10.689
46.9226439341274 10.6481
46.946915650573224 10.6052
46.97118959976749 10.5773
46.99546578341598 10.5924
47.019933887188216 10.5781
47.04421456235744 10.5964
47.06849747711879 10.549000000000001
47.09278263318286 10.5116
47.11725978640143 10.5393
47.14154944775105 10.4956
47.165841355555656 10.4482
47.1901355115306 10.4459
47.214621741924994 10.4359
47.23892041698887 10.3821
47.26322134538975 10.3788
47.28771440635075 10.3685
47.31201986422527 10.3555
47.33632758061436 10.2944
47.360637557241866 10.3307
47.38513974410611 10.3159
47.40945426407847 10.2574
47.43377104948137 10.2365
47.45809010204344 10.245
47.48260144275502 10.203
47.506925052572285 10.2351
47.53125093475548 10.2328
47.55557909103813 10.1973
47.58009961361992 10.1353
47.60443234110732 10.1117
47.62876734791564 10.1314
47.65310463578333 10.1178
47.6776343683373 10.0932
47.7019762413987 10.0499
47.72632040075572 10.0533
47.75066684815169 10.0278
47.77520581885936 10.017999999999999
47.799556865477655 9.99066
47.823910205386 9.92263
47.84826584033272 9.98558
47.87281407745551 9.890039999999999
47.89717432569297 9.93319
47.92153687423484 9.87486
47.94609208429692 9.88305
47.97045925671401 9.87573
47.99482873471275 9.83404
48.01920052005013 9.78438
48.04376504619224 9.77587
48.068141469543484 9.80327
48.09252020552573 9.76977
48.11690125590099 9.73371
48.1414751266064 9.71733
48.16586082917454 9.70598
48.19024885144316 9.71119
48.2146391951793 9.71947
48.239222439012764 9.66507
48.26361744916137 9.63021
48.28801478610016 9.63438
48.31241445160131 9.645760000000001
48.337007097209366 9.618089999999999
48.36141144338331 9.56601
48.38581812345755 9.57779
48.41022713920929 9.55156
48.434829215320704 9.54266
48.45924292604658 9.503589999999999
48.48365897780325 9.50432
48.50807737237308 9.46336
48.532688907799276 9.466389999999999
48.55711201168574 9.44795
48.581537463754074 9.409139999999999
48.60615611725119 9.39216
48.63058628942721 9.40156
48.65501881516546 9.38492
48.6794536962573 9.37791
48.70408185970339 9.344330000000001
48.72852147531801 9.3407
48.75296345168211 9.27511
48.77740779059232 9.23197
48.80204549302823 9.267539999999999
48.82649458091802 9.27621
48.85094603676547 9.223410000000001
48.87539986237231 9.22051
48.90004713292306 9.203
48.92450572200832 9.22675
48.94896668628025 9.158719999999999
48.97343002754588 9.12637
48.99808689542115 9.161389999999999
49.02255501470614 9.1399
49.04702551642794 9.09614
49.0714984023988 9.04422
49.096164896893235 9.05371
49.120642575466796 9.07788
49.145122643748394 9.03749
49.16960510355558 8.9993
49.19428125404938 9.00157
49.2187685210852 8.97653
49.243258185121555 8.96551
49.26794160167084 8.94127
49.2924360839405 8.87909
49.31693296869764 8.91354
49.34143225776915 8.85422
49.36612538195438 8.87318
49.39062950396021 8.87261
49.41513603578346 8.807730000000001
49.4396449792564 8.80016
49.46434784069503 8.802760000000001
49.488861631846454 8.78027
49.513377840166804 8.772110000000001
49.537896467493745 8.72562
49.56260909589029 8.70595
49.587132585683285 8.70997
49.611658500018365 8.702160000000001
49.636186840738596 8.64953
49.66090926588511 8.67755
49.685442483902584 8.654860000000001
49.70997813385706 8.60237
49.734516217597076 8.59963
49.75924846937352 8.62274
49.7837914452858 8.55781
49.80833686055187 8.5585
49.83288471702571 8.53864
49.85762682540054 8.53241
49.882179588965734 8.49075
49.9067347993235 8.46915
49.93129245833333 8.51117
49.95604445336378 8.483419999999999
49.98060703442832 8.45695
50.005172069746266 8.41212
50.02993150438364 8.4211
50.05450147301533 8.42169
50.07907390151433 8.391
50.10364879174981 8.34555
50.12841816587289 8.34167
50.1529980044635 8.357489999999999
50.17758031042124 8.318769999999999
50.20216508562089 8.30534
50.22694442953363 8.284360000000001
50.25153416817468 8.29796
50.27612638170508 8.24209
50.300721072005196 8.20764
50.325510416102105 8.24282
50.350110084975064 8.20921
50.37471223628208 8.19616
50.39931687190919 8.18769
50.424116246675766 8.14995
50.44872587605249 8.12684
50.47333799543065 8.12423
50.49795260670191 8.14172
50.52276204271512 8.0843
50.54738166295838 8.06632
50.57200378079314 8.089260000000001
50.596628398116835 8.06206
50.62144792604559 8.05627
50.646077567609396 8.032589999999999
50.670709714377715 8.03928
50.69553683636198 8.013739999999999
50.72017401885922 7.985060000000001
50.7448137122895 7.94469
50.76945591856022 7.96237
50.79429318636823 7.914789999999999
50.818940443716784 7.90057
50.84359021965163 7.898610000000001
50.868242516085964 7.89067
50.893089960641895 7.84865
50.917747323549435 7.8289100000000005
50.94240721271973 7.85415
50.96706963007175 7.813510000000001
50.99192728239342 7.81848
51.01659478166073 7.809819999999999
51.04126481489051 7.8092
51.06593738400761 7.788689999999999
51.090805275207074 7.74193
51.11548294172845 7.744560000000001
51.14016314993547 7.7595600000000005
51.164845901758845 7.71435
51.18972406304274 7.68986
51.21441192780656 7.6662300000000005
51.23910234200271 7.6455
51.2637953075678 7.635689999999999
51.288683770237945 7.63979
51.31338186432707 7.6188
51.33808251561888 7.57349
51.362978729967345 7.5739600000000005
51.387684521509755 7.5723899999999995
51.41239287610203 7.565919999999999
51.437103795691165 7.5507100000000005
51.46201036644977 7.513960000000001
51.486726441956634 7.46442
51.51144508832545 7.50345
51.536166307509156 7.464580000000001
51.56108326624387 7.43554
51.58580965706056 7.43461
51.61053862657523 7.3926
51.635270176746864 7.41582
51.66019755512065 7.4097800000000005
51.68493429268881 7.399430000000001
51.70967361681515 7.35221
51.73441552946465 7.37588
51.759353359237934 7.34435
51.7841004750961 7.30433
51.80885018539685 7.3042300000000004
51.833602492111254 7.31539
51.8585508051424 7.268339999999999
51.883308330926425 7.26883
51.90806845906181 7.1944
51.932831191525715 7.22297
51.95779001977161 7.19867
51.98255798721516 7.167210000000001
52.00732856494335 7.21858
52.03229530577543 7.1588199999999995
52.057071130455945 7.16062
52.081849571391054 7.126689999999999
52.106630630568695 7.100739999999999
52.13160794279417 7.0746
52.15639426492067 7.10694
52.18118321127822 7.103
52.205974783860896 7.05875
52.23096269971011 7.02365
52.255759551287994 7.003889999999999
52.280559035098186 7.0238
52.30536115314103 7.0168
52.33035970494467 7.011239999999999
52.35516711807904 6.96586
52.37997717147198 6.984260000000001
52.40478986713005 6.984039999999999
52.42979908731974 6.929860000000001
52.454617094216 6.93734
52.47943774942214 6.902089999999999
52.50426105495102 6.90532
52.529280976059844 6.82967
52.554109609024096 6.8834
52.57894089837482 6.86003
52.60377484613117 6.81955
52.62880550079408 6.86221
52.65364479223379 6.8334
52.67848674816189 6.799689999999999
52.70352547971946 6.799169999999999
52.72837279155837 6.73998
52.753222773982785 6.70229
52.778075429022984 6.73653
52.80312495150885 6.735939999999999
52.827982978797436 6.677960000000001
52.85284368481815 6.680860000000001
52.87770707160767 6.66285
52.90276741793998 6.63497
52.92763619336701 6.63457
52.952507655698504 6.614089999999999
52.977381806977576 6.63381
53.00245301017842 6.6033
53.02733256653592 6.618360000000001
53.052214817996074 6.578639999999999
53.077099766608484 6.57177
53.102181859804446 6.56434
53.127072229988265 6.555460000000001
53.15196530349892 6.52018
53.17686108239249 6.52274
53.20195409881522 6.49359
53.22685531582556 6.47095
53.25175924441303 6.458069999999999
53.27666588664027 6.44416
53.30176985962693 6.47527
53.3266819565689 6.40032
53.35159677336455 6.34271
53.376514312083096 6.402419999999999
53.40162927507703 6.39858
53.42655228516116 6.38783
53.45147802340193 6.32415
53.47660125628886 6.35875
53.50153247842639 6.348669999999999
53.52646643496923 6.29018
53.55140312799818 6.3223199999999995
53.576537409691696 6.30072
53.60147960336152 6.28103
53.626424539786164 6.28437
53.65137222105307 6.21915
53.67651758529126 6.195130000000001
53.70147078399681 6.17662
53.72642673383343 6.23642
53.75138543689533 6.20495
53.776541917524526 6.1686
53.801506154876755 6.159619999999999
53.826473151763246 6.16055
53.851442910284916 6.0915300000000006
53.87661054126026 6.13408
53.9015858509782 6.11798
53.92656392866066 6.0925400000000005
53.95154477641532 6.129980000000001
53.976723591801296 6.053719999999999
54.00171000771266 6.040430000000001
54.02669920004598 6.02289
54.051691170915745 6.03759
54.076881204886796 6.0194
54.101878760928514 6.00274
54.12687910187696 5.99333
54.152077577768296 5.9787
54.1770835166946 5.96823
54.20209224691339 5.95031
54.22710377055121 5.935309999999999
54.25231352511594 5.91485
54.27733066384342 5.87096
54.30235060239643 5.932169999999999
54.32737334290836 5.8866
54.35259441062629 5.80342
54.377622783395324 5.78948
54.40265396455061 5.8335300000000005
54.42768795623251 5.82107
54.45292037169559 5.79715
54.477960012857906 5.7609
54.50300247099511 5.7535300000000005
54.52804774825457 5.73986
54.55329154616743 5.72735
54.57834249018678 5.7145
54.6033962597977 5.65551
54.6284528571545 5.64356
54.653708072335164 5.57987
54.67877035378786 5.64432
54.70383546947698 5.60663
54.72890342156389 5.56215
54.7541700889442 5.5369
54.77924374251975 5.498069999999999
54.8043202390049 5.4981599999999995
54.82959552413022 5.4629
54.8546777351945 5.48104
54.87976279569621 5.45233
54.90485070780914 5.47879
54.930137506558005 5.38954
54.95523115074295 5.4204
54.98032765308844 5.42251
55.005427015775496 5.32606
55.03072536339621 5.28228
55.05583047570572 5.2948
55.080938454927676 5.2943
55.10604930325027 5.29327
55.131359235107396 5.27707
55.15647585066083 5.26034
55.181595341907496 5.21453
55.20671771104285 5.18365
55.232039262617704 5.13856
55.25716741665048 5.1294900000000005
55.28229845518636 5.14356
55.30743238042802 5.065580000000001
55.33276558731939 5.1018099999999995
55.357905315183636 5.0988
55.383047936390035 4.984030000000001
55.40819345314859 4.9726
55.433538351073295 4.95878
55.458689688238415 4.98097
55.483843927614096 4.92399
55.509197623043605 4.9374
55.53435769621134 4.88504
55.55952067826466 4.8834599999999995
55.5846865714265 4.849419999999999
55.61005202069737 4.85093
55.63522376553902 4.846
55.66039842818645 4.7705400000000004
55.68557601087004 4.801830000000001
55.7109532500271 4.752330000000001
55.73613670233794 4.7881599999999995
