TT I
1.2716486653135266 6.86793
1.2939594142134223 6.25082
1.3162702121660406 6.25499
1.3385810600174564 6.2292
1.3608919586137629 6.671130000000001
1.383202908801069 5.98851
1.405513911425503 6.1432400000000005
1.4278249673332093 6.51092
1.4501343378461518 6.16681
1.4724455028545926 6.24322
1.4947567236847858 5.09164
1.517068001182951 5.2309
1.5393793361953272 5.71756
1.5616907295681737 5.27616
1.5840021821477681 5.39729
1.60631369478041 5.18993
1.6286252683124185 4.361669999999999
1.6509369035901333 4.57149
1.6732468618895553 4.8324
1.695558623192809 4.52416
1.7178704487808514 4.856990000000001
1.7401823395001077 4.42189
1.7625012545597203 4.57071
1.7848028405262486 4.24389
1.8071218901122095 3.69516
1.8294236121921872 3.5992800000000003
1.8517427996910911 4.3101400000000005
1.8740620574440425 3.90741
1.8963639900671978 4.440869999999999
1.9186833908139995 4.54609
1.9409854680117449 4.7721599999999995
1.9633050151394713 4.69843
1.9856246367570705 4.21917
2.0079269371922672 4.05616
2.03024671027244 3.88429
2.0525491637446027 3.93585
2.074869091674931 3.98639
2.097171701569106 3.9620599999999997
2.1194917877373847 4.47396
2.141811954326636 3.9407300000000003
2.164114805233074 3.9162199999999996
2.186435135143035 3.97991
2.208738150935709 5.2234300000000005
2.231058647554722 6.39812
2.2533792288321184 5.686640000000001
2.275682498336085 5.37889
2.298003251406138 4.62363
2.3203066942619714 5.06105
2.3426276225136022 5.05661
2.3649486396617507 5.75973
2.387252348930071 5.502190000000001
2.4095735463442893 5.54448
2.4318774374315884 5.95886
2.4541988185014043 5.93914
2.476502894794693 6.901739999999999
2.498824462909887 7.2137199999999995
2.521146125856138 7.08893
2.5434504863470337 6.8947899999999995
2.5657723414244717 7.96715
2.588076895590662 8.58442
2.610398946189713 8.44383
2.6327210958598384 7.85353
2.6550259469304716 8.00742
2.6773482972090137 8.587819999999999
2.6996533504259 8.58987
2.7219759047039602 8.79425
2.744298562293959 9.015939999999999
2.7666039251246595 8.246739999999999
2.7889267918020164 8.40213
2.8112323652516555 7.814989999999999
2.833555444408179 8.649469999999999
2.8558786311183852 8.624260000000001
2.8781845268938557 8.68549
2.9005079311721484 9.23682
2.9228140460410397 8.7017
2.9451376712799635 9.48821
2.967444008632326 9.81969
2.9897678582247247 10.1933
3.0120918213106695 10.3644
3.0343984987899373 9.97588
3.0567226913198637 10.8742
3.079029599759726 11.4311
3.101354025127254 12.0127
3.123678568232338 12.6196
3.145985829517914 12.7649
3.16831061055229 13.0015
3.1906181112775593 14.0723
3.212943133635653 14.3149
3.2352682779763207 14.7997
3.2575761442691227 14.9084
3.2799015350264273 15.0428
3.302209649240067 15.5025
3.3245352898092655 16.1726
3.3468436553365257 16.5925
3.369169549113219 16.8144
3.3914955708171384 17.7528
3.413804319727358 18.3928
3.4361305997334863 18.6774
3.4584396084414553 18.8485
3.4807661501462652 19.0072
3.503092824025881 19.7984
3.5254022288463154 20.1483
3.5477291695206588 20.4962
3.5700388426251948 20.7902
3.5923660534916446 21.5216
3.6146934007816114 22.3853
3.637003482731501 27.5308
3.6593311053109985 30.0423
3.681641464033634 26.4733
3.7039693653009733 23.7824
3.726297407241705 24.0087
3.7486081875460804 23.962
3.7709365132734978 24.6569
3.793247578841633 25.1005
3.8155761917550093 25.8851
3.8378875459837216 25.9341
3.8602164494827234 25.8985
3.882545499606844 26.6811
3.9048572932539183 27.2542
3.9271866390645718 27.6508
3.9494987298666713 27.8851
3.971828374764527 28.673000000000002
3.9941581705403255 29.5246
4.016470713506008 29.6493
4.038800813471445 29.9766
4.061113662089144 30.6564
4.0834440696459176 32.1526
4.105774632334751 31.4157
4.128087945865126 32.6493
4.150418821249301 32.8244
4.172732448931298 34.109
4.195063640413578 34.5976
4.2173775856475215 35.6095
4.239709096631102 37.7949
4.262040768704612 51.9448
4.284355196706267 63.3226
4.306687193387355 55.9436
4.329001947444346 43.9649
4.35133427213731 40.419000000000004
4.373666762177566 40.5651
4.395982011761091 40.954
4.418314834921175 41.8716
4.44063041906622 43.5846
4.4629635787515625 45.0573
4.4852969080429785 46.2912
4.5076130004776225 45.9074
4.529946671403969 46.6172
4.552263106909177 47.6071
4.574597122877047 48.7184
4.596931312711224 49.6128
4.619248269273446 50.6817
4.6415828092605835 51.992
4.663900117405352 53.0418
4.686235010953232 54.4835
4.708552674085913 55.4239
4.730887924602802 56.7156
4.753223354952695 58.0136
4.775541557023902 59.8073
4.797877349456786 61.1926
4.820195915032126 62.8501
4.842532072957498 64.4866
4.864868414979744 66.4691
4.88718753227192 68.4921
4.909524244902505 69.8809
4.931843734218147 71.3343
4.954180820867835 74.2616
4.976518095879839 77.1507
4.998838149695359 79.6988
5.021175803844231 83.1764
5.043496238205739 86.0332
5.065834274903528 90.11200000000001
5.088172504230693 94.2445
5.1104935158799565 98.0989
5.132832132875765 105.652
5.155153533596801 118.561
5.1774925416746225 137.94299999999998
5.199814334878411 233.048
5.2221537374521505 821.12
5.244493338631803 2563.65
5.266815727034316 7320.44
5.289155727832427 13749.0
5.311478517248165 9760.87
5.333818921080011 3324.82
5.356159527788849 657.8380000000001
5.3784829252032536 199.96099999999998
5.400823940070432 142.63
5.423147747031976 123.509
5.445489173474152 113.333
5.467830807066149 108.24799999999999
5.490155234831516 103.919
5.512497285125229 101.321
5.534822130975162 99.2103
5.557164601388673 97.5524
5.579489868738879 94.9576
5.601832762690846 93.3934
5.6241758697774475 92.2336
5.646501775867269 91.3008
5.668845311622074 91.0088
5.691171647754637 89.9077
5.713515615597765 88.6011
5.735859800852677 88.18799999999999
5.758186788542988 87.3102
5.780531411018185 87.5996
5.802858837297399 87.1433
5.825203900414495 87.0241
5.8475491852224 87.0245
5.869877275883075 87.4128
5.892223006467101 88.3403
5.914551544266608 88.8547
5.936897724049891 91.2978
5.959244129804903 95.4291
5.981573344815301 107.147
6.0039202049061 166.06099999999998
6.026249875609095 399.645
6.04859719346037 900.9060000000001
6.070927323278297 2065.82
6.093275102315365 4470.56
6.115623113320588 5521.74
6.137953938319995 3646.21
6.160302415650845 1082.8
6.182633708324452 240.282
6.2049826554078376 109.429
6.227331838745022 86.8515
6.249663839443684 79.8377
6.27201349767565 76.2412
6.294345974611799 74.2969
6.316696111167083 73.3018
6.339046488263839 71.9305
6.361379686074702 68.8361
6.383730546639482 66.5545
6.406064229255215 64.9574
6.428415576718203 64.6101
6.450749747566656 63.8027
6.47310158535871 62.8381
6.495453669698332 62.3678
6.517788579421056 61.4592
6.540141159237969 60.3524
6.562476565766648 59.2594
6.5848296444934045 58.9595
6.607182974060425 58.5313
6.6295191323281015 58.2254
6.651872965955752 57.5222
6.6742096296068985 58.605
6.6965639707294615 63.495
6.71891856698715 63.9691
6.741255995248479 60.1989
6.763611104154477 56.729
6.785949046381137 55.5099
6.808304671371482 54.5401
6.8306605557940046 54.5267
6.852999275508618 54.0094
6.875355681171544 53.7471
6.897694923437771 53.4887
6.92005185377892 53.3904
6.9423916220322655 53.461999999999996
6.964749080490181 52.728
6.987106804399774 52.6698
7.009447368180821 52.4769
7.031805625367033 52.4301
7.054146723727803 52.3868
7.076505517631004 52.2599
7.098864581288365 52.2787
7.121206488070854 51.7618
7.143566093607822 51.5133
7.165908543567245 51.907
7.188268694426048 51.4285
7.2106291193438095 51.2529
7.232972390625943 51.1943
7.255333366030969 51.6056
7.277677189091925 55.7084
7.300038718428332 62.0238
7.322400526130865 61.2202
7.344745183422596 55.8544
7.367107550224791 52.2749
7.389452767901992 51.6071
7.411815697249891 51.5764
7.434161478756298 51.3471
7.456524974096713 51.3807
7.478888753837185 51.1033
7.501235387657368 52.8898
7.523599738562711 57.6531
7.545946944825532 66.5596
7.568311870344528 69.6399
7.5906770845765665 62.897
7.613025156078678 55.8789
7.635390950099687 53.7013
7.657739602662809 53.0448
7.680105979923558 52.7981
7.702472650212829 53.0026
7.724822180948224 52.9182
7.747189439655568 53.1296
7.769539560075357 53.3292
7.791907410653562 53.7038
7.81425812420825 53.5852
7.836626570110925 54.0734
7.858995315087906 55.0922
7.881346924933401 55.0009
7.903716270417482 55.3931
7.926068482028405 55.70399999999999
7.948438431475253 56.2011
7.9708086843180235 56.9227
7.993161805171116 57.434
8.015532667162402 57.7723
8.037886398416653 58.6817
8.060257873014221 59.2482
8.082629655331942 59.86600000000001
8.104984308787587 60.4568
8.127356708900503 61.4154
8.149711981398308 62.5866
8.172085002766314 63.7549
8.194458336181368 64.2939
8.216814543847752 64.5747
8.23918850371002 66.0902
8.26154533906492 67.146
8.283919928836452 68.3891
8.306277395339652 69.3934
8.328652618483376 70.5192
8.351028159736202 72.5919
8.373386579575245 74.5214
8.395762759396959 75.9877
8.418121819038275 78.4201
8.440498640894003 82.1831
8.462875785192262 86.5067
8.485235811156207 94.6474
8.507613602688501 129.416
8.529974277114228 233.92700000000002
8.552352719347912 387.43199999999996
8.574731488360351 629.9830000000001
8.59709314210385 1119.54
8.619472567021075 1873.13
8.64183487789147 2317.68
8.664214962183097 1988.22
8.686577933647762 1103.04
8.708958680784317 415.972
8.731339760774953 172.345
8.753703729764451 108.9
8.77608547780821 94.8934
8.798450116065078 91.5368
8.820832535634787 88.7102
8.843215292401656 86.9275
8.865580941199045 85.7086
8.887964374703538 84.8496
8.910330701447199 83.9468
8.932714815164482 83.6089
8.955099270424924 82.8154
8.977466620733543 81.6352
8.999851761421976 81.3574
9.022219798361645 80.4665
9.04460562795561 80.2313
9.066991803441677 79.6888
9.089360876979615 79.6117
9.111747746589993 79.7571
9.13411751544971 78.7426
9.156505082664324 79.1398
9.178875550323522 79.3513
9.20126381862328 81.4191
9.223652438908596 89.655
9.246023961427412 102.927
9.26841328802173 107.443
9.290785518039224 98.7961
9.313175554425882 87.0191
9.335565947154315 81.0345
9.357939245086508 79.9629
9.380330352834827 79.8714
9.40270436697103 80.2012
9.425096193225055 80.2383
9.447488380180165 80.5939
9.469863475295412 80.8934
9.492256385987508 81.3264
9.514632206018318 81.828
9.537025843935714 82.3186
9.559402392368193 82.6767
9.581796761000229 83.2561
9.604191496441521 84.0263
9.626569144158516 84.6115
9.648964615551032 85.6797
9.671343000390081 86.7394
9.693739211225699 87.3992
9.716135793237463 87.8345
9.738515290448102 88.8745
9.760912617143402 90.0634
9.783292860202891 91.2041
9.805690935076182 92.5034
9.828089385495742 92.7137
9.850470754023561 94.1784
9.872869957865444 96.213
9.89525208097539 99.7065
9.917652041736662 103.23100000000001
9.940052382417589 106.473
9.962435644102392 115.59200000000001
9.984836746950979 148.82399999999998
10.007220771957746 230.343
10.029622640473708 354.472
10.052007432299963 526.681
10.074410069984072 785.2389999999999
10.096813093716005 1208.43
10.119199042482517 1763.54
10.141602840636468 2085.61
10.163989564971628 1695.63
10.186394141051062 1001.63
10.208799107559706 434.62199999999996
10.231187001965623 196.67700000000002
10.253592751657669 124.186
10.275981430388155 107.301
10.298387966769793 103.204
10.320794897965431 102.353
10.343184759907361 101.15799999999999
10.36559248305461 99.4417
10.387983138083852 98.2958
10.410391656691655 99.4104
10.432800574501677 108.906
10.455192425893369 131.07399999999998
10.47760214443012 163.404
10.499994797678786 206.65
10.522405320453982 277.06
10.54479877906917 390.256
10.567210109595656 516.283
10.5896218454736 598.038
10.612016518879773 574.493
10.634429067781074 395.866
10.656824555333241 228.75799999999998
10.679237920773568 140.453
10.701651695961992 102.97200000000001
10.724048411481384 91.8017
10.746463008485165 85.9529
10.768860546937125 82.4733
10.791275969274796 80.0745
10.81369180576079 78.7415
10.836090585366925 77.8563
10.858507252467449 76.4403
10.88090686379991 75.8564
10.903324365036394 74.9303
10.925724811614439 73.5565
10.948143150509463 73.5398
10.970561909719066 72.6591
10.992963615930844 71.6701
11.015383218085756 70.6626
11.037785768347074 69.8119
11.06020621697282 69.3565
11.082627090322113 69.1808
11.105030913430326 68.4411
11.12745263854165 68.2795
11.149857314510728 67.4932
11.172279894912576 67.8183
11.194702904450653 67.4928
11.217108866490921 66.4927
11.239532736615194 65.7415
11.26193956033512 65.2969
11.284364294577085 65.1519
11.306789462371718 64.3017
11.329197585398376 63.902
11.351623622610898 64.2881
11.37403261614354 63.4878
11.396459526308487 63.2505
11.418869393879497 62.8566
11.441297180532617 62.3288
11.463725406927658 61.9557
11.486136592353875 61.6608
11.508565700543707 61.5272
11.530977768845315 61.692
11.553407762368774 61.3856
11.575838200059769 61.3899
11.598251599479612 61.1028
11.620682927815501 60.7066
11.64309721895548 60.7473
11.665529441478206 60.6582
11.687962112597958 60.3568
11.710377748130886 60.4398
11.732811318753434 60.0791
11.755227854859067 59.9484
11.777662328529495 59.7788
11.800079768750786 59.6778
11.822515149015453 59.6355
11.844950984084935 60.2474
11.867369787303163 59.9633
11.889806534289491 60.5239
11.912226250487029 61.8518
11.934663912939751 64.64399999999999
11.9571020346363 66.8261
11.979523127133968 67.2563
12.001962169624331 65.5249
12.024384183972964 63.8298
12.046824150809913 64.4258
12.069264581333726 70.2631
12.091687985297767 77.9002
12.11412934550045 87.3993
12.136553680195208 100.52600000000001
12.158995973632788 121.758
12.181438735204349 147.48
12.20386447284199 179.738
12.226308172985636 201.37
12.24873485024193 207.476
12.271179492516982 173.28900000000002
12.293607112949127 132.35299999999998
12.316052700916226 95.441
12.338498763250042 73.2111
12.360927805303868 64.8161
12.383374818673879 62.3205
12.405804812803074 61.3852
12.428252780773262 61.4329
12.45070122756722 61.4532
12.473132656675375 61.3494
12.49558206341869 61.4966
12.518014453510101 61.4693
12.540464823770117 61.5732
12.562915677315177 61.8013
12.58534951575545 62.3119
12.607801338171472 62.2512
12.630236146511358 63.0498
12.652688941369085 63.79
12.675124723177234 63.8839
12.697578494048786 64.3159
12.720032754458185 64.1597
12.742470003354093 64.3739
12.764925245138771 64.8728
12.787363476431278 65.3015
12.809819703166806 65.6714
12.83227642391173 66.282
12.854716135692716 66.7772
12.877173846755147 67.8406
12.899614549869717 68.4486
12.9220732548287 69.0254
12.94453245827299 69.2441
12.966974655289818 70.5341
12.989434858002571 71.2835
13.011878055298721 71.9047
13.034339260862497 73.1212
13.056800969391883 74.3113
13.079245674017244 76.8313
13.101708390774869 78.4448
13.12415410463411 82.5696
13.146617833206086 93.1732
13.169064559883248 108.836
13.191529303857127 127.51799999999999
13.213994557076367 150.442
13.236442809902437 184.19799999999998
13.258909083908291 232.95
13.28135835851934 295.79
13.30382565690295 373.85
13.326293469022952 443.286
13.348744283242008 450.048
13.371213125129904 378.256
13.39366497011003 276.658
13.416134845360597 180.80900000000003
13.438605238843131 124.899
13.46105863690397 101.829
13.483530069144786 99.2963
13.505984506951902 107.934
13.528456981549432 121.531
13.550929978879088 137.67700000000002
13.573385983253365 159.10399999999998
13.595860028340867 191.636
13.618317081455832 238.84900000000002
13.64079217790333 301.675
13.663250283359057 359.662
13.685726434770173 391.722
13.708203115221277 357.37800000000004
13.730662806148091 286.47900000000004
13.75314054697177 203.611
13.775601299246777 137.454
13.798080104050406 99.3837
13.820559442405358 84.2644
13.843021793671388 79.4076
13.865502201420897 77.3118
13.887965623051947 76.9547
13.910447103807167 75.9621
13.932929122629764 74.6664
13.955394156785959 74.3891
13.977877254034569 73.5507
14.000343367582113 72.792
14.022827546871707 72.2429
14.045294743423524 71.4841
14.06778000837062 70.89399999999999
14.090265817715476 71.263
14.112734645763819 71.7088
14.13522154619454 73.0719
14.157691466286913 74.3007
14.180179461423874 74.5794
14.202668005486178 72.824
14.22513957064374 70.5623
14.247629214846473 68.6538
14.270101881097517 68.0712
14.29259262906496 67.6243
14.315083930490205 67.6306
14.337558255389705 67.28399999999999
14.360050666019726 67.3211
14.382526101071944 67.11399999999999
14.405019624534942 66.7905
14.427513705993134 66.5101
14.449990813291825 66.5941
14.47248601302899 66.3971
14.49496423954951 66.5335
14.517460561197822 66.5422
14.539939910570322 66.3548
14.562437357763558 66.2951
14.58493536931253 66.9361
14.607416409993311 66.8105
14.62991555254159 67.2126
14.652397725157423 67.4151
14.674898002342799 67.559
14.697398848433282 67.6139
14.719882725991326 68.4951
14.74238471217934 68.8646
14.764869730765593 70.9448
14.787372860692983 74.8255
14.809876564079925 81.6561
14.83236330125751 89.7069
14.854868153850365 98.6505
14.877356041159485 111.445
14.899862046604186 127.211
14.922351087688757 150.36700000000002
14.944858249632887 181.195
14.967365991421232 209.74200000000002
14.989856770231246 228.74
15.012365673994204 226.13
15.03485761569738 197.918
15.05736768508665 157.026
15.07987833888692 119.791
15.102372032001655 93.1391
15.124883856909658 77.2728
15.14737872204565 71.0306
15.169891721717274 68.789
15.192405310371893 68.0842
15.214901940621196 67.3691
15.237416709527137 66.7129
15.259914520936249 66.5366
15.282430473753607 65.8792
15.304947020131227 65.3815
15.327446610371178 64.9762
15.349964346154254 64.6154
15.372465126703139 64.5377
15.394984055556009 64.454
15.417486030076159 64.2783
15.44000615566487 63.81399999999999
15.462526881230803 63.7718
15.485030653812652 63.63399999999999
15.507552581617434 63.3946
15.530057557334603 63.5238
15.55258069104857 63.7828
15.575104429329837 64.0304
15.597611216864632 63.7564
15.620136166564563 63.6364
15.6426441664095 64.1518
15.665170331202765 65.1349
15.687697105158826 68.9447
15.710206930593545 74.1525
15.732734925158933 80.5106
15.755245972089478 87.5518
15.77777519094324 96.0496
15.800287463046663 107.512
15.822817909869592 124.281
15.84534897229804 144.805
15.867863089299354 170.199
15.890395385222186 191.632
15.912910736597423 202.502
15.935444269699861 193.834
15.957978423016485 167.442
15.980495633101265 133.471
16.003031029129367 103.00299999999999
16.02554948280019 80.6666
16.048086125229432 68.9355
16.070623392487107 64.4253
16.09314371869582 62.5926
16.11568223789321 61.0195
16.13820381691126 59.8195
16.160743591742527 58.9373
16.183283996022084 58.4628
16.205807461423195 57.6544
16.228349126881973 56.9915
16.25087385432698 56.8702
16.27341678466365 56.354
16.29594277784926 56.1581
16.31848697676433 55.8007
16.341031811604868 55.315
16.36355971058487 55.1528
16.3861058195587 55.0482
16.40863499352978 54.4916
16.431182380342005 54.50899999999999
16.453730407713202 53.9713
16.476261501364792 53.8339
16.498810812136167 53.6448
16.52134319004079 53.7563
16.54389378792203 53.5514
16.566445031001553 53.5173
16.588979342490088 53.3044
16.61153187824822 53.4034
16.634067483263312 53.0816
16.656621315414416 52.8631
16.679175797408888 52.7053
16.701713349928728 52.74
16.72426913389191 52.8822
16.74680798922351 53.105
16.76936507887444 52.8231
16.791905240734874 52.9067
16.814463639794468 52.9245
16.837022695210294 52.7659
16.859564824093756 52.9996
16.882125194503903 53.3075
16.904668639217885 53.6834
16.927230328348003 53.7969
16.949792678493612 54.0927
16.972338104193863 54.1363
16.994901778652235 53.9802
17.017448529496576 53.8769
17.040013531998152 54.0388
17.06257920018044 54.2338
17.0851279459922 55.1082
17.107694947817667 56.1273
17.130245028099072 57.2697
17.15281336730298 58.7222
17.17536478578733 60.3782
17.19793446610687 62.4777
17.220504818648422 65.1412
17.243058251703697 68.0194
17.265629950971032 72.8683
17.288184731571736 77.7655
17.310757781306908 82.053
17.33333150794385 83.8765
17.355888317140174 83.0808
17.37846339986244 78.4691
17.401021565958885 71.9316
17.42359800851343 65.9771
17.44617513265564 61.3085
17.468735341390783 58.8078
17.491261035594565 57.7243
17.51396340099364 57.3355
17.536490463869136 57.4011
17.559018209820174 57.2421
17.58154663977963 57.5646
17.604251766089718 57.6801
17.626781572227713 57.8353
17.64931206518155 58.0175
17.671843245885103 58.2697
17.69455114821572 58.4425
17.717083712612634 58.8755
17.739616967569667 59.5705
17.762150914021706 60.0345
17.78486160749854 60.2877
17.807396945166804 60.8513
17.829932977143503 61.2288
17.85246970436452 62.0786
17.875183204129467 63.615
17.897721330097664 66.8795
17.920260154126645 70.4576
17.942799677153296 74.1463
17.9655159983646 77.9448
17.988056927677544 82.9214
18.010598558807683 89.3156
18.033140892692916 98.3145
18.05586005052525 109.46600000000001
18.07840379824407 121.822
18.10094825154059 133.106
18.12366954819864 142.35299999999998
18.146215420998306 143.898
18.16876200220057 137.554
18.191309292745153 123.15899999999999
18.214033452627167 108.29299999999999
18.236582170236648 95.3897
18.259131600016456 88.3083
18.281681742907335 86.1368
18.304408781233683 89.3877
18.32696035875955 94.4017
18.349512652227624 99.5285
18.372065662579683 105.461
18.394795594587553 107.15799999999999
18.41735004715306 104.2
18.43990521943684 97.8639
18.46246111238171 88.2301
18.485193953325208 78.1551
18.507751296070428 70.222
18.530309362314178 65.3915
18.552868153000343 62.7699
18.57560391815056 61.2651
18.59816416623245 60.943999999999996
18.620725141597372 60.1455
18.643286845190268 59.5781
18.666025549835414 59.1199
18.688588718427933 58.3019
18.711152618092243 58.0944
18.73389353884365 58.04
18.75645890921984 57.39
18.77902501351406 57.0912
18.801591852673102 57.2561
18.824335739722738 56.6338
18.846904057212626 56.5202
18.8694731124168 56.1501
18.89204290628315 56.1928
18.914789774966803 55.9985
18.937361054791623 55.6184
18.959933076131318 55.4473
18.982505839934877 55.4462
19.00525570560582 55.575
19.027829963004184 55.2404
19.05040496572238 55.053000000000004
19.072980714710468 55.0676
19.095733592739563 55.1477
19.11831084296757 55.6345
19.140888842324735 56.0129
19.16346759176222 56.5089
19.18622349753803 57.2446
19.208803755869358 58.233000000000004
19.231384767143577 59.4486
19.253966532312948 60.8979
19.276725481241822 63.0407
19.29930876296784 65.8736
19.3218928014549 69.2079
19.34465404436217 71.9315
19.36723960516257 74.8886
19.389825925592426 75.7537
19.412413006605938 74.8971
19.43517731967805 71.9873
19.457765930683355 67.7779
19.48035530514408 63.3444
19.50294544401556 59.3827
19.525712842708348 56.2493
19.54830451925909 54.4571
19.570896963095727 52.9579
19.593490175174704 52.6137
19.616260674962184 52.5429
19.638855432416964 52.2142
19.661450960992624 52.4035
19.68404726164677 52.1807
19.706820878021247 51.8876
19.729418731756834 52.2609
19.752017360452857 52.1374
19.77461676506804 52.2652
19.797393513540218 52.0273
19.819994478951667 52.1799
19.84259622316767 52.6427
19.8651987471481 53.4462
19.887978643247177 53.8867
19.91058273574792 54.4454
19.933187610901943 55.431999999999995
19.955969879466828 56.535
19.97857632894404 57.7568
20.00118356396599 59.2601
20.023791585494575 61.3048
20.046577028914875 64.0572
20.069186632506966 66.7392
20.091797025500632 69.1112
20.114408208858933 70.431
20.137196842715273 70.6327
20.159809615886765 69.1138
20.18242318232135 66.7619
20.20503754298326 64.2862
20.227829382875154 62.4485
20.250445341109344 61.8318
20.27306209647285 62.2455
20.29567964993108 63.646
20.31847471147704 64.5426
20.34109387027612 65.5863
20.363713830075454 65.2077
20.386334591841646 64.0584
20.409132890679302 61.4737
20.431755265564437 58.0976
20.454378445325528 55.0613
20.477002430930366 52.801
20.499803982716553 51.2131
20.522429589228004 50.1044
20.54505600449589 49.5095
20.567683229489194 49.4423
20.590488049900088 49.1893
20.61311690359731 49.0212
20.63574656993626 48.8455
20.658553853717297 48.5335
20.681185154618298 48.5494
20.703817271080066 48.3379
20.72645020407368 48.0717
20.749260783967177 48.0076
20.771895359337133 48.2719
20.794530754161617 48.137
20.817166969412938 48.0801
20.83998086114876 47.8673
20.86261872660049 47.7099
20.885257415405402 47.5586
20.90789692853701 47.6514
20.930714147864748 47.4424
20.953355319030678 47.479
20.97599731745334 47.5061
20.99864014410749 47.4396
21.021460706796564 47.3482
21.044105199328826 47.7535
21.06675052302631 47.9917
21.089396678865015 48.1311
21.112220600704806 48.2292
21.134868430275347 48.6962
21.15751709492456 48.9549
21.180166595629693 49.3075
21.202993892429635 49.8045
21.22564507473034 50.2913
21.24829709602816 50.7065
21.27112693608965 50.7316
21.293780644891275 50.5226
21.316435195634053 49.8781
21.339090589297417 49.2151
21.361923832041875 48.7847
21.384580921090404 47.9685
21.407238856007325 47.4657
21.429897637773326 47.3846
21.45273429906592 47.3826
21.475394784108598 47.181000000000004
21.498056118951983 47.1675
21.520718304578022 47.5459
21.543558400304388 47.5012
21.566222297108816 47.6232
21.58888704765135 47.6687
21.61155265291521 47.9259
21.63439619898156 48.6083
21.657063523335786 48.9968
21.67973170537063 49.6721
21.7024007460706 50.317
21.72524775840385 50.8965
21.747918526116475 52.0353
21.770590155457388 53.0317
21.79326264741238 54.3522
21.816113141960237 56.2743
21.838787368860547 58.3073
21.861462461341976 60.5425
21.884315579735777 63.0964
21.90699241312273 64.574
21.92967011506078 65.4029
21.95234868653799 65.1741
21.9752053151131 64.0276
21.997885635446785 61.9796
22.020566828293532 59.9401
22.04324889464272 57.8881
22.066109049404666 56.6391
22.088792872571794 55.8736
22.111477572219204 55.8697
22.1341631493376 56.2244
22.157026846313123 56.053000000000004
22.179714188221507 55.416000000000004
22.202402410582668 54.1242
22.22509151438863 52.433
22.24795876962584 50.9712
22.270649646204486 50.0537
22.293341407213727 49.2034
22.316034053646906 48.5337
22.338904883215342 47.9826
22.36159931041458 48.1026
22.38429462602756 47.9589
22.40699083104897 47.523999999999994
22.429865251039757 47.4709
22.452563244831367 47.6165
22.47526213102522 47.6841
22.49813925616515 47.5633
22.520839937143307 47.4279
22.543541513520587 47.6046
22.56624398629403 47.5608
22.589124730075895 47.4796
22.611829005656723 47.5642
22.63453418063466 47.4619
22.657240256008077 47.6685
22.680124634582935 48.1411
22.70283252079775 48.5381
22.725541310413075 48.8387
22.74825100442868 49.0981
22.771139033969575 49.675
22.79385054687155 50.0141
22.81656296718292 50.6837
22.83927629590484 51.2229
22.862167992606945 52.2556
22.88488314827121 53.4089
22.907599215359284 54.3733
22.93031619487366 55.7278
22.953211574954405 56.8297
22.975930389478226 57.7037
22.998650119445763 58.001999999999995
23.02137076586092 57.4739
23.044269845560063 56.339
23.06699233506288 54.7807
23.089715744034912 52.8204
23.112617610931565 50.9575
23.135342869061212 49.4328
23.158069049684816 48.6033
23.1807961538087 48.0523
23.20370174880544 47.7778
23.226430710184808 47.9781
23.249160598093425 47.9225
23.271891413539002 47.7712
23.294800752937697 47.8782
23.31753343374794 48.3534
23.340267045128353 48.6191
23.36300158808808 49.2037
23.38591468821339 49.3091
23.408651104658304 50.1042
23.431388455719986 50.5722
23.454126742409 51.3646
23.4770436196085 52.4274
23.499783787914662 53.6724
23.522524894889884 54.5952
23.54526694154616 55.857
23.56818761219047 57.2054
23.59093154860734 57.9335
23.613676427751283 58.5211
23.636422250635754 57.8881
23.659346731118656 56.2877
23.68209445191868 54.418
23.704843119509587 52.0896
23.72759273490623 49.9737
23.750521041644767 48.2334
23.77327256312355 46.831
23.796025035462787 46.0728
23.818956224555475 45.5029
23.841710609113413 45.2811
23.86446594758979 45.0009
23.887222241002014 44.6598
23.910157285144578 44.4855
23.932915498962537 44.482
23.955674670778713 44.2423
23.978434801611975 44.0013
24.001373717286125 43.9445
24.024135776723917 43.977
24.046898798245582 43.5747
24.06966278287146 43.497
24.092605586582614 43.3101
24.115371508023642 43.1021
24.1381383956401 43.0631
24.16090625045381 43.1516
24.183852958731244 42.8996
24.206622758582608 42.6911
24.229393528706886 42.6864
24.252165270127392 42.7922
24.27511589952438 42.6517
24.297889594216997 42.4866
24.32066426328598 42.3062
24.34343990775613 42.4819
24.36639447485003 42.3075
24.38917208083877 42.2823
24.41195066531332 42.2501
24.43490819850244 42.2118
24.457688750692377 42.1108
24.48047028445616 42.056000000000004
24.503252800821233 42.1656
24.526214300784112 42.3075
24.548998793132213 42.31
24.57178427117417 42.2441
24.59457073593893 42.2444
24.617536219319863 42.1654
24.64032466834748 42.0832
24.663114107195035 42.1434
24.685904536893013 41.7901
24.708874020360852 41.7263
24.731666442613744 41.6313
24.754459858818787 41.4841
24.777254270007962 41.3772
24.80022777025625 41.3147
24.82302418230472 41.3752
24.845821592443674 41.4408
24.86862000170663 41.4864
24.891597535453727 41.2994
24.914397953892728 41.4738
24.93719937456671 41.5288
24.96000179851076 41.5541
24.98298338249997 41.8308
25.00578782394922 41.905
25.028593271784167 42.1515
25.05157790644186 42.6199
25.07438537804115 42.6331
25.097193859145293 42.8763
25.120003350792075 43.3458
25.142992065061257 43.7364
25.165803588823465 44.0595
25.18861612625217 44.1326
25.211429678386736 44.4907
25.234422489079968 44.5207
25.257238081693636 44.4683
25.280054692141732 44.6734
25.3028723214652 44.7179
25.325869245420463 44.6858
25.348688923599397 44.6774
25.371509623787006 44.6626
25.394331347025812 44.4851
25.41733240110666 43.9975
25.440156181590016 43.3034
25.46298098826268 42.6866
25.48580682216873 42.0069
25.50881202326435 41.4453
25.53163992281684 41.0004
25.55446885274561 40.6226
25.577298814096377 40.1612
25.600308179121807 40.125
25.623140214533745 40.132
25.64597328451537 40.036
25.66898578564376 39.9452
25.691820936010206 39.9388
25.714657124097695 39.8207
25.737494350954734 39.7204
25.760511045684957 39.7605
25.783350361364224 39.8624
25.806190718969255 39.7781
25.82903211955018 39.9228
25.852053024868923 39.9636
25.874896522722523 40.0891
25.897741066713106 40.0533
25.920586657892454 40.1046
25.943611790812668 40.2455
25.966459487728237 40.2827
25.989308234998564 40.3142
26.01215803367705 40.731
26.03518741123814 40.9609
26.05803932412957 41.1737
26.080892291600094 41.1334
26.10374631470478 41.293
26.12677995397268 41.4333
26.14963609978026 41.3958
26.172493304397875 41.0384
26.19535156888223 40.7347
26.218389486949604 40.2808
26.241249882640123 40.0273
26.26411134137826 39.8673
26.28715248187403 39.7431
26.31001607820869 39.4855
26.3328807407756 39.3529
26.35574647063438 39.5294
26.37879191991473 39.595
26.401659795896734 39.6723
26.424528742360263 39.7709
26.447398760366614 39.9342
26.470448535598294 39.9881
26.49332070826805 40.1851
26.516193955675355 40.5152
26.53906827888316 40.694
26.562122397260108 40.9524
26.584998883685063 41.3483
26.607876449110325 41.7401
26.63075509460056 41.8571
26.65381357334404 42.0153
26.67669439061878 42.0105
26.699576291163382 41.9643
26.722459276044212 41.7938
26.745522132402975 41.5334
26.768407297649354 41.3305
26.791293550442003 40.851
26.814180891848974 40.5842
26.837248143099337 40.1348
26.860137673466657 40.1852
26.88302829566349 39.8946
26.90592001075963 39.7131
26.92899167420566 39.6289
26.951885586870763 39.0857
26.974780595655517 38.8833
26.99785558178161 38.8799
27.020752794605112 38.5913
27.043651106772522 38.3671
27.06655051935668 38.3262
27.089629948036183 38.1683
27.112531573292053 38.1936
27.135434302194138 38.158
27.158338135817015 38.0244
27.181422024430987 38.0714
27.204328079372566 37.8801
27.22723524226965 37.8992
27.250143514198573 37.9806
27.273231880156334 38.0357
27.296142382065014 37.7615
27.319053996245536 37.6884
27.341966723775965 37.8081
27.365059584515222 37.9855
27.38797455070062 38.0138
27.410890633481237 37.9127
27.433807833936918 38.0374
27.456905206923906 38.0713
27.47982465472398 38.0132
27.502745223449743 38.0247
27.525666914182825 38.1395
27.548768816912457 38.0457
27.571692763693633 38.1075
27.59461783573812 38.0518
27.617723149491244 37.8182
27.640650484125285 37.7553
27.66357894728264 37.6836
27.686508540048052 37.5149
27.709618414237887 37.5011
27.732550278321757 37.3128
27.755483275279115 37.3518
27.778417406196485 37.4936
27.801531858397514 37.5246
27.824468269376716 37.3424
27.847405817586786 37.3725
27.870344504116094 37.477
27.893463551932008 37.648
27.916404527281053 37.8535
27.93934664422563 37.9534
27.962289903855886 38.1097
27.98541356491974 38.3926
28.00835912214229 38.4893
28.03130582533231 38.684
28.054253675581805 38.8707
28.077381967556104 38.948
28.100332124185126 38.8338
28.123283431160893 38.7827
28.146235889577238 38.6685
28.169368830154156 38.5419
28.192323603752033 38.3759
28.215279532083304 37.9224
28.238415973016764 37.8823
28.261374223145094 37.6589
28.284333631303806 37.2918
28.307294198589954 37.1637
28.330435319167677 36.8719
28.353398217078915 36.6628
28.376362277420153 36.3205
28.39932750129032 36.0909
28.422473319286713 35.8563
28.44544088262495 35.9166
28.468409612800283 35.8304
28.491379510913497 35.6327
28.51453004413313 35.4828
28.53750229057244 35.352
28.56047570826344 35.3785
28.583450298308804 35.403
28.606605564586562 35.1202
28.629582511831156 35.2191
28.65256063474956 35.0164
28.675539934446338 35.1892
28.698699951647605 35.1609
28.72168161743193 34.9365
28.74466446331978 34.9822
28.767648490417624 34.9067
28.790813276438353 34.8363
28.813799678527303 34.8888
28.836787265157085 34.9675
28.859955641890075 34.9952
28.882945610203045 34.9707
28.905936766392035 34.8319
28.928929111566863 34.8077
28.952102288520145 34.7331
28.975097024308607 34.6343
28.998092952423807 34.5961
29.021090073977508 34.5127
29.04426806913204 34.448
29.067267590245258 34.2243
29.090268308143695 34.1595
29.11327022394099 34.0954
29.13645305530891 34.0016
29.159457379627167 33.9238
29.18246290519685 33.8045
29.20546963313352 33.9183
29.22865731875826 33.9372
29.25166646419296 33.8043
29.27467681535305 33.6542
29.29768837335608 33.8322
29.320880931312562 33.8274
29.34389491580634 33.7799
29.366910110507334 33.7526
29.38992651653503 33.8934
29.41312396492981 33.8619
29.436142806456754 33.7065
29.45916286268059 33.6667
29.48236399319994 33.5726
29.50538649169417 33.5426
29.528410208259935 33.3378
29.55143514402014 33.1133
29.574641196749695 32.9305
29.597668583816574 32.7552
29.6206971934585 32.5738
29.64372702680042 32.6107
29.666938019934474 32.551
29.689970313635285 32.4527
29.713003834422636 32.3544
29.73603858342347 32.345
29.759254535188578 32.2214
29.78229175361658 32.2697
29.80533020365064 32.3348
29.82836988641968 32.3056
29.85159081507472 32.2534
29.874632976355343 32.2413
29.89767637376955 32.2273
29.920721008448314 32.1425
29.9439469322847 32.0133
29.96699405457564 32.1366
29.9900424175358 32.071999999999996
30.013092022298157 32.0095
30.03632295963995 31.9775
30.059375061131373 31.9535
30.08242840783577 32.0512
30.105483000888153 32.0447
30.128718970092244 32.0422
30.151776069006917 31.9105
30.17483441768648 31.9872
30.198074175317235 31.9285
30.221135036724256 31.8928
30.24419715131772 31.929000000000002
30.267260520236203 31.7942
30.290505341942243 31.9591
30.313571232750228 31.9353
30.336638381310948 31.8295
30.35970678876503 31.7757
30.38295669299435 31.8101
30.40602763151657 31.7997
30.429099832366074 31.7481
30.452173296685572 31.5394
30.47542830191959 31.6224
30.498504306502497 31.6127
30.521581577995562 31.6303
30.544660117543582 31.8043
30.56792024229725 31.715999999999998
30.59100133132069 31.7033
30.614083691845494 31.7963
30.637167325018545 31.83
30.660432587840603 31.8365
30.683518779717886 31.8342
30.70660624769615 31.9355
30.729694992924372 31.9371
30.75296541239743 31.8341
30.77605672557558 31.8627
30.799149319462742 31.8466
30.8224236211637 31.7126
30.845518789950724 31.5164
30.868615242910597 31.4628
30.891712981195973 31.299
30.91499247215866 31.3121
30.938092794619365 31.2381
30.96119440587579 31.0922
30.984297307082752 31.0177
31.00758200598383 30.9648
31.030687500658694 30.9045
31.053794288760695 30.8253
31.076902371446767 30.6129
31.100192296997445 30.6463
31.12330298246119 30.6699
31.14641496599209 30.5924
31.169528248749216 30.522
31.19282341969534 30.4715
31.215939314557186 30.5627
31.239056512134788 30.588
31.262175013589378 30.5605
31.28547544871168 30.5069
31.30859657161541 30.4882
31.331719001892175 30.4074
31.35484274070538 30.5634
31.378148458819545 30.5373
31.401274828443725 30.4598
31.424402510106933 30.5073
31.447712205419993 30.6771
31.470842524931633 30.4946
31.493974159989783 30.5087
31.51710711176168 30.5
31.54042212308802 30.5471
31.563557722100917 30.5587
31.586694641341655 30.3678
31.609832881979628 30.2127
31.63315322823208 30.1193
31.656294125521327 30.0209
31.679436347728515 29.9341
31.70257989602529 29.8254
31.725905596152327 29.8482
31.74905181052835 29.7265
31.772199354521323 29.8703
31.79534822930507 29.9058
31.818679302290967 29.7631
31.84183085259981 29.8354
31.864983737233473 29.8697
31.88813795736804 29.9072
31.911474422233013 29.6441
31.934631327356435 29.781999999999996
31.9577895715215 29.7903
31.980949155906522 29.7663
32.004291031706956 29.699
32.027453310562606 29.6328
32.05061693318573 29.4833
32.07396288236386 29.5332
32.09712920658542 29.5142
32.12029687812702 29.2342
32.14346589817093 29.2823
32.166817291729984 29.1689
32.18998902288583 29.0744
32.21316210610336 29.0087
32.23633654256711 28.9559
32.259693399663725 28.9195
32.282870556771144 28.8217
32.30604907069099 28.706
32.329228942610065 28.7079
32.35259128243769 28.511
32.375773884550505 28.5826
32.398957848235646 28.5481
32.422143174682176 28.506999999999998
32.445511016471215 28.4961
32.468699082679954 28.3772
32.49188851523011 28.3354
32.51507931531304 28.3114
32.538452678331 28.2677
32.56164622776311 28.2123
32.58484114831493 28.1009
32.60803744118015 28.2005
32.631416344731896 28.1784
32.654615396551876 28.0966
32.67781582427913 27.9971
32.701198898634416 27.9298
32.72440209253756 27.87
32.747606665947124 27.8126
32.77081262006088 27.8389
32.79420126883317 27.7993
32.81740999876112 27.7782
32.840620112999424 27.6829
32.86383161274818 27.5995
32.88722585534586 27.7145
32.91044014056596 27.7576
32.933655814909734 27.5881
32.95687287957963 27.654
32.98027273544904 27.6265
33.00349259526636 27.5037
33.026713849030116 27.5041
33.04993649794511 27.5882
33.073341986570746 27.4804
33.09656744032826 27.4545
33.11979429286444 27.4687
33.14302254538647 27.397
33.166433686291185 27.3907
33.18966475336992 27.3784
33.212897224069096 27.2857
33.23613109959831 27.2905
33.259547912343415 27.2496
33.2827846121627 27.2426
33.306022720453775 27.1673
33.32926223842861 27.1197
33.352684742614166 27.0797
33.37592709463173 27.1041
33.399170859982064 27.0
33.422597648419426 26.7964
33.44584425514446 26.7772
33.46909227885668 26.6822
33.4923417207723 26.6174
33.51577423505344 26.6974
33.539026528130385 26.563000000000002
33.56228024307245 26.5472
33.585535381098246 26.4273
33.60897364093058 26.3263
33.63223163992385 26.3944
33.6554910656699 26.3366
33.678751919389796 26.3836
33.702195944520106 26.2534
33.72545966903325 26.2799
33.74872482519663 26.2001
33.771991414233746 26.268
33.79544122444841 26.1575
33.81871069412428 26.0433
33.84198160035767 26.0231
33.86525394437455 26.0285
33.88870955949969 25.994
33.911984794020626 25.9786
33.93526147001624 26.0041
33.958539588715006 25.9977
33.98200102861669 25.822
34.0052820477047 25.6929
34.02856451319451 25.6357
34.05203033759056 25.6502
34.07531571090147 25.5463
34.09860253431845 25.574
34.121890809074316 25.5711
34.145362493118924 25.5041
34.16865368561615 25.4493
34.191946333164054 25.4236
34.21524043699793 25.5278
34.23871800066799 25.409000000000002
34.26201503218366 25.2876
34.28531352370466 25.2829
34.30861347646881 25.2716
34.33209693978188 25.201999999999998
34.3553998301885 25.1595
34.378704185565205 25.1213
34.402010007152356 25.0504
34.42549939016683 25.1022
34.44880815937748 24.9948
34.472118398533134 24.9435
34.49543010887669 24.8959
34.51892543169198 24.8222
34.54224009966052 24.8019
34.56555624255917 24.7118
34.58887386163339 24.6544
34.61237514439016 24.6426
34.6356957311114 24.6306
34.65901779775809 24.6328
34.68252356662995 24.6167
34.705848608458616 24.5595
34.72917513396849 24.4171
34.75250314440949 24.4305
34.77601490857862 24.3585
34.799345904259795 24.2878
34.82267838863559 24.4209
34.846012362958525 24.3712
34.869530142679984 24.2524
34.89286711232212 24.2541
34.91620557568269 24.2158
34.93954553401677 24.171
34.9630693495876 24.1115
34.986412313340814 24.1692
35.00975677584668 24.1295
35.033102738362956 24.1009
35.05663261012228 23.9735
35.0799815881786 23.9355
35.10333207003229 23.9099
35.12668405694369 24.014
35.150220005273056 23.8843
35.17357501786656 23.9767
35.19693153931268 23.991999999999997
35.220289570874385 23.9318
35.24383161619786 23.9706
35.267192683604904 23.8656
35.290555264930376 23.7836
35.314101899412165 23.749000000000002
35.33746752422433 23.7119
35.36083466676374 23.7497
35.38420332829803 23.7128
35.407756095629054 23.7512
35.43112781085063 23.7303
35.45450104888391 23.6722
35.477875810999194 23.6672
35.50143473172161 23.6225
35.52481255774625 23.6417
35.54819191167777 23.5345
35.57157279478914 23.4062
35.595137889488406 23.4106
35.61852184675279 23.3978
35.641907337029984 23.372
35.665294361595684 23.351
35.68886565090076 23.2805
35.7122557598848 23.2137
35.73564740699838 23.1948
35.759040593519934 23.1674
35.78261809810353 23.1558
35.80601437933051 23.0778
35.829412203814705 22.968000000000004
35.85281157283719 22.9314
35.876395313415884 23.0316
35.8997977874528 22.8292
35.92320180988546 22.8558
35.946790244133936 22.844
35.97019737933222 22.8738
35.993606066789866 22.95
36.01701630779276 22.8381
36.04061101440684 22.7136
36.06402437852291 22.6881
36.08743930005611 22.7181
36.1108557802951 22.5807
36.13445678011326 22.663
36.15787639383515 22.6621
36.18129757014299 22.506
36.20472031032821 22.4208
36.22832762423364 22.4555
36.25175350829375 22.4686
36.275180960119776 22.3249
36.298609981005924 22.415
36.32222362992669 22.4657
36.34565580510207 22.3656
36.36908955323448 22.2696
36.39252487562093 22.2067
36.416144880530226 22.2286
36.43958336764275 22.2113
36.463023432914625 22.109
36.486465077645676 22.1065
36.51009145956204 22.122
36.53353627947859 22.171
36.55698268276811 22.1446
36.58043067073321 22.0256
36.60406345072071 21.9362
36.62751462435344 21.9813
36.65096738658405 21.9749
36.67460498210655 21.8691
36.69806093788647 21.8497
36.72151848619297 21.7448
36.744977628333636 21.8206
36.76862165890998 21.758000000000003
36.79208400512205 21.7048
36.81554794910557 21.6652
36.83901349217101 21.6438
36.862663978991606 21.6293
36.88613273667352 21.5469
36.90960309738324 21.4837
36.933075062434064 21.4397
36.95673202673572 21.421
36.98020721697122 21.4281
37.003684015502365 21.3482
37.027162423645365 21.3515
37.050825886711465 21.266
37.07430753063053 21.2306
37.09779078812467 21.1957
37.121275660513014 21.2099
37.144945643673694 21.1573
37.16843376245278 21.16
37.19192350009803 21.0753
37.215414857931435 21.0724
37.239091382563885 21.059
37.262585997426164 20.9903
37.28608223645736 20.9608
37.309763684451696 20.9197
37.33326318851098 20.9153
37.356764320726555 20.8962
37.380267082425526 20.8988
37.40395510942588 20.8736
37.42746114683234 20.7627
37.45096881771841 20.7434
37.474478123414166 20.7183
37.49817275092816 20.7369
37.52168534303452 20.6255
37.54519957395567 20.5137
37.568715445024665 20.5092
37.592416694607714 20.4963
37.61593586281424 20.5253
37.63945667518264 20.5567
37.66297913304891 20.4976
37.68668702630454 20.4316
37.710212792059274 20.3354
37.733740207334854 20.359
37.757269273470364 20.2872
37.780983832050374 20.2287
37.80451621684926 20.2681
37.82805025654007 20.2076
37.851585952464795 20.1929
37.8753071980695 20.1362
37.89884622345676 20.1453
37.92238690911902 20.0546
37.94611318753442 19.9966
37.969657210779765 20.0412
37.99320289834801 19.9867
38.016750251586465 19.9286
38.04048325513017 19.9015
38.06403395679343 19.887
38.087586328183946 19.8017
38.11114037065203 19.8673
38.13488012115898 19.8727
38.1584375229181 19.7039
38.181996599821 19.6919
38.205557353221124 19.6886
38.229303872575656 19.6945
38.2528679961576 19.7191
38.27643380031219 19.6262
38.30000128639589 19.5458
38.32375459653193 19.5139
38.34732546371299 19.5016
38.37089801690786 19.439
38.39447225747609 19.4287
38.418232380377425 19.4368
38.441810012983396 19.3987
38.46538933705673 19.3666
38.488970353960084 19.3393
38.51273731166058 19.348
38.536321731567014 19.3231
38.55990784840681 19.2781
38.58367995004091 19.195999999999998
38.60726947812959 19.0984
38.63086070726198 19.1213
38.654453638806274 19.1419
38.678232613930824 19.0926
38.70182896773327 19.0179
38.72542702806741 19.0305
38.7490267963045 19.0483
38.77281266709232 18.9712
38.79641586862214 18.8973
38.8200207821842 18.8497
38.843627409152944 18.9273
38.86742019782782 18.8967
38.891030269149255 18.8076
38.914642058016156 18.7891
38.938255565806124 18.8065
38.96205529464307 18.6872
38.98567225787121 18.6845
39.00929094417078 18.6682
39.03291135492255 18.7069
39.05671804624804 18.6136
39.080341923549106 18.4848
39.103967529460334 18.5309
39.127594865365744 18.4321
39.15140854155791 18.4251
39.17503935514948 18.4637
39.19867190290282 18.4284
39.22249083587951 18.3848
39.24612686969409 18.4136
39.269764641845306 18.377
39.293404153722804 18.3314
39.317230110864074 18.2154
39.34087311998506 18.189
39.36451787301696 18.2076
39.388164371352595 18.1691
39.41199737518003 18.2136
39.43564738196752 18.1716
39.45929913825317 18.0922
39.48295264543308 18.067999999999998
39.506792718520884 18.0166
39.530449745387216 18.0778
39.55410852735203 17.9952
39.57776906581474 17.9405
39.60161623079 17.9558
39.625280300200025 17.9572
39.64894613032202 17.833
39.67261372255866 17.889
39.6964680021016 17.8025
39.72013913657293 17.8042
39.74381203738292 17.7329
39.76748670593756 17.7148
39.79134812278169 17.7114
39.81502634488497 17.6882
39.83870633896685 17.6458
39.862388106436654 17.609
39.88625668336918 17.6108
39.90994201572829 17.5778
39.933629125719285 17.5247
39.957503091207826 17.4732
39.9811937746168 17.5022
40.00488623990914 17.4542
40.02858048850006 17.4373
40.05246165409549 17.4129
40.076159487492085 17.3714
40.099859108448875 17.3293
40.123560518384345 17.3601
40.1474489070226 17.3095
40.171153913178564 17.2334
40.194860712584955 17.1961
40.2185693066637 17.2282
40.242464941335314 17.1641
40.26617714307655 17.1339
40.289891143772046 17.1324
40.3136069448471 17.1024
40.33750984859743 17.0641
40.3612292688043 17.0175
40.3849504936829 16.9867
40.40867352466194 17.037
40.43258372059144 16.9796
40.45631038219906 16.9717
40.48003885420956 16.8975
40.503769138055105 16.9151
40.52768664931955 16.930999999999997
40.55142057531802 16.8246
40.57515631746428 16.7631
40.599079334038514 16.7315
40.62281872700477 16.6987
40.64655994043941 16.6982
40.67030297578061 16.7083
40.69423334835778 16.7095
40.71798004609188 16.6163
40.74172857006355 16.614
40.76547892171441 16.6254
40.7894166736039 16.5657
40.813170699248566 16.4548
40.83692655691388 16.5248
40.86068424804498 16.5131
40.884629402612525 16.4809
40.908390779366385 16.4723
40.932153993938 16.4079
40.95591904777605 16.3327
40.979871628443995 16.3622
41.003640379561936 16.3284
41.02741097430883 16.2984
41.05118341413683 16.2746
41.075143444384416 16.2526
41.098919593177826 16.2527
41.1226975914255 16.2425
41.14647744058318 16.1551
41.170444943946755 16.1426
41.19422851378379 16.1542
41.218013938914645 16.082
41.24198706625173 16.0407
41.26577622087193 16.0286
41.289567235177785 15.9761
41.31336011063129 15.9487
41.337340752422875 15.9432
41.361137369129835 15.9729
41.38493585138705 15.8849
41.40873620066004 15.8718
41.43272438060107 15.8948
41.45652848292052 15.8166
41.48033445666918 15.7851
41.50414230331616 15.7921
41.528138045159764 15.7477
41.551949656675205 15.6894
41.575763145513235 15.6804
41.59957851314666 15.6664
41.62358184070442 15.6621
41.64740098505737 15.6122
41.6712220126409 15.5806
41.69504492493139 15.5303
41.71905586207357 15.5343
41.74288256296395 15.5419
41.766711153007456 15.4641
41.79054163368412 15.4413
41.814560204340054 15.492
41.838394485526365 15.4292
41.86223066180303 15.405
41.88625497706819 15.4269
41.910094962812 15.3135
41.93393684811168 15.3035
41.95778063445365 15.2545
41.981812625263366 15.247
42.00566023303407 15.2505
42.029509746323676 15.2678
42.05336116662236 15.2131
42.077400857069705 15.1604
42.10125611078846 15.0972
42.12511327600405 15.075999999999999
42.14897235421036 15.0444
42.173019768448455 15.0589
42.19688269209613 14.9434
42.22074753323349 14.9326
42.24461429335818 14.9292
42.268669455600495 14.9697
42.292540073217886 14.9531
42.31641261433284 14.9426
42.34028708044675 14.8396
42.36435001496739 14.8505
42.38822835065557 14.8549
42.41210861586426 14.765
42.4359908120986 14.7873
42.46006154323262 14.7821
42.48394762115317 14.708
42.507835634632315 14.7055
42.531912233047436 14.6347
42.55580413732265 14.6273
42.579697981698 14.642000000000001
42.60359376768525 14.5893
42.62767820545945 14.5565
42.65157789440821 14.573
42.67547952952185 14.5244
42.699383112316 14.4881
42.72347541395347 14.4863
42.74738291190531 14.4638
42.771292362102166 14.4931
42.795203766063516 14.3576
42.819303956130405 14.3829
42.843219287476536 14.3527
42.86713657716324 14.342
42.89105582671383 14.3182
42.91516392983864 14.3089
42.939087119032166 14.2707
42.963012272677304 14.2248
42.98693939230129 14.2001
43.01105543317513 14.1797
43.034986504731386 14.1603
43.05891954686589 14.0638
43.08285456110972 14.0734
43.10697856448665 14.052999999999999
43.130917542983475 14.0372
43.15485849820081 13.9895
43.17880143167367 13.9797
43.20293342237094 13.9879
43.226880332449 13.9663
43.25082922540554 13.9378
43.27496722682525 13.8997
43.29892010567796 13.8497
43.32287497204102 13.8939
43.34683182745632 13.8217
43.370977859791836 13.7963
43.39493871351105 13.8108
43.41890156092628 13.7905
43.44286640358341 13.7617
43.46702049182749 13.7267
43.49098934522816 13.6859
43.51496019852649 13.649000000000001
43.5389330532723 13.65
43.56309522248204 13.6222
43.58707210044314 13.6217
43.61105098451946 13.5504
43.63503187626491 13.5124
43.659202151562134 13.5572
43.68318707902681 13.5275
43.70717401884041 13.4597
43.731162972560874 13.3789
43.75534137913236 13.3835
43.779334381108384 13.4454
43.803329401683186 13.4251
43.82732644241872 13.3549
43.8515130055166 13.3326
43.87551410707659 13.2985
43.89951723350145 13.3299
43.923709934595614 13.273
43.94771713129917 13.247
43.97172635758096 13.2841
43.99573761501002 13.2235
44.0199385169922 13.1994
44.04395385732619 13.2116
44.067971233533086 13.1509
44.09199064718605 13.1313
44.11619977548961 13.122
44.14022328470671 13.0562
44.16424883610785 13.0404
44.18827643127035 13.0517
44.21249381139513 13.0335
44.236525514814076 13.0158
44.26055926674478 12.998
44.28459506876863 12.9992
44.3088207262813 12.9117
44.33286064928722 12.8753
44.35690262714919 12.8366
44.38094666145278 12.8454
44.4051806219871 12.8803
44.42922879003185 12.8031
44.45327901929361 12.8007
44.477331311362136 12.7729
44.501573600619416 12.7294
44.525630039221795 12.6885
44.54968854541895 12.7485
44.573937102200176 12.7095
44.5979997645541 12.6696
44.622064499300315 12.6015
44.64613130803592 12.5488
44.67038823869318 12.5631
44.69445921643748 12.5701
44.718532272981385 12.5035
44.742607409926194 12.5581
44.76687274034801 12.5174
44.79095205918753 12.4771
44.81503346325094 12.4264
44.839116954143876 12.4601
44.86339071028742 12.3692
44.88747839599524 12.3907
44.91156817336837 12.3593
44.93566004401666 12.3244
44.959942251908146 12.3126
44.984038330325966 12.2638
45.00813650686762 12.241
45.03223678314731 12.2793
45.05652746888232 12.2138
45.08063196592069 12.2125
45.104738567558705 12.1848
45.128847275414856 12.1556
45.15314646515866 12.0875
45.17725940679741 12.0957
45.20137445952892 12.0558
45.22568004865265 12.0823
45.24979934496396 12.0587
45.27392075725247 12.0168
45.29804428714431 12.0148
45.322358426247604 11.9713
45.346486212804315 11.954
45.370616121861914 11.9569
45.39474815505086 11.968
45.41907087049246 11.887
45.4432071734666 11.8255
45.46734560548283 11.8683
45.49148616817604 11.9052
45.51581748638564 11.8032
45.5399623320197 11.7927
45.56410931325473 11.7642
45.58825843173002 11.7751
45.61259837920865 11.7827
45.636751793816 11.7602
45.66090735060093 11.7234
45.68506505120716 11.6964
45.7094136545275 11.6924
45.73357566449271 11.6017
45.75773982322992 11.6506
45.78190613238733 11.6206
45.806263418194064 11.5433
45.83043404997326 11.5398
45.85460683713677 11.5382
45.87897065658495 11.5248
45.90314777634752 11.4582
45.92732705646868 11.4594
45.9515084986045 11.4602
45.97588104735473 11.4209
46.00006683541565 11.4126
46.02425479047904 11.3693
46.04844491420549 11.3337
46.0728262191024 11.3972
46.09702070211635 11.3717
46.12121735879483 11.333
46.14541619080294 11.3103
46.169806278764455 11.2403
46.194009483459034 11.2422
46.21821486849841 11.2535
46.24242243555223 11.1803
46.266821333570014 11.1641
46.29103328674601 11.1599
46.31524742696538 11.1412
46.33946375590237 11.1382
46.36387149104216 11.1122
46.38809221957392 11.0855
46.41231514186606 11.100999999999999
46.436540259597464 11.0684
46.460956858999374 11.0034
46.48518638983522 11.0159
46.509418121166966 10.9903
46.533652054678114 10.9756
46.55807754555709 10.9377
46.58231590571962 10.9346
46.60655647313217 10.9085
46.630988654873654 10.8789
46.655233659129024 10.8359
46.67948087571551 10.8487
46.70373030632484 10.8272
46.72817142736393 10.854000000000001
46.752425308428684 10.8146
46.77668140861147 10.7723
46.80093972960865 10.7419
46.82538981736788 10.7269
46.849652602470904 10.7004
46.87391761349769 10.6658
46.8981848521493 10.6736
46.9226439341274 10.6519
46.946915650573224 10.6202
46.97118959976749 10.5858
46.99546578341598 10.5602
47.019933887188216 10.5883
47.04421456235744 10.5608
47.06849747711879 10.544
47.09278263318286 10.4916
47.11725978640143 10.4913
47.14154944775105 10.4719
47.165841355555656 10.4284
47.1901355115306 10.4152
47.214621741924994 10.3965
47.23892041698887 10.378
47.26322134538975 10.3659
47.28771440635075 10.3192
47.31201986422527 10.3297
47.33632758061436 10.315
47.360637557241866 10.2798
47.38513974410611 10.3029
47.40945426407847 10.2419
47.43377104948137 10.2405
47.45809010204344 10.1812
47.48260144275502 10.2118
47.506925052572285 10.1912
47.53125093475548 10.1416
47.55557909103813 10.1245
47.58009961361992 10.1289
47.60443234110732 10.1026
47.62876734791564 10.0735
47.65310463578333 10.0708
47.6776343683373 10.0475
47.7019762413987 10.0148
47.72632040075572 10.0004
47.75066684815169 10.0033
47.77520581885936 9.9337
47.799556865477655 9.91354
47.823910205386 9.94482
47.84826584033272 9.91279
47.87281407745551 9.880189999999999
47.89717432569297 9.87919
47.92153687423484 9.873460000000001
47.94609208429692 9.87105
47.97045925671401 9.81599
47.99482873471275 9.79317
48.01920052005013 9.830969999999999
48.04376504619224 9.76582
48.068141469543484 9.75713
48.09252020552573 9.76807
48.11690125590099 9.71192
48.1414751266064 9.72236
48.16586082917454 9.723460000000001
48.19024885144316 9.68782
48.2146391951793 9.6947
48.239222439012764 9.67182
48.26361744916137 9.595289999999999
48.28801478610016 9.60563
48.31241445160131 9.644739999999999
48.337007097209366 9.56608
48.36141144338331 9.56628
48.38581812345755 9.50566
48.41022713920929 9.515369999999999
48.434829215320704 9.52406
48.45924292604658 9.502239999999999
48.48365897780325 9.50494
48.50807737237308 9.46481
48.532688907799276 9.4282
48.55711201168574 9.40294
48.581537463754074 9.37979
48.60615611725119 9.38766
48.63058628942721 9.372810000000001
48.65501881516546 9.346
48.6794536962573 9.31809
48.70408185970339 9.30751
48.72852147531801 9.288210000000001
48.75296345168211 9.27051
48.77740779059232 9.25709
48.80204549302823 9.22867
48.82649458091802 9.216380000000001
48.85094603676547 9.18113
48.87539986237231 9.192060000000001
48.90004713292306 9.207469999999999
48.92450572200832 9.1747
48.94896668628025 9.148810000000001
48.97343002754588 9.1201
48.99808689542115 9.072519999999999
49.02255501470614 9.07033
49.04702551642794 9.052
49.0714984023988 9.04883
49.096164896893235 9.02886
49.120642575466796 9.01004
49.145122643748394 9.0044
49.16960510355558 9.0107
49.19428125404938 8.98297
49.2187685210852 8.958730000000001
49.243258185121555 8.94016
49.26794160167084 8.86866
49.2924360839405 8.87823
49.31693296869764 8.91243
49.34143225776915 8.89177
49.36612538195438 8.834489999999999
49.39062950396021 8.8099
49.41513603578346 8.81108
49.4396449792564 8.81201
49.46434784069503 8.8066
49.488861631846454 8.75383
49.513377840166804 8.75752
49.537896467493745 8.68557
49.56260909589029 8.69542
49.587132585683285 8.69272
49.611658500018365 8.69075
49.636186840738596 8.671619999999999
49.66090926588511 8.665510000000001
49.685442483902584 8.62965
49.70997813385706 8.579189999999999
49.734516217597076 8.55144
49.75924846937352 8.57972
49.7837914452858 8.562330000000001
49.80833686055187 8.55832
49.83288471702571 8.50217
49.85762682540054 8.54472
49.882179588965734 8.50277
49.9067347993235 8.430589999999999
49.93129245833333 8.44059
49.95604445336378 8.40732
49.98060703442832 8.41799
50.005172069746266 8.42019
50.02993150438364 8.39989
50.05450147301533 8.396460000000001
50.07907390151433 8.3731
50.10364879174981 8.37883
50.12841816587289 8.33269
50.1529980044635 8.34212
50.17758031042124 8.31277
50.20216508562089 8.29204
50.22694442953363 8.27163
50.25153416817468 8.25221
50.27612638170508 8.26031
50.300721072005196 8.2019
50.325510416102105 8.17177
50.350110084975064 8.1685
50.37471223628208 8.17704
50.39931687190919 8.15878
50.424116246675766 8.12616
50.44872587605249 8.13005
50.47333799543065 8.10535
50.49795260670191 8.106
50.52276204271512 8.091460000000001
50.54738166295838 8.07967
50.57200378079314 8.101410000000001
50.596628398116835 8.00538
50.62144792604559 8.03162
50.646077567609396 7.99995
50.670709714377715 8.03606
50.69553683636198 7.99065
50.72017401885922 7.9684
50.7448137122895 7.935289999999999
50.76945591856022 7.904730000000001
50.79429318636823 7.923210000000001
50.818940443716784 7.91407
50.84359021965163 7.8756
50.868242516085964 7.8442
50.893089960641895 7.827789999999999
50.917747323549435 7.8295699999999995
50.94240721271973 7.816439999999999
50.96706963007175 7.7927800000000005
50.99192728239342 7.8198
51.01659478166073 7.799760000000001
51.04126481489051 7.77238
51.06593738400761 7.73119
51.090805275207074 7.75789
51.11548294172845 7.688269999999999
51.14016314993547 7.7103
51.164845901758845 7.6942699999999995
51.18972406304274 7.66936
51.21441192780656 7.602639999999999
51.23910234200271 7.605689999999999
51.2637953075678 7.617839999999999
51.288683770237945 7.61762
51.31338186432707 7.6023
51.33808251561888 7.55037
51.362978729967345 7.56112
51.387684521509755 7.54276
51.41239287610203 7.52022
51.437103795691165 7.485689999999999
51.46201036644977 7.487830000000001
51.486726441956634 7.44566
51.51144508832545 7.47167
51.536166307509156 7.453189999999999
51.56108326624387 7.40555
51.58580965706056 7.39947
51.61053862657523 7.42057
51.635270176746864 7.3857
51.66019755512065 7.3871899999999995
51.68493429268881 7.37458
51.70967361681515 7.33712
51.73441552946465 7.3421899999999996
51.759353359237934 7.29582
51.7841004750961 7.2860000000000005
51.80885018539685 7.26651
51.833602492111254 7.2528
51.8585508051424 7.2413
51.883308330926425 7.23613
51.90806845906181 7.1996899999999995
51.932831191525715 7.18565
51.95779001977161 7.20812
51.98255798721516 7.1852800000000006
52.00732856494335 7.13811
52.03229530577543 7.09974
52.057071130455945 7.138960000000001
52.081849571391054 7.11534
52.106630630568695 7.084510000000001
52.13160794279417 7.10915
52.15639426492067 7.089930000000001
52.18118321127822 7.06407
52.205974783860896 7.04696
52.23096269971011 7.03263
52.255759551287994 7.022469999999999
52.280559035098186 7.02151
52.30536115314103 7.00293
52.33035970494467 6.99275
52.35516711807904 6.99863
52.37997717147198 6.95471
52.40478986713005 6.92432
52.42979908731974 6.888210000000001
52.454617094216 6.8761
52.47943774942214 6.8872
52.50426105495102 6.88214
52.529280976059844 6.85958
52.554109609024096 6.824960000000001
52.57894089837482 6.85425
52.60377484613117 6.82171
52.62880550079408 6.82683
52.65364479223379 6.78562
52.67848674816189 6.79012
52.70352547971946 6.75104
52.72837279155837 6.7446399999999995
52.753222773982785 6.6984
52.778075429022984 6.70994
52.80312495150885 6.72244
52.827982978797436 6.69946
52.85284368481815 6.66225
52.87770707160767 6.647419999999999
52.90276741793998 6.61826
52.92763619336701 6.60543
52.952507655698504 6.60797
52.977381806977576 6.619439999999999
53.00245301017842 6.581739999999999
53.02733256653592 6.571389999999999
53.052214817996074 6.55189
53.077099766608484 6.53929
53.102181859804446 6.50775
53.127072229988265 6.546530000000001
53.15196530349892 6.51615
53.17686108239249 6.46776
53.20195409881522 6.48188
53.22685531582556 6.46836
53.25175924441303 6.42976
53.27666588664027 6.42795
53.30176985962693 6.40859
53.3266819565689 6.39193
53.35159677336455 6.3772400000000005
53.376514312083096 6.35783
53.40162927507703 6.36705
53.42655228516116 6.380330000000001
53.45147802340193 6.35109
53.47660125628886 6.3013900000000005
53.50153247842639 6.3286
53.52646643496923 6.30166
53.55140312799818 6.28225
53.576537409691696 6.29369
53.60147960336152 6.246230000000001
53.626424539786164 6.24835
53.65137222105307 6.24814
53.67651758529126 6.18139
53.70147078399681 6.181030000000001
53.72642673383343 6.205419999999999
53.75138543689533 6.1938699999999995
53.776541917524526 6.172280000000001
53.801506154876755 6.11838
53.826473151763246 6.13911
53.851442910284916 6.155
53.87661054126026 6.1111699999999995
53.9015858509782 6.08822
53.92656392866066 6.11566
53.95154477641532 6.0488
53.976723591801296 6.08344
54.00171000771266 6.04171
54.02669920004598 6.07225
54.051691170915745 6.02746
54.076881204886796 5.98421
54.101878760928514 5.97279
54.12687910187696 6.00939
54.152077577768296 5.968030000000001
54.1770835166946 5.94072
54.20209224691339 5.92831
54.22710377055121 5.91286
54.25231352511594 5.9115
54.27733066384342 5.91576
54.30235060239643 5.90185
54.32737334290836 5.84946
54.35259441062629 5.8026800000000005
54.377622783395324 5.8266
54.40265396455061 5.8349
54.42768795623251 5.83899
54.45292037169559 5.76347
54.477960012857906 5.75361
54.50300247099511 5.77543
54.52804774825457 5.73685
54.55329154616743 5.68308
54.57834249018678 5.71235
54.6033962597977 5.6653400000000005
54.6284528571545 5.69489
54.653708072335164 5.65111
54.67877035378786 5.69301
54.70383546947698 5.6487300000000005
54.72890342156389 5.575080000000001
54.7541700889442 5.52136
54.77924374251975 5.59155
54.8043202390049 5.49509
54.82959552413022 5.49041
54.8546777351945 5.44246
54.87976279569621 5.43795
54.90485070780914 5.479369999999999
54.930137506558005 5.375
54.95523115074295 5.34837
54.98032765308844 5.38428
55.005427015775496 5.37828
55.03072536339621 5.3781300000000005
55.05583047570572 5.30063
55.080938454927676 5.32651
55.10604930325027 5.31701
55.131359235107396 5.28308
55.15647585066083 5.272130000000001
55.181595341907496 5.2352300000000005
55.20671771104285 5.21506
55.232039262617704 5.15925
55.25716741665048 5.1391599999999995
55.28229845518636 5.149719999999999
55.30743238042802 5.068230000000001
55.33276558731939 5.06536
55.357905315183636 5.07758
55.383047936390035 5.0894
55.40819345314859 5.02447
55.433538351073295 5.0131
55.458689688238415 5.0555699999999995
55.483843927614096 4.96371
55.509197623043605 4.96804
55.53435769621134 4.92151
55.55952067826466 4.90912
55.5846865714265 4.8954699999999995
55.61005202069737 4.87178
55.63522376553902 4.81304
55.66039842818645 4.792669999999999
55.68557601087004 4.77844
55.7109532500271 4.75092
55.73613670233794 4.80401
