TT I
1.2716486653135266 7.47721
1.2939594142134223 7.683910000000001
1.3162702121660406 7.097360000000001
1.3385810600174564 6.677919999999999
1.3608919586137629 6.98675
1.383202908801069 6.7584100000000005
1.405513911425503 6.01523
1.4278249673332093 6.20076
1.4501343378461518 6.33303
1.4724455028545926 5.77456
1.4947567236847858 6.24483
1.517068001182951 5.91849
1.5393793361953272 5.91748
1.5616907295681737 5.23953
1.5840021821477681 5.43611
1.60631369478041 4.92243
1.6286252683124185 5.49761
1.6509369035901333 4.16995
1.6732468618895553 4.883769999999999
1.695558623192809 4.79916
1.7178704487808514 5.09189
1.7401823395001077 4.46434
1.7625012545597203 4.93933
1.7848028405262486 4.49293
1.8071218901122095 4.5337
1.8294236121921872 4.40729
1.8517427996910911 4.56851
1.8740620574440425 4.18375
1.8963639900671978 4.784680000000001
1.9186833908139995 5.0784199999999995
1.9409854680117449 5.2362400000000004
1.9633050151394713 4.32404
1.9856246367570705 4.45274
2.0079269371922672 4.92661
2.03024671027244 4.7847800000000005
2.0525491637446027 3.64773
2.074869091674931 4.78801
2.097171701569106 4.61604
2.1194917877373847 4.7086
2.141811954326636 4.41616
2.164114805233074 4.56387
2.186435135143035 4.547280000000001
2.208738150935709 5.35491
2.231058647554722 6.59277
2.2533792288321184 6.02789
2.275682498336085 5.25065
2.298003251406138 5.151669999999999
2.3203066942619714 5.08597
2.3426276225136022 5.47813
2.3649486396617507 5.87927
2.387252348930071 6.6011
2.4095735463442893 6.23228
2.4318774374315884 6.49972
2.4541988185014043 6.538130000000001
2.476502894794693 7.64694
2.498824462909887 8.35859
2.521146125856138 7.09933
2.5434504863470337 7.94491
2.5657723414244717 7.26151
2.588076895590662 8.52092
2.610398946189713 8.64695
2.6327210958598384 8.10161
2.6550259469304716 7.9309
2.6773482972090137 8.35181
2.6996533504259 8.23963
2.7219759047039602 8.45401
2.744298562293959 8.17543
2.7666039251246595 8.1492
2.7889267918020164 8.073889999999999
2.8112323652516555 8.63841
2.833555444408179 8.70007
2.8558786311183852 8.48268
2.8781845268938557 8.97227
2.9005079311721484 8.73569
2.9228140460410397 8.87086
2.9451376712799635 9.012839999999999
2.967444008632326 9.02339
2.9897678582247247 9.24816
3.0120918213106695 9.5948
3.0343984987899373 10.4481
3.0567226913198637 10.7711
3.079029599759726 11.1851
3.101354025127254 11.7757
3.123678568232338 12.2921
3.145985829517914 12.2885
3.16831061055229 13.2676
3.1906181112775593 13.727
3.212943133635653 14.3436
3.2352682779763207 14.77
3.2575761442691227 14.9065
3.2799015350264273 15.4554
3.302209649240067 15.8273
3.3245352898092655 16.4662
3.3468436553365257 17.1878
3.369169549113219 17.407
3.3914955708171384 18.4112
3.413804319727358 18.6271
3.4361305997334863 18.2476
3.4584396084414553 18.6806
3.4807661501462652 19.5929
3.503092824025881 20.4816
3.5254022288463154 20.2223
3.5477291695206588 21.0048
3.5700388426251948 21.266
3.5923660534916446 22.0933
3.6146934007816114 23.6961
3.637003482731501 27.9208
3.6593311053109985 29.7362
3.681641464033634 26.743000000000002
3.7039693653009733 24.3749
3.726297407241705 24.2458
3.7486081875460804 24.8541
3.7709365132734978 25.2589
3.793247578841633 25.3988
3.8155761917550093 25.8737
3.8378875459837216 26.1875
3.8602164494827234 26.703000000000003
3.882545499606844 27.8833
3.9048572932539183 28.238000000000003
3.9271866390645718 28.3738
3.9494987298666713 29.3173
3.971828374764527 29.3997
3.9941581705403255 30.0796
4.016470713506008 30.7667
4.038800813471445 31.613000000000003
4.061113662089144 32.0989
4.0834440696459176 32.7351
4.105774632334751 32.9449
4.128087945865126 33.533
4.150418821249301 34.1291
4.172732448931298 34.9023
4.195063640413578 35.3048
4.2173775856475215 36.4958
4.239709096631102 39.665
4.262040768704612 54.7489
4.284355196706267 63.9793
4.306687193387355 55.2365
4.329001947444346 44.5423
4.35133427213731 41.4217
4.373666762177566 41.7042
4.395982011761091 42.6949
4.418314834921175 43.2193
4.44063041906622 44.6677
4.4629635787515625 46.4798
4.4852969080429785 48.1109
4.5076130004776225 49.9354
4.529946671403969 53.9097
4.552263106909177 57.108000000000004
4.574597122877047 55.0526
4.596931312711224 53.0074
4.619248269273446 52.8409
4.6415828092605835 54.0629
4.663900117405352 55.4454
4.686235010953232 56.7811
4.708552674085913 57.9002
4.730887924602802 59.5243
4.753223354952695 61.4936
4.775541557023902 63.9697
4.797877349456786 66.8831
4.820195915032126 67.7111
4.842532072957498 67.7614
4.864868414979744 70.6472
4.88718753227192 74.7437
4.909524244902505 76.2428
4.931843734218147 75.9383
4.954180820867835 77.4108
4.976518095879839 80.73899999999999
4.998838149695359 83.3863
5.021175803844231 87.1664
5.043496238205739 90.1014
5.065834274903528 94.3033
5.088172504230693 98.3787
5.1104935158799565 103.70200000000001
5.132832132875765 116.429
5.155153533596801 135.912
5.1774925416746225 176.032
5.199814334878411 381.306
5.2221537374521505 1019.22
5.244493338631803 2834.3
5.266815727034316 8011.79
5.289155727832427 13854.4
5.311478517248165 8520.7
5.333818921080011 2331.51
5.356159527788849 433.69800000000004
5.3784829252032536 178.919
5.400823940070432 143.86700000000002
5.423147747031976 125.76799999999999
5.445489173474152 116.973
5.467830807066149 116.255
5.490155234831516 116.16799999999999
5.512497285125229 110.486
5.534822130975162 104.559
5.557164601388673 101.633
5.579489868738879 98.8625
5.601832762690846 97.3512
5.6241758697774475 95.8123
5.646501775867269 95.5182
5.668845311622074 94.4765
5.691171647754637 93.9762
5.713515615597765 92.8028
5.735859800852677 92.2422
5.758186788542988 93.9117
5.780531411018185 96.4435
5.802858837297399 95.6814
5.825203900414495 95.8977
5.8475491852224 98.3957
5.869877275883075 97.2316
5.892223006467101 95.0535
5.914551544266608 94.1041
5.936897724049891 96.6302
5.959244129804903 104.14
5.981573344815301 132.694
6.0039202049061 245.582
6.026249875609095 480.38
6.04859719346037 975.297
6.070927323278297 2291.4
6.093275102315365 4779.96
6.115623113320588 5550.28
6.137953938319995 2861.53
6.160302415650845 752.645
6.182633708324452 180.327
6.2049826554078376 101.42
6.227331838745022 86.9765
6.249663839443684 81.248
6.27201349767565 77.6678
6.294345974611799 76.1518
6.316696111167083 75.2061
6.339046488263839 73.7541
6.361379686074702 70.9466
6.383730546639482 68.9109
6.406064229255215 68.7737
6.428415576718203 69.7863
6.450749747566656 68.1981
6.47310158535871 66.4028
6.495453669698332 64.2059
6.517788579421056 63.4952
6.540141159237969 62.1881
6.562476565766648 62.0087
6.5848296444934045 62.0795
6.607182974060425 62.1039
6.6295191323281015 61.6622
6.651872965955752 60.1919
6.6742096296068985 61.2827
6.6965639707294615 65.6897
6.71891856698715 65.7347
6.741255995248479 61.6217
6.763611104154477 58.4696
6.785949046381137 57.6141
6.808304671371482 57.8871
6.8306605557940046 59.1322
6.852999275508618 58.2362
6.875355681171544 56.8616
6.897694923437771 56.004
6.92005185377892 55.5254
6.9423916220322655 55.3032
6.964749080490181 54.85
6.987106804399774 54.8079
7.009447368180821 55.2394
7.031805625367033 54.6289
7.054146723727803 54.7806
7.076505517631004 54.2053
7.098864581288365 53.9097
7.121206488070854 53.6265
7.143566093607822 54.0964
7.165908543567245 54.8572
7.188268694426048 54.9499
7.2106291193438095 53.7696
7.232972390625943 53.3196
7.255333366030969 54.3708
7.277677189091925 58.0637
7.300038718428332 63.4615
7.322400526130865 61.5049
7.344745183422596 56.4461
7.367107550224791 53.8172
7.389452767901992 53.4894
7.411815697249891 53.3754
7.434161478756298 52.7548
7.456524974096713 52.9041
7.478888753837185 53.0552
7.501235387657368 53.617
7.523599738562711 54.2633
7.545946944825532 55.7621
7.568311870344528 56.4758
7.5906770845765665 55.0721
7.613025156078678 54.6782
7.635390950099687 55.0308
7.657739602662809 54.549
7.680105979923558 54.9306
7.702472650212829 56.2421
7.724822180948224 55.8384
7.747189439655568 55.5227
7.769539560075357 55.2467
7.791907410653562 55.8758
7.81425812420825 55.7614
7.836626570110925 55.9006
7.858995315087906 56.9684
7.881346924933401 56.847
7.903716270417482 57.7532
7.926068482028405 58.0782
7.948438431475253 58.4112
7.9708086843180235 58.5912
7.993161805171116 59.534
8.015532667162402 60.2807
8.037886398416653 61.2411
8.060257873014221 61.6868
8.082629655331942 62.3463
8.104984308787587 63.1
8.127356708900503 64.7395
8.149711981398308 67.6912
8.172085002766314 69.015
8.194458336181368 68.3015
8.216814543847752 68.0171
8.23918850371002 68.3874
8.26154533906492 69.6741
8.283919928836452 71.2366
8.306277395339652 72.3635
8.328652618483376 73.7771
8.351028159736202 75.7154
8.373386579575245 77.9342
8.395762759396959 79.5592
8.418121819038275 81.8584
8.440498640894003 87.064
8.462875785192262 96.5116
8.485235811156207 124.208
8.507613602688501 181.072
8.529974277114228 270.966
8.552352719347912 405.332
8.574731488360351 665.587
8.59709314210385 1252.12
8.619472567021075 2047.09
8.64183487789147 2361.01
8.664214962183097 1755.14
8.686577933647762 808.959
8.708958680784317 291.677
8.731339760774953 136.601
8.753703729764451 103.21
8.77608547780821 95.7774
8.798450116065078 92.8384
8.820832535634787 91.0264
8.843215292401656 91.1247
8.865580941199045 90.3902
8.887964374703538 90.1074
8.910330701447199 89.59299999999999
8.932714815164482 89.2071
8.955099270424924 86.5697
8.977466620733543 85.1351
8.999851761421976 84.4322
9.022219798361645 83.7453
9.04460562795561 83.7929
9.066991803441677 83.4139
9.089360876979615 83.7814
9.111747746589993 83.6119
9.13411751544971 82.5218
9.156505082664324 81.4483
9.178875550323522 81.6643
9.20126381862328 81.7449
9.223652438908596 82.8678
9.246023961427412 85.2123
9.26841328802173 85.1337
9.290785518039224 84.258
9.313175554425882 84.8272
9.335565947154315 85.0439
9.357939245086508 86.2855
9.380330352834827 85.0718
9.40270436697103 84.9694
9.425096193225055 84.5868
9.447488380180165 84.7331
9.469863475295412 84.1601
9.492256385987508 84.1799
9.514632206018318 84.4244
9.537025843935714 85.4252
9.559402392368193 86.5694
9.581796761000229 88.7765
9.604191496441521 90.069
9.626569144158516 91.6454
9.648964615551032 92.6919
9.671343000390081 91.9343
9.693739211225699 91.3544
9.716135793237463 91.6672
9.738515290448102 92.3363
9.760912617143402 94.0395
9.783292860202891 95.9835
9.805690935076182 97.9133
9.828089385495742 98.5576
9.850470754023561 99.9228
9.872869957865444 101.594
9.89525208097539 105.141
9.917652041736662 110.725
9.940052382417589 121.816
9.962435644102392 151.173
9.984836746950979 195.80599999999998
10.007220771957746 261.36400000000003
10.029622640473708 368.293
10.052007432299963 549.385
10.074410069984072 852.2539999999999
10.096813093716005 1354.88
10.119199042482517 1919.93
10.141602840636468 2027.52
10.163989564971628 1462.51
10.186394141051062 727.5419999999999
10.208799107559706 307.199
10.231187001965623 157.293
10.253592751657669 116.956
10.275981430388155 108.15299999999999
10.298387966769793 105.49799999999999
10.320794897965431 105.06299999999999
10.343184759907361 104.21700000000001
10.36559248305461 103.14200000000001
10.387983138083852 104.036
10.410391656691655 111.273
10.432800574501677 123.726
10.455192425893369 140.42600000000002
10.47760214443012 167.003
10.499994797678786 212.861
10.522405320453982 297.317
10.54479877906917 422.36400000000003
10.567210109595656 553.259
10.5896218454736 594.56
10.612016518879773 473.241
10.634429067781074 292.834
10.656824555333241 168.483
10.679237920773568 111.27
10.701651695961992 93.1004
10.724048411481384 88.1122
10.746463008485165 85.3785
10.768860546937125 83.9634
10.791275969274796 82.195
10.81369180576079 81.2886
10.836090585366925 80.3687
10.858507252467449 79.2139
10.88090686379991 77.7247
10.903324365036394 76.9863
10.925724811614439 76.6161
10.948143150509463 76.686
10.970561909719066 76.0829
10.992963615930844 75.4773
11.015383218085756 74.3436
11.037785768347074 72.624
11.06020621697282 71.7587
11.082627090322113 71.3828
11.105030913430326 70.59899999999999
11.12745263854165 70.0048
11.149857314510728 69.5276
11.172279894912576 69.8863
11.194702904450653 69.0493
11.217108866490921 68.5308
11.239532736615194 67.972
11.26193956033512 67.2702
11.284364294577085 67.0502
11.306789462371718 66.4164
11.329197585398376 66.1117
11.351623622610898 66.0705
11.37403261614354 65.1842
11.396459526308487 65.1371
11.418869393879497 65.0837
11.441297180532617 64.4978
11.463725406927658 64.1489
11.486136592353875 63.8266
11.508565700543707 63.4672
11.530977768845315 63.6735
11.553407762368774 63.3291
11.575838200059769 63.0645
11.598251599479612 62.8602
11.620682927815501 62.5444
11.64309721895548 62.4242
11.665529441478206 62.2939
11.687962112597958 62.1618
11.710377748130886 62.3972
11.732811318753434 62.0871
11.755227854859067 61.6226
11.777662328529495 61.7852
11.800079768750786 61.9897
11.822515149015453 62.0622
11.844950984084935 62.0906
11.867369787303163 61.8253
11.889806534289491 61.8618
11.912226250487029 62.3395
11.934663912939751 62.8938
11.9571020346363 63.2591
11.979523127133968 63.4844
12.001962169624331 64.1793
12.024384183972964 65.6967
12.046824150809913 69.0782
12.069264581333726 73.7763
12.091687985297767 80.1929
12.11412934550045 89.0332
12.136553680195208 105.071
12.158995973632788 128.334
12.181438735204349 160.03
12.20386447284199 193.144
12.226308172985636 208.261
12.24873485024193 191.642
12.271179492516982 150.024
12.293607112949127 108.569
12.316052700916226 81.6431
12.338498763250042 68.9312
12.360927805303868 64.1958
12.383374818673879 63.4726
12.405804812803074 62.9388
12.428252780773262 63.1395
12.45070122756722 63.2347
12.473132656675375 63.5195
12.49558206341869 64.0164
12.518014453510101 64.0616
12.540464823770117 64.2572
12.562915677315177 64.1635
12.58534951575545 64.4243
12.607801338171472 64.2617
12.630236146511358 64.8832
12.652688941369085 66.0503
12.675124723177234 66.3159
12.697578494048786 66.6139
12.720032754458185 66.2264
12.742470003354093 66.4368
12.764925245138771 66.6481
12.787363476431278 67.1944
12.809819703166806 67.7118
12.83227642391173 68.623
12.854716135692716 69.0197
12.877173846755147 70.4769
12.899614549869717 70.9291
12.9220732548287 71.7105
12.94453245827299 72.21600000000001
12.966974655289818 73.2155
12.989434858002571 73.8039
13.011878055298721 74.5105
13.034339260862497 75.6856
13.056800969391883 77.2586
13.079245674017244 80.4313
13.101708390774869 85.0164
13.12415410463411 93.3426
13.146617833206086 103.34299999999999
13.169064559883248 114.4
13.191529303857127 129.746
13.213994557076367 153.02200000000002
13.236442809902437 190.732
13.258909083908291 251.525
13.28135835851934 326.137
13.30382565690295 401.86300000000006
13.326293469022952 450.966
13.348744283242008 416.204
13.371213125129904 321.72700000000003
13.39366497011003 218.268
13.416134845360597 146.95600000000002
13.438605238843131 112.685
13.46105863690397 104.399
13.483530069144786 106.846
13.505984506951902 112.811
13.528456981549432 123.79
13.550929978879088 139.236
13.573385983253365 163.681
13.595860028340867 202.685
13.618317081455832 258.157
13.64079217790333 329.111
13.663250283359057 380.407
13.685726434770173 388.311
13.708203115221277 324.81
13.730662806148091 239.562
13.75314054697177 161.893
13.775601299246777 113.191
13.798080104050406 90.9007
13.820559442405358 82.9788
13.843021793671388 80.3863
13.865502201420897 79.0539
13.887965623051947 78.6807
13.910447103807167 77.6136
13.932929122629764 76.6385
13.955394156785959 76.2796
13.977877254034569 75.4349
14.000343367582113 74.2388
14.022827546871707 73.5935
14.045294743423524 73.1782
14.06778000837062 72.3235
14.090265817715476 72.12100000000001
14.112734645763819 72.1291
14.13522154619454 71.6781
14.157691466286913 71.7743
14.180179461423874 71.544
14.202668005486178 71.1203
14.22513957064374 70.1711
14.247629214846473 69.9248
14.270101881097517 69.2364
14.29259262906496 69.2261
14.315083930490205 69.3068
14.337558255389705 69.0789
14.360050666019726 68.9714
14.382526101071944 68.6444
14.405019624534942 68.4314
14.427513705993134 68.2319
14.449990813291825 68.1548
14.47248601302899 67.937
14.49496423954951 68.2988
14.517460561197822 68.221
14.539939910570322 68.1971
14.562437357763558 68.1715
14.58493536931253 68.4558
14.607416409993311 68.8981
14.62991555254159 69.3036
14.652397725157423 69.1506
14.674898002342799 69.4974
14.697398848433282 70.0475
14.719882725991326 71.7074
14.74238471217934 73.3488
14.764869730765593 76.965
14.787372860692983 80.1529
14.809876564079925 84.9728
14.83236330125751 90.7203
14.854868153850365 99.7875
14.877356041159485 114.49799999999999
14.899862046604186 133.267
14.922351087688757 160.84
14.944858249632887 195.515
14.967365991421232 223.18200000000002
14.989856770231246 232.988
15.012365673994204 214.109
15.03485761569738 176.72
15.05736768508665 132.243
15.07987833888692 101.04899999999999
15.102372032001655 82.5776
15.124883856909658 73.4599
15.14737872204565 70.6153
15.169891721717274 69.5527
15.192405310371893 68.8737
15.214901940621196 68.5609
15.237416709527137 67.8385
15.259914520936249 67.8452
15.282430473753607 67.0461
15.304947020131227 66.7364
15.327446610371178 66.4712
15.349964346154254 66.0939
15.372465126703139 66.0619
15.394984055556009 65.917
15.417486030076159 65.6508
15.44000615566487 65.2898
15.462526881230803 65.196
15.485030653812652 64.976
15.507552581617434 64.9975
15.530057557334603 65.0723
15.55258069104857 65.2803
15.575104429329837 65.4544
15.597611216864632 65.3938
15.620136166564563 66.3519
15.6426441664095 67.9005
15.665170331202765 70.5235
15.687697105158826 73.1978
15.710206930593545 76.7624
15.732734925158933 81.4312
15.755245972089478 87.8248
15.77777519094324 97.1144
15.800287463046663 110.29899999999999
15.822817909869592 129.935
15.84534897229804 153.49200000000002
15.867863089299354 180.86700000000002
15.890395385222186 198.303
15.912910736597423 196.995
15.935444269699861 175.32
15.957978423016485 140.38299999999998
15.980495633101265 108.584
16.003031029129367 85.2237
16.02554948280019 70.6332
16.048086125229432 64.8678
16.070623392487107 62.7003
16.09314371869582 61.6528
16.11568223789321 60.7493
16.13820381691126 59.8811
16.160743591742527 59.6529
16.183283996022084 59.2114
16.205807461423195 58.5819
16.228349126881973 58.0109
16.25087385432698 57.8555
16.27341678466365 57.2906
16.29594277784926 57.0256
16.31848697676433 56.8052
16.341031811604868 56.5294
16.36355971058487 56.4855
16.3861058195587 56.2004
16.40863499352978 55.5229
16.431182380342005 55.5255
16.453730407713202 55.2297
16.476261501364792 54.9871
16.498810812136167 54.5866
16.52134319004079 54.806000000000004
16.54389378792203 54.621
16.566445031001553 54.5049
16.588979342490088 54.4495
16.61153187824822 54.292
16.634067483263312 54.1104
16.656621315414416 53.9412
16.679175797408888 53.5806
16.701713349928728 53.6153
16.72426913389191 53.9096
16.74680798922351 53.8788
16.76936507887444 53.8285
16.791905240734874 54.0561
16.814463639794468 53.9329
16.837022695210294 53.8995
16.859564824093756 54.2355
16.882125194503903 54.2799
16.904668639217885 54.3375
16.927230328348003 54.2743
16.949792678493612 54.5871
16.972338104193863 54.5006
16.994901778652235 54.7635
17.017448529496576 55.089
17.040013531998152 55.5452
17.06257920018044 55.7938
17.0851279459922 56.4533
17.107694947817667 57.6491
17.130245028099072 58.4621
17.15281336730298 59.699
17.17536478578733 61.2564
17.19793446610687 63.5012
17.220504818648422 66.6602
17.243058251703697 70.294
17.265629950971032 75.4033
17.288184731571736 80.0836
17.310757781306908 83.6457
17.33333150794385 83.4913
17.355888317140174 79.8428
17.37846339986244 73.4119
17.401021565958885 67.5343
17.42359800851343 62.9747
17.44617513265564 60.3354
17.468735341390783 59.1647
17.491261035594565 58.5144
17.51396340099364 58.19
17.536490463869136 58.3777
17.559018209820174 58.2762
17.58154663977963 58.6233
17.604251766089718 58.6271
17.626781572227713 58.7383
17.64931206518155 59.2972
17.671843245885103 59.5603
17.69455114821572 59.7407
17.717083712612634 59.7946
17.739616967569667 60.4007
17.762150914021706 60.9535
17.78486160749854 61.1258
17.807396945166804 62.0988
17.829932977143503 63.5519
17.85246970436452 65.0158
17.875183204129467 66.8646
17.897721330097664 68.6837
17.920260154126645 70.936
17.942799677153296 74.2869
17.9655159983646 78.3724
17.988056927677544 83.7378
18.010598558807683 91.361
18.033140892692916 102.21600000000001
18.05586005052525 114.757
18.07840379824407 128.638
18.10094825154059 138.981
18.12366954819864 143.12
18.146215420998306 137.428
18.16876200220057 124.734
18.191309292745153 108.62100000000001
18.214033452627167 95.7274
18.236582170236648 87.1467
18.259131600016456 84.1056
18.281681742907335 85.5376
18.304408781233683 91.12
18.32696035875955 97.4943
18.349512652227624 102.37899999999999
18.372065662579683 106.445
18.394795594587553 105.17299999999999
18.41735004715306 98.0861
18.43990521943684 89.8286
18.46246111238171 80.9132
18.485193953325208 72.07600000000001
18.507751296070428 66.8306
18.530309362314178 63.894
18.552868153000343 62.1894
18.57560391815056 61.1651
18.59816416623245 60.8376
18.620725141597372 60.3902
18.643286845190268 59.986999999999995
18.666025549835414 59.4633
18.688588718427933 58.989
18.711152618092243 58.8068
18.73389353884365 58.5647
18.75645890921984 58.228
18.77902501351406 57.998999999999995
18.801591852673102 57.8553
18.824335739722738 57.4621
18.846904057212626 57.2607
18.8694731124168 56.958999999999996
18.89204290628315 57.2979
18.914789774966803 56.9735
18.937361054791623 56.6098
18.959933076131318 56.3497
18.982505839934877 56.1657
19.00525570560582 56.1807
19.027829963004184 56.0317
19.05040496572238 56.1459
19.072980714710468 56.4668
19.095733592739563 56.5749
19.11831084296757 56.6291
19.140888842324735 56.8923
19.16346759176222 57.1776
19.18622349753803 57.7629
19.208803755869358 58.6963
19.231384767143577 60.0564
19.253966532312948 61.5897
19.276725481241822 63.808
19.29930876296784 66.4994
19.3218928014549 69.6764
19.34465404436217 72.6862
19.36723960516257 74.65
19.389825925592426 75.2549
19.412413006605938 72.86399999999999
19.43517731967805 68.6472
19.457765930683355 63.8754
19.48035530514408 59.938
19.50294544401556 56.9764
19.525712842708348 55.0807
19.54830451925909 54.0249
19.570896963095727 53.2972
19.593490175174704 53.1783
19.616260674962184 53.2128
19.638855432416964 52.7017
19.661450960992624 53.181999999999995
19.68404726164677 52.8449
19.706820878021247 52.6821
19.729418731756834 52.9758
19.752017360452857 52.7996
19.77461676506804 53.1241
19.797393513540218 53.386
19.819994478951667 53.3553
19.84259622316767 53.8039
19.8651987471481 54.071000000000005
19.887978643247177 54.1756
19.91058273574792 54.8021
19.933187610901943 55.8734
19.955969879466828 57.1727
19.97857632894404 58.736000000000004
20.00118356396599 60.4683
20.023791585494575 62.9153
20.046577028914875 65.8307
20.069186632506966 68.2662
20.091797025500632 70.0614
20.114408208858933 69.9563
20.137196842715273 68.9526
20.159809615886765 66.3681
20.18242318232135 63.5271
20.20503754298326 61.4469
20.227829382875154 60.8418
20.250445341109344 61.428000000000004
20.27306209647285 62.6989
20.29567964993108 64.3108
20.31847471147704 65.1448
20.34109387027612 65.4932
20.363713830075454 64.3747
20.386334591841646 62.1179
20.409132890679302 58.9332
20.431755265564437 55.7649
20.454378445325528 53.3937
20.477002430930366 51.95399999999999
20.499803982716553 50.8913
20.522429589228004 50.1644
20.54505600449589 49.9831
20.567683229489194 49.787
20.590488049900088 49.7058
20.61311690359731 49.5177
20.63574656993626 49.3148
20.658553853717297 48.8547
20.681185154618298 48.9587
20.703817271080066 48.8624
20.72645020407368 48.6426
20.749260783967177 48.4189
20.771895359337133 48.388000000000005
20.794530754161617 48.2737
20.817166969412938 48.2499
20.83998086114876 48.147
20.86261872660049 48.0813
20.885257415405402 48.1826
20.90789692853701 48.1104
20.930714147864748 48.0103
20.953355319030678 48.0272
20.97599731745334 48.3148
20.99864014410749 47.9683
21.021460706796564 48.018
21.044105199328826 48.3411
21.06675052302631 48.4994
21.089396678865015 48.5997
21.112220600704806 48.9406
21.134868430275347 49.3177
21.15751709492456 49.6273
21.180166595629693 49.7742
21.202993892429635 50.5225
21.22564507473034 50.8145
21.24829709602816 51.1797
21.27112693608965 51.1076
21.293780644891275 50.7166
21.316435195634053 49.7678
21.339090589297417 49.0962
21.361923832041875 48.6667
21.384580921090404 48.1735
21.407238856007325 47.7905
21.429897637773326 47.6681
21.45273429906592 47.7204
21.475394784108598 47.7635
21.498056118951983 47.9384
21.520718304578022 48.2713
21.543558400304388 48.288999999999994
21.566222297108816 48.5136
21.58888704765135 48.5984
21.61155265291521 48.9682
21.63439619898156 49.3932
21.657063523335786 49.6163
21.67973170537063 50.1899
21.7024007460706 50.5547
21.72524775840385 51.2283
21.747918526116475 52.393
21.770590155457388 53.5851
21.79326264741238 55.2788
21.816113141960237 57.3401
21.838787368860547 59.2792
21.861462461341976 61.412
21.884315579735777 63.6142
21.90699241312273 64.3868
21.92967011506078 64.2745
21.95234868653799 63.0236
21.9752053151131 61.1273
21.997885635446785 58.9482
22.020566828293532 57.2287
22.04324889464272 55.8408
22.066109049404666 55.1641
22.088792872571794 55.2343
22.111477572219204 55.5848
22.1341631493376 55.6609
22.157026846313123 55.153999999999996
22.179714188221507 54.2317
22.202402410582668 52.873999999999995
22.22509151438863 51.4502
22.24795876962584 50.1118
22.270649646204486 49.3532
22.293341407213727 48.6295
22.316034053646906 48.3794
22.338904883215342 48.3232
22.36159931041458 48.1735
22.38429462602756 48.19
22.40699083104897 47.9169
22.429865251039757 47.9146
22.452563244831367 47.8354
22.47526213102522 48.1045
22.49813925616515 47.9101
22.520839937143307 47.9311
22.543541513520587 48.0692
22.56624398629403 47.9577
22.589124730075895 47.863
22.611829005656723 48.3092
22.63453418063466 48.3228
22.657240256008077 48.3926
22.680124634582935 48.678000000000004
22.70283252079775 48.7133
22.725541310413075 49.0827
22.74825100442868 49.3362
22.771139033969575 49.938
22.79385054687155 49.998999999999995
22.81656296718292 50.5929
22.83927629590484 51.4821
22.862167992606945 52.6323
22.88488314827121 53.9665
22.907599215359284 55.1122
22.93031619487366 56.2974
22.953211574954405 56.8656
22.975930389478226 57.4004
22.998650119445763 57.1394
23.02137076586092 55.803999999999995
23.044269845560063 54.1605
23.06699233506288 52.5847
23.089715744034912 50.9597
23.112617610931565 49.6726
23.135342869061212 48.8098
23.158069049684816 48.428999999999995
23.1807961538087 48.2634
23.20370174880544 48.1026
23.226430710184808 48.2112
23.249160598093425 48.3079
23.271891413539002 48.2132
23.294800752937697 48.3462
23.31753343374794 48.4738
23.340267045128353 48.8078
23.36300158808808 49.1538
23.38591468821339 49.4818
23.408651104658304 49.8124
23.431388455719986 50.4596
23.454126742409 51.2492
23.4770436196085 52.3184
23.499783787914662 53.8993
23.522524894889884 54.9951
23.54526694154616 56.3439
23.56818761219047 57.4216
23.59093154860734 57.6687
23.613676427751283 57.4926
23.636422250635754 55.873999999999995
23.659346731118656 54.0934
23.68209445191868 51.9471
23.704843119509587 49.6486
23.72759273490623 48.1713
23.750521041644767 47.1027
23.77327256312355 46.2054
23.796025035462787 45.8312
23.818956224555475 45.4314
23.841710609113413 45.3765
23.86446594758979 45.114
23.887222241002014 44.9661
23.910157285144578 44.6817
23.932915498962537 44.6192
23.955674670778713 44.4265
23.978434801611975 44.2242
24.001373717286125 44.0926
24.024135776723917 44.0746
24.046898798245582 43.9437
24.06966278287146 43.8452
24.092605586582614 43.5283
24.115371508023642 43.3919
24.1381383956401 43.303000000000004
24.16090625045381 43.2538
24.183852958731244 43.2948
24.206622758582608 43.1566
24.229393528706886 43.0245
24.252165270127392 43.0321
24.27511589952438 43.0014
24.297889594216997 42.8535
24.32066426328598 42.8388
24.34343990775613 42.7034
24.36639447485003 42.6492
24.38917208083877 42.4816
24.41195066531332 42.5158
24.43490819850244 42.4839
24.457688750692377 42.3636
24.48047028445616 42.3932
24.503252800821233 42.4966
24.526214300784112 42.5549
24.548998793132213 42.5276
24.57178427117417 42.5371
24.59457073593893 42.4202
24.617536219319863 42.4336
24.64032466834748 42.3072
24.663114107195035 42.2343
24.685904536893013 41.78
24.708874020360852 41.8057
24.731666442613744 41.872
24.754459858818787 41.7966
24.777254270007962 41.6573
24.80022777025625 41.5913
24.82302418230472 41.6876
24.845821592443674 41.6215
24.86862000170663 41.6827
24.891597535453727 41.6065
24.914397953892728 41.8471
24.93719937456671 41.8571
24.96000179851076 42.0187
24.98298338249997 42.1182
25.00578782394922 42.3725
25.028593271784167 42.395
25.05157790644186 42.6678
25.07438537804115 42.895
25.097193859145293 43.1665
25.120003350792075 43.4003
25.142992065061257 43.777
25.165803588823465 44.0974
25.18861612625217 44.1237
25.211429678386736 44.1658
25.234422489079968 44.2139
25.257238081693636 44.1312
25.280054692141732 44.321999999999996
25.3028723214652 44.3326
25.325869245420463 44.4897
25.348688923599397 44.527
25.371509623787006 44.3139
25.394331347025812 43.7134
25.41733240110666 43.2081
25.440156181590016 42.5398
25.46298098826268 42.0648
25.48580682216873 41.4602
25.50881202326435 41.0105
25.53163992281684 40.8669
25.55446885274561 40.6009
25.577298814096377 40.3417
25.600308179121807 40.1714
25.623140214533745 40.3396
25.64597328451537 40.114000000000004
25.66898578564376 40.015
25.691820936010206 39.9904
25.714657124097695 39.9549
25.737494350954734 40.042
25.760511045684957 39.7759
25.783350361364224 39.8674
25.806190718969255 39.8836
25.82903211955018 40.1072
25.852053024868923 40.0801
25.874896522722523 40.075
25.897741066713106 40.0739
25.920586657892454 40.2601
25.943611790812668 40.4752
25.966459487728237 40.546
25.989308234998564 40.4462
26.01215803367705 40.9857
26.03518741123814 41.1698
26.05803932412957 41.3287
26.080892291600094 41.1413
26.10374631470478 41.2324
26.12677995397268 41.2501
26.14963609978026 41.1678
26.172493304397875 40.7103
26.19535156888223 40.5105
26.218389486949604 40.0618
26.241249882640123 39.8462
26.26411134137826 39.5855
26.28715248187403 39.7145
26.31001607820869 39.4976
26.3328807407756 39.3361
26.35574647063438 39.5758
26.37879191991473 39.5493
26.401659795896734 39.6235
26.424528742360263 39.7896
26.447398760366614 39.9296
26.470448535598294 40.1025
26.49332070826805 40.2617
26.516193955675355 40.5991
26.53906827888316 40.745
26.562122397260108 40.949
26.584998883685063 41.4508
26.607876449110325 41.6463
26.63075509460056 41.8072
26.65381357334404 41.8964
26.67669439061878 41.63399999999999
26.699576291163382 41.4111
26.722459276044212 41.4062
26.745522132402975 41.098
26.768407297649354 40.7399
26.791293550442003 40.4378
26.814180891848974 40.1736
26.837248143099337 40.0144
26.860137673466657 39.923
26.88302829566349 39.5597
26.90592001075963 39.3421
26.92899167420566 39.2571
26.951885586870763 38.9633
26.974780595655517 38.639
26.99785558178161 38.6871
27.020752794605112 38.4551
27.043651106772522 38.3942
27.06655051935668 38.3368
27.089629948036183 38.272
27.112531573292053 38.2525
27.135434302194138 38.2716
27.158338135817015 38.0885
27.181422024430987 38.1502
27.204328079372566 37.9943
27.22723524226965 38.0083
27.250143514198573 38.0405
27.273231880156334 38.075
27.296142382065014 37.882
27.319053996245536 37.8804
27.341966723775965 38.0285
27.365059584515222 38.0938
27.38797455070062 38.0341
27.410890633481237 37.9638
27.433807833936918 37.9609
27.456905206923906 38.0669
27.47982465472398 37.9994
27.502745223449743 38.1804
27.525666914182825 38.2294
27.548768816912457 38.0288
27.571692763693633 38.0778
27.59461783573812 37.9601
27.617723149491244 37.7284
27.640650484125285 37.6129
27.66357894728264 37.5124
27.686508540048052 37.5921
27.709618414237887 37.4249
27.732550278321757 37.4656
27.755483275279115 37.4072
27.778417406196485 37.4741
27.801531858397514 37.5499
27.824468269376716 37.3699
27.847405817586786 37.2909
27.870344504116094 37.5613
27.893463551932008 37.5555
27.916404527281053 37.8491
27.93934664422563 37.9116
27.962289903855886 37.9955
27.98541356491974 38.3079
28.00835912214229 38.4808
28.03130582533231 38.6502
28.054253675581805 38.7007
28.077381967556104 38.6708
28.100332124185126 38.6715
28.123283431160893 38.4305
28.146235889577238 38.1636
28.169368830154156 38.1066
28.192323603752033 37.9428
28.215279532083304 37.62
28.238415973016764 37.3766
28.261374223145094 37.3165
28.284333631303806 37.1167
28.307294198589954 36.931
28.330435319167677 36.4785
28.353398217078915 36.3019
28.376362277420153 36.1143
28.39932750129032 35.948
28.422473319286713 35.8622
28.44544088262495 35.7616
28.468409612800283 35.6547
28.491379510913497 35.5909
28.51453004413313 35.4919
28.53750229057244 35.4958
28.56047570826344 35.3555
28.583450298308804 35.4935
28.606605564586562 35.2179
28.629582511831156 35.2447
28.65256063474956 35.2626
28.675539934446338 35.2727
28.698699951647605 35.2365
28.72168161743193 35.0476
28.74466446331978 35.0262
28.767648490417624 35.0531
28.790813276438353 34.9458
28.813799678527303 34.9707
28.836787265157085 34.9957
28.859955641890075 35.0255
28.882945610203045 34.9602
28.905936766392035 34.984
28.928929111566863 34.9149
28.952102288520145 34.8052
28.975097024308607 34.7028
28.998092952423807 34.4158
29.021090073977508 34.3294
29.04426806913204 34.4178
29.067267590245258 34.1331
29.090268308143695 34.2273
29.11327022394099 34.0942
29.13645305530891 33.9939
29.159457379627167 33.9298
29.18246290519685 33.8303
29.20546963313352 33.9125
29.22865731875826 33.9946
29.25166646419296 33.9156
29.27467681535305 33.7986
29.29768837335608 33.8844
29.320880931312562 33.9483
29.34389491580634 33.8481
29.366910110507334 33.7204
29.38992651653503 33.8719
29.41312396492981 33.8239
29.436142806456754 33.7241
29.45916286268059 33.559
29.48236399319994 33.3866
29.50538649169417 33.2848
29.528410208259935 33.1821
29.55143514402014 33.031
29.574641196749695 32.961
29.597668583816574 32.948
29.6206971934585 32.7727
29.64372702680042 32.7312
29.666938019934474 32.6181
29.689970313635285 32.5341
29.713003834422636 32.5707
29.73603858342347 32.4697
29.759254535188578 32.3173
29.78229175361658 32.3286
29.80533020365064 32.321
29.82836988641968 32.4012
29.85159081507472 32.3994
29.874632976355343 32.2825
29.89767637376955 32.3587
29.920721008448314 32.2081
29.9439469322847 32.2025
29.96699405457564 32.0725
29.9900424175358 32.1782
30.013092022298157 32.0023
30.03632295963995 31.9468
30.059375061131373 31.9725
30.08242840783577 32.1126
30.105483000888153 32.1689
30.128718970092244 32.075
30.151776069006917 32.1005
30.17483441768648 32.1059
30.198074175317235 32.0965
30.221135036724256 31.9879
30.24419715131772 32.0019
30.267260520236203 31.8657
30.290505341942243 31.8681
30.313571232750228 31.9063
30.336638381310948 31.8552
30.35970678876503 31.8031
30.38295669299435 31.6744
30.40602763151657 31.7584
30.429099832366074 31.7985
30.452173296685572 31.6693
30.47542830191959 31.6649
30.498504306502497 31.7668
30.521581577995562 31.7352
30.544660117543582 31.8515
30.56792024229725 31.8282
30.59100133132069 31.7118
30.614083691845494 31.8139
30.637167325018545 31.8896
30.660432587840603 31.971999999999998
30.683518779717886 31.8894
30.70660624769615 31.9564
30.729694992924372 31.8332
30.75296541239743 31.8194
30.77605672557558 31.7521
30.799149319462742 31.7145
30.8224236211637 31.5648
30.845518789950724 31.4232
30.868615242910597 31.4323
30.891712981195973 31.3156
30.91499247215866 31.2972
30.938092794619365 31.2366
30.96119440587579 31.0982
30.984297307082752 31.0321
31.00758200598383 30.9599
31.030687500658694 30.8256
31.053794288760695 30.7803
31.076902371446767 30.6993
31.100192296997445 30.7293
31.12330298246119 30.5957
31.14641496599209 30.5563
31.169528248749216 30.4862
31.19282341969534 30.4684
31.215939314557186 30.5635
31.239056512134788 30.5467
31.262175013589378 30.5626
31.28547544871168 30.5077
31.30859657161541 30.3893
31.331719001892175 30.3679
31.35484274070538 30.5466
31.378148458819545 30.6125
31.401274828443725 30.5353
31.424402510106933 30.5195
31.447712205419993 30.6202
31.470842524931633 30.4666
31.493974159989783 30.4916
31.51710711176168 30.4295
31.54042212308802 30.4689
31.563557722100917 30.3279
31.586694641341655 30.1701
31.609832881979628 30.0299
31.63315322823208 30.0387
31.656294125521327 29.9658
31.679436347728515 29.910999999999998
31.70257989602529 29.885
31.725905596152327 29.8617
31.74905181052835 29.7975
31.772199354521323 29.8306
31.79534822930507 29.7399
31.818679302290967 29.7747
31.84183085259981 29.8538
31.864983737233473 29.7742
31.88813795736804 29.7892
31.911474422233013 29.6013
31.934631327356435 29.7082
31.9577895715215 29.6998
31.980949155906522 29.6038
32.004291031706956 29.7069
32.027453310562606 29.570999999999998
32.05061693318573 29.399
32.07396288236386 29.4298
32.09712920658542 29.3649
32.12029687812702 29.2145
32.14346589817093 29.0969
32.166817291729984 29.1552
32.18998902288583 29.0619
32.21316210610336 28.9688
32.23633654256711 28.9241
32.259693399663725 28.8759
32.282870556771144 28.8257
32.30604907069099 28.8379
32.329228942610065 28.8068
32.35259128243769 28.6809
32.375773884550505 28.6513
32.398957848235646 28.6071
32.422143174682176 28.4799
32.445511016471215 28.4104
32.468699082679954 28.3518
32.49188851523011 28.2375
32.51507931531304 28.2331
32.538452678331 28.2517
32.56164622776311 28.2021
32.58484114831493 28.0773
32.60803744118015 28.1479
32.631416344731896 28.1248
32.654615396551876 28.1223
32.67781582427913 28.0166
32.701198898634416 28.0167
32.72440209253756 27.9342
32.747606665947124 27.9442
32.77081262006088 27.8238
32.79420126883317 27.7552
32.81740999876112 27.8505
32.840620112999424 27.6761
32.86383161274818 27.6223
32.88722585534586 27.6746
32.91044014056596 27.7041
32.933655814909734 27.5236
32.95687287957963 27.6153
32.98027273544904 27.6125
33.00349259526636 27.534000000000002
33.026713849030116 27.5856
33.04993649794511 27.5264
33.073341986570746 27.4088
33.09656744032826 27.4603
33.11979429286444 27.4192
33.14302254538647 27.531999999999996
33.166433686291185 27.3643
33.18966475336992 27.3172
33.212897224069096 27.2047
33.23613109959831 27.2979
33.259547912343415 27.2258
33.2827846121627 27.2056
33.306022720453775 27.1492
33.32926223842861 27.0781
33.352684742614166 27.0591
33.37592709463173 26.9708
33.399170859982064 26.9355
33.422597648419426 26.8548
33.44584425514446 26.7475
33.46909227885668 26.6784
33.4923417207723 26.6213
33.51577423505344 26.6819
33.539026528130385 26.6428
33.56228024307245 26.6242
33.585535381098246 26.4836
33.60897364093058 26.4561
33.63223163992385 26.3667
33.6554910656699 26.2653
33.678751919389796 26.3798
33.702195944520106 26.2745
33.72545966903325 26.2451
33.74872482519663 26.1336
33.771991414233746 26.2087
33.79544122444841 26.1551
33.81871069412428 26.0889
33.84198160035767 26.0563
33.86525394437455 26.0887
33.88870955949969 25.9731
33.911984794020626 25.9913
33.93526147001624 25.9392
33.958539588715006 25.8029
33.98200102861669 25.8163
34.0052820477047 25.7362
34.02856451319451 25.6563
34.05203033759056 25.7017
34.07531571090147 25.6293
34.09860253431845 25.6373
34.121890809074316 25.5113
34.145362493118924 25.5373
34.16865368561615 25.5001
34.191946333164054 25.4873
34.21524043699793 25.4469
34.23871800066799 25.4118
34.26201503218366 25.3673
34.28531352370466 25.3656
34.30861347646881 25.2345
34.33209693978188 25.3137
34.3553998301885 25.1742
34.378704185565205 25.0791
34.402010007152356 25.1369
34.42549939016683 25.14
34.44880815937748 24.9324
34.472118398533134 24.8822
34.49543010887669 24.9202
34.51892543169198 24.8701
34.54224009966052 24.83
34.56555624255917 24.8619
34.58887386163339 24.7636
34.61237514439016 24.6567
34.6356957311114 24.5878
34.65901779775809 24.6086
34.68252356662995 24.6254
34.705848608458616 24.5559
34.72917513396849 24.5611
34.75250314440949 24.4993
34.77601490857862 24.3311
34.799345904259795 24.3844
34.82267838863559 24.3782
34.846012362958525 24.4171
34.869530142679984 24.3634
34.89286711232212 24.2901
34.91620557568269 24.2351
34.93954553401677 24.2101
34.9630693495876 24.0991
34.986412313340814 24.0947
35.00975677584668 24.1644
35.033102738362956 24.1143
35.05663261012228 24.017
35.0799815881786 24.0359
35.10333207003229 23.961
35.12668405694369 23.9964
35.150220005273056 24.0134
35.17357501786656 23.9115
35.19693153931268 23.872
35.220289570874385 23.8456
35.24383161619786 23.8506
35.267192683604904 23.8221
35.290555264930376 23.7335
35.314101899412165 23.7303
35.33746752422433 23.7015
35.36083466676374 23.741999999999997
35.38420332829803 23.7034
35.407756095629054 23.765
35.43112781085063 23.675
35.45450104888391 23.6669
35.477875810999194 23.6881
35.50143473172161 23.5203
35.52481255774625 23.5899
35.54819191167777 23.5623
35.57157279478914 23.3925
35.595137889488406 23.4742
35.61852184675279 23.3642
35.641907337029984 23.3394
35.665294361595684 23.3456
35.68886565090076 23.2032
35.7122557598848 23.2261
35.73564740699838 23.1968
35.759040593519934 23.1615
35.78261809810353 23.1364
35.80601437933051 23.0888
35.829412203814705 22.9876
35.85281157283719 22.9305
35.876395313415884 22.9901
35.8997977874528 22.9539
35.92320180988546 22.901
35.946790244133936 22.8265
35.97019737933222 22.8819
35.993606066789866 22.8353
36.01701630779276 22.7825
36.04061101440684 22.7029
36.06402437852291 22.7043
36.08743930005611 22.6526
36.1108557802951 22.6097
36.13445678011326 22.7394
36.15787639383515 22.5618
36.18129757014299 22.4821
36.20472031032821 22.4761
36.22832762423364 22.42
36.25175350829375 22.4077
36.275180960119776 22.375999999999998
36.298609981005924 22.3614
36.32222362992669 22.396
36.34565580510207 22.3199
36.36908955323448 22.2565
36.39252487562093 22.1487
36.416144880530226 22.1584
36.43958336764275 22.1331
36.463023432914625 22.2614
36.486465077645676 22.0748
36.51009145956204 22.0926
36.53353627947859 22.0917
36.55698268276811 22.0594
36.58043067073321 21.9774
36.60406345072071 21.8968
36.62751462435344 21.927
36.65096738658405 21.8844
36.67460498210655 21.8154
36.69806093788647 21.7938
36.72151848619297 21.6975
36.744977628333636 21.759
36.76862165890998 21.6501
36.79208400512205 21.623
36.81554794910557 21.6028
36.83901349217101 21.5355
36.862663978991606 21.5471
36.88613273667352 21.4803
36.90960309738324 21.4891
36.933075062434064 21.51
36.95673202673572 21.4545
36.98020721697122 21.3825
37.003684015502365 21.2973
37.027162423645365 21.296
37.050825886711465 21.2001
37.07430753063053 21.2033
37.09779078812467 21.1642
37.121275660513014 21.2058
37.144945643673694 21.078000000000003
37.16843376245278 21.0492
37.19192350009803 21.0363
37.215414857931435 20.9899
37.239091382563885 20.9385
37.262585997426164 21.0129
37.28608223645736 20.9542
37.309763684451696 20.8986
37.33326318851098 20.8678
37.356764320726555 20.8775
37.380267082425526 20.9357
37.40395510942588 20.7943
37.42746114683234 20.6648
37.45096881771841 20.6986
37.474478123414166 20.7374
37.49817275092816 20.6831
37.52168534303452 20.5917
37.54519957395567 20.5438
37.568715445024665 20.5392
37.592416694607714 20.4489
37.61593586281424 20.5433
37.63945667518264 20.5453
37.66297913304891 20.4392
37.68668702630454 20.3947
37.710212792059274 20.3457
37.733740207334854 20.3289
37.757269273470364 20.2785
37.780983832050374 20.2357
37.80451621684926 20.2985
37.82805025654007 20.2559
37.851585952464795 20.1476
37.8753071980695 20.0637
37.89884622345676 20.0835
37.92238690911902 20.0078
37.94611318753442 20.0293
37.969657210779765 20.0004
37.99320289834801 20.0165
38.016750251586465 19.9734
38.04048325513017 19.9001
38.06403395679343 19.8537
38.087586328183946 19.8465
38.11114037065203 19.7912
38.13488012115898 19.789
38.1584375229181 19.7454
38.181996599821 19.739
38.205557353221124 19.7203
38.229303872575656 19.6617
38.2528679961576 19.6943
38.27643380031219 19.524
38.30000128639589 19.5664
38.32375459653193 19.4584
38.34732546371299 19.4961
38.37089801690786 19.4215
38.39447225747609 19.36
38.418232380377425 19.3279
38.441810012983396 19.3987
38.46538933705673 19.387999999999998
38.488970353960084 19.3153
38.51273731166058 19.2937
38.536321731567014 19.2402
38.55990784840681 19.2191
38.58367995004091 19.1956
38.60726947812959 19.1172
38.63086070726198 19.115
38.654453638806274 19.1169
38.678232613930824 19.0784
38.70182896773327 19.0475
38.72542702806741 19.0266
38.7490267963045 19.0086
38.77281266709232 18.9338
38.79641586862214 18.9483
38.8200207821842 18.8517
38.843627409152944 18.9151
38.86742019782782 18.8531
38.891030269149255 18.7663
38.914642058016156 18.7642
38.938255565806124 18.775
38.96205529464307 18.658
38.98567225787121 18.6614
39.00929094417078 18.665
39.03291135492255 18.6213
39.05671804624804 18.6396
39.080341923549106 18.5289
39.103967529460334 18.5808
39.127594865365744 18.4969
39.15140854155791 18.4252
39.17503935514948 18.4195
39.19867190290282 18.4321
39.22249083587951 18.4097
39.24612686969409 18.3285
39.269764641845306 18.317
39.293404153722804 18.3165
39.317230110864074 18.2808
39.34087311998506 18.2461
39.36451787301696 18.1933
39.388164371352595 18.1302
39.41199737518003 18.1369
39.43564738196752 18.1349
39.45929913825317 18.0921
39.48295264543308 18.0678
39.506792718520884 18.0233
39.530449745387216 18.0009
39.55410852735203 18.0062
39.57776906581474 17.9896
39.60161623079 17.9271
39.625280300200025 17.9527
39.64894613032202 17.8612
39.67261372255866 17.8197
39.6964680021016 17.809
39.72013913657293 17.7958
39.74381203738292 17.7771
39.76748670593756 17.7582
39.79134812278169 17.7466
39.81502634488497 17.7026
39.83870633896685 17.6243
39.862388106436654 17.6295
39.88625668336918 17.5726
39.90994201572829 17.5935
39.933629125719285 17.4782
39.957503091207826 17.469
39.9811937746168 17.4981
40.00488623990914 17.4311
40.02858048850006 17.4417
40.05246165409549 17.3959
40.076159487492085 17.3662
40.099859108448875 17.3653
40.123560518384345 17.3371
40.1474489070226 17.3
40.171153913178564 17.2725
40.194860712584955 17.2322
40.2185693066637 17.2195
40.242464941335314 17.1624
40.26617714307655 17.1624
40.289891143772046 17.1175
40.3136069448471 17.11
40.33750984859743 17.0889
40.3612292688043 17.0239
40.3849504936829 16.9737
40.40867352466194 17.0147
40.43258372059144 16.9536
40.45631038219906 17.029
40.48003885420956 16.9141
40.503769138055105 16.8413
40.52768664931955 16.8738
40.55142057531802 16.8515
40.57515631746428 16.8083
40.599079334038514 16.7407
40.62281872700477 16.6767
40.64655994043941 16.7408
40.67030297578061 16.6754
40.69423334835778 16.6317
40.71798004609188 16.6064
40.74172857006355 16.6341
40.76547892171441 16.6082
40.7894166736039 16.5632
40.813170699248566 16.5252
40.83692655691388 16.491
40.86068424804498 16.5388
40.884629402612525 16.4388
40.908390779366385 16.4524
40.932153993938 16.3883
40.95591904777605 16.3144
40.979871628443995 16.4313
41.003640379561936 16.389
41.02741097430883 16.3205
41.05118341413683 16.2637
41.075143444384416 16.2206
41.098919593177826 16.2501
41.1226975914255 16.2242
41.14647744058318 16.1997
41.170444943946755 16.1765
41.19422851378379 16.1562
41.218013938914645 16.0518
41.24198706625173 16.0471
41.26577622087193 16.0333
41.289567235177785 16.0689
41.31336011063129 16.0121
41.337340752422875 15.9281
41.361137369129835 15.9594
41.38493585138705 15.8945
41.40873620066004 15.8613
41.43272438060107 15.8663
41.45652848292052 15.8043
41.48033445666918 15.784
41.50414230331616 15.7126
41.528138045159764 15.7243
41.551949656675205 15.6691
41.575763145513235 15.6333
41.59957851314666 15.6297
41.62358184070442 15.6129
41.64740098505737 15.5973
41.6712220126409 15.5291
41.69504492493139 15.5206
41.71905586207357 15.5182
41.74288256296395 15.4807
41.766711153007456 15.4942
41.79054163368412 15.4447
41.814560204340054 15.4173
41.838394485526365 15.3764
41.86223066180303 15.4475
41.88625497706819 15.3279
41.910094962812 15.3216
41.93393684811168 15.3125
41.95778063445365 15.2062
41.981812625263366 15.2001
42.00566023303407 15.208
42.029509746323676 15.1766
42.05336116662236 15.1319
42.077400857069705 15.154000000000002
42.10125611078846 15.134
42.12511327600405 15.0606
42.14897235421036 15.0272
42.173019768448455 14.9925
42.19688269209613 15.019
42.22074753323349 14.9753
42.24461429335818 14.9708
42.268669455600495 14.9516
42.292540073217886 14.9445
42.31641261433284 14.8514
42.34028708044675 14.8399
42.36435001496739 14.8766
42.38822835065557 14.8479
42.41210861586426 14.817
42.4359908120986 14.8383
42.46006154323262 14.7256
42.48394762115317 14.6996
42.507835634632315 14.7581
42.531912233047436 14.725
42.55580413732265 14.6305
42.579697981698 14.6495
42.60359376768525 14.5957
42.62767820545945 14.5926
42.65157789440821 14.5848
42.67547952952185 14.5567
42.699383112316 14.5118
42.72347541395347 14.4426
42.74738291190531 14.4148
42.771292362102166 14.4263
42.795203766063516 14.3869
42.819303956130405 14.3648
42.843219287476536 14.3753
42.86713657716324 14.347000000000001
42.89105582671383 14.2797
42.91516392983864 14.3271
42.939087119032166 14.2492
42.963012272677304 14.2267
42.98693939230129 14.2436
43.01105543317513 14.1571
43.034986504731386 14.1274
43.05891954686589 14.1128
43.08285456110972 14.1118
43.10697856448665 13.9862
43.130917542983475 14.0607
43.15485849820081 14.048
43.17880143167367 13.9705
43.20293342237094 13.9448
43.226880332449 13.9311
43.25082922540554 13.9128
43.27496722682525 13.905999999999999
43.29892010567796 13.9352
43.32287497204102 13.8719
43.34683182745632 13.8575
43.370977859791836 13.8401
43.39493871351105 13.7624
43.41890156092628 13.7757
43.44286640358341 13.7681
43.46702049182749 13.7376
43.49098934522816 13.7153
43.51496019852649 13.7327
43.5389330532723 13.6622
43.56309522248204 13.6167
43.58707210044314 13.609000000000002
43.61105098451946 13.5669
43.63503187626491 13.5637
43.659202151562134 13.5052
43.68318707902681 13.5174
43.70717401884041 13.5216
43.731162972560874 13.4718
43.75534137913236 13.4492
43.779334381108384 13.4037
43.803329401683186 13.4065
43.82732644241872 13.4027
43.8515130055166 13.3553
43.87551410707659 13.2974
43.89951723350145 13.2907
43.923709934595614 13.3015
43.94771713129917 13.2643
43.97172635758096 13.2597
43.99573761501002 13.2475
44.0199385169922 13.1398
44.04395385732619 13.171
44.067971233533086 13.1934
44.09199064718605 13.142999999999999
44.11619977548961 13.1241
44.14022328470671 13.0647
44.16424883610785 13.0288
44.18827643127035 13.037
44.21249381139513 13.0012
44.236525514814076 12.9245
44.26055926674478 12.9666
44.28459506876863 12.9869
44.3088207262813 12.9243
44.33286064928722 12.9102
44.35690262714919 12.8584
44.38094666145278 12.8211
44.4051806219871 12.8352
44.42922879003185 12.8023
44.45327901929361 12.8211
44.477331311362136 12.7512
44.501573600619416 12.6691
44.525630039221795 12.6595
44.54968854541895 12.694
44.573937102200176 12.706
44.5979997645541 12.6657
44.622064499300315 12.6012
44.64613130803592 12.6031
44.67038823869318 12.589
44.69445921643748 12.5266
44.718532272981385 12.5375
44.742607409926194 12.5224
44.76687274034801 12.4766
44.79095205918753 12.4379
44.81503346325094 12.425
44.839116954143876 12.4309
44.86339071028742 12.4308
44.88747839599524 12.3612
44.91156817336837 12.3468
44.93566004401666 12.33
44.959942251908146 12.3006
44.984038330325966 12.2692
45.00813650686762 12.2542
45.03223678314731 12.2772
45.05652746888232 12.1678
45.08063196592069 12.1955
45.104738567558705 12.1541
45.128847275414856 12.1477
45.15314646515866 12.0789
45.17725940679741 12.0905
45.20137445952892 12.0791
45.22568004865265 12.0778
45.24979934496396 12.0544
45.27392075725247 12.0521
45.29804428714431 12.0107
45.322358426247604 12.0036
45.346486212804315 11.9413
45.370616121861914 11.9795
45.39474815505086 11.9484
45.41907087049246 11.8754
45.4432071734666 11.9004
45.46734560548283 11.8751
45.49148616817604 11.8856
45.51581748638564 11.8707
45.5399623320197 11.8148
45.56410931325473 11.7636
45.58825843173002 11.7817
45.61259837920865 11.725
45.636751793816 11.7258
45.66090735060093 11.69
45.68506505120716 11.6964
45.7094136545275 11.6269
45.73357566449271 11.5844
45.75773982322992 11.6038
45.78190613238733 11.6254
45.806263418194064 11.5596
45.83043404997326 11.5182
45.85460683713677 11.4789
45.87897065658495 11.5425
45.90314777634752 11.4911
45.92732705646868 11.4658
45.9515084986045 11.4591
45.97588104735473 11.4766
46.00006683541565 11.3868
46.02425479047904 11.4122
46.04844491420549 11.3635
46.0728262191024 11.3405
46.09702070211635 11.3132
46.12121735879483 11.307
46.14541619080294 11.2822
46.169806278764455 11.273
46.194009483459034 11.2753
46.21821486849841 11.1983
46.24242243555223 11.1867
46.266821333570014 11.1861
46.29103328674601 11.1773
46.31524742696538 11.1736
46.33946375590237 11.1246
46.36387149104216 11.1293
46.38809221957392 11.0799
46.41231514186606 11.1162
46.436540259597464 11.0983
46.460956858999374 11.0165
46.48518638983522 10.9501
46.509418121166966 10.9607
46.533652054678114 10.959000000000001
46.55807754555709 10.9679
46.58231590571962 10.9265
46.60655647313217 10.9177
46.630988654873654 10.9016
46.655233659129024 10.794
46.67948087571551 10.8223
46.70373030632484 10.843
46.72817142736393 10.7777
46.752425308428684 10.7817
46.77668140861147 10.7712
46.80093972960865 10.6947
46.82538981736788 10.7008
46.849652602470904 10.692
46.87391761349769 10.6737
46.8981848521493 10.6846
46.9226439341274 10.6054
46.946915650573224 10.5707
46.97118959976749 10.5849
46.99546578341598 10.5587
47.019933887188216 10.5729
47.04421456235744 10.5629
47.06849747711879 10.514000000000001
47.09278263318286 10.5269
47.11725978640143 10.4664
47.14154944775105 10.4689
47.165841355555656 10.4382
47.1901355115306 10.4132
47.214621741924994 10.3977
47.23892041698887 10.3924
47.26322134538975 10.3233
47.28771440635075 10.3394
47.31201986422527 10.3535
47.33632758061436 10.3023
47.360637557241866 10.2497
47.38513974410611 10.277000000000001
47.40945426407847 10.2403
47.43377104948137 10.26
47.45809010204344 10.2744
47.48260144275502 10.2108
47.506925052572285 10.1727
47.53125093475548 10.1399
47.55557909103813 10.1251
47.58009961361992 10.0915
47.60443234110732 10.0627
47.62876734791564 10.064
47.65310463578333 10.035
47.6776343683373 10.0813
47.7019762413987 10.0404
47.72632040075572 9.95392
47.75066684815169 9.9656
47.77520581885936 9.95186
47.799556865477655 9.92811
47.823910205386 9.93452
47.84826584033272 9.903360000000001
47.87281407745551 9.91062
47.89717432569297 9.87983
47.92153687423484 9.871369999999999
47.94609208429692 9.83083
47.97045925671401 9.809439999999999
47.99482873471275 9.80368
48.01920052005013 9.78787
48.04376504619224 9.76822
48.068141469543484 9.78348
48.09252020552573 9.71079
48.11690125590099 9.68817
48.1414751266064 9.69064
48.16586082917454 9.676110000000001
48.19024885144316 9.66269
48.2146391951793 9.639569999999999
48.239222439012764 9.6465
48.26361744916137 9.66291
48.28801478610016 9.619760000000001
48.31241445160131 9.60378
48.337007097209366 9.54077
48.36141144338331 9.54071
48.38581812345755 9.53883
48.41022713920929 9.52347
48.434829215320704 9.47595
48.45924292604658 9.47004
48.48365897780325 9.48976
48.50807737237308 9.462480000000001
48.532688907799276 9.45042
48.55711201168574 9.40209
48.581537463754074 9.42494
48.60615611725119 9.410680000000001
48.63058628942721 9.35435
48.65501881516546 9.36792
48.6794536962573 9.33516
48.70408185970339 9.34423
48.72852147531801 9.2842
48.75296345168211 9.23963
48.77740779059232 9.28073
48.80204549302823 9.263639999999999
48.82649458091802 9.21498
48.85094603676547 9.233139999999999
48.87539986237231 9.199760000000001
48.90004713292306 9.14658
48.92450572200832 9.13922
48.94896668628025 9.14376
48.97343002754588 9.10704
48.99808689542115 9.11089
49.02255501470614 9.10155
49.04702551642794 9.0811
49.0714984023988 9.080210000000001
49.096164896893235 9.08657
49.120642575466796 9.0182
49.145122643748394 8.99612
49.16960510355558 8.9854
49.19428125404938 8.95094
49.2187685210852 8.94435
49.243258185121555 8.96168
49.26794160167084 8.917060000000001
49.2924360839405 8.92411
49.31693296869764 8.91005
49.34143225776915 8.85926
49.36612538195438 8.81288
49.39062950396021 8.836030000000001
49.41513603578346 8.82654
49.4396449792564 8.804839999999999
49.46434784069503 8.782910000000001
49.488861631846454 8.76832
49.513377840166804 8.74058
49.537896467493745 8.713
49.56260909589029 8.66802
49.587132585683285 8.65801
49.611658500018365 8.68069
49.636186840738596 8.687289999999999
49.66090926588511 8.66493
49.685442483902584 8.61737
49.70997813385706 8.581010000000001
49.734516217597076 8.58999
49.75924846937352 8.59492
49.7837914452858 8.53632
49.80833686055187 8.51999
49.83288471702571 8.52651
49.85762682540054 8.49036
49.882179588965734 8.48188
49.9067347993235 8.44464
49.93129245833333 8.46923
49.95604445336378 8.456
49.98060703442832 8.43914
50.005172069746266 8.400730000000001
50.02993150438364 8.405669999999999
50.05450147301533 8.362680000000001
50.07907390151433 8.32592
50.10364879174981 8.35087
50.12841816587289 8.30971
50.1529980044635 8.33072
50.17758031042124 8.2943
50.20216508562089 8.24267
50.22694442953363 8.21379
50.25153416817468 8.247910000000001
50.27612638170508 8.242980000000001
50.300721072005196 8.15285
50.325510416102105 8.16227
50.350110084975064 8.15547
50.37471223628208 8.18952
50.39931687190919 8.18195
50.424116246675766 8.17504
50.44872587605249 8.14069
50.47333799543065 8.09967
50.49795260670191 8.09791
50.52276204271512 8.0806
50.54738166295838 8.05382
50.57200378079314 8.04134
50.596628398116835 8.01184
50.62144792604559 7.997560000000001
50.646077567609396 7.9929
50.670709714377715 7.9951300000000005
50.69553683636198 7.97993
50.72017401885922 7.952489999999999
50.7448137122895 7.921469999999999
50.76945591856022 7.9191899999999995
50.79429318636823 7.93708
50.818940443716784 7.889530000000001
50.84359021965163 7.88115
50.868242516085964 7.83891
50.893089960641895 7.843
50.917747323549435 7.844130000000001
50.94240721271973 7.81048
50.96706963007175 7.78073
50.99192728239342 7.770810000000001
51.01659478166073 7.78723
51.04126481489051 7.77486
51.06593738400761 7.75776
51.090805275207074 7.74075
51.11548294172845 7.72704
51.14016314993547 7.71242
51.164845901758845 7.69274
51.18972406304274 7.675960000000001
51.21441192780656 7.635839999999999
51.23910234200271 7.634460000000001
51.2637953075678 7.618119999999999
51.288683770237945 7.5785800000000005
51.31338186432707 7.5715699999999995
51.33808251561888 7.58477
51.362978729967345 7.5638
51.387684521509755 7.514460000000001
51.41239287610203 7.51302
51.437103795691165 7.490819999999999
51.46201036644977 7.504
51.486726441956634 7.45505
51.51144508832545 7.4807
51.536166307509156 7.43664
51.56108326624387 7.453989999999999
51.58580965706056 7.42622
51.61053862657523 7.4349300000000005
51.635270176746864 7.349810000000001
51.66019755512065 7.35549
51.68493429268881 7.33597
51.70967361681515 7.34386
51.73441552946465 7.33825
51.759353359237934 7.32428
51.7841004750961 7.28647
51.80885018539685 7.2845
51.833602492111254 7.2580800000000005
51.8585508051424 7.253710000000001
51.883308330926425 7.222360000000001
51.90806845906181 7.188689999999999
51.932831191525715 7.2038899999999995
51.95779001977161 7.12518
51.98255798721516 7.13472
52.00732856494335 7.1471
52.03229530577543 7.127330000000001
52.057071130455945 7.102310000000001
52.081849571391054 7.09237
52.106630630568695 7.119339999999999
52.13160794279417 7.09625
52.15639426492067 7.11383
52.18118321127822 7.07689
52.205974783860896 7.03848
52.23096269971011 7.01302
52.255759551287994 7.03304
52.280559035098186 7.002260000000001
52.30536115314103 6.962860000000001
52.33035970494467 6.94325
52.35516711807904 6.94767
52.37997717147198 6.96842
52.40478986713005 6.94995
52.42979908731974 6.93533
52.454617094216 6.892860000000001
52.47943774942214 6.86976
52.50426105495102 6.872139999999999
52.529280976059844 6.86711
52.554109609024096 6.832110000000001
52.57894089837482 6.8421
52.60377484613117 6.79749
52.62880550079408 6.7834699999999994
52.65364479223379 6.762160000000001
52.67848674816189 6.7686399999999995
52.70352547971946 6.74372
52.72837279155837 6.752610000000001
52.753222773982785 6.714189999999999
52.778075429022984 6.691730000000001
52.80312495150885 6.73762
52.827982978797436 6.66562
52.85284368481815 6.65538
52.87770707160767 6.6443
52.90276741793998 6.6375399999999996
52.92763619336701 6.62717
52.952507655698504 6.59806
52.977381806977576 6.640110000000001
53.00245301017842 6.58515
53.02733256653592 6.54962
53.052214817996074 6.54646
53.077099766608484 6.53809
53.102181859804446 6.55213
53.127072229988265 6.51124
53.15196530349892 6.52809
53.17686108239249 6.502669999999999
53.20195409881522 6.46009
53.22685531582556 6.4652199999999995
53.25175924441303 6.40627
53.27666588664027 6.41866
53.30176985962693 6.4139
53.3266819565689 6.39751
53.35159677336455 6.409730000000001
53.376514312083096 6.39046
53.40162927507703 6.4065900000000005
53.42655228516116 6.34705
53.45147802340193 6.31955
53.47660125628886 6.3063199999999995
53.50153247842639 6.32267
53.52646643496923 6.27417
53.55140312799818 6.306019999999999
53.576537409691696 6.28878
53.60147960336152 6.2590900000000005
53.626424539786164 6.2524
53.65137222105307 6.20521
53.67651758529126 6.24863
53.70147078399681 6.2025
53.72642673383343 6.15391
53.75138543689533 6.17068
53.776541917524526 6.19654
53.801506154876755 6.1485
53.826473151763246 6.12511
53.851442910284916 6.10076
53.87661054126026 6.1006599999999995
53.9015858509782 6.08249
53.92656392866066 6.10781
53.95154477641532 6.09704
53.976723591801296 6.05035
54.00171000771266 6.02701
54.02669920004598 6.0113900000000005
54.051691170915745 5.98832
54.076881204886796 6.00053
54.101878760928514 5.97674
54.12687910187696 5.95479
54.152077577768296 5.94238
54.1770835166946 5.9088199999999995
54.20209224691339 5.928
54.22710377055121 5.94768
54.25231352511594 5.93007
54.27733066384342 5.88089
54.30235060239643 5.88136
54.32737334290836 5.83096
54.35259441062629 5.84072
54.377622783395324 5.83605
54.40265396455061 5.80621
54.42768795623251 5.81388
54.45292037169559 5.7676300000000005
54.477960012857906 5.730519999999999
54.50300247099511 5.7032099999999994
54.52804774825457 5.69939
54.55329154616743 5.70075
54.57834249018678 5.68967
54.6033962597977 5.64154
54.6284528571545 5.66156
54.653708072335164 5.65376
54.67877035378786 5.6224300000000005
54.70383546947698 5.59676
54.72890342156389 5.55259
54.7541700889442 5.513669999999999
54.77924374251975 5.55426
54.8043202390049 5.555280000000001
54.82959552413022 5.46145
54.8546777351945 5.49615
54.87976279569621 5.41694
54.90485070780914 5.42574
54.930137506558005 5.41982
54.95523115074295 5.38681
54.98032765308844 5.35606
55.005427015775496 5.38971
55.03072536339621 5.32674
55.05583047570572 5.31974
55.080938454927676 5.30527
55.10604930325027 5.26935
55.131359235107396 5.24135
55.15647585066083 5.20944
55.181595341907496 5.21106
55.20671771104285 5.21393
55.232039262617704 5.20744
55.25716741665048 5.10623
55.28229845518636 5.10535
55.30743238042802 5.05167
55.33276558731939 5.06453
55.357905315183636 5.05817
55.383047936390035 5.0179800000000006
55.40819345314859 4.99452
55.433538351073295 4.98147
55.458689688238415 4.97549
55.483843927614096 4.93369
55.509197623043605 4.96464
55.53435769621134 4.91069
55.55952067826466 4.84396
55.5846865714265 4.85655
55.61005202069737 4.81555
55.63522376553902 4.832409999999999
55.66039842818645 4.76116
55.68557601087004 4.76523
55.7109532500271 4.6898599999999995
55.73613670233794 4.75062
