TT I
1.2716486653135266 7.79228
1.2939594142134223 7.470960000000001
1.3162702121660406 7.21333
1.3385810600174564 7.08547
1.3608919586137629 7.15463
1.383202908801069 6.59742
1.405513911425503 6.780530000000001
1.4278249673332093 6.49665
1.4501343378461518 7.028969999999999
1.4724455028545926 6.69936
1.4947567236847858 6.7281
1.517068001182951 6.48043
1.5393793361953272 6.650810000000001
1.5616907295681737 6.743010000000001
1.5840021821477681 6.16071
1.60631369478041 5.80731
1.6286252683124185 6.40271
1.6509369035901333 5.6409199999999995
1.6732468618895553 5.84701
1.695558623192809 6.122330000000001
1.7178704487808514 6.1452599999999995
1.7401823395001077 6.03758
1.7625012545597203 5.693980000000001
1.7848028405262486 5.03546
1.8071218901122095 5.564080000000001
1.8294236121921872 5.52099
1.8517427996910911 5.43749
1.8740620574440425 5.45416
1.8963639900671978 5.0349900000000005
1.9186833908139995 5.51799
1.9409854680117449 6.09694
1.9633050151394713 5.64189
1.9856246367570705 5.33945
2.0079269371922672 5.4583
2.03024671027244 4.73695
2.0525491637446027 5.45695
2.074869091674931 4.8198099999999995
2.097171701569106 4.532780000000001
2.1194917877373847 4.83951
2.141811954326636 4.97473
2.164114805233074 4.36689
2.186435135143035 4.1289
2.208738150935709 4.43053
2.231058647554722 4.32315
2.2533792288321184 4.12634
2.275682498336085 4.44119
2.298003251406138 4.4063099999999995
2.3203066942619714 4.27718
2.3426276225136022 4.42315
2.3649486396617507 4.44301
2.387252348930071 4.85885
2.4095735463442893 4.95614
2.4318774374315884 4.76115
2.4541988185014043 4.78685
2.476502894794693 4.76886
2.498824462909887 5.00039
2.521146125856138 4.90329
2.5434504863470337 5.25574
2.5657723414244717 5.62387
2.588076895590662 5.811319999999999
2.610398946189713 5.84122
2.6327210958598384 5.534590000000001
2.6550259469304716 5.6376800000000005
2.6773482972090137 5.89968
2.6996533504259 6.14979
2.7219759047039602 6.6249
2.744298562293959 6.6564
2.7666039251246595 6.98389
2.7889267918020164 7.019839999999999
2.8112323652516555 6.814539999999999
2.833555444408179 7.41308
2.8558786311183852 7.898510000000001
2.8781845268938557 7.9329
2.9005079311721484 8.51511
2.9228140460410397 8.6085
2.9451376712799635 9.20675
2.967444008632326 9.4925
2.9897678582247247 9.7023
3.0120918213106695 10.3847
3.0343984987899373 10.5201
3.0567226913198637 10.8865
3.079029599759726 11.6925
3.101354025127254 12.1368
3.123678568232338 12.6573
3.145985829517914 12.8032
3.16831061055229 13.3606
3.1906181112775593 13.9278
3.212943133635653 14.3254
3.2352682779763207 15.1924
3.2575761442691227 15.2543
3.2799015350264273 16.1406
3.302209649240067 16.5099
3.3245352898092655 16.4509
3.3468436553365257 17.3069
3.369169549113219 17.8761
3.3914955708171384 18.7491
3.413804319727358 19.3544
3.4361305997334863 19.5768
3.4584396084414553 19.4627
3.4807661501462652 20.2117
3.503092824025881 21.2228
3.5254022288463154 21.2775
3.5477291695206588 21.2469
3.5700388426251948 21.788
3.5923660534916446 22.5969
3.6146934007816114 22.9306
3.637003482731501 23.4904
3.6593311053109985 23.78
3.681641464033634 24.2467
3.7039693653009733 24.3873
3.726297407241705 25.076
3.7486081875460804 25.7051
3.7709365132734978 26.081999999999997
3.793247578841633 26.6474
3.8155761917550093 26.936
3.8378875459837216 27.0965
3.8602164494827234 27.6426
3.882545499606844 28.4757
3.9048572932539183 29.3111
3.9271866390645718 29.2597
3.9494987298666713 30.1339
3.971828374764527 30.5995
3.9941581705403255 31.2946
4.016470713506008 31.8825
4.038800813471445 32.4711
4.061113662089144 33.0103
4.0834440696459176 33.8399
4.105774632334751 34.2314
4.128087945865126 34.8441
4.150418821249301 35.5493
4.172732448931298 36.0009
4.195063640413578 37.0799
4.2173775856475215 38.2443
4.239709096631102 38.6674
4.262040768704612 38.9885
4.284355196706267 39.87
4.306687193387355 40.705
4.329001947444346 41.8624
4.35133427213731 42.415
4.373666762177566 43.8049
4.395982011761091 44.6777
4.418314834921175 45.5178
4.44063041906622 46.6788
4.4629635787515625 47.31399999999999
4.4852969080429785 48.7691
4.5076130004776225 50.1713
4.529946671403969 52.0312
4.552263106909177 52.916000000000004
4.574597122877047 53.6011
4.596931312711224 54.7748
4.619248269273446 55.9616
4.6415828092605835 57.4705
4.663900117405352 58.3448
4.686235010953232 60.0783
4.708552674085913 61.0174
4.730887924602802 63.0445
4.753223354952695 64.8638
4.775541557023902 66.1318
4.797877349456786 68.2261
4.820195915032126 70.3486
4.842532072957498 72.0243
4.864868414979744 74.2554
4.88718753227192 76.9458
4.909524244902505 79.1244
4.931843734218147 81.7813
4.954180820867835 85.1523
4.976518095879839 89.0646
4.998838149695359 92.4731
5.021175803844231 97.1144
5.043496238205739 101.29799999999999
5.065834274903528 107.571
5.088172504230693 115.40299999999999
5.1104935158799565 125.89200000000001
5.132832132875765 141.774
5.155153533596801 169.825
5.1774925416746225 283.084
5.199814334878411 888.186
5.2221537374521505 2235.38
5.244493338631803 3957.28
5.266815727034316 6621.22
5.289155727832427 10597.6
5.311478517248165 9410.28
5.333818921080011 4441.27
5.356159527788849 1057.1
5.3784829252032536 281.684
5.400823940070432 186.31799999999998
5.423147747031976 155.66
5.445489173474152 138.94
5.467830807066149 129.952
5.490155234831516 124.031
5.512497285125229 118.715
5.534822130975162 115.70299999999999
5.557164601388673 112.978
5.579489868738879 109.095
5.601832762690846 107.064
5.6241758697774475 105.54899999999999
5.646501775867269 104.728
5.668845311622074 103.617
5.691171647754637 103.09299999999999
5.713515615597765 102.133
5.735859800852677 101.316
5.758186788542988 100.89
5.780531411018185 101.779
5.802858837297399 101.436
5.825203900414495 102.17399999999999
5.8475491852224 103.928
5.869877275883075 105.15299999999999
5.892223006467101 107.585
5.914551544266608 111.743
5.936897724049891 119.17200000000001
5.959244129804903 135.02
5.981573344815301 196.88
6.0039202049061 444.106
6.026249875609095 907.784
6.04859719346037 1425.14
6.070927323278297 2188.23
6.093275102315365 3578.74
6.115623113320588 4585.74
6.137953938319995 3817.61
6.160302415650845 1511.12
6.182633708324452 393.528
6.2049826554078376 156.243
6.227331838745022 111.861
6.249663839443684 97.5878
6.27201349767565 89.8078
6.294345974611799 85.3474
6.316696111167083 81.4609
6.339046488263839 78.9027
6.361379686074702 77.1543
6.383730546639482 75.0448
6.406064229255215 72.7101
6.428415576718203 72.6249
6.450749747566656 71.5089
6.47310158535871 69.8685
6.495453669698332 68.7278
6.517788579421056 67.9565
6.540141159237969 67.1335
6.562476565766648 66.4626
6.5848296444934045 65.6473
6.607182974060425 64.8906
6.6295191323281015 64.1526
6.651872965955752 63.422
6.6742096296068985 62.7729
6.6965639707294615 62.8227
6.71891856698715 61.6947
6.741255995248479 61.257
6.763611104154477 61.1301
6.785949046381137 60.556999999999995
6.808304671371482 60.2008
6.8306605557940046 60.1746
6.852999275508618 59.291000000000004
6.875355681171544 59.1898
6.897694923437771 58.7436
6.92005185377892 58.6046
6.9423916220322655 58.2221
6.964749080490181 57.583
6.987106804399774 57.5621
7.009447368180821 57.8111
7.031805625367033 57.451
7.054146723727803 56.8934
7.076505517631004 57.0953
7.098864581288365 57.1637
7.121206488070854 56.703
7.143566093607822 56.4769
7.165908543567245 56.8051
7.188268694426048 56.3119
7.2106291193438095 56.0586
7.232972390625943 56.1564
7.255333366030969 56.1907
7.277677189091925 55.7622
7.300038718428332 55.922
7.322400526130865 55.6429
7.344745183422596 55.7402
7.367107550224791 55.6796
7.389452767901992 56.2705
7.411815697249891 56.2765
7.434161478756298 55.3377
7.456524974096713 55.8437
7.478888753837185 56.06100000000001
7.501235387657368 56.2798
7.523599738562711 56.7006
7.545946944825532 57.6848
7.568311870344528 58.0913
7.5906770845765665 56.9851
7.613025156078678 57.2242
7.635390950099687 57.6059
7.657739602662809 57.0955
7.680105979923558 57.2082
7.702472650212829 58.1224
7.724822180948224 57.9118
7.747189439655568 58.4896
7.769539560075357 58.1242
7.791907410653562 58.8526
7.81425812420825 59.1868
7.836626570110925 59.3062
7.858995315087906 60.2343
7.881346924933401 60.3938
7.903716270417482 61.038000000000004
7.926068482028405 61.1554
7.948438431475253 62.0724
7.9708086843180235 62.4556
7.993161805171116 63.4611
8.015532667162402 64.243
8.037886398416653 65.0048
8.060257873014221 65.3043
8.082629655331942 65.8998
8.104984308787587 66.9623
8.127356708900503 67.8756
8.149711981398308 68.8181
8.172085002766314 69.541
8.194458336181368 70.2782
8.216814543847752 71.8324
8.23918850371002 73.388
8.26154533906492 74.6017
8.283919928836452 76.8317
8.306277395339652 78.1342
8.328652618483376 79.2572
8.351028159736202 81.8606
8.373386579575245 84.3507
8.395762759396959 86.8936
8.418121819038275 90.8138
8.440498640894003 96.8165
8.462875785192262 109.83200000000001
8.485235811156207 160.526
8.507613602688501 291.11400000000003
8.529974277114228 459.33099999999996
8.552352719347912 594.4580000000001
8.574731488360351 754.195
8.59709314210385 1048.16
8.619472567021075 1495.31
8.64183487789147 1949.3
8.664214962183097 1962.73
8.686577933647762 1266.39
8.708958680784317 558.312
8.731339760774953 231.65400000000002
8.753703729764451 134.369
8.77608547780821 111.846
8.798450116065078 105.303
8.820832535634787 100.61200000000001
8.843215292401656 98.5663
8.865580941199045 96.1917
8.887964374703538 94.8266
8.910330701447199 93.3652
8.932714815164482 92.2138
8.955099270424924 91.0276
8.977466620733543 90.2749
8.999851761421976 89.6664
9.022219798361645 88.4872
9.04460562795561 88.686
9.066991803441677 88.4256
9.089360876979615 88.0446
9.111747746589993 87.963
9.13411751544971 87.0167
9.156505082664324 86.6954
9.178875550323522 86.8076
9.20126381862328 86.7626
9.223652438908596 87.7728
9.246023961427412 88.6158
9.26841328802173 88.5513
9.290785518039224 88.08200000000001
9.313175554425882 88.7187
9.335565947154315 88.3735
9.357939245086508 88.3945
9.380330352834827 88.3408
9.40270436697103 88.3255
9.425096193225055 88.3062
9.447488380180165 89.1608
9.469863475295412 89.2735
9.492256385987508 89.8539
9.514632206018318 90.4976
9.537025843935714 91.00200000000001
9.559402392368193 91.6921
9.581796761000229 92.9926
9.604191496441521 93.5021
9.626569144158516 94.1722
9.648964615551032 95.0438
9.671343000390081 95.7025
9.693739211225699 96.7145
9.716135793237463 97.8062
9.738515290448102 98.6136
9.760912617143402 100.311
9.783292860202891 101.72399999999999
9.805690935076182 103.315
9.828089385495742 104.63
9.850470754023561 107.14200000000001
9.872869957865444 109.818
9.89525208097539 112.896
9.917652041736662 118.976
9.940052382417589 135.101
9.962435644102392 194.984
9.984836746950979 303.286
10.007220771957746 425.83
10.029622640473708 525.302
10.052007432299963 633.1709999999999
10.074410069984072 792.293
10.096813093716005 1052.44
10.119199042482517 1428.83
10.141602840636468 1780.95
10.163989564971628 1731.7
10.186394141051062 1196.16
10.208799107559706 593.464
10.231187001965623 268.028
10.253592751657669 153.192
10.275981430388155 125.50299999999999
10.298387966769793 118.296
10.320794897965431 115.898
10.343184759907361 113.675
10.36559248305461 112.18299999999999
10.387983138083852 114.419
10.410391656691655 130.195
10.432800574501677 159.667
10.455192425893369 189.783
10.47760214443012 214.196
10.499994797678786 238.94
10.522405320453982 279.798
10.54479877906917 346.131
10.567210109595656 436.835
10.5896218454736 529.134
10.612016518879773 531.942
10.634429067781074 423.32599999999996
10.656824555333241 259.844
10.679237920773568 152.875
10.701651695961992 108.45100000000001
10.724048411481384 96.9834
10.746463008485165 92.7735
10.768860546937125 90.5256
10.791275969274796 88.5244
10.81369180576079 86.8647
10.836090585366925 85.7382
10.858507252467449 84.4104
10.88090686379991 83.0882
10.903324365036394 82.3001
10.925724811614439 80.9666
10.948143150509463 80.3541
10.970561909719066 79.6808
10.992963615930844 78.9992
11.015383218085756 77.8779
11.037785768347074 76.9476
11.06020621697282 76.6081
11.082627090322113 75.7634
11.105030913430326 74.9197
11.12745263854165 74.4827
11.149857314510728 73.6508
11.172279894912576 73.6094
11.194702904450653 72.3435
11.217108866490921 71.6333
11.239532736615194 71.3892
11.26193956033512 71.3707
11.284364294577085 70.8657
11.306789462371718 70.2492
11.329197585398376 69.8583
11.351623622610898 70.1464
11.37403261614354 69.0601
11.396459526308487 69.3605
11.418869393879497 68.9282
11.441297180532617 68.3245
11.463725406927658 68.1374
11.486136592353875 67.5619
11.508565700543707 67.1581
11.530977768845315 67.2065
11.553407762368774 66.7857
11.575838200059769 66.7775
11.598251599479612 66.641
11.620682927815501 66.6404
11.64309721895548 66.5034
11.665529441478206 66.3818
11.687962112597958 66.0975
11.710377748130886 65.8913
11.732811318753434 65.6555
11.755227854859067 65.6763
11.777662328529495 65.6366
11.800079768750786 65.6298
11.822515149015453 65.4923
11.844950984084935 65.9812
11.867369787303163 65.4861
11.889806534289491 65.5924
11.912226250487029 66.0367
11.934663912939751 66.1904
11.9571020346363 66.7504
11.979523127133968 67.1702
12.001962169624331 68.7857
12.024384183972964 72.473
12.046824150809913 80.1964
12.069264581333726 88.8633
12.091687985297767 95.2117
12.11412934550045 100.652
12.136553680195208 108.5
12.158995973632788 121.089
12.181438735204349 138.03
12.20386447284199 162.707
12.226308172985636 189.16099999999997
12.24873485024193 201.31099999999998
12.271179492516982 185.965
12.293607112949127 146.965
12.316052700916226 105.18
12.338498763250042 80.75399999999999
12.360927805303868 70.6313
12.383374818673879 68.1671
12.405804812803074 67.4588
12.428252780773262 67.4996
12.45070122756722 67.2513
12.473132656675375 67.3064
12.49558206341869 67.6685
12.518014453510101 67.567
12.540464823770117 67.7817
12.562915677315177 67.7997
12.58534951575545 68.1261
12.607801338171472 68.0306
12.630236146511358 68.4732
12.652688941369085 68.8018
12.675124723177234 69.1998
12.697578494048786 69.7745
12.720032754458185 69.9687
12.742470003354093 70.6638
12.764925245138771 70.9813
12.787363476431278 71.578
12.809819703166806 71.8154
12.83227642391173 72.6502
12.854716135692716 73.4773
12.877173846755147 74.8505
12.899614549869717 75.0094
12.9220732548287 76.0437
12.94453245827299 76.5575
12.966974655289818 77.9136
12.989434858002571 78.9087
13.011878055298721 79.7478
13.034339260862497 80.9109
13.056800969391883 82.586
13.079245674017244 86.1889
13.101708390774869 93.1345
13.12415410463411 110.211
13.146617833206086 132.168
13.169064559883248 149.332
13.191529303857127 162.259
13.213994557076367 175.628
13.236442809902437 195.452
13.258909083908291 225.99200000000002
13.28135835851934 262.875
13.30382565690295 314.64099999999996
13.326293469022952 377.566
13.348744283242008 419.436
13.371213125129904 393.142
13.39366497011003 317.194
13.416134845360597 218.84400000000002
13.438605238843131 152.737
13.46105863690397 130.046
13.483530069144786 134.786
13.505984506951902 145.266
13.528456981549432 155.312
13.550929978879088 163.037
13.573385983253365 173.768
13.595860028340867 193.878
13.618317081455832 222.476
13.64079217790333 259.122
13.663250283359057 307.087
13.685726434770173 348.10400000000004
13.708203115221277 360.13699999999994
13.730662806148091 308.939
13.75314054697177 234.037
13.775601299246777 163.741
13.798080104050406 114.369
13.820559442405358 93.8672
13.843021793671388 87.7695
13.865502201420897 85.0539
13.887965623051947 84.4517
13.910447103807167 83.3924
13.932929122629764 81.67399999999999
13.955394156785959 81.3017
13.977877254034569 80.2184
14.000343367582113 79.3033
14.022827546871707 78.7869
14.045294743423524 77.8694
14.06778000837062 77.1138
14.090265817715476 76.9771
14.112734645763819 76.3442
14.13522154619454 75.8305
14.157691466286913 75.6462
14.180179461423874 75.4903
14.202668005486178 74.8834
14.22513957064374 74.5306
14.247629214846473 74.2232
14.270101881097517 73.7473
14.29259262906496 73.6649
14.315083930490205 73.3368
14.337558255389705 73.181
14.360050666019726 73.2936
14.382526101071944 72.8326
14.405019624534942 72.4335
14.427513705993134 72.5292
14.449990813291825 72.6802
14.47248601302899 72.5989
14.49496423954951 72.6381
14.517460561197822 72.6401
14.539939910570322 72.3942
14.562437357763558 72.6769
14.58493536931253 73.131
14.607416409993311 73.3503
14.62991555254159 73.384
14.652397725157423 73.7273
14.674898002342799 74.0756
14.697398848433282 74.8853
14.719882725991326 76.7652
14.74238471217934 80.6875
14.764869730765593 88.7138
14.787372860692983 95.505
14.809876564079925 102.368
14.83236330125751 107.78200000000001
14.854868153850365 112.16799999999999
14.877356041159485 119.323
14.899862046604186 129.05200000000002
14.922351087688757 143.189
14.944858249632887 160.899
14.967365991421232 183.785
14.989856770231246 206.452
15.012365673994204 222.17700000000002
15.03485761569738 210.89
15.05736768508665 177.375
15.07987833888692 138.428
15.102372032001655 105.48100000000001
15.124883856909658 85.4274
15.14737872204565 77.5379
15.169891721717274 74.9048
15.192405310371893 74.0781
15.214901940621196 73.4168
15.237416709527137 72.4838
15.259914520936249 72.3104
15.282430473753607 71.5886
15.304947020131227 71.1227
15.327446610371178 70.8286
15.349964346154254 70.2036
15.372465126703139 70.0513
15.394984055556009 70.1712
15.417486030076159 69.9333
15.44000615566487 69.8144
15.462526881230803 69.6934
15.485030653812652 69.5899
15.507552581617434 69.446
15.530057557334603 69.4199
15.55258069104857 69.482
15.575104429329837 69.8428
15.597611216864632 70.0341
15.620136166564563 71.0353
15.6426441664095 74.7941
15.665170331202765 80.8979
15.687697105158826 86.8717
15.710206930593545 92.1191
15.732734925158933 95.7548
15.755245972089478 98.8086
15.77777519094324 103.838
15.800287463046663 111.12299999999999
15.822817909869592 121.25
15.84534897229804 133.417
15.867863089299354 150.656
15.890395385222186 169.65599999999998
15.912910736597423 188.041
15.935444269699861 193.592
15.957978423016485 178.612
15.980495633101265 147.82
16.003031029129367 115.33200000000001
16.02554948280019 88.7476
16.048086125229432 74.1714
16.070623392487107 68.2669
16.09314371869582 65.9009
16.11568223789321 64.6364
16.13820381691126 64.3105
16.160743591742527 63.7513
16.183283996022084 63.0898
16.205807461423195 62.5509
16.228349126881973 61.9352
16.25087385432698 61.9109
16.27341678466365 61.1782
16.29594277784926 60.8621
16.31848697676433 60.4823
16.341031811604868 59.7518
16.36355971058487 59.7344
16.3861058195587 59.527
16.40863499352978 59.1463
16.431182380342005 59.0718
16.453730407713202 58.6642
16.476261501364792 58.4604
16.498810812136167 58.1859
16.52134319004079 58.2434
16.54389378792203 58.004
16.566445031001553 57.9786
16.588979342490088 57.9903
16.61153187824822 57.7173
16.634067483263312 57.4876
16.656621315414416 57.5079
16.679175797408888 57.1623
16.701713349928728 57.2135
16.72426913389191 57.3546
16.74680798922351 57.3356
16.76936507887444 57.297
16.791905240734874 57.4035
16.814463639794468 57.1456
16.837022695210294 57.47
16.859564824093756 57.6161
16.882125194503903 57.5773
16.904668639217885 57.5402
16.927230328348003 57.452
16.949792678493612 57.8782
16.972338104193863 57.701
16.994901778652235 57.8205
17.017448529496576 58.4424
17.040013531998152 59.3816
17.06257920018044 60.5892
17.0851279459922 61.8727
17.107694947817667 63.2801
17.130245028099072 63.9611
17.15281336730298 65.0071
17.17536478578733 65.696
17.19793446610687 67.125
17.220504818648422 68.9045
17.243058251703697 70.6908
17.265629950971032 73.6184
17.288184731571736 76.9102
17.310757781306908 81.255
17.33333150794385 84.4788
17.355888317140174 85.1418
17.37846339986244 83.1046
17.401021565958885 78.0239
17.42359800851343 72.1144
17.44617513265564 67.3654
17.468735341390783 64.1537
17.491261035594565 62.5293
17.51396340099364 62.0746
17.536490463869136 62.3585
17.559018209820174 62.1565
17.58154663977963 62.5235
17.604251766089718 62.6018
17.626781572227713 62.6566
17.64931206518155 62.8593
17.671843245885103 63.4155
17.69455114821572 63.4851
17.717083712612634 63.7628
17.739616967569667 64.2314
17.762150914021706 64.6478
17.78486160749854 65.168
17.807396945166804 66.5468
17.829932977143503 68.7688
17.85246970436452 72.2905
17.875183204129467 75.7223
17.897721330097664 78.5809
17.920260154126645 81.2234
17.942799677153296 83.1943
17.9655159983646 85.1246
17.988056927677544 88.0943
18.010598558807683 92.6967
18.033140892692916 98.5717
18.05586005052525 104.66
18.07840379824407 113.866
18.10094825154059 125.493
18.12366954819864 137.433
18.146215420998306 145.563
18.16876200220057 146.02100000000002
18.191309292745153 136.404
18.214033452627167 121.18700000000001
18.236582170236648 105.664
18.259131600016456 94.5767
18.281681742907335 89.9908
18.304408781233683 90.1119
18.32696035875955 92.5406
18.349512652227624 96.4368
18.372065662579683 101.971
18.394795594587553 106.34299999999999
18.41735004715306 107.18700000000001
18.43990521943684 103.32799999999999
18.46246111238171 95.3446
18.485193953325208 85.3495
18.507751296070428 76.5544
18.530309362314178 70.869
18.552868153000343 67.6153
18.57560391815056 65.7263
18.59816416623245 65.2375
18.620725141597372 64.6505
18.643286845190268 64.0811
18.666025549835414 63.582
18.688588718427933 63.0098
18.711152618092243 62.7783
18.73389353884365 62.6865
18.75645890921984 62.2448
18.77902501351406 61.7218
18.801591852673102 61.81399999999999
18.824335739722738 61.2975
18.846904057212626 61.0913
18.8694731124168 60.8739
18.89204290628315 60.78
18.914789774966803 60.5748
18.937361054791623 60.3501
18.959933076131318 60.0613
18.982505839934877 59.8651
19.00525570560582 60.0776
19.027829963004184 59.6569
19.05040496572238 60.0403
19.072980714710468 60.6699
19.095733592739563 61.2404
19.11831084296757 61.7006
19.140888842324735 62.2224
19.16346759176222 62.3056
19.18622349753803 62.7386
19.208803755869358 63.2777
19.231384767143577 63.6952
19.253966532312948 64.6651
19.276725481241822 65.8969
19.29930876296784 67.2277
19.3218928014549 68.767
19.34465404436217 71.1178
19.36723960516257 73.8948
19.389825925592426 76.3202
19.412413006605938 77.4685
19.43517731967805 76.6085
19.457765930683355 73.7925
19.48035530514408 69.4625
19.50294544401556 64.6991
19.525712842708348 61.0096
19.54830451925909 58.8986
19.570896963095727 57.2423
19.593490175174704 56.7533
19.616260674962184 56.6659
19.638855432416964 56.4469
19.661450960992624 56.6584
19.68404726164677 56.6177
19.706820878021247 56.0858
19.729418731756834 56.4369
19.752017360452857 56.281000000000006
19.77461676506804 56.4906
19.797393513540218 57.0319
19.819994478951667 57.7251
19.84259622316767 58.441
19.8651987471481 58.9529
19.887978643247177 59.0671
19.91058273574792 59.3176
19.933187610901943 59.7569
19.955969879466828 60.6812
19.97857632894404 61.5117
20.00118356396599 62.3833
20.023791585494575 63.9903
20.046577028914875 66.1397
20.069186632506966 68.0949
20.091797025500632 70.3806
20.114408208858933 72.393
20.137196842715273 73.7838
20.159809615886765 73.4128
20.18242318232135 71.0187
20.20503754298326 68.3213
20.227829382875154 65.9285
20.250445341109344 64.4123
20.27306209647285 64.0076
20.29567964993108 64.3533
20.31847471147704 65.2582
20.34109387027612 66.7533
20.363713830075454 67.6881
20.386334591841646 67.4505
20.409132890679302 65.9997
20.431755265564437 63.0478
20.454378445325528 60.0408
20.477002430930366 57.2107
20.499803982716553 55.2295
20.522429589228004 54.1489
20.54505600449589 53.3737
20.567683229489194 53.0996
20.590488049900088 52.8072
20.61311690359731 52.6786
20.63574656993626 52.4976
20.658553853717297 52.0744
20.681185154618298 52.3749
20.703817271080066 52.0791
20.72645020407368 51.6658
20.749260783967177 51.538999999999994
20.771895359337133 51.5721
20.794530754161617 51.3979
20.817166969412938 51.4019
20.83998086114876 51.4315
20.86261872660049 51.1807
20.885257415405402 51.2826
20.90789692853701 51.2004
20.930714147864748 51.3551
20.953355319030678 51.3042
20.97599731745334 51.4495
20.99864014410749 51.2112
21.021460706796564 51.208999999999996
21.044105199328826 51.5629
21.06675052302631 51.7243
21.089396678865015 51.7009
21.112220600704806 51.9597
21.134868430275347 52.2177
21.15751709492456 52.1839
21.180166595629693 52.3032
21.202993892429635 52.7557
21.22564507473034 53.0946
21.24829709602816 53.4457
21.27112693608965 53.802
21.293780644891275 54.2944
21.316435195634053 53.6809
21.339090589297417 53.0345
21.361923832041875 52.5345
21.384580921090404 51.7617
21.407238856007325 51.351000000000006
21.429897637773326 51.1678
21.45273429906592 51.0618
21.475394784108598 51.0799
21.498056118951983 50.9864
21.520718304578022 51.2504
21.543558400304388 51.4351
21.566222297108816 51.8209
21.58888704765135 52.2487
21.61155265291521 52.9356
21.63439619898156 53.6454
21.657063523335786 53.9153
21.67973170537063 54.1816
21.7024007460706 54.7129
21.72524775840385 54.9004
21.747918526116475 55.5989
21.770590155457388 56.4479
21.79326264741238 57.3833
21.816113141960237 58.707
21.838787368860547 59.993
21.861462461341976 61.5655
21.884315579735777 63.2205
21.90699241312273 65.1808
21.92967011506078 66.4931
21.95234868653799 67.3411
21.9752053151131 67.1843
21.997885635446785 65.5352
22.020566828293532 63.5826
22.04324889464272 61.263999999999996
22.066109049404666 59.133
22.088792872571794 58.0865
22.111477572219204 57.8321
22.1341631493376 57.928000000000004
22.157026846313123 58.3732
22.179714188221507 58.3713
22.202402410582668 57.7672
22.22509151438863 56.4448
22.24795876962584 54.9864
22.270649646204486 53.8327
22.293341407213727 52.8433
22.316034053646906 51.8849
22.338904883215342 51.6031
22.36159931041458 51.4019
22.38429462602756 51.2451
22.40699083104897 51.0905
22.429865251039757 51.0615
22.452563244831367 50.891000000000005
22.47526213102522 50.9266
22.49813925616515 51.0684
22.520839937143307 51.1162
22.543541513520587 51.1822
22.56624398629403 51.0682
22.589124730075895 51.0426
22.611829005656723 51.4668
22.63453418063466 51.6186
22.657240256008077 52.0431
22.680124634582935 52.3421
22.70283252079775 52.5305
22.725541310413075 52.946999999999996
22.74825100442868 52.878
22.771139033969575 53.2767
22.79385054687155 53.3599
22.81656296718292 53.5635
22.83927629590484 54.2706
22.862167992606945 54.8648
22.88488314827121 55.5849
22.907599215359284 56.2618
22.93031619487366 57.0735
22.953211574954405 58.115
22.975930389478226 59.1733
22.998650119445763 59.9593
23.02137076586092 60.0901
23.044269845560063 59.4251
23.06699233506288 58.3776
23.089715744034912 56.7191
23.112617610931565 54.7893
23.135342869061212 53.4736
23.158069049684816 52.288999999999994
23.1807961538087 51.5361
23.20370174880544 51.468999999999994
23.226430710184808 51.6277
23.249160598093425 51.9293
23.271891413539002 52.0905
23.294800752937697 52.1778
23.31753343374794 52.5475
23.340267045128353 52.5482
23.36300158808808 52.6952
23.38591468821339 52.7787
23.408651104658304 52.9489
23.431388455719986 53.2901
23.454126742409 53.7514
23.4770436196085 54.2303
23.499783787914662 55.0772
23.522524894889884 55.7265
23.54526694154616 56.4822
23.56818761219047 57.3864
23.59093154860734 58.4009
23.613676427751283 59.5208
23.636422250635754 59.5879
23.659346731118656 59.1535
23.68209445191868 57.7703
23.704843119509587 55.6054
23.72759273490623 53.4713
23.750521041644767 51.748999999999995
23.77327256312355 50.2867
23.796025035462787 49.3424
23.818956224555475 48.6487
23.841710609113413 48.4975
23.86446594758979 48.2561
23.887222241002014 47.8336
23.910157285144578 47.5864
23.932915498962537 47.6263
23.955674670778713 47.3937
23.978434801611975 47.2445
24.001373717286125 46.9715
24.024135776723917 46.9387
24.046898798245582 46.6499
24.06966278287146 46.7117
24.092605586582614 46.5364
24.115371508023642 46.288000000000004
24.1381383956401 46.3259
24.16090625045381 46.1874
24.183852958731244 46.0153
24.206622758582608 45.8861
24.229393528706886 45.8732
24.252165270127392 45.8615
24.27511589952438 45.7648
24.297889594216997 45.645
24.32066426328598 45.3693
24.34343990775613 45.4632
24.36639447485003 45.2758
24.38917208083877 45.232
24.41195066531332 45.1576
24.43490819850244 45.2241
24.457688750692377 45.0816
24.48047028445616 44.9995
24.503252800821233 45.0635
24.526214300784112 45.1293
24.548998793132213 45.1846
24.57178427117417 45.0359
24.59457073593893 45.0327
24.617536219319863 45.032
24.64032466834748 45.0258
24.663114107195035 44.9739
24.685904536893013 44.6837
24.708874020360852 44.6532
24.731666442613744 44.6046
24.754459858818787 44.5911
24.777254270007962 44.5903
24.80022777025625 44.5231
24.82302418230472 44.4292
24.845821592443674 44.4746
24.86862000170663 44.6236
24.891597535453727 44.316
24.914397953892728 44.7381
24.93719937456671 44.5988
24.96000179851076 44.5951
24.98298338249997 44.7921
25.00578782394922 45.1069
25.028593271784167 45.2518
25.05157790644186 45.48
25.07438537804115 45.4189
25.097193859145293 45.562
25.120003350792075 45.696999999999996
25.142992065061257 45.9603
25.165803588823465 46.3486
25.18861612625217 46.5729
25.211429678386736 46.5972
25.234422489079968 46.6743
25.257238081693636 46.6369
25.280054692141732 46.6717
25.3028723214652 46.6
25.325869245420463 46.5658
25.348688923599397 46.512
25.371509623787006 46.7429
25.394331347025812 46.7907
25.41733240110666 46.6327
25.440156181590016 46.0645
25.46298098826268 45.5463
25.48580682216873 44.9845
25.50881202326435 44.3243
25.53163992281684 43.7139
25.55446885274561 43.3429
25.577298814096377 43.0491
25.600308179121807 42.8052
25.623140214533745 42.8962
25.64597328451537 42.8646
25.66898578564376 42.7416
25.691820936010206 42.6124
25.714657124097695 42.7007
25.737494350954734 42.8634
25.760511045684957 42.6607
25.783350361364224 42.6149
25.806190718969255 42.6337
25.82903211955018 42.8764
25.852053024868923 42.7213
25.874896522722523 42.6674
25.897741066713106 42.5326
25.920586657892454 42.5984
25.943611790812668 42.747
25.966459487728237 42.8479
25.989308234998564 42.8151
26.01215803367705 43.1035
26.03518741123814 43.1918
26.05803932412957 43.2472
26.080892291600094 43.3528
26.10374631470478 43.4362
26.12677995397268 43.8251
26.14963609978026 43.818000000000005
26.172493304397875 43.5638
26.19535156888223 43.4683
26.218389486949604 43.0503
26.241249882640123 42.7299
26.26411134137826 42.6243
26.28715248187403 42.6373
26.31001607820869 42.394
26.3328807407756 42.2777
26.35574647063438 42.3702
26.37879191991473 42.1749
26.401659795896734 42.2565
26.424528742360263 42.3478
26.447398760366614 42.5367
26.470448535598294 42.5811
26.49332070826805 42.6626
26.516193955675355 42.8754
26.53906827888316 43.0106
26.562122397260108 43.0167
26.584998883685063 43.3184
26.607876449110325 43.5073
26.63075509460056 43.6681
26.65381357334404 43.8554
26.67669439061878 43.9846
26.699576291163382 44.1054
26.722459276044212 44.0509
26.745522132402975 43.9229
26.768407297649354 43.4951
26.791293550442003 43.0702
26.814180891848974 42.895
26.837248143099337 42.6647
26.860137673466657 42.4777
26.88302829566349 42.253
26.90592001075963 42.0902
26.92899167420566 41.9981
26.951885586870763 41.5909
26.974780595655517 41.5254
26.99785558178161 41.285
27.020752794605112 41.0939
27.043651106772522 40.7836
27.06655051935668 40.9445
27.089629948036183 40.7398
27.112531573292053 40.6095
27.135434302194138 40.774
27.158338135817015 40.6398
27.181422024430987 40.6316
27.204328079372566 40.5108
27.22723524226965 40.5559
27.250143514198573 40.561
27.273231880156334 40.5173
27.296142382065014 40.3808
27.319053996245536 40.3367
27.341966723775965 40.2181
27.365059584515222 40.3033
27.38797455070062 40.4363
27.410890633481237 40.2967
27.433807833936918 40.3447
27.456905206923906 40.389
27.47982465472398 40.3636
27.502745223449743 40.2797
27.525666914182825 40.439
27.548768816912457 40.4675
27.571692763693633 40.4209
27.59461783573812 40.3715
27.617723149491244 40.1618
27.640650484125285 40.1793
27.66357894728264 40.1528
27.686508540048052 40.0898
27.709618414237887 40.1531
27.732550278321757 39.9393
27.755483275279115 39.8796
27.778417406196485 39.8851
27.801531858397514 39.8524
27.824468269376716 39.6764
27.847405817586786 39.6684
27.870344504116094 39.8666
27.893463551932008 39.8635
27.916404527281053 39.9917
27.93934664422563 39.9236
27.962289903855886 39.9817
27.98541356491974 40.2148
28.00835912214229 40.37
28.03130582533231 40.4683
28.054253675581805 40.6555
28.077381967556104 40.7499
28.100332124185126 40.8813
28.123283431160893 40.8162
28.146235889577238 40.6088
28.169368830154156 40.4103
28.192323603752033 40.2791
28.215279532083304 39.9851
28.238415973016764 39.9
28.261374223145094 39.6836
28.284333631303806 39.5948
28.307294198589954 39.3429
28.330435319167677 38.9868
28.353398217078915 38.9197
28.376362277420153 38.6675
28.39932750129032 38.4166
28.422473319286713 38.2391
28.44544088262495 38.301
28.468409612800283 38.015
28.491379510913497 37.7851
28.51453004413313 37.7367
28.53750229057244 37.7397
28.56047570826344 37.5461
28.583450298308804 37.5012
28.606605564586562 37.4008
28.629582511831156 37.4136
28.65256063474956 37.3224
28.675539934446338 37.4344
28.698699951647605 37.3127
28.72168161743193 37.1512
28.74466446331978 37.2351
28.767648490417624 37.0318
28.790813276438353 37.0904
28.813799678527303 37.0326
28.836787265157085 37.0947
28.859955641890075 37.1124
28.882945610203045 36.9814
28.905936766392035 36.9091
28.928929111566863 37.1176
28.952102288520145 36.9862
28.975097024308607 36.8272
28.998092952423807 36.7417
29.021090073977508 36.7281
29.04426806913204 36.6963
29.067267590245258 36.4148
29.090268308143695 36.247
29.11327022394099 36.253
29.13645305530891 36.1999
29.159457379627167 36.2216
29.18246290519685 36.0253
29.20546963313352 35.9778
29.22865731875826 36.0309
29.25166646419296 35.9492
29.27467681535305 35.738
29.29768837335608 35.8533
29.320880931312562 35.9012
29.34389491580634 35.8317
29.366910110507334 35.7842
29.38992651653503 35.818000000000005
29.41312396492981 35.8164
29.436142806456754 35.8351
29.45916286268059 35.7925
29.48236399319994 35.6046
29.50538649169417 35.4856
29.528410208259935 35.4458
29.55143514402014 35.3639
29.574641196749695 35.1867
29.597668583816574 35.0205
29.6206971934585 34.7911
29.64372702680042 34.7639
29.666938019934474 34.6407
29.689970313635285 34.5663
29.713003834422636 34.6445
29.73603858342347 34.6637
29.759254535188578 34.501
29.78229175361658 34.4099
29.80533020365064 34.4547
29.82836988641968 34.5173
29.85159081507472 34.4851
29.874632976355343 34.2788
29.89767637376955 34.375
29.920721008448314 34.2566
29.9439469322847 34.3491
29.96699405457564 34.1174
29.9900424175358 34.0846
30.013092022298157 34.1615
30.03632295963995 34.168
30.059375061131373 34.0569
30.08242840783577 34.0565
30.105483000888153 34.0468
30.128718970092244 33.9615
30.151776069006917 33.9476
30.17483441768648 33.9713
30.198074175317235 33.9904
30.221135036724256 33.9131
30.24419715131772 33.9342
30.267260520236203 33.876999999999995
30.290505341942243 33.9864
30.313571232750228 33.9555
30.336638381310948 33.9395
30.35970678876503 33.8756
30.38295669299435 33.8175
30.40602763151657 33.8197
30.429099832366074 33.7668
30.452173296685572 33.6153
30.47542830191959 33.6543
30.498504306502497 33.6404
30.521581577995562 33.6859
30.544660117543582 33.7792
30.56792024229725 33.7152
30.59100133132069 33.6483
30.614083691845494 33.5472
30.637167325018545 33.6814
30.660432587840603 33.6982
30.683518779717886 33.5754
30.70660624769615 33.6237
30.729694992924372 33.6522
30.75296541239743 33.7268
30.77605672557558 33.5813
30.799149319462742 33.6698
30.8224236211637 33.6441
30.845518789950724 33.5536
30.868615242910597 33.5371
30.891712981195973 33.2888
30.91499247215866 33.2001
30.938092794619365 33.1993
30.96119440587579 33.1077
30.984297307082752 32.9861
31.00758200598383 32.8579
31.030687500658694 32.7676
31.053794288760695 32.6978
31.076902371446767 32.5925
31.100192296997445 32.6336
31.12330298246119 32.6431
31.14641496599209 32.5473
31.169528248749216 32.5115
31.19282341969534 32.5138
31.215939314557186 32.5054
31.239056512134788 32.443000000000005
31.262175013589378 32.3353
31.28547544871168 32.3574
31.30859657161541 32.2992
31.331719001892175 32.2882
31.35484274070538 32.4037
31.378148458819545 32.4177
31.401274828443725 32.3142
31.424402510106933 32.3286
31.447712205419993 32.4274
31.470842524931633 32.2738
31.493974159989783 32.2495
31.51710711176168 32.3305
31.54042212308802 32.3325
31.563557722100917 32.2401
31.586694641341655 32.1112
31.609832881979628 32.0106
31.63315322823208 32.0372
31.656294125521327 32.0082
31.679436347728515 31.8503
31.70257989602529 31.7914
31.725905596152327 31.7461
31.74905181052835 31.6264
31.772199354521323 31.686999999999998
31.79534822930507 31.5729
31.818679302290967 31.6401
31.84183085259981 31.5659
31.864983737233473 31.5063
31.88813795736804 31.618000000000002
31.911474422233013 31.4052
31.934631327356435 31.4448
31.9577895715215 31.4853
31.980949155906522 31.5621
32.004291031706956 31.5267
32.027453310562606 31.3569
32.05061693318573 31.3143
32.07396288236386 31.2006
32.09712920658542 31.2222
32.12029687812702 31.0394
32.14346589817093 30.9617
32.166817291729984 30.9988
32.18998902288583 30.8949
32.21316210610336 30.8445
32.23633654256711 30.691
32.259693399663725 30.6678
32.282870556771144 30.6365
32.30604907069099 30.5717
32.329228942610065 30.4846
32.35259128243769 30.3783
32.375773884550505 30.2846
32.398957848235646 30.3563
32.422143174682176 30.2818
32.445511016471215 30.2004
32.468699082679954 30.176
32.49188851523011 30.180999999999997
32.51507931531304 30.0584
32.538452678331 30.0354
32.56164622776311 29.9727
32.58484114831493 29.8264
32.60803744118015 29.8739
32.631416344731896 29.9343
32.654615396551876 29.7867
32.67781582427913 29.7837
32.701198898634416 29.6918
32.72440209253756 29.6812
32.747606665947124 29.6814
32.77081262006088 29.518
32.79420126883317 29.6468
32.81740999876112 29.6344
32.840620112999424 29.4167
32.86383161274818 29.314
32.88722585534586 29.3638
32.91044014056596 29.4132
32.933655814909734 29.3619
32.95687287957963 29.4489
32.98027273544904 29.2741
33.00349259526636 29.1416
33.026713849030116 29.2494
33.04993649794511 29.2435
33.073341986570746 29.129
33.09656744032826 29.1039
33.11979429286444 29.1781
33.14302254538647 29.2095
33.166433686291185 29.1065
33.18966475336992 28.997
33.212897224069096 28.9234
33.23613109959831 29.0431
33.259547912343415 28.9227
33.2827846121627 28.8902
33.306022720453775 28.8181
33.32926223842861 28.7805
33.352684742614166 28.8036
33.37592709463173 28.7178
33.399170859982064 28.6643
33.422597648419426 28.5412
33.44584425514446 28.391
33.46909227885668 28.4576
33.4923417207723 28.2968
33.51577423505344 28.3444
33.539026528130385 28.278000000000002
33.56228024307245 28.1325
33.585535381098246 28.0595
33.60897364093058 28.1002
33.63223163992385 28.0928
33.6554910656699 27.9379
33.678751919389796 28.0182
33.702195944520106 27.8792
33.72545966903325 27.9463
33.74872482519663 27.7844
33.771991414233746 27.8351
33.79544122444841 27.7545
33.81871069412428 27.623
33.84198160035767 27.7456
33.86525394437455 27.7094
33.88870955949969 27.6272
33.911984794020626 27.5638
33.93526147001624 27.5843
33.958539588715006 27.5432
33.98200102861669 27.369
34.0052820477047 27.3325
34.02856451319451 27.2761
34.05203033759056 27.2272
34.07531571090147 27.3094
34.09860253431845 27.2637
34.121890809074316 27.1413
34.145362493118924 27.1146
34.16865368561615 27.0421
34.191946333164054 27.0495
34.21524043699793 27.0591
34.23871800066799 26.9697
34.26201503218366 26.853
34.28531352370466 26.8455
34.30861347646881 26.7846
34.33209693978188 26.7271
34.3553998301885 26.6981
34.378704185565205 26.6831
34.402010007152356 26.607
34.42549939016683 26.6046
34.44880815937748 26.4723
34.472118398533134 26.5071
34.49543010887669 26.486
34.51892543169198 26.3046
34.54224009966052 26.3322
34.56555624255917 26.3296
34.58887386163339 26.2841
34.61237514439016 26.2779
34.6356957311114 26.1636
34.65901779775809 26.1208
34.68252356662995 26.1728
34.705848608458616 26.206999999999997
34.72917513396849 26.0925
34.75250314440949 25.9607
34.77601490857862 25.9496
34.799345904259795 25.9143
34.82267838863559 25.926
34.846012362958525 25.8075
34.869530142679984 25.846
34.89286711232212 25.7503
34.91620557568269 25.7837
34.93954553401677 25.7523
34.9630693495876 25.6566
34.986412313340814 25.6506
35.00975677584668 25.5619
35.033102738362956 25.5851
35.05663261012228 25.5714
35.0799815881786 25.5361
35.10333207003229 25.4659
35.12668405694369 25.4737
35.150220005273056 25.4496
35.17357501786656 25.403000000000002
35.19693153931268 25.3737
35.220289570874385 25.303
35.24383161619786 25.3083
35.267192683604904 25.2279
35.290555264930376 25.1891
35.314101899412165 25.1823
35.33746752422433 25.2281
35.36083466676374 25.1933
35.38420332829803 25.1251
35.407756095629054 25.1188
35.43112781085063 25.0769
35.45450104888391 25.0637
35.477875810999194 25.0776
35.50143473172161 24.9518
35.52481255774625 25.0491
35.54819191167777 24.9587
35.57157279478914 24.9353
35.595137889488406 24.9519
35.61852184675279 24.8432
35.641907337029984 24.8091
35.665294361595684 24.7275
35.68886565090076 24.586
35.7122557598848 24.6477
35.73564740699838 24.5283
35.759040593519934 24.5834
35.78261809810353 24.5893
35.80601437933051 24.4994
35.829412203814705 24.3768
35.85281157283719 24.3474
35.876395313415884 24.4469
35.8997977874528 24.3044
35.92320180988546 24.3754
35.946790244133936 24.2722
35.97019737933222 24.2203
35.993606066789866 24.1827
36.01701630779276 24.0865
36.04061101440684 24.1444
36.06402437852291 24.1199
36.08743930005611 24.112
36.1108557802951 23.9898
36.13445678011326 24.03
36.15787639383515 23.9942
36.18129757014299 23.9063
36.20472031032821 23.8325
36.22832762423364 23.8237
36.25175350829375 23.771
36.275180960119776 23.7398
36.298609981005924 23.8695
36.32222362992669 23.7411
36.34565580510207 23.6776
36.36908955323448 23.7332
36.39252487562093 23.5587
36.416144880530226 23.4443
36.43958336764275 23.4607
36.463023432914625 23.4453
36.486465077645676 23.3892
36.51009145956204 23.4768
36.53353627947859 23.4801
36.55698268276811 23.4317
36.58043067073321 23.3224
36.60406345072071 23.2741
36.62751462435344 23.2333
36.65096738658405 23.2512
36.67460498210655 23.2103
36.69806093788647 23.177
36.72151848619297 23.1588
36.744977628333636 23.1617
36.76862165890998 23.0143
36.79208400512205 23.0609
36.81554794910557 23.0019
36.83901349217101 22.8612
36.862663978991606 22.8694
36.88613273667352 22.8893
36.90960309738324 22.8729
36.933075062434064 22.7935
36.95673202673572 22.6948
36.98020721697122 22.6777
37.003684015502365 22.6402
37.027162423645365 22.5251
37.050825886711465 22.5546
37.07430753063053 22.5322
37.09779078812467 22.5099
37.121275660513014 22.4753
37.144945643673694 22.4952
37.16843376245278 22.4773
37.19192350009803 22.4192
37.215414857931435 22.3337
37.239091382563885 22.2717
37.262585997426164 22.2777
37.28608223645736 22.2951
37.309763684451696 22.2757
37.33326318851098 22.2168
37.356764320726555 22.1577
37.380267082425526 22.109
37.40395510942588 22.1184
37.42746114683234 22.0148
37.45096881771841 21.9153
37.474478123414166 21.9744
37.49817275092816 21.9441
37.52168534303452 21.9556
37.54519957395567 21.8346
37.568715445024665 21.8606
37.592416694607714 21.8262
37.61593586281424 21.7733
37.63945667518264 21.9105
37.66297913304891 21.7656
37.68668702630454 21.7084
37.710212792059274 21.6153
37.733740207334854 21.6193
37.757269273470364 21.5373
37.780983832050374 21.553
37.80451621684926 21.47
37.82805025654007 21.4207
37.851585952464795 21.4917
37.8753071980695 21.3906
37.89884622345676 21.3492
37.92238690911902 21.3678
37.94611318753442 21.3282
37.969657210779765 21.2434
37.99320289834801 21.2302
38.016750251586465 21.1786
38.04048325513017 21.0981
38.06403395679343 21.0253
38.087586328183946 21.0171
38.11114037065203 21.0419
38.13488012115898 21.0203
38.1584375229181 21.0179
38.181996599821 20.9562
38.205557353221124 20.8967
38.229303872575656 20.8577
38.2528679961576 20.8326
38.27643380031219 20.855
38.30000128639589 20.82
38.32375459653193 20.789
38.34732546371299 20.7989
38.37089801690786 20.7146
38.39447225747609 20.6744
38.418232380377425 20.5832
38.441810012983396 20.5865
38.46538933705673 20.6219
38.488970353960084 20.6008
38.51273731166058 20.5134
38.536321731567014 20.4217
38.55990784840681 20.415
38.58367995004091 20.3619
38.60726947812959 20.26
38.63086070726198 20.3292
38.654453638806274 20.3458
38.678232613930824 20.2404
38.70182896773327 20.2114
38.72542702806741 20.2575
38.7490267963045 20.2026
38.77281266709232 20.1816
38.79641586862214 20.112000000000002
38.8200207821842 20.037
38.843627409152944 20.1033
38.86742019782782 20.0482
38.891030269149255 19.9884
38.914642058016156 19.9015
38.938255565806124 19.9441
38.96205529464307 19.9025
38.98567225787121 19.7974
39.00929094417078 19.8313
39.03291135492255 19.7878
39.05671804624804 19.7239
39.080341923549106 19.7009
39.103967529460334 19.6967
39.127594865365744 19.5764
39.15140854155791 19.6258
39.17503935514948 19.5987
39.19867190290282 19.5884
39.22249083587951 19.5686
39.24612686969409 19.5862
39.269764641845306 19.5419
39.293404153722804 19.4238
39.317230110864074 19.3401
39.34087311998506 19.3552
39.36451787301696 19.369
39.388164371352595 19.2779
39.41199737518003 19.2604
39.43564738196752 19.1924
39.45929913825317 19.2857
39.48295264543308 19.1919
39.506792718520884 19.1725
39.530449745387216 19.1223
39.55410852735203 19.1383
39.57776906581474 19.1094
39.60161623079 19.0261
39.625280300200025 19.0753
39.64894613032202 18.9262
39.67261372255866 18.92
39.6964680021016 18.9372
39.72013913657293 18.948
39.74381203738292 18.8779
39.76748670593756 18.8283
39.79134812278169 18.8277
39.81502634488497 18.8311
39.83870633896685 18.7828
39.862388106436654 18.6637
39.88625668336918 18.6449
39.90994201572829 18.6991
39.933629125719285 18.6659
39.957503091207826 18.5911
39.9811937746168 18.6088
40.00488623990914 18.4601
40.02858048850006 18.474
40.05246165409549 18.4576
40.076159487492085 18.435
40.099859108448875 18.4236
40.123560518384345 18.4051
40.1474489070226 18.3698
40.171153913178564 18.3465
40.194860712584955 18.2945
40.2185693066637 18.2689
40.242464941335314 18.2452
40.26617714307655 18.2413
40.289891143772046 18.1943
40.3136069448471 18.1685
40.33750984859743 18.1317
40.3612292688043 18.0545
40.3849504936829 18.095
40.40867352466194 18.0106
40.43258372059144 17.9515
40.45631038219906 17.9744
40.48003885420956 17.9658
40.503769138055105 17.9034
40.52768664931955 17.9168
40.55142057531802 17.8685
40.57515631746428 17.808
40.599079334038514 17.835
40.62281872700477 17.7391
40.64655994043941 17.7467
40.67030297578061 17.688
40.69423334835778 17.6695
40.71798004609188 17.6561
40.74172857006355 17.6417
40.76547892171441 17.6272
40.7894166736039 17.586
40.813170699248566 17.6017
40.83692655691388 17.5177
40.86068424804498 17.5669
40.884629402612525 17.4936
40.908390779366385 17.4573
40.932153993938 17.3869
40.95591904777605 17.3865
40.979871628443995 17.3875
41.003640379561936 17.3688
41.02741097430883 17.3472
41.05118341413683 17.2866
41.075143444384416 17.2215
41.098919593177826 17.2107
41.1226975914255 17.2016
41.14647744058318 17.1477
41.170444943946755 17.1196
41.19422851378379 17.1114
41.218013938914645 17.005
41.24198706625173 17.024
41.26577622087193 17.000999999999998
41.289567235177785 16.9342
41.31336011063129 17.0155
41.337340752422875 16.9344
41.361137369129835 16.9707
41.38493585138705 16.9193
41.40873620066004 16.8376
41.43272438060107 16.776
41.45652848292052 16.7593
41.48033445666918 16.7263
41.50414230331616 16.7355
41.528138045159764 16.6978
41.551949656675205 16.6583
41.575763145513235 16.6632
41.59957851314666 16.6256
41.62358184070442 16.616
41.64740098505737 16.5367
41.6712220126409 16.5038
41.69504492493139 16.503
41.71905586207357 16.476
41.74288256296395 16.4506
41.766711153007456 16.436
41.79054163368412 16.335
41.814560204340054 16.3835
41.838394485526365 16.3631
41.86223066180303 16.3429
41.88625497706819 16.327
41.910094962812 16.3304
41.93393684811168 16.2633
41.95778063445365 16.1898
41.981812625263366 16.1558
42.00566023303407 16.1538
42.029509746323676 16.119
42.05336116662236 16.0725
42.077400857069705 16.1157
42.10125611078846 16.0784
42.12511327600405 16.0207
42.14897235421036 16.0143
42.173019768448455 15.9904
42.19688269209613 15.9519
42.22074753323349 15.905999999999999
42.24461429335818 15.8639
42.268669455600495 15.8501
42.292540073217886 15.8377
42.31641261433284 15.8415
42.34028708044675 15.7645
42.36435001496739 15.753
42.38822835065557 15.7691
42.41210861586426 15.6733
42.4359908120986 15.7235
42.46006154323262 15.6856
42.48394762115317 15.6278
42.507835634632315 15.6033
42.531912233047436 15.5505
42.55580413732265 15.6002
42.579697981698 15.5452
42.60359376768525 15.538
42.62767820545945 15.449000000000002
42.65157789440821 15.3995
42.67547952952185 15.4307
42.699383112316 15.404000000000002
42.72347541395347 15.3828
42.74738291190531 15.3054
42.771292362102166 15.3312
42.795203766063516 15.3032
42.819303956130405 15.2052
42.843219287476536 15.2137
42.86713657716324 15.1599
42.89105582671383 15.1353
42.91516392983864 15.189
42.939087119032166 15.1774
42.963012272677304 15.0973
42.98693939230129 15.0447
43.01105543317513 15.0113
43.034986504731386 15.0289
43.05891954686589 14.9762
43.08285456110972 15.0288
43.10697856448665 14.9203
43.130917542983475 14.8606
43.15485849820081 14.8971
43.17880143167367 14.8904
43.20293342237094 14.8496
43.226880332449 14.800999999999998
43.25082922540554 14.7788
43.27496722682525 14.7452
43.29892010567796 14.6863
43.32287497204102 14.6805
43.34683182745632 14.6737
43.370977859791836 14.6717
43.39493871351105 14.6676
43.41890156092628 14.6381
43.44286640358341 14.6001
43.46702049182749 14.5651
43.49098934522816 14.5382
43.51496019852649 14.5282
43.5389330532723 14.4618
43.56309522248204 14.4669
43.58707210044314 14.4314
43.61105098451946 14.3599
43.63503187626491 14.3414
43.659202151562134 14.3645
43.68318707902681 14.3625
43.70717401884041 14.357999999999999
43.731162972560874 14.3135
43.75534137913236 14.2152
43.779334381108384 14.2186
43.803329401683186 14.2157
43.82732644241872 14.2135
43.8515130055166 14.1673
43.87551410707659 14.1394
43.89951723350145 14.0996
43.923709934595614 14.0578
43.94771713129917 14.0784
43.97172635758096 14.1017
43.99573761501002 13.9974
44.0199385169922 13.9627
44.04395385732619 13.9466
44.067971233533086 13.9506
44.09199064718605 13.9398
44.11619977548961 13.8789
44.14022328470671 13.8584
44.16424883610785 13.8419
44.18827643127035 13.8341
44.21249381139513 13.8039
44.236525514814076 13.7918
44.26055926674478 13.7543
44.28459506876863 13.7451
44.3088207262813 13.7368
44.33286064928722 13.6497
44.35690262714919 13.652999999999999
44.38094666145278 13.661
44.4051806219871 13.6352
44.42922879003185 13.5817
44.45327901929361 13.6055
44.477331311362136 13.5352
44.501573600619416 13.4775
44.525630039221795 13.4664
44.54968854541895 13.4826
44.573937102200176 13.4847
44.5979997645541 13.3636
44.622064499300315 13.4017
44.64613130803592 13.382
44.67038823869318 13.3441
44.69445921643748 13.3104
44.718532272981385 13.2582
44.742607409926194 13.2215
44.76687274034801 13.2287
44.79095205918753 13.2309
44.81503346325094 13.2257
44.839116954143876 13.127
44.86339071028742 13.1552
44.88747839599524 13.120999999999999
44.91156817336837 13.1041
44.93566004401666 13.1063
44.959942251908146 13.0482
44.984038330325966 13.0513
45.00813650686762 12.9829
45.03223678314731 12.9501
45.05652746888232 12.9844
45.08063196592069 12.9488
45.104738567558705 12.9047
45.128847275414856 12.913
45.15314646515866 12.8725
45.17725940679741 12.8526
45.20137445952892 12.8097
45.22568004865265 12.8272
45.24979934496396 12.8341
45.27392075725247 12.8027
45.29804428714431 12.7825
45.322358426247604 12.7506
45.346486212804315 12.6929
45.370616121861914 12.7187
45.39474815505086 12.6576
45.41907087049246 12.6243
45.4432071734666 12.595
45.46734560548283 12.6063
45.49148616817604 12.6202
45.51581748638564 12.5327
45.5399623320197 12.5217
45.56410931325473 12.5035
45.58825843173002 12.4989
45.61259837920865 12.4721
45.636751793816 12.4069
45.66090735060093 12.402000000000001
45.68506505120716 12.3767
45.7094136545275 12.3564
45.73357566449271 12.3476
45.75773982322992 12.2992
45.78190613238733 12.3233
45.806263418194064 12.2293
45.83043404997326 12.2048
45.85460683713677 12.2465
45.87897065658495 12.2166
45.90314777634752 12.1801
45.92732705646868 12.1383
45.9515084986045 12.1376
45.97588104735473 12.1516
46.00006683541565 12.0971
46.02425479047904 12.0541
46.04844491420549 12.0425
46.0728262191024 12.0651
46.09702070211635 12.0199
46.12121735879483 11.9917
46.14541619080294 11.9698
46.169806278764455 11.9454
46.194009483459034 11.9062
46.21821486849841 11.8682
46.24242243555223 11.8696
46.266821333570014 11.8598
46.29103328674601 11.8277
46.31524742696538 11.8281
46.33946375590237 11.8116
46.36387149104216 11.798
46.38809221957392 11.7178
46.41231514186606 11.720999999999998
46.436540259597464 11.7119
46.460956858999374 11.6878
46.48518638983522 11.6206
46.509418121166966 11.6162
46.533652054678114 11.5975
46.55807754555709 11.5671
46.58231590571962 11.5778
46.60655647313217 11.5905
46.630988654873654 11.5683
46.655233659129024 11.5536
46.67948087571551 11.5311
46.70373030632484 11.4692
46.72817142736393 11.4287
46.752425308428684 11.4552
46.77668140861147 11.3848
46.80093972960865 11.374
46.82538981736788 11.3336
46.849652602470904 11.321
46.87391761349769 11.3145
46.8981848521493 11.2917
46.9226439341274 11.3072
46.946915650573224 11.2225
46.97118959976749 11.2052
46.99546578341598 11.1791
47.019933887188216 11.1826
47.04421456235744 11.1588
47.06849747711879 11.1341
47.09278263318286 11.0862
47.11725978640143 11.0777
47.14154944775105 11.0387
47.165841355555656 11.079
47.1901355115306 11.0531
47.214621741924994 11.0408
47.23892041698887 11.0007
47.26322134538975 10.9542
47.28771440635075 10.9385
47.31201986422527 10.9437
47.33632758061436 10.9359
47.360637557241866 10.9144
47.38513974410611 10.9146
47.40945426407847 10.8808
47.43377104948137 10.8504
47.45809010204344 10.8155
47.48260144275502 10.831
47.506925052572285 10.7914
47.53125093475548 10.797
47.55557909103813 10.7701
47.58009961361992 10.7281
47.60443234110732 10.7184
47.62876734791564 10.6621
47.65310463578333 10.6689
47.6776343683373 10.6844
47.7019762413987 10.5948
47.72632040075572 10.5809
47.75066684815169 10.6219
47.77520581885936 10.573
47.799556865477655 10.5345
47.823910205386 10.5623
47.84826584033272 10.5368
47.87281407745551 10.4872
47.89717432569297 10.4762
47.92153687423484 10.4717
47.94609208429692 10.4278
47.97045925671401 10.4138
47.99482873471275 10.3895
48.01920052005013 10.3727
48.04376504619224 10.3571
48.068141469543484 10.356
48.09252020552573 10.3194
48.11690125590099 10.2464
48.1414751266064 10.2651
48.16586082917454 10.2598
48.19024885144316 10.2557
48.2146391951793 10.251
48.239222439012764 10.2522
48.26361744916137 10.1906
48.28801478610016 10.1616
48.31241445160131 10.1356
48.337007097209366 10.1169
48.36141144338331 10.1438
48.38581812345755 10.0928
48.41022713920929 10.1439
48.434829215320704 10.0719
48.45924292604658 10.0442
48.48365897780325 10.0591
48.50807737237308 9.99527
48.532688907799276 9.98888
48.55711201168574 9.998660000000001
48.581537463754074 9.97537
48.60615611725119 9.94218
48.63058628942721 9.9645
48.65501881516546 9.95513
48.6794536962573 9.907869999999999
48.70408185970339 9.88775
48.72852147531801 9.89349
48.75296345168211 9.82045
48.77740779059232 9.80282
48.80204549302823 9.811539999999999
48.82649458091802 9.76415
48.85094603676547 9.73461
48.87539986237231 9.73489
48.90004713292306 9.73955
48.92450572200832 9.73632
48.94896668628025 9.7243
48.97343002754588 9.715
48.99808689542115 9.68298
49.02255501470614 9.6448
49.04702551642794 9.631210000000001
49.0714984023988 9.58807
49.096164896893235 9.611260000000001
49.120642575466796 9.57432
49.145122643748394 9.55077
49.16960510355558 9.50035
49.19428125404938 9.48598
49.2187685210852 9.48087
49.243258185121555 9.46997
49.26794160167084 9.46973
49.2924360839405 9.43732
49.31693296869764 9.3938
49.34143225776915 9.360389999999999
49.36612538195438 9.34747
49.39062950396021 9.37049
49.41513603578346 9.31901
49.4396449792564 9.35793
49.46434784069503 9.31505
49.488861631846454 9.30035
49.513377840166804 9.2747
49.537896467493745 9.239180000000001
49.56260909589029 9.21163
49.587132585683285 9.245560000000001
49.611658500018365 9.229460000000001
49.636186840738596 9.17411
49.66090926588511 9.160810000000001
49.685442483902584 9.14593
49.70997813385706 9.13342
49.734516217597076 9.11426
49.75924846937352 9.07929
49.7837914452858 9.022089999999999
49.80833686055187 9.056939999999999
49.83288471702571 9.04757
49.85762682540054 9.00489
49.882179588965734 8.96084
49.9067347993235 8.9655
49.93129245833333 8.97551
49.95604445336378 8.957089999999999
49.98060703442832 8.94961
50.005172069746266 8.95565
50.02993150438364 8.90271
50.05450147301533 8.88327
50.07907390151433 8.873569999999999
50.10364879174981 8.84493
50.12841816587289 8.84044
50.1529980044635 8.83413
50.17758031042124 8.8163
50.20216508562089 8.788780000000001
50.22694442953363 8.7508
50.25153416817468 8.73823
50.27612638170508 8.72741
50.300721072005196 8.71402
50.325510416102105 8.69093
50.350110084975064 8.66816
50.37471223628208 8.67356
50.39931687190919 8.64981
50.424116246675766 8.59901
50.44872587605249 8.60031
50.47333799543065 8.580210000000001
50.49795260670191 8.58709
50.52276204271512 8.55896
50.54738166295838 8.52852
50.57200378079314 8.5067
50.596628398116835 8.49225
50.62144792604559 8.50257
50.646077567609396 8.49997
50.670709714377715 8.49902
50.69553683636198 8.45456
50.72017401885922 8.47167
50.7448137122895 8.407910000000001
50.76945591856022 8.407969999999999
50.79429318636823 8.38596
50.818940443716784 8.38188
50.84359021965163 8.35493
50.868242516085964 8.3341
50.893089960641895 8.29054
50.917747323549435 8.30382
50.94240721271973 8.28457
50.96706963007175 8.25654
50.99192728239342 8.24356
51.01659478166073 8.256739999999999
51.04126481489051 8.25635
51.06593738400761 8.211160000000001
51.090805275207074 8.17995
51.11548294172845 8.16035
51.14016314993547 8.17233
51.164845901758845 8.182780000000001
51.18972406304274 8.109169999999999
51.21441192780656 8.10591
51.23910234200271 8.12347
51.2637953075678 8.099739999999999
51.288683770237945 8.0622
51.31338186432707 8.02864
51.33808251561888 7.98681
51.362978729967345 7.99697
51.387684521509755 7.98712
51.41239287610203 8.00353
51.437103795691165 7.942769999999999
51.46201036644977 7.91724
51.486726441956634 7.938460000000001
51.51144508832545 7.93651
51.536166307509156 7.90325
51.56108326624387 7.85982
51.58580965706056 7.871760000000001
51.61053862657523 7.867719999999999
51.635270176746864 7.797160000000001
51.66019755512065 7.85285
51.68493429268881 7.8205800000000005
51.70967361681515 7.7819
51.73441552946465 7.78377
51.759353359237934 7.76363
51.7841004750961 7.75873
51.80885018539685 7.73314
51.833602492111254 7.71408
51.8585508051424 7.697210000000001
51.883308330926425 7.672210000000001
51.90806845906181 7.619460000000001
51.932831191525715 7.623130000000001
51.95779001977161 7.57976
51.98255798721516 7.574110000000001
52.00732856494335 7.5664
52.03229530577543 7.5656300000000005
52.057071130455945 7.55018
52.081849571391054 7.51218
52.106630630568695 7.488580000000001
52.13160794279417 7.461310000000001
52.15639426492067 7.4673
52.18118321127822 7.48075
52.205974783860896 7.46392
52.23096269971011 7.43175
52.255759551287994 7.443739999999999
52.280559035098186 7.43573
52.30536115314103 7.41825
52.33035970494467 7.4222399999999995
52.35516711807904 7.3925600000000005
52.37997717147198 7.37984
52.40478986713005 7.371639999999999
52.42979908731974 7.349589999999999
52.454617094216 7.342060000000001
52.47943774942214 7.29501
52.50426105495102 7.30673
52.529280976059844 7.26237
52.554109609024096 7.25467
52.57894089837482 7.221260000000001
52.60377484613117 7.218710000000001
52.62880550079408 7.2249300000000005
52.65364479223379 7.1561
52.67848674816189 7.1585600000000005
52.70352547971946 7.15972
52.72837279155837 7.1537
52.753222773982785 7.162730000000001
52.778075429022984 7.13932
52.80312495150885 7.167739999999999
52.827982978797436 7.136080000000001
52.85284368481815 7.08783
52.87770707160767 7.0563199999999995
52.90276741793998 7.06292
52.92763619336701 7.03798
52.952507655698504 7.003839999999999
52.977381806977576 6.97067
53.00245301017842 7.0093
53.02733256653592 6.993760000000001
53.052214817996074 6.96299
53.077099766608484 6.9679899999999995
53.102181859804446 6.90481
53.127072229988265 6.87035
53.15196530349892 6.8937100000000004
53.17686108239249 6.89542
53.20195409881522 6.88145
53.22685531582556 6.86298
53.25175924441303 6.81941
53.27666588664027 6.822360000000001
53.30176985962693 6.79891
53.3266819565689 6.79173
53.35159677336455 6.775589999999999
53.376514312083096 6.742939999999999
53.40162927507703 6.73413
53.42655228516116 6.72814
53.45147802340193 6.71973
53.47660125628886 6.7023399999999995
53.50153247842639 6.69247
53.52646643496923 6.6707600000000005
53.55140312799818 6.69205
53.576537409691696 6.674869999999999
53.60147960336152 6.6303
53.626424539786164 6.60602
53.65137222105307 6.6062899999999996
53.67651758529126 6.640210000000001
53.70147078399681 6.54957
53.72642673383343 6.55364
53.75138543689533 6.54482
53.776541917524526 6.51128
53.801506154876755 6.54643
53.826473151763246 6.4978
53.851442910284916 6.49984
53.87661054126026 6.47495
53.9015858509782 6.41176
53.92656392866066 6.44339
53.95154477641532 6.4229
53.976723591801296 6.40578
54.00171000771266 6.36531
54.02669920004598 6.38587
54.051691170915745 6.32429
54.076881204886796 6.33605
54.101878760928514 6.30692
54.12687910187696 6.323519999999999
54.152077577768296 6.2874
54.1770835166946 6.29969
54.20209224691339 6.26558
54.22710377055121 6.2565
54.25231352511594 6.2477
54.27733066384342 6.20172
54.30235060239643 6.2068
54.32737334290836 6.1683900000000005
54.35259441062629 6.14701
54.377622783395324 6.1727300000000005
54.40265396455061 6.10136
54.42768795623251 6.07916
54.45292037169559 6.12512
54.477960012857906 6.12456
54.50300247099511 6.06646
54.52804774825457 6.006130000000001
54.55329154616743 5.98477
54.57834249018678 5.94699
54.6033962597977 5.9431199999999995
54.6284528571545 5.918830000000001
54.653708072335164 5.89961
54.67877035378786 5.89634
54.70383546947698 5.85922
54.72890342156389 5.86126
54.7541700889442 5.81816
54.77924374251975 5.8273
54.8043202390049 5.793830000000001
54.82959552413022 5.72664
54.8546777351945 5.76021
54.87976279569621 5.690169999999999
54.90485070780914 5.71939
54.930137506558005 5.7070300000000005
54.95523115074295 5.69594
54.98032765308844 5.644369999999999
55.005427015775496 5.62885
55.03072536339621 5.624969999999999
55.05583047570572 5.61554
55.080938454927676 5.57449
55.10604930325027 5.57357
55.131359235107396 5.58505
55.15647585066083 5.47921
55.181595341907496 5.51559
55.20671771104285 5.4109
55.232039262617704 5.41107
55.25716741665048 5.37694
55.28229845518636 5.38706
55.30743238042802 5.29216
55.33276558731939 5.3468800000000005
55.357905315183636 5.30609
55.383047936390035 5.23046
55.40819345314859 5.24402
55.433538351073295 5.2244
55.458689688238415 5.19341
55.483843927614096 5.12385
55.509197623043605 5.10869
55.53435769621134 5.13384
55.55952067826466 5.0455
55.5846865714265 5.07313
55.61005202069737 5.08286
55.63522376553902 5.01775
55.66039842818645 4.96116
55.68557601087004 5.02116
55.7109532500271 4.98364
55.73613670233794 4.97398
