TT I
1.2716486653135266 7.37017
1.2939594142134223 7.0471699999999995
1.3162702121660406 6.87591
1.3385810600174564 6.6785
1.3608919586137629 6.7291
1.383202908801069 6.17005
1.405513911425503 6.41021
1.4278249673332093 6.71542
1.4501343378461518 6.59882
1.4724455028545926 6.3503099999999995
1.4947567236847858 6.0628
1.517068001182951 6.573589999999999
1.5393793361953272 6.07074
1.5616907295681737 5.97164
1.5840021821477681 5.367319999999999
1.60631369478041 5.49065
1.6286252683124185 5.3981699999999995
1.6509369035901333 5.28449
1.6732468618895553 4.90845
1.695558623192809 4.71738
1.7178704487808514 5.780930000000001
1.7401823395001077 4.96724
1.7625012545597203 5.06419
1.7848028405262486 5.57876
1.8071218901122095 4.79208
1.8294236121921872 4.776330000000001
1.8517427996910911 5.55743
1.8740620574440425 4.92287
1.8963639900671978 4.98502
1.9186833908139995 4.79199
1.9409854680117449 4.84274
1.9633050151394713 5.10846
1.9856246367570705 4.37208
2.0079269371922672 3.93433
2.03024671027244 4.63428
2.0525491637446027 4.73674
2.074869091674931 4.78038
2.097171701569106 4.69382
2.1194917877373847 4.9937
2.141811954326636 4.78846
2.164114805233074 5.23585
2.186435135143035 6.18229
2.208738150935709 11.4601
2.231058647554722 21.4448
2.2533792288321184 16.5731
2.275682498336085 8.82828
2.298003251406138 5.809880000000001
2.3203066942619714 5.46645
2.3426276225136022 4.7994
2.3649486396617507 5.86027
2.387252348930071 5.90551
2.4095735463442893 5.75891
2.4318774374315884 5.61177
2.4541988185014043 5.60313
2.476502894794693 6.2162
2.498824462909887 5.835459999999999
2.521146125856138 6.86735
2.5434504863470337 6.54275
2.5657723414244717 7.19142
2.588076895590662 7.993589999999999
2.610398946189713 7.32592
2.6327210958598384 7.0967899999999995
2.6550259469304716 7.299189999999999
2.6773482972090137 7.47761
2.6996533504259 7.3553
2.7219759047039602 7.664680000000001
2.744298562293959 7.89383
2.7666039251246595 7.365069999999999
2.7889267918020164 7.91285
2.8112323652516555 7.999280000000001
2.833555444408179 8.13401
2.8558786311183852 8.02186
2.8781845268938557 8.51254
2.9005079311721484 8.63211
2.9228140460410397 8.926789999999999
2.9451376712799635 9.07001
2.967444008632326 9.78613
2.9897678582247247 9.96203
3.0120918213106695 9.76024
3.0343984987899373 11.0464
3.0567226913198637 11.4928
3.079029599759726 11.7194
3.101354025127254 12.5864
3.123678568232338 12.9811
3.145985829517914 12.9548
3.16831061055229 13.5283
3.1906181112775593 13.9106
3.212943133635653 14.4612
3.2352682779763207 15.0968
3.2575761442691227 15.1703
3.2799015350264273 15.7571
3.302209649240067 16.7884
3.3245352898092655 16.7766
3.3468436553365257 17.6145
3.369169549113219 17.6982
3.3914955708171384 18.7994
3.413804319727358 19.4301
3.4361305997334863 19.3744
3.4584396084414553 20.1175
3.4807661501462652 20.5902
3.503092824025881 20.8033
3.5254022288463154 20.9147
3.5477291695206588 21.5722
3.5700388426251948 22.2731
3.5923660534916446 23.3293
3.6146934007816114 34.1959
3.637003482731501 68.7369
3.6593311053109985 74.7419
3.681641464033634 45.3856
3.7039693653009733 28.5618
3.726297407241705 25.875
3.7486081875460804 25.9199
3.7709365132734978 26.4072
3.793247578841633 26.7565
3.8155761917550093 26.9909
3.8378875459837216 27.2452
3.8602164494827234 27.7958
3.882545499606844 28.3376
3.9048572932539183 29.0238
3.9271866390645718 29.4354
3.9494987298666713 29.9999
3.971828374764527 30.9215
3.9941581705403255 31.0729
4.016470713506008 31.4929
4.038800813471445 32.1971
4.061113662089144 32.8487
4.0834440696459176 33.7025
4.105774632334751 34.253
4.128087945865126 34.8751
4.150418821249301 35.688
4.172732448931298 37.1766
4.195063640413578 38.3431
4.2173775856475215 41.8248
4.239709096631102 65.7164
4.262040768704612 178.38400000000001
4.284355196706267 229.75799999999998
4.306687193387355 149.66
4.329001947444346 67.8116
4.35133427213731 46.8235
4.373666762177566 44.6535
4.395982011761091 44.2222
4.418314834921175 45.8578
4.44063041906622 52.0397
4.4629635787515625 59.5106
4.4852969080429785 59.7761
4.5076130004776225 53.1991
4.529946671403969 51.348
4.552263106909177 52.0411
4.574597122877047 52.9318
4.596931312711224 53.7246
4.619248269273446 54.5518
4.6415828092605835 55.5995
4.663900117405352 56.324
4.686235010953232 58.0165
4.708552674085913 59.4178
4.730887924602802 60.845
4.753223354952695 62.232
4.775541557023902 63.7036
4.797877349456786 65.2974
4.820195915032126 67.5251
4.842532072957498 68.9222
4.864868414979744 70.9538
4.88718753227192 73.2284
4.909524244902505 75.2973
4.931843734218147 77.3911
4.954180820867835 80.0304
4.976518095879839 83.2603
4.998838149695359 86.2165
5.021175803844231 89.9142
5.043496238205739 93.6372
5.065834274903528 98.67
5.088172504230693 103.85700000000001
5.1104935158799565 111.926
5.132832132875765 132.911
5.155153533596801 171.16099999999997
5.1774925416746225 224.77
5.199814334878411 500.577
5.2221537374521505 1385.9
5.244493338631803 3402.09
5.266815727034316 7593.43
5.289155727832427 11709.1
5.311478517248165 8505.13
5.333818921080011 2937.59
5.356159527788849 608.744
5.3784829252032536 201.94400000000002
5.400823940070432 152.935
5.423147747031976 133.976
5.445489173474152 122.955
5.467830807066149 116.96600000000001
5.490155234831516 112.984
5.512497285125229 108.89
5.534822130975162 107.054
5.557164601388673 104.90799999999999
5.579489868738879 101.986
5.601832762690846 100.45700000000001
5.6241758697774475 99.9658
5.646501775867269 99.1377
5.668845311622074 97.5058
5.691171647754637 96.8936
5.713515615597765 95.5575
5.735859800852677 95.0062
5.758186788542988 94.4015
5.780531411018185 95.0886
5.802858837297399 94.3033
5.825203900414495 94.6149
5.8475491852224 95.4318
5.869877275883075 95.7281
5.892223006467101 97.0388
5.914551544266608 98.52600000000001
5.936897724049891 102.64399999999999
5.959244129804903 111.095
5.981573344815301 143.06799999999998
6.0039202049061 278.645
6.026249875609095 593.281
6.04859719346037 1191.7
6.070927323278297 2361.88
6.093275102315365 4333.38
6.115623113320588 5198.81
6.137953938319995 3297.66
6.160302415650845 1137.48
6.182633708324452 273.808
6.2049826554078376 121.134
6.227331838745022 97.0025
6.249663839443684 88.1447
6.27201349767565 84.2302
6.294345974611799 87.1049
6.316696111167083 94.4091
6.339046488263839 89.6904
6.361379686074702 78.3432
6.383730546639482 72.8501
6.406064229255215 70.4735
6.428415576718203 69.6483
6.450749747566656 68.8831
6.47310158535871 67.4854
6.495453669698332 66.6642
6.517788579421056 65.9893
6.540141159237969 64.9205
6.562476565766648 64.36
6.5848296444934045 63.842
6.607182974060425 63.6269
6.6295191323281015 63.3603
6.651872965955752 65.467
6.6742096296068985 83.9762
6.6965639707294615 115.73
6.71891856698715 114.03399999999999
6.741255995248479 83.568
6.763611104154477 65.7383
6.785949046381137 60.7589
6.808304671371482 59.3668
6.8306605557940046 59.0224
6.852999275508618 58.4278
6.875355681171544 57.9058
6.897694923437771 57.5991
6.92005185377892 57.3947
6.9423916220322655 57.339
6.964749080490181 56.7362
6.987106804399774 56.4944
7.009447368180821 56.4829
7.031805625367033 56.2404
7.054146723727803 56.1563
7.076505517631004 55.9943
7.098864581288365 55.9566
7.121206488070854 55.733000000000004
7.143566093607822 55.7267
7.165908543567245 55.9206
7.188268694426048 56.2108
7.2106291193438095 55.8606
7.232972390625943 57.0493
7.255333366030969 65.8572
7.277677189091925 103.588
7.300038718428332 134.43200000000002
7.322400526130865 115.5
7.344745183422596 78.4291
7.367107550224791 60.1293
7.389452767901992 56.1838
7.411815697249891 55.7401
7.434161478756298 54.7823
7.456524974096713 54.8054
7.478888753837185 54.8345
7.501235387657368 55.3251
7.523599738562711 55.3982
7.545946944825532 55.7989
7.568311870344528 56.0224
7.5906770845765665 56.1121
7.613025156078678 57.2775
7.635390950099687 58.1447
7.657739602662809 57.5502
7.680105979923558 56.6739
7.702472650212829 57.0026
7.724822180948224 56.4722
7.747189439655568 56.9923
7.769539560075357 57.2044
7.791907410653562 57.4222
7.81425812420825 57.446999999999996
7.836626570110925 57.8595
7.858995315087906 58.7297
7.881346924933401 58.5437
7.903716270417482 59.1504
7.926068482028405 59.6187
7.948438431475253 60.4561
7.9708086843180235 60.8071
7.993161805171116 61.523999999999994
8.015532667162402 61.8585
8.037886398416653 62.7335
8.060257873014221 63.4392
8.082629655331942 63.9858
8.104984308787587 65.081
8.127356708900503 67.5567
8.149711981398308 72.1937
8.172085002766314 74.3357
8.194458336181368 71.8487
8.216814543847752 70.3112
8.23918850371002 70.9
8.26154533906492 71.7206
8.283919928836452 73.3618
8.306277395339652 74.2412
8.328652618483376 75.9206
8.351028159736202 78.1321
8.373386579575245 80.4818
8.395762759396959 82.39
8.418121819038275 87.4061
8.440498640894003 98.5481
8.462875785192262 112.545
8.485235811156207 136.743
8.507613602688501 201.78
8.529974277114228 311.55400000000003
8.552352719347912 461.223
8.574731488360351 744.235
8.59709314210385 1240.21
8.619472567021075 1810.72
8.64183487789147 2142.02
8.664214962183097 1833.28
8.686577933647762 983.5169999999999
8.708958680784317 388.531
8.731339760774953 169.12
8.753703729764451 114.4
8.77608547780821 102.223
8.798450116065078 98.0204
8.820832535634787 94.6165
8.843215292401656 92.9442
8.865580941199045 91.95100000000001
8.887964374703538 90.8255
8.910330701447199 90.9674
8.932714815164482 91.845
8.955099270424924 90.9704
8.977466620733543 88.8499
8.999851761421976 86.7412
9.022219798361645 85.2667
9.04460562795561 84.9741
9.066991803441677 84.6606
9.089360876979615 84.2941
9.111747746589993 84.0233
9.13411751544971 83.8924
9.156505082664324 83.5633
9.178875550323522 83.6249
9.20126381862328 83.9609
9.223652438908596 83.8035
9.246023961427412 83.81700000000001
9.26841328802173 83.7416
9.290785518039224 83.755
9.313175554425882 84.5889
9.335565947154315 84.8108
9.357939245086508 84.8029
9.380330352834827 84.9442
9.40270436697103 85.0005
9.425096193225055 84.3929
9.447488380180165 85.8359
9.469863475295412 86.1024
9.492256385987508 86.3968
9.514632206018318 86.9348
9.537025843935714 86.9594
9.559402392368193 87.9042
9.581796761000229 89.554
9.604191496441521 90.3107
9.626569144158516 93.212
9.648964615551032 96.2818
9.671343000390081 97.7022
9.693739211225699 96.6108
9.716135793237463 94.8537
9.738515290448102 94.8648
9.760912617143402 96.1734
9.783292860202891 97.5261
9.805690935076182 98.9595
9.828089385495742 99.8069
9.850470754023561 102.225
9.872869957865444 108.84299999999999
9.89525208097539 120.22399999999999
9.917652041736662 130.96200000000002
9.940052382417589 136.47799999999998
9.962435644102392 160.844
9.984836746950979 214.61599999999999
10.007220771957746 290.702
10.029622640473708 404.92699999999996
10.052007432299963 593.3530000000001
10.074410069984072 873.618
10.096813093716005 1270.87
10.119199042482517 1709.72
10.141602840636468 1919.15
10.163989564971628 1624.34
10.186394141051062 944.118
10.208799107559706 413.98199999999997
10.231187001965623 194.65200000000002
10.253592751657669 130.156
10.275981430388155 115.992
10.298387966769793 114.186
10.320794897965431 114.91
10.343184759907361 113.516
10.36559248305461 109.39299999999999
10.387983138083852 107.60799999999999
10.410391656691655 114.68299999999999
10.432800574501677 130.062
10.455192425893369 149.863
10.47760214443012 177.511
10.499994797678786 223.023
10.522405320453982 298.361
10.54479877906917 398.798
10.567210109595656 504.01599999999996
10.5896218454736 579.2919999999999
10.612016518879773 501.461
10.634429067781074 357.163
10.656824555333241 205.0
10.679237920773568 125.85
10.701651695961992 98.2412
10.724048411481384 91.2415
10.746463008485165 88.3507
10.768860546937125 86.5973
10.791275969274796 84.6546
10.81369180576079 83.4479
10.836090585366925 82.5848
10.858507252467449 81.1631
10.88090686379991 80.3904
10.903324365036394 79.8075
10.925724811614439 78.9626
10.948143150509463 79.8711
10.970561909719066 79.2887
10.992963615930844 77.6415
11.015383218085756 75.8736
11.037785768347074 74.4773
11.06020621697282 73.7777
11.082627090322113 73.5328
11.105030913430326 73.1503
11.12745263854165 73.1794
11.149857314510728 75.3126
11.172279894912576 79.5417
11.194702904450653 79.6749
11.217108866490921 76.4723
11.239532736615194 73.1698
11.26193956033512 71.55
11.284364294577085 70.9757
11.306789462371718 69.1581
11.329197585398376 68.4136
11.351623622610898 68.2696
11.37403261614354 67.4771
11.396459526308487 66.9708
11.418869393879497 66.2693
11.441297180532617 66.2878
11.463725406927658 65.7769
11.486136592353875 66.0586
11.508565700543707 66.1799
11.530977768845315 67.1965
11.553407762368774 67.4558
11.575838200059769 67.2509
11.598251599479612 65.9375
11.620682927815501 65.0092
11.64309721895548 64.5767
11.665529441478206 64.2741
11.687962112597958 63.7981
11.710377748130886 63.9895
11.732811318753434 63.9968
11.755227854859067 64.0988
11.777662328529495 63.8727
11.800079768750786 63.4635
11.822515149015453 63.549
11.844950984084935 64.0227
11.867369787303163 63.7348
11.889806534289491 63.5701
11.912226250487029 63.8736
11.934663912939751 64.0737
11.9571020346363 64.2808
11.979523127133968 64.4329
12.001962169624331 65.5165
12.024384183972964 67.456
12.046824150809913 71.9466
12.069264581333726 77.7976
12.091687985297767 84.3643
12.11412934550045 94.1366
12.136553680195208 109.12100000000001
12.158995973632788 130.332
12.181438735204349 156.52
12.20386447284199 182.40599999999998
12.226308172985636 202.092
12.24873485024193 200.102
12.271179492516982 170.271
12.293607112949127 125.115
12.316052700916226 94.0193
12.338498763250042 77.5334
12.360927805303868 69.702
12.383374818673879 66.8152
12.405804812803074 65.5826
12.428252780773262 65.4577
12.45070122756722 65.4763
12.473132656675375 65.1048
12.49558206341869 65.5052
12.518014453510101 65.4046
12.540464823770117 65.5766
12.562915677315177 65.9501
12.58534951575545 66.5936
12.607801338171472 68.0142
12.630236146511358 71.5208
12.652688941369085 74.8897
12.675124723177234 75.3854
12.697578494048786 72.8472
12.720032754458185 70.0711
12.742470003354093 68.9819
12.764925245138771 68.9108
12.787363476431278 69.3852
12.809819703166806 69.6139
12.83227642391173 70.3868
12.854716135692716 70.9502
12.877173846755147 72.1252
12.899614549869717 72.4922
12.9220732548287 73.3311
12.94453245827299 73.8306
12.966974655289818 74.6537
12.989434858002571 75.6835
13.011878055298721 76.2735
13.034339260862497 77.5463
13.056800969391883 79.0101
13.079245674017244 81.8338
13.101708390774869 85.7899
13.12415410463411 95.925
13.146617833206086 109.32799999999999
13.169064559883248 122.06200000000001
13.191529303857127 138.131
13.213994557076367 162.062
13.236442809902437 198.833
13.258909083908291 249.49599999999998
13.28135835851934 303.671
13.30382565690295 365.13599999999997
13.326293469022952 412.473
13.348744283242008 417.455
13.371213125129904 357.161
13.39366497011003 264.48400000000004
13.416134845360597 175.074
13.438605238843131 125.33
13.46105863690397 111.314
13.483530069144786 113.35600000000001
13.505984506951902 119.491
13.528456981549432 130.534
13.550929978879088 146.44
13.573385983253365 170.628
13.595860028340867 206.976
13.618317081455832 252.179
13.64079217790333 298.83
13.663250283359057 337.452
13.685726434770173 368.8
13.708203115221277 338.159
13.730662806148091 266.513
13.75314054697177 188.3
13.775601299246777 128.255
13.798080104050406 98.0175
13.820559442405358 86.8577
13.843021793671388 83.0496
13.865502201420897 81.6938
13.887965623051947 80.8812
13.910447103807167 79.7645
13.932929122629764 78.5759
13.955394156785959 78.1047
13.977877254034569 77.2985
14.000343367582113 76.3741
14.022827546871707 75.7002
14.045294743423524 75.0436
14.06778000837062 74.4192
14.090265817715476 74.1981
14.112734645763819 73.83800000000001
14.13522154619454 73.7301
14.157691466286913 73.4555
14.180179461423874 73.2549
14.202668005486178 72.6848
14.22513957064374 72.0872
14.247629214846473 71.6726
14.270101881097517 71.4808
14.29259262906496 71.7588
14.315083930490205 72.2993
14.337558255389705 72.3406
14.360050666019726 72.1698
14.382526101071944 71.3905
14.405019624534942 70.6633
14.427513705993134 70.2259
14.449990813291825 70.2868
14.47248601302899 70.232
14.49496423954951 70.2118
14.517460561197822 70.3837
14.539939910570322 69.8357
14.562437357763558 70.2618
14.58493536931253 71.3181
14.607416409993311 71.7632
14.62991555254159 72.4733
14.652397725157423 72.4564
14.674898002342799 72.0634
14.697398848433282 71.9421
14.719882725991326 73.0665
14.74238471217934 75.0585
14.764869730765593 79.8559
14.787372860692983 83.8058
14.809876564079925 88.5633
14.83236330125751 95.2041
14.854868153850365 103.765
14.877356041159485 117.62299999999999
14.899862046604186 135.35299999999998
14.922351087688757 157.445
14.944858249632887 181.813
14.967365991421232 203.674
14.989856770231246 219.511
15.012365673994204 216.963
15.03485761569738 188.692
15.05736768508665 149.589
15.07987833888692 114.82
15.102372032001655 90.542
15.124883856909658 77.9383
15.14737872204565 73.6215
15.169891721717274 71.7286
15.192405310371893 71.7198
15.214901940621196 71.7947
15.237416709527137 71.5962
15.259914520936249 71.6759
15.282430473753607 70.6293
15.304947020131227 69.7993
15.327446610371178 68.9942
15.349964346154254 68.3447
15.372465126703139 67.8893
15.394984055556009 67.8211
15.417486030076159 67.7668
15.44000615566487 67.4197
15.462526881230803 67.2029
15.485030653812652 67.5778
15.507552581617434 67.4045
15.530057557334603 67.3004
15.55258069104857 67.4019
15.575104429329837 67.6821
15.597611216864632 67.2645
15.620136166564563 67.7667
15.6426441664095 69.365
15.665170331202765 72.8248
15.687697105158826 76.5276
15.710206930593545 80.2295
15.732734925158933 84.8111
15.755245972089478 91.1767
15.77777519094324 100.96700000000001
15.800287463046663 113.27
15.822817909869592 130.486
15.84534897229804 147.953
15.867863089299354 167.62900000000002
15.890395385222186 182.322
15.912910736597423 190.452
15.935444269699861 181.75799999999998
15.957978423016485 155.843
15.980495633101265 125.45100000000001
16.003031029129367 96.9475
16.02554948280019 77.884
16.048086125229432 69.0949
16.070623392487107 66.1301
16.09314371869582 65.0898
16.11568223789321 64.0052
16.13820381691126 63.1392
16.160743591742527 62.2908
16.183283996022084 61.5256
16.205807461423195 60.3915
16.228349126881973 59.9821
16.25087385432698 59.8696
16.27341678466365 59.2942
16.29594277784926 59.1392
16.31848697676433 59.4566
16.341031811604868 59.3029
16.36355971058487 59.2561
16.3861058195587 59.0365
16.40863499352978 58.2073
16.431182380342005 57.5145
16.453730407713202 57.2427
16.476261501364792 56.7554
16.498810812136167 56.1595
16.52134319004079 56.5129
16.54389378792203 56.358999999999995
16.566445031001553 56.3434
16.588979342490088 56.0722
16.61153187824822 55.9919
16.634067483263312 55.9367
16.656621315414416 55.9718
16.679175797408888 55.4698
16.701713349928728 55.4967
16.72426913389191 55.9252
16.74680798922351 55.8365
16.76936507887444 55.9387
16.791905240734874 55.9878
16.814463639794468 55.7119
16.837022695210294 55.8032
16.859564824093756 56.2702
16.882125194503903 56.5536
16.904668639217885 57.1043
16.927230328348003 57.0994
16.949792678493612 57.3218
16.972338104193863 56.8406
16.994901778652235 56.4119
17.017448529496576 56.5675
17.040013531998152 57.1176
17.06257920018044 57.6878
17.0851279459922 58.6283
17.107694947817667 59.4835
17.130245028099072 60.2441
17.15281336730298 61.826
17.17536478578733 63.5421
17.19793446610687 65.9512
17.220504818648422 68.4358
17.243058251703697 71.1062
17.265629950971032 75.1999
17.288184731571736 78.6844
17.310757781306908 82.3056
17.33333150794385 83.3895
17.355888317140174 82.6581
17.37846339986244 77.7131
17.401021565958885 71.7516
17.42359800851343 66.5638
17.44617513265564 62.9396
17.468735341390783 61.0659
17.491261035594565 60.2008
17.51396340099364 60.0847
17.536490463869136 60.2464
17.559018209820174 60.1116
17.58154663977963 60.3835
17.604251766089718 60.5408
17.626781572227713 60.6711
17.64931206518155 60.8819
17.671843245885103 61.538000000000004
17.69455114821572 61.6641
17.717083712612634 61.9167
17.739616967569667 62.2736
17.762150914021706 62.5705
17.78486160749854 62.6269
17.807396945166804 63.4704
17.829932977143503 65.0263
17.85246970436452 67.0034
17.875183204129467 68.9803
17.897721330097664 71.3573
17.920260154126645 73.7928
17.942799677153296 77.006
17.9655159983646 80.759
17.988056927677544 86.51799999999999
18.010598558807683 94.0513
18.033140892692916 102.573
18.05586005052525 111.17399999999999
18.07840379824407 120.87700000000001
18.10094825154059 131.093
18.12366954819864 138.687
18.146215420998306 139.542
18.16876200220057 132.371
18.191309292745153 118.71600000000001
18.214033452627167 105.098
18.236582170236648 94.0675
18.259131600016456 88.5785
18.281681742907335 88.506
18.304408781233683 91.7259
18.32696035875955 96.0562
18.349512652227624 100.26899999999999
18.372065662579683 105.14299999999999
18.394795594587553 106.635
18.41735004715306 103.92399999999999
18.43990521943684 97.0205
18.46246111238171 87.8329
18.485193953325208 77.867
18.507751296070428 70.7735
18.530309362314178 66.77
18.552868153000343 64.5277
18.57560391815056 63.1352
18.59816416623245 62.6996
18.620725141597372 62.4042
18.643286845190268 61.8874
18.666025549835414 61.4453
18.688588718427933 60.8169
18.711152618092243 60.7498
18.73389353884365 60.3194
18.75645890921984 60.0522
18.77902501351406 59.6493
18.801591852673102 59.7181
18.824335739722738 59.0262
18.846904057212626 59.0317
18.8694731124168 58.7965
18.89204290628315 58.6273
18.914789774966803 58.7339
18.937361054791623 58.2688
18.959933076131318 58.1644
18.982505839934877 58.001999999999995
19.00525570560582 58.0762
19.027829963004184 57.8517
19.05040496572238 58.0192
19.072980714710468 58.2477
19.095733592739563 58.507
19.11831084296757 58.5027
19.140888842324735 59.2934
19.16346759176222 59.6837
19.18622349753803 60.1498
19.208803755869358 61.055
19.231384767143577 62.1235
19.253966532312948 63.7078
19.276725481241822 65.6359
19.29930876296784 67.7084
19.3218928014549 70.2657
19.34465404436217 72.9997
19.36723960516257 75.6325
19.389825925592426 76.8343
19.412413006605938 76.1265
19.43517731967805 73.0085
19.457765930683355 68.6461
19.48035530514408 64.0965
19.50294544401556 60.2218
19.525712842708348 57.3829
19.54830451925909 56.3255
19.570896963095727 55.1273
19.593490175174704 54.7488
19.616260674962184 54.9148
19.638855432416964 54.5538
19.661450960992624 54.5838
19.68404726164677 54.2665
19.706820878021247 54.2257
19.729418731756834 54.6914
19.752017360452857 54.2322
19.77461676506804 54.5988
19.797393513540218 54.8525
19.819994478951667 55.1995
19.84259622316767 55.6905
19.8651987471481 56.2631
19.887978643247177 56.3753
19.91058273574792 56.8906
19.933187610901943 57.6739
19.955969879466828 59.0278
19.97857632894404 60.36
20.00118356396599 61.8978
20.023791585494575 63.6352
20.046577028914875 65.9917
20.069186632506966 67.8159
20.091797025500632 69.7243
20.114408208858933 70.5972
20.137196842715273 70.7882
20.159809615886765 69.1218
20.18242318232135 66.8416
20.20503754298326 64.6792
20.227829382875154 63.2454
20.250445341109344 63.205
20.27306209647285 63.4598
20.29567964993108 64.3824
20.31847471147704 65.2311
20.34109387027612 66.2714
20.363713830075454 66.0995
20.386334591841646 64.7587
20.409132890679302 62.2734
20.431755265564437 59.1239
20.454378445325528 56.1957
20.477002430930366 54.2599
20.499803982716553 52.8524
20.522429589228004 52.2929
20.54505600449589 51.8752
20.567683229489194 51.7089
20.590488049900088 51.2559
20.61311690359731 51.0691
20.63574656993626 50.9655
20.658553853717297 50.5647
20.681185154618298 50.476000000000006
20.703817271080066 50.361000000000004
20.72645020407368 50.0859
20.749260783967177 49.7648
20.771895359337133 49.7796
20.794530754161617 49.762
20.817166969412938 49.8181
20.83998086114876 49.8325
20.86261872660049 49.6288
20.885257415405402 49.5087
20.90789692853701 49.4932
20.930714147864748 49.4002
20.953355319030678 49.4344
20.97599731745334 49.8022
20.99864014410749 49.5371
21.021460706796564 49.6553
21.044105199328826 49.9032
21.06675052302631 49.9454
21.089396678865015 50.1299
21.112220600704806 50.4816
21.134868430275347 50.7372
21.15751709492456 51.0039
21.180166595629693 51.1643
21.202993892429635 51.5341
21.22564507473034 51.8292
21.24829709602816 52.1907
21.27112693608965 52.33
21.293780644891275 52.5267
21.316435195634053 51.5424
21.339090589297417 50.9916
21.361923832041875 50.4311
21.384580921090404 49.8519
21.407238856007325 49.3781
21.429897637773326 49.2933
21.45273429906592 49.3812
21.475394784108598 49.1514
21.498056118951983 49.0813
21.520718304578022 49.4206
21.543558400304388 49.6232
21.566222297108816 49.9426
21.58888704765135 50.1824
21.61155265291521 50.4342
21.63439619898156 50.933
21.657063523335786 51.0907
21.67973170537063 51.672
21.7024007460706 52.2044
21.72524775840385 52.8585
21.747918526116475 53.9782
21.770590155457388 55.3613
21.79326264741238 56.648999999999994
21.816113141960237 58.1741
21.838787368860547 59.88
21.861462461341976 61.5953
21.884315579735777 63.2817
21.90699241312273 64.6836
21.92967011506078 65.33800000000001
21.95234868653799 65.2845
21.9752053151131 64.3193
21.997885635446785 62.4112
22.020566828293532 60.5417
22.04324889464272 58.5546
22.066109049404666 57.2635
22.088792872571794 56.5791
22.111477572219204 56.6364
22.1341631493376 56.8486
22.157026846313123 56.8128
22.179714188221507 56.3617
22.202402410582668 55.3237
22.22509151438863 53.8022
22.24795876962584 52.2271
22.270649646204486 51.4034
22.293341407213727 50.668
22.316034053646906 50.1099
22.338904883215342 49.8099
22.36159931041458 49.8786
22.38429462602756 49.9458
22.40699083104897 49.7375
22.429865251039757 49.7174
22.452563244831367 49.7808
22.47526213102522 49.7483
22.49813925616515 49.5943
22.520839937143307 49.3536
22.543541513520587 49.556000000000004
22.56624398629403 49.2726
22.589124730075895 49.3654
22.611829005656723 49.5932
22.63453418063466 49.6315
22.657240256008077 49.8739
22.680124634582935 50.0239
22.70283252079775 50.3256
22.725541310413075 50.6871
22.74825100442868 50.8258
22.771139033969575 51.398999999999994
22.79385054687155 51.6448
22.81656296718292 52.1576
22.83927629590484 53.1194
22.862167992606945 54.1179
22.88488314827121 54.9285
22.907599215359284 55.8121
22.93031619487366 56.6847
22.953211574954405 57.5201
22.975930389478226 58.4234
22.998650119445763 58.5842
23.02137076586092 58.0543
23.044269845560063 56.8924
23.06699233506288 55.3377
23.089715744034912 53.6799
23.112617610931565 52.0842
23.135342869061212 50.7775
23.158069049684816 49.9902
23.1807961538087 49.7302
23.20370174880544 49.632
23.226430710184808 49.8767
23.249160598093425 49.9797
23.271891413539002 50.048
23.294800752937697 49.8793
23.31753343374794 50.143
23.340267045128353 50.1432
23.36300158808808 50.4673
23.38591468821339 50.7435
23.408651104658304 51.2796
23.431388455719986 51.9504
23.454126742409 52.7011
23.4770436196085 53.6259
23.499783787914662 54.5944
23.522524894889884 55.4947
23.54526694154616 56.3544
23.56818761219047 57.4486
23.59093154860734 58.059
23.613676427751283 58.5426
23.636422250635754 57.8996
23.659346731118656 56.5603
23.68209445191868 54.5767
23.704843119509587 52.5383
23.72759273490623 50.5108
23.750521041644767 48.9626
23.77327256312355 47.9856
23.796025035462787 47.3685
23.818956224555475 46.8772
23.841710609113413 46.7746
23.86446594758979 46.5183
23.887222241002014 46.3071
23.910157285144578 45.9285
23.932915498962537 45.9816
23.955674670778713 45.8571
23.978434801611975 45.6639
24.001373717286125 45.4549
24.024135776723917 45.4292
24.046898798245582 45.2402
24.06966278287146 45.2432
24.092605586582614 45.1172
24.115371508023642 44.8999
24.1381383956401 44.7238
24.16090625045381 44.6423
24.183852958731244 44.7212
24.206622758582608 44.7375
24.229393528706886 44.4581
24.252165270127392 44.3818
24.27511589952438 44.398999999999994
24.297889594216997 44.2372
24.32066426328598 44.0263
24.34343990775613 44.1734
24.36639447485003 43.8965
24.38917208083877 43.8043
24.41195066531332 43.6977
24.43490819850244 43.8929
24.457688750692377 43.7045
24.48047028445616 43.7424
24.503252800821233 43.7318
24.526214300784112 43.9219
24.548998793132213 43.729
24.57178427117417 43.5987
24.59457073593893 43.7501
24.617536219319863 43.7416
24.64032466834748 43.7848
24.663114107195035 43.6076
24.685904536893013 43.3789
24.708874020360852 43.2968
24.731666442613744 43.1722
24.754459858818787 43.1798
24.777254270007962 43.0954
24.80022777025625 43.0925
24.82302418230472 42.9325
24.845821592443674 43.0342
24.86862000170663 42.8822
24.891597535453727 42.8262
24.914397953892728 43.1613
24.93719937456671 42.9837
24.96000179851076 43.1612
24.98298338249997 43.2965
25.00578782394922 43.6128
25.028593271784167 43.7079
25.05157790644186 44.0811
25.07438537804115 44.138999999999996
25.097193859145293 44.3011
25.120003350792075 44.6232
25.142992065061257 44.8519
25.165803588823465 45.0274
25.18861612625217 45.3406
25.211429678386736 45.4694
25.234422489079968 45.4047
25.257238081693636 45.574
25.280054692141732 45.6042
25.3028723214652 45.2891
25.325869245420463 45.5273
25.348688923599397 45.4989
25.371509623787006 45.51
25.394331347025812 45.2069
25.41733240110666 44.8288
25.440156181590016 44.1831
25.46298098826268 43.7165
25.48580682216873 43.1798
25.50881202326435 42.449
25.53163992281684 42.2107
25.55446885274561 41.8689
25.577298814096377 41.5577
25.600308179121807 41.5957
25.623140214533745 41.7324
25.64597328451537 41.5903
25.66898578564376 41.3784
25.691820936010206 41.4076
25.714657124097695 41.2797
25.737494350954734 41.34
25.760511045684957 41.1824
25.783350361364224 41.2562
25.806190718969255 41.2287
25.82903211955018 41.3164
25.852053024868923 41.2677
25.874896522722523 41.3694
25.897741066713106 41.248999999999995
25.920586657892454 41.4535
25.943611790812668 41.6251
25.966459487728237 41.6958
25.989308234998564 41.7067
26.01215803367705 42.0058
26.03518741123814 42.1887
26.05803932412957 42.1025
26.080892291600094 42.133
26.10374631470478 42.119
26.12677995397268 42.424
26.14963609978026 42.385
26.172493304397875 42.0073
26.19535156888223 41.9196
26.218389486949604 41.5737
26.241249882640123 41.1581
26.26411134137826 41.0262
26.28715248187403 40.9966
26.31001607820869 40.7565
26.3328807407756 40.685
26.35574647063438 40.9859
26.37879191991473 40.8195
26.401659795896734 40.7979
26.424528742360263 41.0141
26.447398760366614 41.3588
26.470448535598294 41.3492
26.49332070826805 41.419
26.516193955675355 41.7931
26.53906827888316 41.8173
26.562122397260108 42.1065
26.584998883685063 42.4859
26.607876449110325 42.5574
26.63075509460056 42.7392
26.65381357334404 42.8946
26.67669439061878 42.8193
26.699576291163382 42.7693
26.722459276044212 42.7788
26.745522132402975 42.4378
26.768407297649354 42.0754
26.791293550442003 41.601000000000006
26.814180891848974 41.4722
26.837248143099337 41.1214
26.860137673466657 41.0258
26.88302829566349 40.871
26.90592001075963 40.6879
26.92899167420566 40.6735
26.951885586870763 40.1794
26.974780595655517 39.9796
26.99785558178161 39.9101
27.020752794605112 39.692
27.043651106772522 39.5583
27.06655051935668 39.5382
27.089629948036183 39.3958
27.112531573292053 39.383
27.135434302194138 39.345
27.158338135817015 39.2351
27.181422024430987 39.2669
27.204328079372566 39.2298
27.22723524226965 39.2597
27.250143514198573 39.2126
27.273231880156334 39.2653
27.296142382065014 39.1245
27.319053996245536 39.0547
27.341966723775965 39.135999999999996
27.365059584515222 39.3175
27.38797455070062 39.1777
27.410890633481237 39.0514
27.433807833936918 39.1413
27.456905206923906 39.2886
27.47982465472398 39.1346
27.502745223449743 39.2025
27.525666914182825 39.3644
27.548768816912457 39.2905
27.571692763693633 39.1138
27.59461783573812 39.0016
27.617723149491244 39.0433
27.640650484125285 38.8228
27.66357894728264 38.7679
27.686508540048052 38.7073
27.709618414237887 38.6108
27.732550278321757 38.6023
27.755483275279115 38.5273
27.778417406196485 38.4478
27.801531858397514 38.5244
27.824468269376716 38.438
27.847405817586786 38.4979
27.870344504116094 38.7805
27.893463551932008 38.8335
27.916404527281053 38.9482
27.93934664422563 39.0981
27.962289903855886 39.0718
27.98541356491974 39.4182
28.00835912214229 39.3093
28.03130582533231 39.5637
28.054253675581805 39.778
28.077381967556104 39.7766
28.100332124185126 39.6169
28.123283431160893 39.4518
28.146235889577238 39.3299
28.169368830154156 39.2169
28.192323603752033 39.0173
28.215279532083304 38.6905
28.238415973016764 38.5728
28.261374223145094 38.4714
28.284333631303806 38.2193
28.307294198589954 38.0063
28.330435319167677 37.7919
28.353398217078915 37.5331
28.376362277420153 37.342
28.39932750129032 37.1479
28.422473319286713 36.9763
28.44544088262495 36.9116
28.468409612800283 36.8349
28.491379510913497 36.5742
28.51453004413313 36.6252
28.53750229057244 36.5511
28.56047570826344 36.5286
28.583450298308804 36.5211
28.606605564586562 36.3912
28.629582511831156 36.4457
28.65256063474956 36.3005
28.675539934446338 36.3119
28.698699951647605 36.1648
28.72168161743193 36.0054
28.74466446331978 36.1285
28.767648490417624 35.986999999999995
28.790813276438353 35.9846
28.813799678527303 35.998000000000005
28.836787265157085 36.0518
28.859955641890075 36.0584
28.882945610203045 36.0053
28.905936766392035 35.7422
28.928929111566863 35.8064
28.952102288520145 35.9357
28.975097024308607 35.7671
28.998092952423807 35.6015
29.021090073977508 35.5147
29.04426806913204 35.446
29.067267590245258 35.2639
29.090268308143695 35.266999999999996
29.11327022394099 35.131
29.13645305530891 35.0096
29.159457379627167 34.9081
29.18246290519685 34.8835
29.20546963313352 34.926
29.22865731875826 34.9575
29.25166646419296 34.9497
29.27467681535305 34.8659
29.29768837335608 34.9231
29.320880931312562 34.7914
29.34389491580634 34.8254
29.366910110507334 34.6873
29.38992651653503 34.7726
29.41312396492981 34.7307
29.436142806456754 34.7024
29.45916286268059 34.6141
29.48236399319994 34.6223
29.50538649169417 34.4526
29.528410208259935 34.1949
29.55143514402014 34.0287
29.574641196749695 33.9793
29.597668583816574 33.8741
29.6206971934585 33.7317
29.64372702680042 33.7162
29.666938019934474 33.5296
29.689970313635285 33.53
29.713003834422636 33.5255
29.73603858342347 33.5002
29.759254535188578 33.4971
29.78229175361658 33.3284
29.80533020365064 33.4443
29.82836988641968 33.4635
29.85159081507472 33.3602
29.874632976355343 33.2714
29.89767637376955 33.3824
29.920721008448314 33.1026
29.9439469322847 33.25
29.96699405457564 33.1648
29.9900424175358 33.1716
30.013092022298157 33.0218
30.03632295963995 32.9969
30.059375061131373 33.0085
30.08242840783577 33.045
30.105483000888153 33.04
30.128718970092244 32.8973
30.151776069006917 32.9922
30.17483441768648 33.0427
30.198074175317235 32.9297
30.221135036724256 32.9999
30.24419715131772 32.8414
30.267260520236203 32.8071
30.290505341942243 32.8075
30.313571232750228 32.9471
30.336638381310948 32.9075
30.35970678876503 32.6978
30.38295669299435 32.7061
30.40602763151657 32.7362
30.429099832366074 32.7329
30.452173296685572 32.580999999999996
30.47542830191959 32.6067
30.498504306502497 32.5
30.521581577995562 32.715
30.544660117543582 32.7461
30.56792024229725 32.7087
30.59100133132069 32.6528
30.614083691845494 32.6095
30.637167325018545 32.7258
30.660432587840603 32.8584
30.683518779717886 32.7116
30.70660624769615 32.7365
30.729694992924372 32.7168
30.75296541239743 32.6434
30.77605672557558 32.7224
30.799149319462742 32.5875
30.8224236211637 32.4652
30.845518789950724 32.4112
30.868615242910597 32.3794
30.891712981195973 32.2174
30.91499247215866 32.1141
30.938092794619365 32.092
30.96119440587579 32.0546
30.984297307082752 31.943
31.00758200598383 31.7519
31.030687500658694 31.6986
31.053794288760695 31.6724
31.076902371446767 31.6397
31.100192296997445 31.6605
31.12330298246119 31.5717
31.14641496599209 31.4609
31.169528248749216 31.6125
31.19282341969534 31.4963
31.215939314557186 31.5587
31.239056512134788 31.4929
31.262175013589378 31.4016
31.28547544871168 31.4443
31.30859657161541 31.3328
31.331719001892175 31.3895
31.35484274070538 31.5
31.378148458819545 31.4925
31.401274828443725 31.3912
31.424402510106933 31.4319
31.447712205419993 31.608
31.470842524931633 31.2986
31.493974159989783 31.3224
31.51710711176168 31.2356
31.54042212308802 31.3381
31.563557722100917 31.2655
31.586694641341655 31.135
31.609832881979628 31.0599
31.63315322823208 31.000999999999998
31.656294125521327 30.8282
31.679436347728515 30.9411
31.70257989602529 30.7287
31.725905596152327 30.6015
31.74905181052835 30.6518
31.772199354521323 30.7242
31.79534822930507 30.7056
31.818679302290967 30.7368
31.84183085259981 30.7318
31.864983737233473 30.6383
31.88813795736804 30.7205
31.911474422233013 30.5205
31.934631327356435 30.6775
31.9577895715215 30.5869
31.980949155906522 30.4868
32.004291031706956 30.5022
32.027453310562606 30.4373
32.05061693318573 30.275
32.07396288236386 30.3528
32.09712920658542 30.2385
32.12029687812702 30.018
32.14346589817093 30.0104
32.166817291729984 29.8946
32.18998902288583 29.897
32.21316210610336 29.8869
32.23633654256711 29.7809
32.259693399663725 29.6684
32.282870556771144 29.6751
32.30604907069099 29.7168
32.329228942610065 29.7298
32.35259128243769 29.5061
32.375773884550505 29.4105
32.398957848235646 29.3582
32.422143174682176 29.3549
32.445511016471215 29.3618
32.468699082679954 29.3442
32.49188851523011 29.1746
32.51507931531304 29.1215
32.538452678331 29.0745
32.56164622776311 28.9926
32.58484114831493 28.8536
32.60803744118015 28.9777
32.631416344731896 28.9386
32.654615396551876 28.8358
32.67781582427913 28.9251
32.701198898634416 28.9009
32.72440209253756 28.7902
32.747606665947124 28.8228
32.77081262006088 28.654
32.79420126883317 28.6052
32.81740999876112 28.6805
32.840620112999424 28.5855
32.86383161274818 28.4794
32.88722585534586 28.5424
32.91044014056596 28.6366
32.933655814909734 28.4753
32.95687287957963 28.4403
32.98027273544904 28.4658
33.00349259526636 28.4068
33.026713849030116 28.4637
33.04993649794511 28.3458
33.073341986570746 28.2906
33.09656744032826 28.2877
33.11979429286444 28.2868
33.14302254538647 28.329
33.166433686291185 28.2453
33.18966475336992 28.1963
33.212897224069096 27.9889
33.23613109959831 28.0537
33.259547912343415 28.061
33.2827846121627 28.0513
33.306022720453775 27.9582
33.32926223842861 27.8453
33.352684742614166 27.8404
33.37592709463173 27.7717
33.399170859982064 27.7126
33.422597648419426 27.693
33.44584425514446 27.5953
33.46909227885668 27.5242
33.4923417207723 27.4273
33.51577423505344 27.5105
33.539026528130385 27.3805
33.56228024307245 27.3613
33.585535381098246 27.1478
33.60897364093058 27.1603
33.63223163992385 27.2057
33.6554910656699 27.1216
33.678751919389796 27.1095
33.702195944520106 27.053
33.72545966903325 27.0369
33.74872482519663 26.9739
33.771991414233746 26.949
33.79544122444841 26.8607
33.81871069412428 26.8276
33.84198160035767 26.8437
33.86525394437455 26.8999
33.88870955949969 26.7738
33.911984794020626 26.7045
33.93526147001624 26.6681
33.958539588715006 26.7071
33.98200102861669 26.596999999999998
34.0052820477047 26.5856
34.02856451319451 26.5005
34.05203033759056 26.4222
34.07531571090147 26.4312
34.09860253431845 26.3082
34.121890809074316 26.3494
34.145362493118924 26.343000000000004
34.16865368561615 26.2664
34.191946333164054 26.2275
34.21524043699793 26.1846
34.23871800066799 26.1842
34.26201503218366 26.066999999999997
34.28531352370466 26.084
34.30861347646881 26.0214
34.33209693978188 25.9894
34.3553998301885 25.9682
34.378704185565205 25.9188
34.402010007152356 25.8406
34.42549939016683 25.8028
34.44880815937748 25.7669
34.472118398533134 25.7515
34.49543010887669 25.6389
34.51892543169198 25.5588
34.54224009966052 25.5725
34.56555624255917 25.6201
34.58887386163339 25.4955
34.61237514439016 25.4802
34.6356957311114 25.3725
34.65901779775809 25.3892
34.68252356662995 25.3244
34.705848608458616 25.2682
34.72917513396849 25.2961
34.75250314440949 25.223000000000003
34.77601490857862 25.1668
34.799345904259795 25.0451
34.82267838863559 25.0912
34.846012362958525 25.0423
34.869530142679984 25.0114
34.89286711232212 25.0145
34.91620557568269 25.0054
34.93954553401677 24.9568
34.9630693495876 24.8969
34.986412313340814 24.9555
35.00975677584668 24.9205
35.033102738362956 24.8151
35.05663261012228 24.718000000000004
35.0799815881786 24.7545
35.10333207003229 24.684
35.12668405694369 24.7083
35.150220005273056 24.651
35.17357501786656 24.6518
35.19693153931268 24.5827
35.220289570874385 24.5413
35.24383161619786 24.5855
35.267192683604904 24.5015
35.290555264930376 24.4554
35.314101899412165 24.4528
35.33746752422433 24.4713
35.36083466676374 24.4399
35.38420332829803 24.3765
35.407756095629054 24.4614
35.43112781085063 24.441999999999997
35.45450104888391 24.2947
35.477875810999194 24.4005
35.50143473172161 24.2265
35.52481255774625 24.2221
35.54819191167777 24.2365
35.57157279478914 24.0983
35.595137889488406 24.1007
35.61852184675279 24.0597
35.641907337029984 23.9741
35.665294361595684 23.9571
35.68886565090076 23.8794
35.7122557598848 23.8736
35.73564740699838 23.9517
35.759040593519934 23.826
35.78261809810353 23.8192
35.80601437933051 23.689
35.829412203814705 23.6383
35.85281157283719 23.605999999999998
35.876395313415884 23.642
35.8997977874528 23.4907
35.92320180988546 23.5086
35.946790244133936 23.4658
35.97019737933222 23.465
35.993606066789866 23.4236
36.01701630779276 23.4498
36.04061101440684 23.401
36.06402437852291 23.4163
36.08743930005611 23.3293
36.1108557802951 23.2589
36.13445678011326 23.2356
36.15787639383515 23.186999999999998
36.18129757014299 23.1881
36.20472031032821 23.1078
36.22832762423364 23.0916
36.25175350829375 23.0101
36.275180960119776 22.9628
36.298609981005924 22.9898
36.32222362992669 23.0364
36.34565580510207 22.9722
36.36908955323448 22.9139
36.39252487562093 22.826999999999998
36.416144880530226 22.8158
36.43958336764275 22.7878
36.463023432914625 22.8155
36.486465077645676 22.7374
36.51009145956204 22.8751
36.53353627947859 22.7756
36.55698268276811 22.7762
36.58043067073321 22.6482
36.60406345072071 22.6008
36.62751462435344 22.6785
36.65096738658405 22.6278
36.67460498210655 22.5423
36.69806093788647 22.4675
36.72151848619297 22.4467
36.744977628333636 22.4096
36.76862165890998 22.3499
36.79208400512205 22.3029
36.81554794910557 22.3371
36.83901349217101 22.2128
36.862663978991606 22.2136
36.88613273667352 22.1157
36.90960309738324 22.1982
36.933075062434064 22.1121
36.95673202673572 22.0113
36.98020721697122 22.0491
37.003684015502365 21.9822
37.027162423645365 22.0338
37.050825886711465 21.9446
37.07430753063053 21.846
37.09779078812467 21.8135
37.121275660513014 21.8235
37.144945643673694 21.7142
37.16843376245278 21.71
37.19192350009803 21.73
37.215414857931435 21.6581
37.239091382563885 21.6751
37.262585997426164 21.6336
37.28608223645736 21.5723
37.309763684451696 21.5491
37.33326318851098 21.456999999999997
37.356764320726555 21.511
37.380267082425526 21.5496
37.40395510942588 21.4573
37.42746114683234 21.4268
37.45096881771841 21.3467
37.474478123414166 21.3981
37.49817275092816 21.2896
37.52168534303452 21.2573
37.54519957395567 21.1501
37.568715445024665 21.1773
37.592416694607714 21.1294
37.61593586281424 21.2097
37.63945667518264 21.2248
37.66297913304891 21.0278
37.68668702630454 21.0454
37.710212792059274 20.9897
37.733740207334854 20.936
37.757269273470364 20.8981
37.780983832050374 20.8556
37.80451621684926 20.846
37.82805025654007 20.8431
37.851585952464795 20.749000000000002
37.8753071980695 20.7501
37.89884622345676 20.6508
37.92238690911902 20.6583
37.94611318753442 20.6043
37.969657210779765 20.5525
37.99320289834801 20.5971
38.016750251586465 20.4862
38.04048325513017 20.4786
38.06403395679343 20.4149
38.087586328183946 20.3865
38.11114037065203 20.4059
38.13488012115898 20.4117
38.1584375229181 20.3826
38.181996599821 20.3444
38.205557353221124 20.2671
38.229303872575656 20.2315
38.2528679961576 20.2349
38.27643380031219 20.1114
38.30000128639589 20.0335
38.32375459653193 20.1148
38.34732546371299 20.1235
38.37089801690786 20.0551
38.39447225747609 20.0121
38.418232380377425 19.9205
38.441810012983396 19.9841
38.46538933705673 19.9662
38.488970353960084 19.9351
38.51273731166058 19.9405
38.536321731567014 19.7962
38.55990784840681 19.7652
38.58367995004091 19.7297
38.60726947812959 19.6839
38.63086070726198 19.7316
38.654453638806274 19.7018
38.678232613930824 19.6504
38.70182896773327 19.6137
38.72542702806741 19.5803
38.7490267963045 19.6224
38.77281266709232 19.5602
38.79641586862214 19.6161
38.8200207821842 19.4815
38.843627409152944 19.4182
38.86742019782782 19.3761
38.891030269149255 19.3268
38.914642058016156 19.3309
38.938255565806124 19.2931
38.96205529464307 19.2311
38.98567225787121 19.2933
39.00929094417078 19.2313
39.03291135492255 19.2136
39.05671804624804 19.1987
39.080341923549106 19.0975
39.103967529460334 19.0881
39.127594865365744 19.0277
39.15140854155791 19.0359
39.17503935514948 18.9728
39.19867190290282 19.0016
39.22249083587951 18.9273
39.24612686969409 18.9711
39.269764641845306 18.9215
39.293404153722804 18.8924
39.317230110864074 18.7603
39.34087311998506 18.7477
39.36451787301696 18.7398
39.388164371352595 18.6538
39.41199737518003 18.6752
39.43564738196752 18.66
39.45929913825317 18.6825
39.48295264543308 18.5961
39.506792718520884 18.5227
39.530449745387216 18.5776
39.55410852735203 18.5481
39.57776906581474 18.5387
39.60161623079 18.4624
39.625280300200025 18.4657
39.64894613032202 18.4204
39.67261372255866 18.377
39.6964680021016 18.3362
39.72013913657293 18.3388
39.74381203738292 18.2948
39.76748670593756 18.233
39.79134812278169 18.224
39.81502634488497 18.2431
39.83870633896685 18.1859
39.862388106436654 18.1905
39.88625668336918 18.112000000000002
39.90994201572829 18.1129
39.933629125719285 18.0203
39.957503091207826 18.0352
39.9811937746168 18.0911
40.00488623990914 17.971
40.02858048850006 17.9362
40.05246165409549 17.9022
40.076159487492085 17.8143
40.099859108448875 17.8838
40.123560518384345 17.8002
40.1474489070226 17.7936
40.171153913178564 17.820999999999998
40.194860712584955 17.7482
40.2185693066637 17.7535
40.242464941335314 17.6961
40.26617714307655 17.646
40.289891143772046 17.6065
40.3136069448471 17.5815
40.33750984859743 17.6269
40.3612292688043 17.5965
40.3849504936829 17.4785
40.40867352466194 17.5603
40.43258372059144 17.5181
40.45631038219906 17.5108
40.48003885420956 17.3746
40.503769138055105 17.3816
40.52768664931955 17.4218
40.55142057531802 17.4012
40.57515631746428 17.272000000000002
40.599079334038514 17.2758
40.62281872700477 17.2348
40.64655994043941 17.1921
40.67030297578061 17.1545
40.69423334835778 17.1862
40.71798004609188 17.1388
40.74172857006355 17.0744
40.76547892171441 17.0268
40.7894166736039 17.0559
40.813170699248566 16.9861
40.83692655691388 17.0117
40.86068424804498 17.0343
40.884629402612525 16.9501
40.908390779366385 16.9011
40.932153993938 16.8814
40.95591904777605 16.8826
40.979871628443995 16.916
41.003640379561936 16.8278
41.02741097430883 16.7308
41.05118341413683 16.7916
41.075143444384416 16.7791
41.098919593177826 16.7335
41.1226975914255 16.7173
41.14647744058318 16.6224
41.170444943946755 16.6775
41.19422851378379 16.6083
41.218013938914645 16.5849
41.24198706625173 16.5945
41.26577622087193 16.4794
41.289567235177785 16.4989
41.31336011063129 16.4283
41.337340752422875 16.4202
41.361137369129835 16.3417
41.38493585138705 16.3987
41.40873620066004 16.3838
41.43272438060107 16.3278
41.45652848292052 16.2407
41.48033445666918 16.2208
41.50414230331616 16.1973
41.528138045159764 16.2069
41.551949656675205 16.1586
41.575763145513235 16.163
41.59957851314666 16.13
41.62358184070442 16.0925
41.64740098505737 16.0446
41.6712220126409 15.9774
41.69504492493139 16.0054
41.71905586207357 16.0238
41.74288256296395 15.9704
41.766711153007456 15.8961
41.79054163368412 15.8786
41.814560204340054 15.9469
41.838394485526365 15.8691
41.86223066180303 15.8055
41.88625497706819 15.7595
41.910094962812 15.8304
41.93393684811168 15.8169
41.95778063445365 15.7437
41.981812625263366 15.7143
42.00566023303407 15.6871
42.029509746323676 15.6771
42.05336116662236 15.6255
42.077400857069705 15.5785
42.10125611078846 15.5858
42.12511327600405 15.5454
42.14897235421036 15.5143
42.173019768448455 15.4967
42.19688269209613 15.431
42.22074753323349 15.3698
42.24461429335818 15.4453
42.268669455600495 15.3898
42.292540073217886 15.3933
42.31641261433284 15.3731
42.34028708044675 15.3011
42.36435001496739 15.2992
42.38822835065557 15.2853
42.41210861586426 15.293
42.4359908120986 15.272
42.46006154323262 15.2377
42.48394762115317 15.1245
42.507835634632315 15.1829
42.531912233047436 15.1648
42.55580413732265 15.1426
42.579697981698 15.0394
42.60359376768525 15.0158
42.62767820545945 14.9967
42.65157789440821 14.9767
42.67547952952185 14.9883
42.699383112316 14.943
42.72347541395347 14.9256
42.74738291190531 14.8649
42.771292362102166 14.9388
42.795203766063516 14.8696
42.819303956130405 14.7814
42.843219287476536 14.7757
42.86713657716324 14.7574
42.89105582671383 14.7334
42.91516392983864 14.6747
42.939087119032166 14.6559
42.963012272677304 14.6058
42.98693939230129 14.6498
43.01105543317513 14.5285
43.034986504731386 14.5504
43.05891954686589 14.537
43.08285456110972 14.561
43.10697856448665 14.5144
43.130917542983475 14.4292
43.15485849820081 14.4777
43.17880143167367 14.4745
43.20293342237094 14.4037
43.226880332449 14.3787
43.25082922540554 14.4013
43.27496722682525 14.3494
43.29892010567796 14.3162
43.32287497204102 14.29
43.34683182745632 14.205
43.370977859791836 14.1937
43.39493871351105 14.2026
43.41890156092628 14.2055
43.44286640358341 14.1893
43.46702049182749 14.1237
43.49098934522816 14.1075
43.51496019852649 14.0688
43.5389330532723 14.0432
43.56309522248204 14.0142
43.58707210044314 13.9963
43.61105098451946 13.9182
43.63503187626491 13.9004
43.659202151562134 13.9718
43.68318707902681 13.9249
43.70717401884041 13.8815
43.731162972560874 13.8118
43.75534137913236 13.7879
43.779334381108384 13.741
43.803329401683186 13.7793
43.82732644241872 13.7732
43.8515130055166 13.7243
43.87551410707659 13.7166
43.89951723350145 13.6751
43.923709934595614 13.5972
43.94771713129917 13.6574
43.97172635758096 13.6533
43.99573761501002 13.6526
44.0199385169922 13.5902
44.04395385732619 13.5144
44.067971233533086 13.5603
44.09199064718605 13.5056
44.11619977548961 13.464
44.14022328470671 13.4799
44.16424883610785 13.4363
44.18827643127035 13.3798
44.21249381139513 13.399000000000001
44.236525514814076 13.3422
44.26055926674478 13.3056
44.28459506876863 13.3117
44.3088207262813 13.2843
44.33286064928722 13.2394
44.35690262714919 13.2984
44.38094666145278 13.2443
44.4051806219871 13.2235
44.42922879003185 13.1693
44.45327901929361 13.1513
44.477331311362136 13.1168
44.501573600619416 13.0768
44.525630039221795 13.0632
44.54968854541895 13.0931
44.573937102200176 13.0351
44.5979997645541 13.0652
44.622064499300315 13.0044
44.64613130803592 12.9939
44.67038823869318 12.9695
44.69445921643748 12.9316
44.718532272981385 12.8851
44.742607409926194 12.8786
44.76687274034801 12.8794
44.79095205918753 12.824000000000002
44.81503346325094 12.8058
44.839116954143876 12.7893
44.86339071028742 12.8156
44.88747839599524 12.7372
44.91156817336837 12.6825
44.93566004401666 12.7143
44.959942251908146 12.6921
44.984038330325966 12.6304
45.00813650686762 12.5806
45.03223678314731 12.6262
45.05652746888232 12.5604
45.08063196592069 12.5449
45.104738567558705 12.5671
45.128847275414856 12.5152
45.15314646515866 12.4815
45.17725940679741 12.4422
45.20137445952892 12.422
45.22568004865265 12.4347
45.24979934496396 12.3754
45.27392075725247 12.4079
45.29804428714431 12.3625
45.322358426247604 12.3092
45.346486212804315 12.3378
45.370616121861914 12.3373
45.39474815505086 12.312000000000001
45.41907087049246 12.2267
45.4432071734666 12.2379
45.46734560548283 12.2448
45.49148616817604 12.2328
45.51581748638564 12.1992
45.5399623320197 12.1778
45.56410931325473 12.1415
45.58825843173002 12.1575
45.61259837920865 12.095
45.636751793816 12.0719
45.66090735060093 12.0747
45.68506505120716 12.0371
45.7094136545275 12.0061
45.73357566449271 11.9554
45.75773982322992 11.9332
45.78190613238733 11.9216
45.806263418194064 11.8676
45.83043404997326 11.8632
45.85460683713677 11.8872
45.87897065658495 11.808
45.90314777634752 11.8047
45.92732705646868 11.7895
45.9515084986045 11.8003
45.97588104735473 11.7935
46.00006683541565 11.7294
46.02425479047904 11.6896
46.04844491420549 11.6916
46.0728262191024 11.6691
46.09702070211635 11.6454
46.12121735879483 11.6622
46.14541619080294 11.6437
46.169806278764455 11.6283
46.194009483459034 11.6012
46.21821486849841 11.4972
46.24242243555223 11.5483
46.266821333570014 11.5005
46.29103328674601 11.494000000000002
46.31524742696538 11.4752
46.33946375590237 11.457
46.36387149104216 11.4439
46.38809221957392 11.3804
46.41231514186606 11.4227
46.436540259597464 11.4394
46.460956858999374 11.3534
46.48518638983522 11.3579
46.509418121166966 11.2921
46.533652054678114 11.2888
46.55807754555709 11.2498
46.58231590571962 11.254000000000001
46.60655647313217 11.2192
46.630988654873654 11.2102
46.655233659129024 11.1793
46.67948087571551 11.1637
46.70373030632484 11.1175
46.72817142736393 11.1296
46.752425308428684 11.1141
46.77668140861147 11.0897
46.80093972960865 11.0289
46.82538981736788 11.0217
46.849652602470904 11.012
46.87391761349769 11.0076
46.8981848521493 11.0094
46.9226439341274 10.9564
46.946915650573224 10.9048
46.97118959976749 10.9002
46.99546578341598 10.8945
47.019933887188216 10.8926
47.04421456235744 10.8511
47.06849747711879 10.8439
47.09278263318286 10.8575
47.11725978640143 10.7863
47.14154944775105 10.804
47.165841355555656 10.7875
47.1901355115306 10.7398
47.214621741924994 10.6853
47.23892041698887 10.6735
47.26322134538975 10.65
47.28771440635075 10.673
47.31201986422527 10.6553
47.33632758061436 10.6054
47.360637557241866 10.5935
47.38513974410611 10.6019
47.40945426407847 10.5294
47.43377104948137 10.5231
47.45809010204344 10.4988
47.48260144275502 10.5034
47.506925052572285 10.4696
47.53125093475548 10.4421
47.55557909103813 10.4356
47.58009961361992 10.3656
47.60443234110732 10.3894
47.62876734791564 10.3907
47.65310463578333 10.3825
47.6776343683373 10.3391
47.7019762413987 10.3018
47.72632040075572 10.2939
47.75066684815169 10.2643
47.77520581885936 10.2509
47.799556865477655 10.2611
47.823910205386 10.2317
47.84826584033272 10.2154
47.87281407745551 10.1676
47.89717432569297 10.189
47.92153687423484 10.1694
47.94609208429692 10.129
47.97045925671401 10.115
47.99482873471275 10.0791
48.01920052005013 10.0948
48.04376504619224 10.0576
48.068141469543484 10.0822
48.09252020552573 10.0605
48.11690125590099 10.0079
48.1414751266064 9.961969999999999
48.16586082917454 10.0013
48.19024885144316 9.98016
48.2146391951793 9.95651
48.239222439012764 9.93998
48.26361744916137 9.89432
48.28801478610016 9.89987
48.31241445160131 9.86703
48.337007097209366 9.8333
48.36141144338331 9.831380000000001
48.38581812345755 9.81087
48.41022713920929 9.80208
48.434829215320704 9.77716
48.45924292604658 9.78466
48.48365897780325 9.75555
48.50807737237308 9.726239999999999
48.532688907799276 9.73161
48.55711201168574 9.70403
48.581537463754074 9.6793
48.60615611725119 9.70133
48.63058628942721 9.62478
48.65501881516546 9.60936
48.6794536962573 9.59501
48.70408185970339 9.592989999999999
48.72852147531801 9.56817
48.75296345168211 9.5322
48.77740779059232 9.56457
48.80204549302823 9.508289999999999
48.82649458091802 9.52239
48.85094603676547 9.49136
48.87539986237231 9.481760000000001
48.90004713292306 9.4613
48.92450572200832 9.416319999999999
48.94896668628025 9.407810000000001
48.97343002754588 9.39127
48.99808689542115 9.38386
49.02255501470614 9.34171
49.04702551642794 9.31291
49.0714984023988 9.31873
49.096164896893235 9.30328
49.120642575466796 9.29343
49.145122643748394 9.287139999999999
49.16960510355558 9.25281
49.19428125404938 9.26116
49.2187685210852 9.24974
49.243258185121555 9.20898
49.26794160167084 9.17768
49.2924360839405 9.1802
49.31693296869764 9.13472
49.34143225776915 9.13925
49.36612538195438 9.12107
49.39062950396021 9.09923
49.41513603578346 9.10615
49.4396449792564 9.054210000000001
49.46434784069503 9.03482
49.488861631846454 9.035060000000001
49.513377840166804 9.00457
49.537896467493745 8.99361
49.56260909589029 8.94922
49.587132585683285 8.96831
49.611658500018365 8.95224
49.636186840738596 8.885639999999999
49.66090926588511 8.94357
49.685442483902584 8.90977
49.70997813385706 8.87469
49.734516217597076 8.82794
49.75924846937352 8.841239999999999
49.7837914452858 8.86185
49.80833686055187 8.81591
49.83288471702571 8.809330000000001
49.85762682540054 8.79735
49.882179588965734 8.766160000000001
49.9067347993235 8.72465
49.93129245833333 8.71359
49.95604445336378 8.709710000000001
49.98060703442832 8.70602
50.005172069746266 8.6546
50.02993150438364 8.670910000000001
50.05450147301533 8.6389
50.07907390151433 8.58453
50.10364879174981 8.58357
50.12841816587289 8.564039999999999
50.1529980044635 8.59527
50.17758031042124 8.55288
50.20216508562089 8.53761
50.22694442953363 8.50193
50.25153416817468 8.49305
50.27612638170508 8.467939999999999
50.300721072005196 8.44149
50.325510416102105 8.40733
50.350110084975064 8.4186
50.37471223628208 8.435080000000001
50.39931687190919 8.40457
50.424116246675766 8.39879
50.44872587605249 8.34545
50.47333799543065 8.356110000000001
50.49795260670191 8.31644
50.52276204271512 8.32935
50.54738166295838 8.2956
50.57200378079314 8.32145
50.596628398116835 8.25805
50.62144792604559 8.20825
50.646077567609396 8.22385
50.670709714377715 8.25197
50.69553683636198 8.22356
50.72017401885922 8.1955
50.7448137122895 8.18414
50.76945591856022 8.179030000000001
50.79429318636823 8.16548
50.818940443716784 8.15517
50.84359021965163 8.1126
50.868242516085964 8.11384
50.893089960641895 8.11099
50.917747323549435 8.0646
50.94240721271973 8.042060000000001
50.96706963007175 8.05147
50.99192728239342 8.00956
51.01659478166073 7.98367
51.04126481489051 7.99005
51.06593738400761 8.0169
51.090805275207074 7.959980000000001
51.11548294172845 7.905530000000001
51.14016314993547 7.892939999999999
51.164845901758845 7.89767
51.18972406304274 7.89905
51.21441192780656 7.86918
51.23910234200271 7.852519999999999
51.2637953075678 7.84578
51.288683770237945 7.82579
51.31338186432707 7.793089999999999
51.33808251561888 7.79056
51.362978729967345 7.79709
51.387684521509755 7.80538
51.41239287610203 7.782789999999999
51.437103795691165 7.72974
51.46201036644977 7.714010000000001
51.486726441956634 7.695589999999999
51.51144508832545 7.70471
51.536166307509156 7.687639999999999
51.56108326624387 7.6734800000000005
51.58580965706056 7.667160000000001
51.61053862657523 7.635660000000001
51.635270176746864 7.59753
51.66019755512065 7.60773
51.68493429268881 7.554989999999999
51.70967361681515 7.5551
51.73441552946465 7.49392
51.759353359237934 7.51737
51.7841004750961 7.54403
51.80885018539685 7.48798
51.833602492111254 7.46495
51.8585508051424 7.43572
51.883308330926425 7.42453
51.90806845906181 7.39726
51.932831191525715 7.4065
51.95779001977161 7.39422
51.98255798721516 7.37281
52.00732856494335 7.36037
52.03229530577543 7.3502
52.057071130455945 7.35571
52.081849571391054 7.32822
52.106630630568695 7.33672
52.13160794279417 7.309989999999999
52.15639426492067 7.28777
52.18118321127822 7.27301
52.205974783860896 7.225860000000001
52.23096269971011 7.24918
52.255759551287994 7.198519999999999
52.280559035098186 7.160810000000001
52.30536115314103 7.18993
52.33035970494467 7.19785
52.35516711807904 7.182239999999999
52.37997717147198 7.12362
52.40478986713005 7.085160000000001
52.42979908731974 7.08582
52.454617094216 7.071689999999999
52.47943774942214 7.0709100000000005
52.50426105495102 7.0527
52.529280976059844 7.03177
52.554109609024096 6.9980899999999995
52.57894089837482 7.034560000000001
52.60377484613117 6.99442
52.62880550079408 6.96748
52.65364479223379 6.99395
52.67848674816189 6.96213
52.70352547971946 6.9812899999999996
52.72837279155837 6.97502
52.753222773982785 6.911110000000001
52.778075429022984 6.90446
52.80312495150885 6.9278699999999995
52.827982978797436 6.8624
52.85284368481815 6.8579300000000005
52.87770707160767 6.87108
52.90276741793998 6.8361600000000005
52.92763619336701 6.8122300000000005
52.952507655698504 6.801260000000001
52.977381806977576 6.75885
53.00245301017842 6.790210000000001
53.02733256653592 6.783869999999999
53.052214817996074 6.79208
53.077099766608484 6.7535
53.102181859804446 6.76293
53.127072229988265 6.737710000000001
53.15196530349892 6.682239999999999
53.17686108239249 6.6813199999999995
53.20195409881522 6.66642
53.22685531582556 6.67709
53.25175924441303 6.626339999999999
53.27666588664027 6.61556
53.30176985962693 6.62448
53.3266819565689 6.620489999999999
53.35159677336455 6.595289999999999
53.376514312083096 6.56878
53.40162927507703 6.55387
53.42655228516116 6.50307
53.45147802340193 6.46707
53.47660125628886 6.502000000000001
53.50153247842639 6.473269999999999
53.52646643496923 6.50272
53.55140312799818 6.4499
53.576537409691696 6.456259999999999
53.60147960336152 6.41575
53.626424539786164 6.40741
53.65137222105307 6.37857
53.67651758529126 6.375780000000001
53.70147078399681 6.40755
53.72642673383343 6.34994
53.75138543689533 6.35423
53.776541917524526 6.3523
53.801506154876755 6.323259999999999
53.826473151763246 6.32674
53.851442910284916 6.29985
53.87661054126026 6.29403
53.9015858509782 6.27005
53.92656392866066 6.2624699999999995
53.95154477641532 6.27336
53.976723591801296 6.22687
54.00171000771266 6.24315
54.02669920004598 6.2142800000000005
54.051691170915745 6.216880000000001
54.076881204886796 6.1727
54.101878760928514 6.2003900000000005
54.12687910187696 6.15108
54.152077577768296 6.126530000000001
54.1770835166946 6.123819999999999
54.20209224691339 6.09905
54.22710377055121 6.12076
54.25231352511594 6.06329
54.27733066384342 6.01861
54.30235060239643 6.06654
54.32737334290836 6.06464
54.35259441062629 6.02348
54.377622783395324 6.03345
54.40265396455061 6.03437
54.42768795623251 5.96652
54.45292037169559 5.92585
54.477960012857906 5.9244900000000005
54.50300247099511 5.87856
54.52804774825457 5.89325
54.55329154616743 5.86855
54.57834249018678 5.8377
54.6033962597977 5.78161
54.6284528571545 5.78247
54.653708072335164 5.82185
54.67877035378786 5.77487
54.70383546947698 5.75239
54.72890342156389 5.7247699999999995
54.7541700889442 5.71282
54.77924374251975 5.67189
54.8043202390049 5.647390000000001
54.82959552413022 5.6397900000000005
54.8546777351945 5.637230000000001
54.87976279569621 5.60334
54.90485070780914 5.58177
54.930137506558005 5.53153
54.95523115074295 5.5399199999999995
54.98032765308844 5.51735
55.005427015775496 5.5172300000000005
55.03072536339621 5.53926
55.05583047570572 5.49815
55.080938454927676 5.46657
55.10604930325027 5.43653
55.131359235107396 5.463419999999999
55.15647585066083 5.4116599999999995
55.181595341907496 5.3402
55.20671771104285 5.32531
55.232039262617704 5.32471
55.25716741665048 5.28534
55.28229845518636 5.30526
55.30743238042802 5.227040000000001
55.33276558731939 5.24068
55.357905315183636 5.22848
55.383047936390035 5.14826
55.40819345314859 5.1078
55.433538351073295 5.17384
55.458689688238415 5.16202
55.483843927614096 5.1152
55.509197623043605 5.077780000000001
55.53435769621134 5.05175
55.55952067826466 4.98396
55.5846865714265 4.95841
55.61005202069737 4.91931
55.63522376553902 4.9759199999999995
55.66039842818645 4.95209
55.68557601087004 4.9365
55.7109532500271 4.87518
55.73613670233794 4.86705
