TT I
1.2716486653135266 7.43998
1.2939594142134223 7.1005199999999995
1.3162702121660406 7.038239999999999
1.3385810600174564 6.9611
1.3608919586137629 6.6488
1.383202908801069 6.16464
1.405513911425503 5.669630000000001
1.4278249673332093 6.353680000000001
1.4501343378461518 6.32751
1.4724455028545926 5.96894
1.4947567236847858 5.9683
1.517068001182951 5.83713
1.5393793361953272 5.57342
1.5616907295681737 5.39531
1.5840021821477681 5.04126
1.60631369478041 5.0135
1.6286252683124185 5.572769999999999
1.6509369035901333 5.29129
1.6732468618895553 5.76173
1.695558623192809 5.08386
1.7178704487808514 5.2851
1.7401823395001077 5.28043
1.7625012545597203 5.02199
1.7848028405262486 5.0246
1.8071218901122095 5.01635
1.8294236121921872 5.41476
1.8517427996910911 4.95429
1.8740620574440425 4.822430000000001
1.8963639900671978 4.63655
1.9186833908139995 5.0797300000000005
1.9409854680117449 4.894480000000001
1.9633050151394713 4.96103
1.9856246367570705 4.9621699999999995
2.0079269371922672 4.77381
2.03024671027244 4.43495
2.0525491637446027 4.99566
2.074869091674931 4.699
2.097171701569106 4.74413
2.1194917877373847 4.81686
2.141811954326636 4.7773699999999995
2.164114805233074 5.07752
2.186435135143035 5.3326
2.208738150935709 14.2169
2.231058647554722 30.9896
2.2533792288321184 23.194000000000003
2.275682498336085 10.2362
2.298003251406138 5.94929
2.3203066942619714 5.29814
2.3426276225136022 4.84548
2.3649486396617507 5.1458699999999995
2.387252348930071 4.89968
2.4095735463442893 5.68993
2.4318774374315884 5.03982
2.4541988185014043 4.93337
2.476502894794693 5.7804
2.498824462909887 6.31646
2.521146125856138 6.0612900000000005
2.5434504863470337 6.39609
2.5657723414244717 5.997330000000001
2.588076895590662 6.968139999999999
2.610398946189713 6.933330000000001
2.6327210958598384 6.7636899999999995
2.6550259469304716 7.01519
2.6773482972090137 7.70966
2.6996533504259 6.99222
2.7219759047039602 7.4598
2.744298562293959 7.34917
2.7666039251246595 7.06876
2.7889267918020164 7.900469999999999
2.8112323652516555 8.00628
2.833555444408179 8.05766
2.8558786311183852 7.748760000000001
2.8781845268938557 8.20088
2.9005079311721484 9.16383
2.9228140460410397 8.71105
2.9451376712799635 9.5117
2.967444008632326 9.75157
2.9897678582247247 9.60225
3.0120918213106695 10.0585
3.0343984987899373 11.0815
3.0567226913198637 11.3967
3.079029599759726 11.8441
3.101354025127254 12.484000000000002
3.123678568232338 13.174000000000001
3.145985829517914 13.3349
3.16831061055229 13.0755
3.1906181112775593 14.1613
3.212943133635653 14.5744
3.2352682779763207 14.7509
3.2575761442691227 15.6401
3.2799015350264273 15.9036
3.302209649240067 16.705
3.3245352898092655 17.1174
3.3468436553365257 17.4347
3.369169549113219 18.0002
3.3914955708171384 18.4727
3.413804319727358 18.8312
3.4361305997334863 19.355
3.4584396084414553 20.1648
3.4807661501462652 20.7017
3.503092824025881 20.9524
3.5254022288463154 21.3268
3.5477291695206588 22.2633
3.5700388426251948 23.2844
3.5923660534916446 24.8517
3.6146934007816114 40.207
3.637003482731501 97.7041
3.6593311053109985 107.999
3.681641464033634 61.217
3.7039693653009733 32.168
3.726297407241705 26.9825
3.7486081875460804 26.2504
3.7709365132734978 26.3069
3.793247578841633 27.4701
3.8155761917550093 27.8464
3.8378875459837216 27.5308
3.8602164494827234 27.7172
3.882545499606844 28.8414
3.9048572932539183 29.3314
3.9271866390645718 30.0114
3.9494987298666713 30.6701
3.971828374764527 31.0049
3.9941581705403255 31.4049
4.016470713506008 31.9333
4.038800813471445 32.9864
4.061113662089144 33.4406
4.0834440696459176 34.0361
4.105774632334751 34.6516
4.128087945865126 35.4221
4.150418821249301 36.4081
4.172732448931298 37.8922
4.195063640413578 39.908
4.2173775856475215 44.9056
4.239709096631102 79.9356
4.262040768704612 260.627
4.284355196706267 352.602
4.306687193387355 227.576
4.329001947444346 87.3579
4.35133427213731 49.6575
4.373666762177566 45.5546
4.395982011761091 45.5874
4.418314834921175 47.1907
4.44063041906622 55.3196
4.4629635787515625 68.388
4.4852969080429785 67.5929
4.5076130004776225 56.0627
4.529946671403969 52.7082
4.552263106909177 52.0722
4.574597122877047 52.7309
4.596931312711224 53.4437
4.619248269273446 54.6915
4.6415828092605835 55.7229
4.663900117405352 56.3493
4.686235010953232 57.7501
4.708552674085913 59.1841
4.730887924602802 60.9062
4.753223354952695 62.3299
4.775541557023902 64.1299
4.797877349456786 65.2794
4.820195915032126 67.3762
4.842532072957498 68.7036
4.864868414979744 70.9056
4.88718753227192 73.2301
4.909524244902505 75.5443
4.931843734218147 77.0648
4.954180820867835 79.8441
4.976518095879839 82.7654
4.998838149695359 86.33200000000001
5.021175803844231 89.8067
5.043496238205739 93.3094
5.065834274903528 98.0219
5.088172504230693 103.98100000000001
5.1104935158799565 111.691
5.132832132875765 138.40200000000002
5.155153533596801 190.3
5.1774925416746225 234.38299999999998
5.199814334878411 450.977
5.2221537374521505 1248.92
5.244493338631803 3118.77
5.266815727034316 7093.54
5.289155727832427 11590.8
5.311478517248165 9062.3
5.333818921080011 3539.79
5.356159527788849 764.5989999999999
5.3784829252032536 224.34099999999998
5.400823940070432 161.47799999999998
5.423147747031976 139.178
5.445489173474152 126.80799999999999
5.467830807066149 120.256
5.490155234831516 115.274
5.512497285125229 110.345
5.534822130975162 108.51299999999999
5.557164601388673 105.163
5.579489868738879 102.40100000000001
5.601832762690846 101.295
5.6241758697774475 100.87299999999999
5.646501775867269 99.2855
5.668845311622074 97.8511
5.691171647754637 96.6384
5.713515615597765 95.8272
5.735859800852677 95.3981
5.758186788542988 94.5728
5.780531411018185 95.2437
5.802858837297399 94.3665
5.825203900414495 94.9155
5.8475491852224 95.583
5.869877275883075 95.8866
5.892223006467101 96.7507
5.914551544266608 98.7121
5.936897724049891 101.71700000000001
5.959244129804903 108.976
5.981573344815301 132.106
6.0039202049061 243.984
6.026249875609095 536.0740000000001
6.04859719346037 1085.44
6.070927323278297 2159.54
6.093275102315365 4013.82
6.115623113320588 4978.4
6.137953938319995 3512.98
6.160302415650845 1220.06
6.182633708324452 299.279
6.2049826554078376 130.24200000000002
6.227331838745022 101.12
6.249663839443684 91.3756
6.27201349767565 87.0405
6.294345974611799 93.6294
6.316696111167083 106.62899999999999
6.339046488263839 100.28299999999999
6.361379686074702 83.2493
6.383730546639482 74.3332
6.406064229255215 71.3116
6.428415576718203 70.7776
6.450749747566656 69.5101
6.47310158535871 68.4388
6.495453669698332 67.5272
6.517788579421056 66.7994
6.540141159237969 65.6402
6.562476565766648 65.3374
6.5848296444934045 64.5651
6.607182974060425 64.3912
6.6295191323281015 64.5697
6.651872965955752 68.2411
6.6742096296068985 97.59
6.6965639707294615 150.59799999999998
6.71891856698715 150.743
6.741255995248479 100.585
6.763611104154477 70.9932
6.785949046381137 62.5951
6.808304671371482 60.2172
6.8306605557940046 59.6565
6.852999275508618 58.8556
6.875355681171544 58.6693
6.897694923437771 58.483999999999995
6.92005185377892 58.0704
6.9423916220322655 58.2773
6.964749080490181 57.5033
6.987106804399774 57.0151
7.009447368180821 57.2672
7.031805625367033 56.9629
7.054146723727803 56.961999999999996
7.076505517631004 56.6133
7.098864581288365 56.9002
7.121206488070854 56.9408
7.143566093607822 56.3778
7.165908543567245 57.3209
7.188268694426048 57.3191
7.2106291193438095 57.2606
7.232972390625943 58.6163
7.255333366030969 72.7449
7.277677189091925 133.59
7.300038718428332 188.77599999999998
7.322400526130865 158.751
7.344745183422596 95.1826
7.367107550224791 64.3449
7.389452767901992 58.0601
7.411815697249891 56.7765
7.434161478756298 55.8081
7.456524974096713 55.5729
7.478888753837185 55.9009
7.501235387657368 56.2862
7.523599738562711 56.0097
7.545946944825532 56.0893
7.568311870344528 56.3251
7.5906770845765665 56.7816
7.613025156078678 58.5475
7.635390950099687 59.5577
7.657739602662809 59.0267
7.680105979923558 57.7009
7.702472650212829 57.4777
7.724822180948224 57.4416
7.747189439655568 57.6359
7.769539560075357 57.3034
7.791907410653562 58.0048
7.81425812420825 58.0566
7.836626570110925 57.9657
7.858995315087906 59.0979
7.881346924933401 59.1893
7.903716270417482 59.5292
7.926068482028405 59.8645
7.948438431475253 60.6137
7.9708086843180235 61.268
7.993161805171116 61.8882
8.015532667162402 61.8741
8.037886398416653 63.4389
8.060257873014221 63.6551
8.082629655331942 64.3637
8.104984308787587 65.2958
8.127356708900503 69.2019
8.149711981398308 75.6983
8.172085002766314 78.547
8.194458336181368 74.0226
8.216814543847752 71.4389
8.23918850371002 71.4616
8.26154533906492 72.2517
8.283919928836452 73.832
8.306277395339652 74.3494
8.328652618483376 75.885
8.351028159736202 77.9606
8.373386579575245 80.456
8.395762759396959 82.0759
8.418121819038275 87.944
8.440498640894003 103.009
8.462875785192262 119.7
8.485235811156207 134.534
8.507613602688501 182.195
8.529974277114228 286.065
8.552352719347912 431.61400000000003
8.574731488360351 681.3760000000001
8.59709314210385 1129.65
8.619472567021075 1689.78
8.64183487789147 2135.19
8.664214962183097 1876.58
8.686577933647762 1147.78
8.708958680784317 476.337
8.731339760774953 198.987
8.753703729764451 122.647
8.77608547780821 105.01100000000001
8.798450116065078 99.3208
8.820832535634787 96.134
8.843215292401656 94.11
8.865580941199045 92.4521
8.887964374703538 91.4041
8.910330701447199 92.7127
8.932714815164482 95.229
8.955099270424924 94.7728
8.977466620733543 90.84700000000001
8.999851761421976 87.5999
9.022219798361645 86.1513
9.04460562795561 85.7028
9.066991803441677 85.1914
9.089360876979615 85.1479
9.111747746589993 84.7701
9.13411751544971 84.1462
9.156505082664324 83.9243
9.178875550323522 84.1178
9.20126381862328 84.5691
9.223652438908596 84.8603
9.246023961427412 84.5612
9.26841328802173 84.4255
9.290785518039224 83.9089
9.313175554425882 85.0677
9.335565947154315 85.23100000000001
9.357939245086508 85.1989
9.380330352834827 84.986
9.40270436697103 85.2398
9.425096193225055 85.2782
9.447488380180165 86.0921
9.469863475295412 85.9426
9.492256385987508 86.3943
9.514632206018318 86.8693
9.537025843935714 87.6422
9.559402392368193 88.4435
9.581796761000229 89.5752
9.604191496441521 90.8041
9.626569144158516 94.5865
9.648964615551032 99.8267
9.671343000390081 101.789
9.693739211225699 98.9805
9.716135793237463 96.0431
9.738515290448102 95.65299999999999
9.760912617143402 96.3178
9.783292860202891 98.0234
9.805690935076182 99.4119
9.828089385495742 100.177
9.850470754023561 102.78299999999999
9.872869957865444 111.274
9.89525208097539 128.159
9.917652041736662 142.733
9.940052382417589 142.673
9.962435644102392 150.832
9.984836746950979 192.143
10.007220771957746 267.241
10.029622640473708 380.03
10.052007432299963 551.681
10.074410069984072 797.953
10.096813093716005 1175.8
10.119199042482517 1593.35
10.141602840636468 1865.98
10.163989564971628 1713.18
10.186394141051062 1091.14
10.208799107559706 500.36199999999997
10.231187001965623 235.347
10.253592751657669 141.739
10.275981430388155 120.20700000000001
10.298387966769793 118.41799999999999
10.320794897965431 120.572
10.343184759907361 119.15799999999999
10.36559248305461 112.85600000000001
10.387983138083852 108.20299999999999
10.410391656691655 111.65100000000001
10.432800574501677 124.959
10.455192425893369 143.996
10.47760214443012 170.83700000000002
10.499994797678786 209.93099999999998
10.522405320453982 277.124
10.54479877906917 373.44
10.567210109595656 478.00300000000004
10.5896218454736 535.854
10.612016518879773 527.3
10.634429067781074 388.29400000000004
10.656824555333241 229.092
10.679237920773568 139.502
10.701651695961992 102.538
10.724048411481384 92.8146
10.746463008485165 89.2961
10.768860546937125 87.7495
10.791275969274796 85.524
10.81369180576079 84.4393
10.836090585366925 83.1869
10.858507252467449 82.1893
10.88090686379991 81.1464
10.903324365036394 80.3145
10.925724811614439 80.8476
10.948143150509463 82.3725
10.970561909719066 81.3518
10.992963615930844 79.0531
11.015383218085756 77.0591
11.037785768347074 75.10300000000001
11.06020621697282 74.5482
11.082627090322113 74.1517
11.105030913430326 73.8177
11.12745263854165 74.4517
11.149857314510728 78.5365
11.172279894912576 85.0093
11.194702904450653 86.4042
11.217108866490921 81.8319
11.239532736615194 76.771
11.26193956033512 74.1497
11.284364294577085 72.6277
11.306789462371718 70.2781
11.329197585398376 68.786
11.351623622610898 68.65
11.37403261614354 67.8619
11.396459526308487 67.4511
11.418869393879497 67.0474
11.441297180532617 66.6402
11.463725406927658 66.5492
11.486136592353875 66.6059
11.508565700543707 67.0141
11.530977768845315 69.2825
11.553407762368774 70.2084
11.575838200059769 69.6506
11.598251599479612 67.3486
11.620682927815501 65.7878
11.64309721895548 65.2925
11.665529441478206 64.8409
11.687962112597958 64.6496
11.710377748130886 64.6887
11.732811318753434 64.2576
11.755227854859067 64.3547
11.777662328529495 64.524
11.800079768750786 64.238
11.822515149015453 64.0161
11.844950984084935 64.1356
11.867369787303163 63.7843
11.889806534289491 64.2159
11.912226250487029 64.4387
11.934663912939751 64.5906
11.9571020346363 64.5464
11.979523127133968 64.4067
12.001962169624331 65.3138
12.024384183972964 66.4633
12.046824150809913 70.2843
12.069264581333726 76.0688
12.091687985297767 83.286
12.11412934550045 92.2998
12.136553680195208 105.176
12.158995973632788 123.87299999999999
12.181438735204349 148.285
12.20386447284199 176.049
12.226308172985636 198.09099999999998
12.24873485024193 205.584
12.271179492516982 179.923
12.293607112949127 140.29399999999998
12.316052700916226 107.675
12.338498763250042 84.5947
12.360927805303868 73.692
12.383374818673879 68.8481
12.405804812803074 66.4636
12.428252780773262 65.8561
12.45070122756722 65.7851
12.473132656675375 65.8447
12.49558206341869 66.1344
12.518014453510101 66.1152
12.540464823770117 66.1748
12.562915677315177 66.275
12.58534951575545 67.2523
12.607801338171472 69.6057
12.630236146511358 75.6309
12.652688941369085 81.3195
12.675124723177234 81.9475
12.697578494048786 77.1155
12.720032754458185 72.1081
12.742470003354093 69.7114
12.764925245138771 69.7074
12.787363476431278 69.7603
12.809819703166806 70.1322
12.83227642391173 70.9439
12.854716135692716 71.4187
12.877173846755147 72.4684
12.899614549869717 72.824
12.9220732548287 73.7122
12.94453245827299 74.0807
12.966974655289818 75.063
12.989434858002571 75.8577
13.011878055298721 76.6599
13.034339260862497 77.5946
13.056800969391883 78.9308
13.079245674017244 81.0074
13.101708390774869 83.3514
13.12415410463411 91.1065
13.146617833206086 104.52600000000001
13.169064559883248 118.447
13.191529303857127 134.382
13.213994557076367 155.702
13.236442809902437 187.83599999999998
13.258909083908291 233.94299999999998
13.28135835851934 287.384
13.30382565690295 346.913
13.326293469022952 406.043
13.348744283242008 426.394
13.371213125129904 384.43199999999996
13.39366497011003 296.649
13.416134845360597 202.313
13.438605238843131 138.885
13.46105863690397 113.184
13.483530069144786 111.495
13.505984506951902 117.264
13.528456981549432 128.17600000000002
13.550929978879088 142.157
13.573385983253365 162.215
13.595860028340867 194.032
13.618317081455832 237.635
13.64079217790333 284.687
13.663250283359057 328.788
13.685726434770173 360.93800000000005
13.708203115221277 349.68199999999996
13.730662806148091 286.54900000000004
13.75314054697177 211.38400000000001
13.775601299246777 145.967
13.798080104050406 106.54700000000001
13.820559442405358 89.8272
13.843021793671388 84.4228
13.865502201420897 82.5752
13.887965623051947 82.1207
13.910447103807167 80.6607
13.932929122629764 79.233
13.955394156785959 78.9106
13.977877254034569 77.6154
14.000343367582113 76.7
14.022827546871707 76.0591
14.045294743423524 75.5296
14.06778000837062 75.0482
14.090265817715476 74.914
14.112734645763819 74.6096
14.13522154619454 74.3543
14.157691466286913 74.4371
14.180179461423874 74.4007
14.202668005486178 73.5067
14.22513957064374 72.7122
14.247629214846473 72.0788
14.270101881097517 72.1206
14.29259262906496 72.4607
14.315083930490205 73.3406
14.337558255389705 73.7224
14.360050666019726 73.2638
14.382526101071944 72.0896
14.405019624534942 71.4547
14.427513705993134 70.5318
14.449990813291825 70.5915
14.47248601302899 70.5262
14.49496423954951 70.5759
14.517460561197822 70.695
14.539939910570322 70.4834
14.562437357763558 70.7043
14.58493536931253 72.0776
14.607416409993311 73.1629
14.62991555254159 74.0021
14.652397725157423 73.6316
14.674898002342799 72.6805
14.697398848433282 72.2096
14.719882725991326 73.1288
14.74238471217934 74.2167
14.764869730765593 77.9678
14.787372860692983 81.7066
14.809876564079925 87.1109
14.83236330125751 93.1381
14.854868153850365 101.53299999999999
14.877356041159485 113.149
14.899862046604186 128.792
14.922351087688757 150.065
14.944858249632887 173.64
14.967365991421232 197.69099999999997
14.989856770231246 216.67
15.012365673994204 219.356
15.03485761569738 199.368
15.05736768508665 164.354
15.07987833888692 129.355
15.102372032001655 100.149
15.124883856909658 81.8781
15.14737872204565 75.1154
15.169891721717274 73.2999
15.192405310371893 72.5763
15.214901940621196 72.958
15.237416709527137 73.2346
15.259914520936249 73.3443
15.282430473753607 72.39
15.304947020131227 71.0533
15.327446610371178 70.0196
15.349964346154254 69.2968
15.372465126703139 68.7703
15.394984055556009 68.3569
15.417486030076159 68.1047
15.44000615566487 67.8524
15.462526881230803 67.765
15.485030653812652 68.0888
15.507552581617434 67.9973
15.530057557334603 68.0992
15.55258069104857 67.9539
15.575104429329837 67.9541
15.597611216864632 67.5514
15.620136166564563 67.6932
15.6426441664095 68.6955
15.665170331202765 71.542
15.687697105158826 75.068
15.710206930593545 78.9193
15.732734925158933 83.5302
15.755245972089478 89.8407
15.77777519094324 97.5665
15.800287463046663 108.8
15.822817909869592 124.684
15.84534897229804 142.429
15.867863089299354 163.262
15.890395385222186 180.49099999999999
15.912910736597423 192.84400000000002
15.935444269699861 188.31599999999997
15.957978423016485 169.018
15.980495633101265 137.754
16.003031029129367 106.90100000000001
16.02554948280019 83.4876
16.048086125229432 72.0401
16.070623392487107 68.0669
16.09314371869582 66.8972
16.11568223789321 65.8328
16.13820381691126 64.5036
16.160743591742527 63.3449
16.183283996022084 62.2704
16.205807461423195 61.1954
16.228349126881973 60.638000000000005
16.25087385432698 60.6865
16.27341678466365 60.0687
16.29594277784926 60.1913
16.31848697676433 60.4243
16.341031811604868 60.7012
16.36355971058487 61.3089
16.3861058195587 60.8302
16.40863499352978 59.4365
16.431182380342005 58.3879
16.453730407713202 57.8968
16.476261501364792 57.1773
16.498810812136167 57.0212
16.52134319004079 57.1016
16.54389378792203 56.9658
16.566445031001553 56.7734
16.588979342490088 56.5615
16.61153187824822 56.653
16.634067483263312 56.4195
16.656621315414416 56.3602
16.679175797408888 55.9472
16.701713349928728 56.0698
16.72426913389191 56.5514
16.74680798922351 56.4212
16.76936507887444 56.2155
16.791905240734874 56.5242
16.814463639794468 56.21
16.837022695210294 56.0737
16.859564824093756 56.7117
16.882125194503903 57.5519
16.904668639217885 58.5779
16.927230328348003 58.658
16.949792678493612 58.6151
16.972338104193863 57.8853
16.994901778652235 57.378
17.017448529496576 57.0015
17.040013531998152 57.3098
17.06257920018044 57.9406
17.0851279459922 58.773999999999994
17.107694947817667 59.7074
17.130245028099072 60.4245
17.15281336730298 61.9867
17.17536478578733 63.4468
17.19793446610687 65.4346
17.220504818648422 67.8971
17.243058251703697 70.5954
17.265629950971032 74.5365
17.288184731571736 78.2783
17.310757781306908 82.3592
17.33333150794385 84.5957
17.355888317140174 84.3012
17.37846339986244 80.0524
17.401021565958885 74.7466
17.42359800851343 69.3702
17.44617513265564 64.6879
17.468735341390783 62.3303
17.491261035594565 61.0427
17.51396340099364 60.5744
17.536490463869136 60.6334
17.559018209820174 60.6822
17.58154663977963 60.8957
17.604251766089718 60.9855
17.626781572227713 61.0662
17.64931206518155 61.2084
17.671843245885103 61.8603
17.69455114821572 62.3551
17.717083712612634 62.4882
17.739616967569667 62.5457
17.762150914021706 62.8451
17.78486160749854 62.9732
17.807396945166804 63.6252
17.829932977143503 64.4213
17.85246970436452 66.1649
17.875183204129467 68.3502
17.897721330097664 70.6326
17.920260154126645 73.5431
17.942799677153296 76.3988
17.9655159983646 79.6712
17.988056927677544 84.34100000000001
18.010598558807683 91.0749
18.033140892692916 99.3421
18.05586005052525 107.911
18.07840379824407 117.649
18.10094825154059 128.265
18.12366954819864 137.583
18.146215420998306 140.99
18.16876200220057 137.289
18.191309292745153 125.875
18.214033452627167 111.991
18.236582170236648 99.1741
18.259131600016456 90.9505
18.281681742907335 88.5716
18.304408781233683 90.596
18.32696035875955 94.3564
18.349512652227624 98.7936
18.372065662579683 103.765
18.394795594587553 106.639
18.41735004715306 105.64200000000001
18.43990521943684 100.68299999999999
18.46246111238171 92.3339
18.485193953325208 82.27600000000001
18.507751296070428 73.896
18.530309362314178 68.9748
18.552868153000343 65.8999
18.57560391815056 64.0498
18.59816416623245 63.3912
18.620725141597372 63.0288
18.643286845190268 62.3224
18.666025549835414 62.1149
18.688588718427933 61.3997
18.711152618092243 61.3155
18.73389353884365 61.1135
18.75645890921984 60.6417
18.77902501351406 60.3135
18.801591852673102 60.1796
18.824335739722738 59.6355
18.846904057212626 59.7297
18.8694731124168 59.2927
18.89204290628315 59.3605
18.914789774966803 59.059
18.937361054791623 58.7442
18.959933076131318 58.591
18.982505839934877 58.6895
19.00525570560582 58.7355
19.027829963004184 58.5276
19.05040496572238 58.4336
19.072980714710468 58.495
19.095733592739563 58.7532
19.11831084296757 59.1943
19.140888842324735 59.7894
19.16346759176222 60.105
19.18622349753803 60.6747
19.208803755869358 61.2166
19.231384767143577 62.1148
19.253966532312948 63.4877
19.276725481241822 65.2433
19.29930876296784 67.1708
19.3218928014549 69.6945
19.34465404436217 72.3897
19.36723960516257 75.3412
19.389825925592426 77.0167
19.412413006605938 77.065
19.43517731967805 74.5765
19.457765930683355 70.9654
19.48035530514408 66.5519
19.50294544401556 62.4078
19.525712842708348 59.1613
19.54830451925909 57.3698
19.570896963095727 55.8444
19.593490175174704 55.3249
19.616260674962184 55.3392
19.638855432416964 54.9805
19.661450960992624 55.156000000000006
19.68404726164677 54.9552
19.706820878021247 54.7807
19.729418731756834 54.9708
19.752017360452857 54.6874
19.77461676506804 54.9147
19.797393513540218 55.0747
19.819994478951667 55.4329
19.84259622316767 55.8954
19.8651987471481 56.4845
19.887978643247177 56.6909
19.91058273574792 57.3526
19.933187610901943 57.9844
19.955969879466828 58.9199
19.97857632894404 60.2074
20.00118356396599 61.1961
20.023791585494575 63.1972
20.046577028914875 65.5226
20.069186632506966 67.5414
20.091797025500632 69.3569
20.114408208858933 70.7446
20.137196842715273 71.368
20.159809615886765 70.7141
20.18242318232135 68.4897
20.20503754298326 66.2068
20.227829382875154 64.6196
20.250445341109344 63.7964
20.27306209647285 63.7499
20.29567964993108 64.2677
20.31847471147704 65.4439
20.34109387027612 66.2754
20.363713830075454 66.6608
20.386334591841646 65.8088
20.409132890679302 63.8542
20.431755265564437 61.0932
20.454378445325528 58.0626
20.477002430930366 55.8125
20.499803982716553 54.3672
20.522429589228004 53.465
20.54505600449589 52.7581
20.567683229489194 52.4818
20.590488049900088 52.0091
20.61311690359731 51.5757
20.63574656993626 51.3849
20.658553853717297 50.9729
20.681185154618298 50.8692
20.703817271080066 50.8605
20.72645020407368 50.4909
20.749260783967177 50.5332
20.771895359337133 50.5028
20.794530754161617 50.4184
20.817166969412938 50.1507
20.83998086114876 50.2551
20.86261872660049 49.798
20.885257415405402 50.0781
20.90789692853701 49.8631
20.930714147864748 49.9606
20.953355319030678 50.004
20.97599731745334 49.9478
20.99864014410749 49.923
21.021460706796564 49.9145
21.044105199328826 50.1886
21.06675052302631 50.4341
21.089396678865015 50.6399
21.112220600704806 50.653
21.134868430275347 51.0568
21.15751709492456 51.2347
21.180166595629693 51.2899
21.202993892429635 51.8644
21.22564507473034 52.3405
21.24829709602816 52.451
21.27112693608965 52.611999999999995
21.293780644891275 52.8738
21.316435195634053 52.2394
21.339090589297417 51.61
21.361923832041875 51.1939
21.384580921090404 50.4554
21.407238856007325 49.8973
21.429897637773326 49.8661
21.45273429906592 49.6547
21.475394784108598 49.6324
21.498056118951983 49.6608
21.520718304578022 49.835
21.543558400304388 49.8124
21.566222297108816 50.1237
21.58888704765135 50.3363
21.61155265291521 50.6008
21.63439619898156 51.0237
21.657063523335786 51.4317
21.67973170537063 51.9095
21.7024007460706 52.4032
21.72524775840385 53.0067
21.747918526116475 53.8639
21.770590155457388 55.0735
21.79326264741238 56.2531
21.816113141960237 58.0306
21.838787368860547 59.6077
21.861462461341976 61.3038
21.884315579735777 63.1186
21.90699241312273 64.4972
21.92967011506078 65.5944
21.95234868653799 66.1481
21.9752053151131 65.4398
21.997885635446785 63.9382
22.020566828293532 62.0866
22.04324889464272 59.9366
22.066109049404666 58.2537
22.088792872571794 57.4611
22.111477572219204 57.2099
22.1341631493376 57.1715
22.157026846313123 57.2207
22.179714188221507 56.8102
22.202402410582668 56.0565
22.22509151438863 54.6093
22.24795876962584 53.3555
22.270649646204486 52.4795
22.293341407213727 51.466
22.316034053646906 50.7474
22.338904883215342 50.3648
22.36159931041458 50.2879
22.38429462602756 50.3169
22.40699083104897 50.1834
22.429865251039757 50.2885
22.452563244831367 50.2811
22.47526213102522 50.3903
22.49813925616515 50.2371
22.520839937143307 50.0105
22.543541513520587 49.9487
22.56624398629403 49.7712
22.589124730075895 49.7009
22.611829005656723 50.0952
22.63453418063466 50.0325
22.657240256008077 50.2709
22.680124634582935 50.3802
22.70283252079775 50.6837
22.725541310413075 51.0072
22.74825100442868 51.1659
22.771139033969575 51.6156
22.79385054687155 51.8635
22.81656296718292 52.3904
22.83927629590484 53.0609
22.862167992606945 53.9499
22.88488314827121 54.7389
22.907599215359284 55.7116
22.93031619487366 56.7292
22.953211574954405 57.7011
22.975930389478226 58.5984
22.998650119445763 59.126000000000005
23.02137076586092 58.9497
23.044269845560063 58.0975
23.06699233506288 56.6157
23.089715744034912 54.8587
23.112617610931565 53.0311
23.135342869061212 51.6106
23.158069049684816 50.7216
23.1807961538087 50.3779
23.20370174880544 50.1469
23.226430710184808 50.1166
23.249160598093425 50.2839
23.271891413539002 50.1764
23.294800752937697 50.1894
23.31753343374794 50.3966
23.340267045128353 50.4812
23.36300158808808 50.8396
23.38591468821339 51.1516
23.408651104658304 51.4417
23.431388455719986 52.0604
23.454126742409 52.6597
23.4770436196085 53.4897
23.499783787914662 54.4694
23.522524894889884 55.2179
23.54526694154616 56.2533
23.56818761219047 57.4192
23.59093154860734 58.0252
23.613676427751283 58.6772
23.636422250635754 58.4278
23.659346731118656 57.5613
23.68209445191868 55.775
23.704843119509587 53.7085
23.72759273490623 51.7659
23.750521041644767 50.1505
23.77327256312355 48.9505
23.796025035462787 48.053999999999995
23.818956224555475 47.339
23.841710609113413 47.2108
23.86446594758979 47.0472
23.887222241002014 46.7923
23.910157285144578 46.4456
23.932915498962537 46.5735
23.955674670778713 46.2665
23.978434801611975 46.0099
24.001373717286125 45.8183
24.024135776723917 45.8217
24.046898798245582 45.7021
24.06966278287146 45.5906
24.092605586582614 45.4833
24.115371508023642 45.32
24.1381383956401 45.2463
24.16090625045381 45.2243
24.183852958731244 45.1248
24.206622758582608 45.0052
24.229393528706886 44.8136
24.252165270127392 44.9294
24.27511589952438 44.8108
24.297889594216997 44.6838
24.32066426328598 44.4457
24.34343990775613 44.4506
24.36639447485003 44.3703
24.38917208083877 44.2793
24.41195066531332 44.3074
24.43490819850244 44.3515
24.457688750692377 44.1172
24.48047028445616 44.0404
24.503252800821233 44.168
24.526214300784112 44.19
24.548998793132213 44.2713
24.57178427117417 43.9997
24.59457073593893 44.0686
24.617536219319863 43.9784
24.64032466834748 44.2194
24.663114107195035 43.9708
24.685904536893013 43.7319
24.708874020360852 43.6275
24.731666442613744 43.6846
24.754459858818787 43.5974
24.777254270007962 43.4158
24.80022777025625 43.3912
24.82302418230472 43.3777
24.845821592443674 43.4187
24.86862000170663 43.5218
24.891597535453727 43.2017
24.914397953892728 43.4713
24.93719937456671 43.2027
24.96000179851076 43.3801
24.98298338249997 43.5839
25.00578782394922 43.7338
25.028593271784167 43.8798
25.05157790644186 44.2129
25.07438537804115 44.3395
25.097193859145293 44.468999999999994
25.120003350792075 44.827
25.142992065061257 45.1126
25.165803588823465 45.294
25.18861612625217 45.5318
25.211429678386736 45.7498
25.234422489079968 45.808
25.257238081693636 45.8298
25.280054692141732 45.9046
25.3028723214652 45.9672
25.325869245420463 45.8131
25.348688923599397 45.9263
25.371509623787006 45.8449
25.394331347025812 45.7835
25.41733240110666 45.4386
25.440156181590016 44.9711
25.46298098826268 44.4088
25.48580682216873 43.8045
25.50881202326435 43.1186
25.53163992281684 42.7529
25.55446885274561 42.3902
25.577298814096377 42.0571
25.600308179121807 41.8422
25.623140214533745 41.9486
25.64597328451537 41.8084
25.66898578564376 41.4586
25.691820936010206 41.6325
25.714657124097695 41.6602
25.737494350954734 41.5447
25.760511045684957 41.6246
25.783350361364224 41.6189
25.806190718969255 41.628
25.82903211955018 41.7453
25.852053024868923 41.7427
25.874896522722523 41.8309
25.897741066713106 41.6357
25.920586657892454 41.7659
25.943611790812668 41.8435
25.966459487728237 41.961000000000006
25.989308234998564 41.8779
26.01215803367705 42.2624
26.03518741123814 42.4406
26.05803932412957 42.4732
26.080892291600094 42.5128
26.10374631470478 42.6852
26.12677995397268 42.7293
26.14963609978026 42.8568
26.172493304397875 42.4591
26.19535156888223 42.3032
26.218389486949604 42.0442
26.241249882640123 41.7242
26.26411134137826 41.4647
26.28715248187403 41.5065
26.31001607820869 41.2771
26.3328807407756 41.0831
26.35574647063438 41.1963
26.37879191991473 41.1036
26.401659795896734 41.20399999999999
26.424528742360263 41.4179
26.447398760366614 41.4789
26.470448535598294 41.5494
26.49332070826805 41.835
26.516193955675355 41.9913
26.53906827888316 42.2106
26.562122397260108 42.3046
26.584998883685063 42.4716
26.607876449110325 42.6944
26.63075509460056 43.045
26.65381357334404 43.0834
26.67669439061878 43.1656
26.699576291163382 43.1168
26.722459276044212 43.1516
26.745522132402975 42.9916
26.768407297649354 42.5658
26.791293550442003 42.2281
26.814180891848974 42.0741
26.837248143099337 41.8111
26.860137673466657 41.6469
26.88302829566349 41.2188
26.90592001075963 41.1563
26.92899167420566 40.92
26.951885586870763 40.6666
26.974780595655517 40.5145
26.99785558178161 40.312
27.020752794605112 40.0429
27.043651106772522 39.8669
27.06655051935668 39.8751
27.089629948036183 39.7525
27.112531573292053 39.6859
27.135434302194138 39.7698
27.158338135817015 39.6524
27.181422024430987 39.5848
27.204328079372566 39.4289
27.22723524226965 39.5206
27.250143514198573 39.5747
27.273231880156334 39.5162
27.296142382065014 39.4481
27.319053996245536 39.363
27.341966723775965 39.3221
27.365059584515222 39.4455
27.38797455070062 39.5173
27.410890633481237 39.3144
27.433807833936918 39.3864
27.456905206923906 39.4559
27.47982465472398 39.3806
27.502745223449743 39.4598
27.525666914182825 39.421
27.548768816912457 39.4766
27.571692763693633 39.4149
27.59461783573812 39.2474
27.617723149491244 39.2465
27.640650484125285 39.1806
27.66357894728264 39.2468
27.686508540048052 39.0484
27.709618414237887 38.9506
27.732550278321757 38.7146
27.755483275279115 38.7391
27.778417406196485 38.586999999999996
27.801531858397514 38.7141
27.824468269376716 38.7864
27.847405817586786 38.8658
27.870344504116094 38.9257
27.893463551932008 38.9251
27.916404527281053 39.1726
27.93934664422563 39.2866
27.962289903855886 39.1603
27.98541356491974 39.6058
28.00835912214229 39.6317
28.03130582533231 39.755
28.054253675581805 39.929
28.077381967556104 40.0438
28.100332124185126 40.0722
28.123283431160893 39.9362
28.146235889577238 39.6699
28.169368830154156 39.5845
28.192323603752033 39.5072
28.215279532083304 39.1686
28.238415973016764 38.8991
28.261374223145094 38.9257
28.284333631303806 38.6222
28.307294198589954 38.5682
28.330435319167677 38.1824
28.353398217078915 37.9671
28.376362277420153 37.7243
28.39932750129032 37.5934
28.422473319286713 37.5191
28.44544088262495 37.4737
28.468409612800283 37.3107
28.491379510913497 37.031
28.51453004413313 37.0605
28.53750229057244 36.9429
28.56047570826344 36.8647
28.583450298308804 36.8216
28.606605564586562 36.6999
28.629582511831156 36.6511
28.65256063474956 36.468
28.675539934446338 36.5359
28.698699951647605 36.6623
28.72168161743193 36.4692
28.74466446331978 36.5028
28.767648490417624 36.4439
28.790813276438353 36.2993
28.813799678527303 36.3627
28.836787265157085 36.2738
28.859955641890075 36.2705
28.882945610203045 36.2635
28.905936766392035 36.2466
28.928929111566863 36.2473
28.952102288520145 36.222
28.975097024308607 36.1663
28.998092952423807 35.9061
29.021090073977508 35.8305
29.04426806913204 35.8083
29.067267590245258 35.6171
29.090268308143695 35.5617
29.11327022394099 35.4236
29.13645305530891 35.3063
29.159457379627167 35.2318
29.18246290519685 35.1761
29.20546963313352 35.2058
29.22865731875826 35.251
29.25166646419296 35.2599
29.27467681535305 35.0134
29.29768837335608 35.1891
29.320880931312562 35.1975
29.34389491580634 35.069
29.366910110507334 34.994
29.38992651653503 35.1341
29.41312396492981 35.102
29.436142806456754 35.0125
29.45916286268059 35.004
29.48236399319994 34.806999999999995
29.50538649169417 34.6641
29.528410208259935 34.6656
29.55143514402014 34.4464
29.574641196749695 34.3418
29.597668583816574 34.2748
29.6206971934585 34.0323
29.64372702680042 33.9901
29.666938019934474 33.9412
29.689970313635285 33.9957
29.713003834422636 33.8951
29.73603858342347 33.8189
29.759254535188578 33.9185
29.78229175361658 33.7262
29.80533020365064 33.7715
29.82836988641968 33.6502
29.85159081507472 33.736
29.874632976355343 33.5798
29.89767637376955 33.5391
29.920721008448314 33.455999999999996
29.9439469322847 33.4843
29.96699405457564 33.3952
29.9900424175358 33.4706
30.013092022298157 33.3498
30.03632295963995 33.2415
30.059375061131373 33.4666
30.08242840783577 33.4075
30.105483000888153 33.3318
30.128718970092244 33.2802
30.151776069006917 33.2639
30.17483441768648 33.2034
30.198074175317235 33.3008
30.221135036724256 33.1824
30.24419715131772 33.0806
30.267260520236203 33.0277
30.290505341942243 33.1174
30.313571232750228 33.1317
30.336638381310948 33.1943
30.35970678876503 33.1743
30.38295669299435 33.0539
30.40602763151657 32.9676
30.429099832366074 32.809
30.452173296685572 32.8319
30.47542830191959 32.8513
30.498504306502497 32.8811
30.521581577995562 32.976
30.544660117543582 32.942
30.56792024229725 32.9537
30.59100133132069 32.9784
30.614083691845494 32.9931
30.637167325018545 33.0122
30.660432587840603 32.9603
30.683518779717886 32.9114
30.70660624769615 33.126
30.729694992924372 33.0771
30.75296541239743 33.0209
30.77605672557558 32.9637
30.799149319462742 32.8986
30.8224236211637 32.8905
30.845518789950724 32.7098
30.868615242910597 32.6695
30.891712981195973 32.6062
30.91499247215866 32.4291
30.938092794619365 32.4013
30.96119440587579 32.4347
30.984297307082752 32.3084
31.00758200598383 32.1986
31.030687500658694 32.152
31.053794288760695 31.963
31.076902371446767 31.9158
31.100192296997445 31.9423
31.12330298246119 31.8271
31.14641496599209 31.7258
31.169528248749216 31.7667
31.19282341969534 31.7041
31.215939314557186 31.7068
31.239056512134788 31.7001
31.262175013589378 31.6705
31.28547544871168 31.6234
31.30859657161541 31.5367
31.331719001892175 31.586
31.35484274070538 31.6574
31.378148458819545 31.6417
31.401274828443725 31.6348
31.424402510106933 31.6903
31.447712205419993 31.708000000000002
31.470842524931633 31.5758
31.493974159989783 31.5886
31.51710711176168 31.5504
31.54042212308802 31.5843
31.563557722100917 31.6151
31.586694641341655 31.3924
31.609832881979628 31.2352
31.63315322823208 31.2329
31.656294125521327 31.2308
31.679436347728515 31.1533
31.70257989602529 31.0346
31.725905596152327 31.0092
31.74905181052835 30.8312
31.772199354521323 30.9309
31.79534822930507 30.936
31.818679302290967 30.9129
31.84183085259981 30.8997
31.864983737233473 30.8116
31.88813795736804 30.8769
31.911474422233013 30.7477
31.934631327356435 30.9579
31.9577895715215 30.839000000000002
31.980949155906522 30.8773
32.004291031706956 30.8053
32.027453310562606 30.6901
32.05061693318573 30.6806
32.07396288236386 30.6157
32.09712920658542 30.6119
32.12029687812702 30.3961
32.14346589817093 30.259
32.166817291729984 30.3181
32.18998902288583 30.3233
32.21316210610336 30.1429
32.23633654256711 30.0709
32.259693399663725 29.9945
32.282870556771144 29.8595
32.30604907069099 29.9208
32.329228942610065 29.8353
32.35259128243769 29.7508
32.375773884550505 29.7204
32.398957848235646 29.6277
32.422143174682176 29.5769
32.445511016471215 29.5276
32.468699082679954 29.4767
32.49188851523011 29.4544
32.51507931531304 29.3963
32.538452678331 29.394000000000002
32.56164622776311 29.3483
32.58484114831493 29.2011
32.60803744118015 29.2204
32.631416344731896 29.1619
32.654615396551876 29.2332
32.67781582427913 29.1626
32.701198898634416 29.0809
32.72440209253756 29.1197
32.747606665947124 29.0139
32.77081262006088 28.8234
32.79420126883317 28.8657
32.81740999876112 28.8529
32.840620112999424 28.8158
32.86383161274818 28.737
32.88722585534586 28.7896
32.91044014056596 28.7965
32.933655814909734 28.7531
32.95687287957963 28.7412
32.98027273544904 28.6385
33.00349259526636 28.6873
33.026713849030116 28.6257
33.04993649794511 28.6179
33.073341986570746 28.5378
33.09656744032826 28.5297
33.11979429286444 28.4396
33.14302254538647 28.3809
33.166433686291185 28.4527
33.18966475336992 28.4207
33.212897224069096 28.3577
33.23613109959831 28.3246
33.259547912343415 28.2363
33.2827846121627 28.3002
33.306022720453775 28.17
33.32926223842861 28.0861
33.352684742614166 28.1187
33.37592709463173 28.1192
33.399170859982064 28.0305
33.422597648419426 27.978
33.44584425514446 27.8771
33.46909227885668 27.8309
33.4923417207723 27.7241
33.51577423505344 27.7161
33.539026528130385 27.7604
33.56228024307245 27.6485
33.585535381098246 27.4585
33.60897364093058 27.428
33.63223163992385 27.3886
33.6554910656699 27.3831
33.678751919389796 27.3751
33.702195944520106 27.2385
33.72545966903325 27.2546
33.74872482519663 27.1278
33.771991414233746 27.1994
33.79544122444841 27.1705
33.81871069412428 27.122
33.84198160035767 27.0412
33.86525394437455 26.9824
33.88870955949969 26.995
33.911984794020626 26.9499
33.93526147001624 27.0195
33.958539588715006 26.9061
33.98200102861669 26.7793
34.0052820477047 26.7162
34.02856451319451 26.7106
34.05203033759056 26.7013
34.07531571090147 26.6556
34.09860253431845 26.6596
34.121890809074316 26.5738
34.145362493118924 26.4866
34.16865368561615 26.4985
34.191946333164054 26.5414
34.21524043699793 26.4461
34.23871800066799 26.3852
34.26201503218366 26.335
34.28531352370466 26.3568
34.30861347646881 26.2235
34.33209693978188 26.1974
34.3553998301885 26.1626
34.378704185565205 26.1141
34.402010007152356 26.0669
34.42549939016683 26.122
34.44880815937748 25.9874
34.472118398533134 25.8312
34.49543010887669 25.8957
34.51892543169198 25.8946
34.54224009966052 25.8295
34.56555624255917 25.8257
34.58887386163339 25.759
34.61237514439016 25.6644
34.6356957311114 25.6173
34.65901779775809 25.5584
34.68252356662995 25.6128
34.705848608458616 25.549
34.72917513396849 25.4178
34.75250314440949 25.4924
34.77601490857862 25.394000000000002
34.799345904259795 25.3003
34.82267838863559 25.3115
34.846012362958525 25.2602
34.869530142679984 25.2554
34.89286711232212 25.1931
34.91620557568269 25.1451
34.93954553401677 25.1757
34.9630693495876 25.07
34.986412313340814 25.1589
35.00975677584668 25.0749
35.033102738362956 25.0068
35.05663261012228 24.9472
35.0799815881786 24.9976
35.10333207003229 24.9092
35.12668405694369 24.8794
35.150220005273056 24.9099
35.17357501786656 24.9105
35.19693153931268 24.8172
35.220289570874385 24.7598
35.24383161619786 24.7609
35.267192683604904 24.7894
35.290555264930376 24.6832
35.314101899412165 24.6668
35.33746752422433 24.6237
35.36083466676374 24.651999999999997
35.38420332829803 24.611
35.407756095629054 24.6499
35.43112781085063 24.6327
35.45450104888391 24.5045
35.477875810999194 24.5102
35.50143473172161 24.4203
35.52481255774625 24.4104
35.54819191167777 24.3917
35.57157279478914 24.3621
35.595137889488406 24.3785
35.61852184675279 24.3714
35.641907337029984 24.311999999999998
35.665294361595684 24.2124
35.68886565090076 24.1214
35.7122557598848 24.1057
35.73564740699838 24.1358
35.759040593519934 24.0793
35.78261809810353 24.0927
35.80601437933051 23.9506
35.829412203814705 23.9029
35.85281157283719 23.8356
35.876395313415884 23.8424
35.8997977874528 23.8184
35.92320180988546 23.778000000000002
35.946790244133936 23.7059
35.97019737933222 23.6632
35.993606066789866 23.5783
36.01701630779276 23.5777
36.04061101440684 23.5419
36.06402437852291 23.5838
36.08743930005611 23.5906
36.1108557802951 23.5258
36.13445678011326 23.5026
36.15787639383515 23.4449
36.18129757014299 23.4509
36.20472031032821 23.3201
36.22832762423364 23.2952
36.25175350829375 23.3155
36.275180960119776 23.1539
36.298609981005924 23.1701
36.32222362992669 23.2422
36.34565580510207 23.2036
36.36908955323448 23.2018
36.39252487562093 23.0205
36.416144880530226 23.0139
36.43958336764275 23.0223
36.463023432914625 22.9915
36.486465077645676 22.9298
36.51009145956204 22.9218
36.53353627947859 22.9264
36.55698268276811 22.9032
36.58043067073321 22.8612
36.60406345072071 22.7958
36.62751462435344 22.7384
36.65096738658405 22.7148
36.67460498210655 22.7236
36.69806093788647 22.7099
36.72151848619297 22.665
36.744977628333636 22.5974
36.76862165890998 22.498
36.79208400512205 22.5891
36.81554794910557 22.5137
36.83901349217101 22.3966
36.862663978991606 22.3289
36.88613273667352 22.3276
36.90960309738324 22.3633
36.933075062434064 22.2649
36.95673202673572 22.2582
36.98020721697122 22.2394
37.003684015502365 22.2179
37.027162423645365 22.1696
37.050825886711465 22.1589
37.07430753063053 22.0608
37.09779078812467 22.0779
37.121275660513014 22.0466
37.144945643673694 21.9341
37.16843376245278 21.9507
37.19192350009803 22.01
37.215414857931435 21.9006
37.239091382563885 21.8519
37.262585997426164 21.8448
37.28608223645736 21.7941
37.309763684451696 21.7464
37.33326318851098 21.7114
37.356764320726555 21.6943
37.380267082425526 21.6796
37.40395510942588 21.6145
37.42746114683234 21.5071
37.45096881771841 21.5775
37.474478123414166 21.4816
37.49817275092816 21.5081
37.52168534303452 21.4373
37.54519957395567 21.4123
37.568715445024665 21.3578
37.592416694607714 21.3987
37.61593586281424 21.3173
37.63945667518264 21.2897
37.66297913304891 21.2282
37.68668702630454 21.2991
37.710212792059274 21.2344
37.733740207334854 21.0655
37.757269273470364 21.0993
37.780983832050374 21.0521
37.80451621684926 21.0841
37.82805025654007 21.0326
37.851585952464795 20.976999999999997
37.8753071980695 20.9257
37.89884622345676 20.8414
37.92238690911902 20.838
37.94611318753442 20.8576
37.969657210779765 20.7843
37.99320289834801 20.8037
38.016750251586465 20.7542
38.04048325513017 20.7364
38.06403395679343 20.6307
38.087586328183946 20.5762
38.11114037065203 20.5867
38.13488012115898 20.6349
38.1584375229181 20.5054
38.181996599821 20.4354
38.205557353221124 20.4215
38.229303872575656 20.4126
38.2528679961576 20.4241
38.27643380031219 20.4097
38.30000128639589 20.3247
38.32375459653193 20.2998
38.34732546371299 20.2916
38.37089801690786 20.1532
38.39447225747609 20.173
38.418232380377425 20.1945
38.441810012983396 20.2011
38.46538933705673 20.0857
38.488970353960084 20.0772
38.51273731166058 20.0116
38.536321731567014 19.999000000000002
38.55990784840681 20.0464
38.58367995004091 19.9758
38.60726947812959 19.959
38.63086070726198 19.9019
38.654453638806274 19.9248
38.678232613930824 19.8173
38.70182896773327 19.7763
38.72542702806741 19.7455
38.7490267963045 19.7055
38.77281266709232 19.6817
38.79641586862214 19.6421
38.8200207821842 19.6348
38.843627409152944 19.6742
38.86742019782782 19.5773
38.891030269149255 19.4821
38.914642058016156 19.4614
38.938255565806124 19.5203
38.96205529464307 19.4722
38.98567225787121 19.4561
39.00929094417078 19.4273
39.03291135492255 19.4221
39.05671804624804 19.3605
39.080341923549106 19.3849
39.103967529460334 19.2575
39.127594865365744 19.2113
39.15140854155791 19.1629
39.17503935514948 19.1416
39.19867190290282 19.194000000000003
39.22249083587951 19.0957
39.24612686969409 19.1172
39.269764641845306 19.0666
39.293404153722804 19.0794
39.317230110864074 18.9249
39.34087311998506 18.8473
39.36451787301696 18.9334
39.388164371352595 18.8261
39.41199737518003 18.8016
39.43564738196752 18.8204
39.45929913825317 18.8605
39.48295264543308 18.7721
39.506792718520884 18.7461
39.530449745387216 18.7061
39.55410852735203 18.6653
39.57776906581474 18.701
39.60161623079 18.6457
39.625280300200025 18.6725
39.64894613032202 18.5654
39.67261372255866 18.5898
39.6964680021016 18.5338
39.72013913657293 18.5063
39.74381203738292 18.4654
39.76748670593756 18.4262
39.79134812278169 18.4494
39.81502634488497 18.4473
39.83870633896685 18.3449
39.862388106436654 18.2952
39.88625668336918 18.2947
39.90994201572829 18.296
39.933629125719285 18.2753
39.957503091207826 18.2392
39.9811937746168 18.2707
40.00488623990914 18.1923
40.02858048850006 18.0839
40.05246165409549 18.1427
40.076159487492085 18.0305
40.099859108448875 18.0802
40.123560518384345 18.0131
40.1474489070226 17.9721
40.171153913178564 17.9644
40.194860712584955 17.9801
40.2185693066637 17.9469
40.242464941335314 17.8527
40.26617714307655 17.8654
40.289891143772046 17.7682
40.3136069448471 17.7417
40.33750984859743 17.7642
40.3612292688043 17.6733
40.3849504936829 17.7111
40.40867352466194 17.7208
40.43258372059144 17.613
40.45631038219906 17.6041
40.48003885420956 17.5597
40.503769138055105 17.5944
40.52768664931955 17.5892
40.55142057531802 17.5131
40.57515631746428 17.4711
40.599079334038514 17.4195
40.62281872700477 17.3689
40.64655994043941 17.3978
40.67030297578061 17.3463
40.69423334835778 17.3572
40.71798004609188 17.3289
40.74172857006355 17.2073
40.76547892171441 17.2169
40.7894166736039 17.194000000000003
40.813170699248566 17.1842
40.83692655691388 17.0819
40.86068424804498 17.1593
40.884629402612525 17.067999999999998
40.908390779366385 17.0431
40.932153993938 17.0228
40.95591904777605 17.0543
40.979871628443995 17.0034
41.003640379561936 16.989
41.02741097430883 17.0214
41.05118341413683 16.9557
41.075143444384416 16.9335
41.098919593177826 16.9321
41.1226975914255 16.8568
41.14647744058318 16.7692
41.170444943946755 16.7169
41.19422851378379 16.7339
41.218013938914645 16.6762
41.24198706625173 16.6715
41.26577622087193 16.6608
41.289567235177785 16.6273
41.31336011063129 16.5892
41.337340752422875 16.5211
41.361137369129835 16.5601
41.38493585138705 16.5584
41.40873620066004 16.5161
41.43272438060107 16.458
41.45652848292052 16.419
41.48033445666918 16.3781
41.50414230331616 16.401
41.528138045159764 16.346
41.551949656675205 16.3089
41.575763145513235 16.3286
41.59957851314666 16.2636
41.62358184070442 16.2477
41.64740098505737 16.176
41.6712220126409 16.2318
41.69504492493139 16.1758
41.71905586207357 16.1657
41.74288256296395 16.0885
41.766711153007456 16.0823
41.79054163368412 16.0659
41.814560204340054 16.0272
41.838394485526365 16.0248
41.86223066180303 15.9573
41.88625497706819 15.9815
41.910094962812 15.9373
41.93393684811168 15.9092
41.95778063445365 15.8152
41.981812625263366 15.8488
42.00566023303407 15.8016
42.029509746323676 15.7659
42.05336116662236 15.7846
42.077400857069705 15.7474
42.10125611078846 15.7437
42.12511327600405 15.6498
42.14897235421036 15.6425
42.173019768448455 15.6002
42.19688269209613 15.5955
42.22074753323349 15.5989
42.24461429335818 15.5351
42.268669455600495 15.565999999999999
42.292540073217886 15.4951
42.31641261433284 15.4856
42.34028708044675 15.4438
42.36435001496739 15.4008
42.38822835065557 15.4044
42.41210861586426 15.3925
42.4359908120986 15.3741
42.46006154323262 15.3267
42.48394762115317 15.2652
42.507835634632315 15.3146
42.531912233047436 15.24
42.55580413732265 15.2462
42.579697981698 15.2164
42.60359376768525 15.1906
42.62767820545945 15.1362
42.65157789440821 15.0929
42.67547952952185 15.0888
42.699383112316 15.0819
42.72347541395347 15.0134
42.74738291190531 15.0322
42.771292362102166 14.9916
42.795203766063516 14.9688
42.819303956130405 14.8762
42.843219287476536 14.8329
42.86713657716324 14.8212
42.89105582671383 14.8605
42.91516392983864 14.7819
42.939087119032166 14.8107
42.963012272677304 14.7455
42.98693939230129 14.7744
43.01105543317513 14.7543
43.034986504731386 14.7368
43.05891954686589 14.6975
43.08285456110972 14.6827
43.10697856448665 14.6469
43.130917542983475 14.5784
43.15485849820081 14.5623
43.17880143167367 14.5518
43.20293342237094 14.4931
43.226880332449 14.4543
43.25082922540554 14.4826
43.27496722682525 14.4529
43.29892010567796 14.4035
43.32287497204102 14.4131
43.34683182745632 14.3975
43.370977859791836 14.3377
43.39493871351105 14.3228
43.41890156092628 14.3155
43.44286640358341 14.2653
43.46702049182749 14.2453
43.49098934522816 14.2123
43.51496019852649 14.2089
43.5389330532723 14.1743
43.56309522248204 14.129000000000001
43.58707210044314 14.1377
43.61105098451946 14.08
43.63503187626491 14.0832
43.659202151562134 14.0651
43.68318707902681 14.0148
43.70717401884041 13.9784
43.731162972560874 13.995
43.75534137913236 13.947000000000001
43.779334381108384 13.9301
43.803329401683186 13.9142
43.82732644241872 13.9054
43.8515130055166 13.9162
43.87551410707659 13.8234
43.89951723350145 13.8225
43.923709934595614 13.8171
43.94771713129917 13.7998
43.97172635758096 13.7336
43.99573761501002 13.6921
44.0199385169922 13.6693
44.04395385732619 13.6515
44.067971233533086 13.6396
44.09199064718605 13.6639
44.11619977548961 13.6367
44.14022328470671 13.5085
44.16424883610785 13.5581
44.18827643127035 13.5147
44.21249381139513 13.4742
44.236525514814076 13.4844
44.26055926674478 13.4819
44.28459506876863 13.4804
44.3088207262813 13.4022
44.33286064928722 13.3808
44.35690262714919 13.3815
44.38094666145278 13.3604
44.4051806219871 13.3296
44.42922879003185 13.2809
44.45327901929361 13.2727
44.477331311362136 13.298
44.501573600619416 13.2458
44.525630039221795 13.2068
44.54968854541895 13.1887
44.573937102200176 13.1556
44.5979997645541 13.1302
44.622064499300315 13.1254
44.64613130803592 13.1129
44.67038823869318 13.1047
44.69445921643748 13.0394
44.718532272981385 13.0269
44.742607409926194 13.0501
44.76687274034801 12.987
44.79095205918753 12.9357
44.81503346325094 12.9071
44.839116954143876 12.9003
44.86339071028742 12.9235
44.88747839599524 12.9041
44.91156817336837 12.8325
44.93566004401666 12.8616
44.959942251908146 12.7814
44.984038330325966 12.7323
45.00813650686762 12.7242
45.03223678314731 12.7355
45.05652746888232 12.7015
45.08063196592069 12.6835
45.104738567558705 12.6314
45.128847275414856 12.6494
45.15314646515866 12.6146
45.17725940679741 12.5907
45.20137445952892 12.5949
45.22568004865265 12.5693
45.24979934496396 12.5237
45.27392075725247 12.5551
45.29804428714431 12.5075
45.322358426247604 12.4628
45.346486212804315 12.4324
45.370616121861914 12.4425
45.39474815505086 12.4206
45.41907087049246 12.3239
45.4432071734666 12.3556
45.46734560548283 12.3566
45.49148616817604 12.3073
45.51581748638564 12.2897
45.5399623320197 12.2812
45.56410931325473 12.2176
45.58825843173002 12.2367
45.61259837920865 12.1943
45.636751793816 12.182
45.66090735060093 12.1001
45.68506505120716 12.1132
45.7094136545275 12.107999999999999
45.73357566449271 12.0438
45.75773982322992 12.0581
45.78190613238733 12.0563
45.806263418194064 12.0404
45.83043404997326 11.9912
45.85460683713677 11.9392
45.87897065658495 11.9462
45.90314777634752 11.8932
45.92732705646868 11.9331
45.9515084986045 11.8975
45.97588104735473 11.8871
46.00006683541565 11.8378
46.02425479047904 11.831
46.04844491420549 11.8334
46.0728262191024 11.8041
46.09702070211635 11.8002
46.12121735879483 11.7478
46.14541619080294 11.7246
46.169806278764455 11.7205
46.194009483459034 11.6888
46.21821486849841 11.6725
46.24242243555223 11.6417
46.266821333570014 11.6418
46.29103328674601 11.5938
46.31524742696538 11.6047
46.33946375590237 11.5599
46.36387149104216 11.5719
46.38809221957392 11.4831
46.41231514186606 11.4669
46.436540259597464 11.4994
46.460956858999374 11.479000000000001
46.48518638983522 11.4528
46.509418121166966 11.4399
46.533652054678114 11.3555
46.55807754555709 11.384
46.58231590571962 11.3623
46.60655647313217 11.3012
46.630988654873654 11.3309
46.655233659129024 11.2538
46.67948087571551 11.2809
46.70373030632484 11.2597
46.72817142736393 11.2331
46.752425308428684 11.1705
46.77668140861147 11.1747
46.80093972960865 11.1202
46.82538981736788 11.0872
46.849652602470904 11.0856
46.87391761349769 11.1015
46.8981848521493 11.125
46.9226439341274 11.0745
46.946915650573224 11.0331
46.97118959976749 10.9838
46.99546578341598 10.975999999999999
47.019933887188216 10.9519
47.04421456235744 10.9858
47.06849747711879 10.9328
47.09278263318286 10.9469
47.11725978640143 10.9004
47.14154944775105 10.8565
47.165841355555656 10.8089
47.1901355115306 10.8075
47.214621741924994 10.814
47.23892041698887 10.7997
47.26322134538975 10.7104
47.28771440635075 10.7594
47.31201986422527 10.7601
47.33632758061436 10.7034
47.360637557241866 10.7388
47.38513974410611 10.6712
47.40945426407847 10.6379
47.43377104948137 10.5949
47.45809010204344 10.5998
47.48260144275502 10.5768
47.506925052572285 10.5445
47.53125093475548 10.5198
47.55557909103813 10.5343
47.58009961361992 10.5156
47.60443234110732 10.4654
47.62876734791564 10.4923
47.65310463578333 10.4273
47.6776343683373 10.4161
47.7019762413987 10.3894
47.72632040075572 10.3903
47.75066684815169 10.4004
47.77520581885936 10.3629
47.799556865477655 10.3384
47.823910205386 10.2936
47.84826584033272 10.3001
47.87281407745551 10.2739
47.89717432569297 10.298
47.92153687423484 10.2434
47.94609208429692 10.2104
47.97045925671401 10.2272
47.99482873471275 10.1998
48.01920052005013 10.196
48.04376504619224 10.1596
48.068141469543484 10.139
48.09252020552573 10.1492
48.11690125590099 10.0751
48.1414751266064 10.0983
48.16586082917454 10.0884
48.19024885144316 10.0418
48.2146391951793 10.0357
48.239222439012764 10.0385
48.26361744916137 10.0248
48.28801478610016 10.0181
48.31241445160131 9.98811
48.337007097209366 9.937610000000001
48.36141144338331 9.96808
48.38581812345755 9.91925
48.41022713920929 9.91128
48.434829215320704 9.8624
48.45924292604658 9.87415
48.48365897780325 9.87894
48.50807737237308 9.858410000000001
48.532688907799276 9.79097
48.55711201168574 9.79486
48.581537463754074 9.74923
48.60615611725119 9.73598
48.63058628942721 9.723289999999999
48.65501881516546 9.760639999999999
48.6794536962573 9.671
48.70408185970339 9.69469
48.72852147531801 9.62796
48.75296345168211 9.6084
48.77740779059232 9.61555
48.80204549302823 9.610380000000001
48.82649458091802 9.59954
48.85094603676547 9.582510000000001
48.87539986237231 9.57725
48.90004713292306 9.55273
48.92450572200832 9.5472
48.94896668628025 9.49037
48.97343002754588 9.45294
48.99808689542115 9.47545
49.02255501470614 9.45015
49.04702551642794 9.41156
49.0714984023988 9.415980000000001
49.096164896893235 9.3892
49.120642575466796 9.36669
49.145122643748394 9.3408
49.16960510355558 9.30954
49.19428125404938 9.31921
49.2187685210852 9.30109
49.243258185121555 9.29814
49.26794160167084 9.2683
49.2924360839405 9.2264
49.31693296869764 9.20478
49.34143225776915 9.2104
49.36612538195438 9.15725
49.39062950396021 9.15403
49.41513603578346 9.136560000000001
49.4396449792564 9.15377
49.46434784069503 9.17094
49.488861631846454 9.13246
49.513377840166804 9.09724
49.537896467493745 9.0183
49.56260909589029 9.03396
49.587132585683285 9.04579
49.611658500018365 9.02357
49.636186840738596 8.991430000000001
49.66090926588511 9.000119999999999
49.685442483902584 8.94684
49.70997813385706 8.91947
49.734516217597076 8.94389
49.75924846937352 8.93855
49.7837914452858 8.891169999999999
49.80833686055187 8.864289999999999
49.83288471702571 8.875739999999999
49.85762682540054 8.85407
49.882179588965734 8.79567
49.9067347993235 8.799489999999999
49.93129245833333 8.79143
49.95604445336378 8.77444
49.98060703442832 8.776110000000001
50.005172069746266 8.75452
50.02993150438364 8.711160000000001
50.05450147301533 8.708210000000001
50.07907390151433 8.72971
50.10364879174981 8.65323
50.12841816587289 8.64715
50.1529980044635 8.63942
50.17758031042124 8.62079
50.20216508562089 8.64655
50.22694442953363 8.58918
50.25153416817468 8.598360000000001
50.27612638170508 8.57514
50.300721072005196 8.524289999999999
50.325510416102105 8.518239999999999
50.350110084975064 8.53559
50.37471223628208 8.53797
50.39931687190919 8.46878
50.424116246675766 8.479619999999999
50.44872587605249 8.44082
50.47333799543065 8.4557
50.49795260670191 8.38836
50.52276204271512 8.347719999999999
50.54738166295838 8.38486
50.57200378079314 8.36134
50.596628398116835 8.361089999999999
50.62144792604559 8.33929
50.646077567609396 8.33795
50.670709714377715 8.31587
50.69553683636198 8.27842
50.72017401885922 8.2532
50.7448137122895 8.25043
50.76945591856022 8.23617
50.79429318636823 8.23208
50.818940443716784 8.22908
50.84359021965163 8.209019999999999
50.868242516085964 8.20311
50.893089960641895 8.15983
50.917747323549435 8.15072
50.94240721271973 8.162189999999999
50.96706963007175 8.097380000000001
50.99192728239342 8.102780000000001
51.01659478166073 8.11083
51.04126481489051 8.107280000000001
51.06593738400761 8.08933
51.090805275207074 8.06
51.11548294172845 8.03779
51.14016314993547 7.97847
51.164845901758845 7.97646
51.18972406304274 7.964230000000001
51.21441192780656 7.974880000000001
51.23910234200271 7.954960000000001
51.2637953075678 7.92315
51.288683770237945 7.91677
51.31338186432707 7.91895
51.33808251561888 7.89277
51.362978729967345 7.83237
51.387684521509755 7.84598
51.41239287610203 7.81602
51.437103795691165 7.810989999999999
51.46201036644977 7.79214
51.486726441956634 7.76432
51.51144508832545 7.750260000000001
51.536166307509156 7.73008
51.56108326624387 7.720219999999999
51.58580965706056 7.687180000000001
51.61053862657523 7.67703
51.635270176746864 7.657039999999999
51.66019755512065 7.66223
51.68493429268881 7.650589999999999
51.70967361681515 7.63403
51.73441552946465 7.61982
51.759353359237934 7.5922600000000005
51.7841004750961 7.55973
51.80885018539685 7.55403
51.833602492111254 7.5510600000000005
51.8585508051424 7.529489999999999
51.883308330926425 7.5149300000000006
51.90806845906181 7.50616
51.932831191525715 7.5002699999999995
51.95779001977161 7.45245
51.98255798721516 7.45045
52.00732856494335 7.429239999999999
52.03229530577543 7.4185300000000005
52.057071130455945 7.377510000000001
52.081849571391054 7.39933
52.106630630568695 7.38945
52.13160794279417 7.3689
52.15639426492067 7.35775
52.18118321127822 7.33053
52.205974783860896 7.2824
52.23096269971011 7.28978
52.255759551287994 7.294160000000001
52.280559035098186 7.26313
52.30536115314103 7.258189999999999
52.33035970494467 7.24605
52.35516711807904 7.23025
52.37997717147198 7.2115100000000005
52.40478986713005 7.22964
52.42979908731974 7.16326
52.454617094216 7.139360000000001
52.47943774942214 7.1437
52.50426105495102 7.12047
52.529280976059844 7.159619999999999
52.554109609024096 7.09421
52.57894089837482 7.09465
52.60377484613117 7.07579
52.62880550079408 7.0788
52.65364479223379 7.03327
52.67848674816189 7.000539999999999
52.70352547971946 7.003639999999999
52.72837279155837 7.00529
52.753222773982785 6.97625
52.778075429022984 6.9754
52.80312495150885 6.979480000000001
52.827982978797436 6.97168
52.85284368481815 6.90181
52.87770707160767 6.95225
52.90276741793998 6.9411
52.92763619336701 6.888160000000001
52.952507655698504 6.876519999999999
52.977381806977576 6.893489999999999
53.00245301017842 6.87315
53.02733256653592 6.843260000000001
53.052214817996074 6.8154
53.077099766608484 6.811210000000001
53.102181859804446 6.761589999999999
53.127072229988265 6.845289999999999
53.15196530349892 6.80052
53.17686108239249 6.711760000000001
53.20195409881522 6.71517
53.22685531582556 6.711110000000001
53.25175924441303 6.6929300000000005
53.27666588664027 6.698930000000001
53.30176985962693 6.668130000000001
53.3266819565689 6.637919999999999
53.35159677336455 6.6357800000000005
53.376514312083096 6.64381
53.40162927507703 6.62484
53.42655228516116 6.59576
53.45147802340193 6.603160000000001
53.47660125628886 6.57207
53.50153247842639 6.564830000000001
53.52646643496923 6.53782
53.55140312799818 6.54289
53.576537409691696 6.50232
53.60147960336152 6.48778
53.626424539786164 6.52203
53.65137222105307 6.47545
53.67651758529126 6.46582
53.70147078399681 6.4269300000000005
53.72642673383343 6.40011
53.75138543689533 6.4336199999999995
53.776541917524526 6.40965
53.801506154876755 6.41611
53.826473151763246 6.40095
53.851442910284916 6.367319999999999
53.87661054126026 6.3440199999999995
53.9015858509782 6.3378
53.92656392866066 6.30455
53.95154477641532 6.31041
53.976723591801296 6.3368
54.00171000771266 6.27779
54.02669920004598 6.2681
54.051691170915745 6.23525
54.076881204886796 6.29024
54.101878760928514 6.24955
54.12687910187696 6.218380000000001
54.152077577768296 6.188359999999999
54.1770835166946 6.1517
54.20209224691339 6.16309
54.22710377055121 6.14729
54.25231352511594 6.13467
54.27733066384342 6.09105
54.30235060239643 6.11017
54.32737334290836 6.09544
54.35259441062629 6.07453
54.377622783395324 6.03977
54.40265396455061 6.048019999999999
54.42768795623251 6.0309099999999995
54.45292037169559 6.0256300000000005
54.477960012857906 5.9640699999999995
54.50300247099511 5.96109
54.52804774825457 5.9368
54.55329154616743 5.92733
54.57834249018678 5.93534
54.6033962597977 5.8831
54.6284528571545 5.8341
54.653708072335164 5.78432
54.67877035378786 5.817130000000001
54.70383546947698 5.84545
54.72890342156389 5.7563
54.7541700889442 5.7484
54.77924374251975 5.713830000000001
54.8043202390049 5.71819
54.82959552413022 5.71816
54.8546777351945 5.7121900000000005
54.87976279569621 5.7161599999999995
54.90485070780914 5.65987
54.930137506558005 5.60619
54.95523115074295 5.62816
54.98032765308844 5.57212
55.005427015775496 5.58106
55.03072536339621 5.59589
55.05583047570572 5.54882
55.080938454927676 5.49797
55.10604930325027 5.48299
55.131359235107396 5.49596
55.15647585066083 5.44299
55.181595341907496 5.45367
55.20671771104285 5.40151
55.232039262617704 5.37361
55.25716741665048 5.375369999999999
55.28229845518636 5.37219
55.30743238042802 5.31646
55.33276558731939 5.30165
55.357905315183636 5.26671
55.383047936390035 5.22952
55.40819345314859 5.20971
55.433538351073295 5.20587
55.458689688238415 5.16378
55.483843927614096 5.15412
55.509197623043605 5.13211
55.53435769621134 5.141290000000001
55.55952067826466 5.0158
55.5846865714265 5.00058
55.61005202069737 5.09145
55.63522376553902 5.05492
55.66039842818645 4.95667
55.68557601087004 4.932230000000001
55.7109532500271 4.84436
55.73613670233794 4.88128
