TT I
1.2716486653135266 7.46195
1.2939594142134223 7.17483
1.3162702121660406 6.62056
1.3385810600174564 6.95804
1.3608919586137629 6.9184399999999995
1.383202908801069 6.17434
1.405513911425503 5.5031300000000005
1.4278249673332093 6.394769999999999
1.4501343378461518 5.55816
1.4724455028545926 5.4450199999999995
1.4947567236847858 5.89562
1.517068001182951 5.90666
1.5393793361953272 5.81013
1.5616907295681737 5.29216
1.5840021821477681 5.2812
1.60631369478041 5.58979
1.6286252683124185 5.401009999999999
1.6509369035901333 4.99057
1.6732468618895553 5.01473
1.695558623192809 4.36644
1.7178704487808514 4.5634
1.7401823395001077 4.68507
1.7625012545597203 4.44996
1.7848028405262486 4.68746
1.8071218901122095 4.45032
1.8294236121921872 4.21018
1.8517427996910911 4.940180000000001
1.8740620574440425 4.78733
1.8963639900671978 4.52372
1.9186833908139995 4.39446
1.9409854680117449 4.33904
1.9633050151394713 4.67542
1.9856246367570705 4.90952
2.0079269371922672 4.894419999999999
2.03024671027244 4.11205
2.0525491637446027 4.279719999999999
2.074869091674931 4.63561
2.097171701569106 4.56377
2.1194917877373847 4.80278
2.141811954326636 4.89084
2.164114805233074 4.123
2.186435135143035 4.9591
2.208738150935709 5.68841
2.231058647554722 6.8781
2.2533792288321184 7.02108
2.275682498336085 5.26168
2.298003251406138 4.96804
2.3203066942619714 5.5429
2.3426276225136022 5.350169999999999
2.3649486396617507 5.80502
2.387252348930071 6.1822
2.4095735463442893 5.80689
2.4318774374315884 5.93705
2.4541988185014043 6.982239999999999
2.476502894794693 7.19643
2.498824462909887 7.188460000000001
2.521146125856138 7.564019999999999
2.5434504863470337 7.74091
2.5657723414244717 8.074819999999999
2.588076895590662 9.16739
2.610398946189713 8.36115
2.6327210958598384 7.4454199999999995
2.6550259469304716 8.19103
2.6773482972090137 8.79678
2.6996533504259 8.81155
2.7219759047039602 8.67964
2.744298562293959 7.74302
2.7666039251246595 9.068710000000001
2.7889267918020164 8.59398
2.8112323652516555 9.00157
2.833555444408179 8.51409
2.8558786311183852 8.215010000000001
2.8781845268938557 9.10815
2.9005079311721484 9.19557
2.9228140460410397 9.15592
2.9451376712799635 8.90385
2.967444008632326 9.15691
2.9897678582247247 9.96128
3.0120918213106695 10.1396
3.0343984987899373 10.7428
3.0567226913198637 11.2824
3.079029599759726 11.7501
3.101354025127254 12.2254
3.123678568232338 12.7123
3.145985829517914 13.3255
3.16831061055229 13.162
3.1906181112775593 13.9766
3.212943133635653 14.6789
3.2352682779763207 15.1889
3.2575761442691227 15.0749
3.2799015350264273 15.4447
3.302209649240067 16.1814
3.3245352898092655 16.2417
3.3468436553365257 16.6918
3.369169549113219 16.8978
3.3914955708171384 18.313
3.413804319727358 18.4051
3.4361305997334863 18.2122
3.4584396084414553 18.9744
3.4807661501462652 19.3133
3.503092824025881 19.8312
3.5254022288463154 20.6363
3.5477291695206588 21.0548
3.5700388426251948 21.5598
3.5923660534916446 21.779
3.6146934007816114 23.7236
3.637003482731501 28.2463
3.6593311053109985 29.8725
3.681641464033634 26.4804
3.7039693653009733 24.171999999999997
3.726297407241705 24.5212
3.7486081875460804 24.5315
3.7709365132734978 25.2577
3.793247578841633 25.7944
3.8155761917550093 26.138
3.8378875459837216 26.6739
3.8602164494827234 26.6966
3.882545499606844 27.8906
3.9048572932539183 28.2295
3.9271866390645718 28.5902
3.9494987298666713 29.079
3.971828374764527 29.6536
3.9941581705403255 30.1596
4.016470713506008 30.4734
4.038800813471445 31.4384
4.061113662089144 31.5928
4.0834440696459176 32.3523
4.105774632334751 32.7234
4.128087945865126 33.5742
4.150418821249301 33.8999
4.172732448931298 35.0431
4.195063640413578 36.1424
4.2173775856475215 36.7066
4.239709096631102 40.0142
4.262040768704612 54.5046
4.284355196706267 63.9778
4.306687193387355 55.4378
4.329001947444346 44.193999999999996
4.35133427213731 41.6716
4.373666762177566 41.7307
4.395982011761091 42.1312
4.418314834921175 42.9838
4.44063041906622 45.4104
4.4629635787515625 46.912
4.4852969080429785 48.0801
4.5076130004776225 50.3964
4.529946671403969 55.2884
4.552263106909177 57.6476
4.574597122877047 55.6398
4.596931312711224 53.1762
4.619248269273446 53.1357
4.6415828092605835 53.9573
4.663900117405352 54.6463
4.686235010953232 56.6044
4.708552674085913 57.898999999999994
4.730887924602802 58.9284
4.753223354952695 60.9092
4.775541557023902 63.6318
4.797877349456786 66.6242
4.820195915032126 67.3838
4.842532072957498 67.9471
4.864868414979744 70.2712
4.88718753227192 74.4859
4.909524244902505 75.6809
4.931843734218147 75.5848
4.954180820867835 77.4856
4.976518095879839 80.0172
4.998838149695359 82.5023
5.021175803844231 86.4244
5.043496238205739 89.6702
5.065834274903528 93.2421
5.088172504230693 97.5493
5.1104935158799565 103.48
5.132832132875765 115.851
5.155153533596801 134.702
5.1774925416746225 175.583
5.199814334878411 372.288
5.2221537374521505 992.8510000000001
5.244493338631803 2820.54
5.266815727034316 8103.1
5.289155727832427 13700.4
5.311478517248165 8334.06
5.333818921080011 2206.74
5.356159527788849 409.083
5.3784829252032536 176.532
5.400823940070432 143.341
5.423147747031976 124.7
5.445489173474152 116.598
5.467830807066149 116.75299999999999
5.490155234831516 116.698
5.512497285125229 110.15299999999999
5.534822130975162 104.473
5.557164601388673 100.369
5.579489868738879 97.7149
5.601832762690846 96.1782
5.6241758697774475 95.2169
5.646501775867269 94.824
5.668845311622074 94.3019
5.691171647754637 93.0618
5.713515615597765 92.0689
5.735859800852677 91.8325
5.758186788542988 93.4233
5.780531411018185 97.2423
5.802858837297399 96.3256
5.825203900414495 96.2507
5.8475491852224 98.2482
5.869877275883075 97.3671
5.892223006467101 94.5149
5.914551544266608 93.5523
5.936897724049891 96.1553
5.959244129804903 103.37
5.981573344815301 131.764
6.0039202049061 238.965
6.026249875609095 471.098
6.04859719346037 958.41
6.070927323278297 2229.72
6.093275102315365 4828.71
6.115623113320588 5637.89
6.137953938319995 3009.46
6.160302415650845 816.2189999999999
6.182633708324452 191.495
6.2049826554078376 101.948
6.227331838745022 86.2529
6.249663839443684 80.8411
6.27201349767565 77.5877
6.294345974611799 75.7261
6.316696111167083 75.4428
6.339046488263839 73.6524
6.361379686074702 70.8768
6.383730546639482 69.17
6.406064229255215 68.9723
6.428415576718203 69.4879
6.450749747566656 68.2764
6.47310158535871 66.0187
6.495453669698332 64.0844
6.517788579421056 63.176
6.540141159237969 62.3479
6.562476565766648 61.6515
6.5848296444934045 61.6632
6.607182974060425 61.8808
6.6295191323281015 61.2584
6.651872965955752 60.3583
6.6742096296068985 61.1003
6.6965639707294615 65.3472
6.71891856698715 65.5325
6.741255995248479 61.1346
6.763611104154477 58.1336
6.785949046381137 57.3383
6.808304671371482 57.8231
6.8306605557940046 58.6705
6.852999275508618 58.0656
6.875355681171544 56.6691
6.897694923437771 55.428999999999995
6.92005185377892 55.2107
6.9423916220322655 55.0151
6.964749080490181 54.3204
6.987106804399774 54.3947
7.009447368180821 54.8831
7.031805625367033 54.8108
7.054146723727803 54.4559
7.076505517631004 53.9458
7.098864581288365 53.7703
7.121206488070854 53.5762
7.143566093607822 54.3822
7.165908543567245 55.0585
7.188268694426048 54.8892
7.2106291193438095 53.7912
7.232972390625943 53.2651
7.255333366030969 53.7662
7.277677189091925 58.003
7.300038718428332 63.2363
7.322400526130865 61.2535
7.344745183422596 56.0606
7.367107550224791 53.6171
7.389452767901992 53.095
7.411815697249891 52.9232
7.434161478756298 52.7373
7.456524974096713 52.8355
7.478888753837185 52.8469
7.501235387657368 53.2579
7.523599738562711 53.6193
7.545946944825532 54.0591
7.568311870344528 54.8876
7.5906770845765665 53.9455
7.613025156078678 54.3326
7.635390950099687 54.5193
7.657739602662809 54.2928
7.680105979923558 54.7592
7.702472650212829 55.9615
7.724822180948224 55.9777
7.747189439655568 55.18
7.769539560075357 54.8989
7.791907410653562 55.5513
7.81425812420825 55.5933
7.836626570110925 55.9949
7.858995315087906 56.5704
7.881346924933401 56.8632
7.903716270417482 57.233999999999995
7.926068482028405 57.7
7.948438431475253 58.0662
7.9708086843180235 58.7961
7.993161805171116 59.6239
8.015532667162402 60.051
8.037886398416653 61.3238
8.060257873014221 61.9538
8.082629655331942 62.4588
8.104984308787587 63.1561
8.127356708900503 64.5641
8.149711981398308 67.2439
8.172085002766314 68.9394
8.194458336181368 68.1195
8.216814543847752 67.6878
8.23918850371002 68.2306
8.26154533906492 69.1777
8.283919928836452 70.5805
8.306277395339652 71.7298
8.328652618483376 73.1795
8.351028159736202 75.1278
8.373386579575245 77.7012
8.395762759396959 79.139
8.418121819038275 81.5917
8.440498640894003 86.3449
8.462875785192262 95.81
8.485235811156207 122.992
8.507613602688501 178.02
8.529974277114228 265.344
8.552352719347912 395.616
8.574731488360351 661.51
8.59709314210385 1247.73
8.619472567021075 2030.02
8.64183487789147 2388.04
8.664214962183097 1746.21
8.686577933647762 812.2080000000001
8.708958680784317 307.689
8.731339760774953 140.628
8.753703729764451 102.93799999999999
8.77608547780821 95.3293
8.798450116065078 92.6637
8.820832535634787 90.6065
8.843215292401656 91.2726
8.865580941199045 90.7454
8.887964374703538 90.1821
8.910330701447199 89.8418
8.932714815164482 88.9578
8.955099270424924 86.3372
8.977466620733543 84.7145
8.999851761421976 83.7656
9.022219798361645 83.198
9.04460562795561 83.1292
9.066991803441677 83.0689
9.089360876979615 83.30799999999999
9.111747746589993 83.3052
9.13411751544971 82.2225
9.156505082664324 81.7306
9.178875550323522 81.3796
9.20126381862328 80.9242
9.223652438908596 81.5182
9.246023961427412 82.3139
9.26841328802173 82.5105
9.290785518039224 82.3054
9.313175554425882 83.7414
9.335565947154315 85.2112
9.357939245086508 85.6337
9.380330352834827 84.4283
9.40270436697103 84.3452
9.425096193225055 83.3869
9.447488380180165 83.964
9.469863475295412 83.5707
9.492256385987508 83.6046
9.514632206018318 84.3735
9.537025843935714 84.8136
9.559402392368193 86.1265
9.581796761000229 88.4561
9.604191496441521 90.1927
9.626569144158516 92.346
9.648964615551032 92.3563
9.671343000390081 91.565
9.693739211225699 90.8535
9.716135793237463 91.0961
9.738515290448102 91.95700000000001
9.760912617143402 93.8021
9.783292860202891 96.0958
9.805690935076182 97.4464
9.828089385495742 98.5409
9.850470754023561 99.4834
9.872869957865444 101.291
9.89525208097539 105.18799999999999
9.917652041736662 110.13799999999999
9.940052382417589 120.863
9.962435644102392 149.703
9.984836746950979 191.72
10.007220771957746 254.595
10.029622640473708 359.33099999999996
10.052007432299963 536.495
10.074410069984072 844.8939999999999
10.096813093716005 1352.52
10.119199042482517 1893.58
10.141602840636468 2099.23
10.163989564971628 1473.16
10.186394141051062 722.039
10.208799107559706 294.586
10.231187001965623 153.18200000000002
10.253592751657669 116.13600000000001
10.275981430388155 108.171
10.298387966769793 105.33200000000001
10.320794897965431 104.583
10.343184759907361 103.42
10.36559248305461 102.20100000000001
10.387983138083852 103.589
10.410391656691655 110.71
10.432800574501677 122.58
10.455192425893369 138.722
10.47760214443012 165.028
10.499994797678786 211.28799999999998
10.522405320453982 298.20799999999997
10.54479877906917 421.51199999999994
10.567210109595656 557.511
10.5896218454736 598.766
10.612016518879773 467.13199999999995
10.634429067781074 287.44
10.656824555333241 188.71
10.679237920773568 115.617
10.701651695961992 93.7984
10.724048411481384 87.6299
10.746463008485165 84.3665
10.768860546937125 83.3457
10.791275969274796 81.9645
10.81369180576079 81.0087
10.836090585366925 79.843
10.858507252467449 78.6031
10.88090686379991 78.0187
10.903324365036394 77.1856
10.925724811614439 76.3427
10.948143150509463 76.4059
10.970561909719066 75.9101
10.992963615930844 75.1192
11.015383218085756 73.8554
11.037785768347074 72.4137
11.06020621697282 71.7836
11.082627090322113 71.3322
11.105030913430326 70.3919
11.12745263854165 69.9548
11.149857314510728 69.0836
11.172279894912576 69.8392
11.194702904450653 69.2249
11.217108866490921 68.328
11.239532736615194 67.2923
11.26193956033512 66.9749
11.284364294577085 66.6622
11.306789462371718 65.8698
11.329197585398376 65.6746
11.351623622610898 65.6216
11.37403261614354 64.9707
11.396459526308487 64.8645
11.418869393879497 64.4508
11.441297180532617 64.3197
11.463725406927658 63.6939
11.486136592353875 63.4206
11.508565700543707 63.3897
11.530977768845315 63.2769
11.553407762368774 62.985
11.575838200059769 62.9126
11.598251599479612 62.5507
11.620682927815501 62.1869
11.64309721895548 62.3704
11.665529441478206 62.0328
11.687962112597958 61.5742
11.710377748130886 61.8131
11.732811318753434 62.0088
11.755227854859067 61.5629
11.777662328529495 61.5617
11.800079768750786 61.571999999999996
11.822515149015453 61.56399999999999
11.844950984084935 62.0639
11.867369787303163 61.3127
11.889806534289491 61.3679
11.912226250487029 61.7882
11.934663912939751 62.2638
11.9571020346363 62.4883
11.979523127133968 62.6523
12.001962169624331 63.8262
12.024384183972964 65.4966
12.046824150809913 68.7125
12.069264581333726 73.041
12.091687985297767 79.2425
12.11412934550045 88.5659
12.136553680195208 103.744
12.158995973632788 125.689
12.181438735204349 157.252
12.20386447284199 190.25400000000002
12.226308172985636 205.351
12.24873485024193 194.21200000000002
12.271179492516982 151.352
12.293607112949127 109.758
12.316052700916226 82.3711
12.338498763250042 68.7946
12.360927805303868 64.1133
12.383374818673879 63.2226
12.405804812803074 62.5391
12.428252780773262 62.6514
12.45070122756722 62.9028
12.473132656675375 62.8906
12.49558206341869 63.5508
12.518014453510101 63.9963
12.540464823770117 64.1854
12.562915677315177 63.7228
12.58534951575545 63.8443
12.607801338171472 63.8026
12.630236146511358 64.6524
12.652688941369085 65.4032
12.675124723177234 65.7486
12.697578494048786 66.2261
12.720032754458185 65.7663
12.742470003354093 66.0101
12.764925245138771 66.4661
12.787363476431278 67.0593
12.809819703166806 67.4027
12.83227642391173 68.0265
12.854716135692716 68.7511
12.877173846755147 69.9098
12.899614549869717 70.411
12.9220732548287 71.4401
12.94453245827299 72.0697
12.966974655289818 73.1274
12.989434858002571 73.7126
13.011878055298721 74.2029
13.034339260862497 75.3987
13.056800969391883 76.9541
13.079245674017244 79.9881
13.101708390774869 84.5145
13.12415410463411 92.712
13.146617833206086 102.24600000000001
13.169064559883248 113.227
13.191529303857127 128.064
13.213994557076367 151.59799999999998
13.236442809902437 190.11900000000003
13.258909083908291 249.842
13.28135835851934 327.84
13.30382565690295 401.463
13.326293469022952 453.664
13.348744283242008 418.528
13.371213125129904 319.245
13.39366497011003 217.581
13.416134845360597 145.565
13.438605238843131 112.181
13.46105863690397 103.45200000000001
13.483530069144786 105.70700000000001
13.505984506951902 111.904
13.528456981549432 122.32700000000001
13.550929978879088 138.314
13.573385983253365 162.791
13.595860028340867 203.208
13.618317081455832 260.54
13.64079217790333 327.865
13.663250283359057 385.841
13.685726434770173 386.86699999999996
13.708203115221277 326.633
13.730662806148091 238.958
13.75314054697177 162.08700000000002
13.775601299246777 113.59700000000001
13.798080104050406 90.7575
13.820559442405358 82.5422
13.843021793671388 79.7938
13.865502201420897 78.3791
13.887965623051947 78.3837
13.910447103807167 77.4979
13.932929122629764 76.0696
13.955394156785959 75.747
13.977877254034569 74.835
14.000343367582113 73.6973
14.022827546871707 73.1502
14.045294743423524 72.6429
14.06778000837062 72.0231
14.090265817715476 71.9409
14.112734645763819 71.312
14.13522154619454 70.9758
14.157691466286913 70.718
14.180179461423874 70.6523
14.202668005486178 70.3231
14.22513957064374 69.8071
14.247629214846473 69.1818
14.270101881097517 68.9341
14.29259262906496 68.5408
14.315083930490205 69.0141
14.337558255389705 68.4545
14.360050666019726 68.4391
14.382526101071944 68.2974
14.405019624534942 68.0956
14.427513705993134 67.9363
14.449990813291825 68.0561
14.47248601302899 67.7161
14.49496423954951 67.9399
14.517460561197822 67.8177
14.539939910570322 67.5946
14.562437357763558 67.9115
14.58493536931253 68.1544
14.607416409993311 68.3953
14.62991555254159 68.5821
14.652397725157423 68.8977
14.674898002342799 69.3167
14.697398848433282 69.7252
14.719882725991326 71.343
14.74238471217934 73.4385
14.764869730765593 76.5137
14.787372860692983 79.4606
14.809876564079925 84.0177
14.83236330125751 89.7585
14.854868153850365 98.6476
14.877356041159485 113.387
14.899862046604186 132.40200000000002
14.922351087688757 159.474
14.944858249632887 193.05700000000002
14.967365991421232 221.885
14.989856770231246 232.908
15.012365673994204 215.11700000000002
15.03485761569738 174.967
15.05736768508665 131.664
15.07987833888692 100.45
15.102372032001655 82.4
15.124883856909658 73.2973
15.14737872204565 70.1679
15.169891721717274 69.0988
15.192405310371893 68.6894
15.214901940621196 68.2011
15.237416709527137 67.8215
15.259914520936249 67.5363
15.282430473753607 67.132
15.304947020131227 66.4803
15.327446610371178 66.4132
15.349964346154254 65.7464
15.372465126703139 65.6891
15.394984055556009 65.5787
15.417486030076159 65.2614
15.44000615566487 64.8807
15.462526881230803 64.641
15.485030653812652 64.7972
15.507552581617434 64.6723
15.530057557334603 64.7553
15.55258069104857 64.9394
15.575104429329837 65.2309
15.597611216864632 65.3712
15.620136166564563 65.8792
15.6426441664095 67.7914
15.665170331202765 69.8974
15.687697105158826 72.5088
15.710206930593545 75.937
15.732734925158933 80.4323
15.755245972089478 86.9679
15.77777519094324 96.2035
15.800287463046663 109.568
15.822817909869592 130.061
15.84534897229804 152.64600000000002
15.867863089299354 180.61900000000003
15.890395385222186 198.704
15.912910736597423 196.03799999999998
15.935444269699861 175.12900000000002
15.957978423016485 138.69799999999998
15.980495633101265 107.883
16.003031029129367 84.669
16.02554948280019 70.5243
16.048086125229432 64.197
16.070623392487107 62.2694
16.09314371869582 60.9737
16.11568223789321 60.17100000000001
16.13820381691126 59.8048
16.160743591742527 59.4177
16.183283996022084 59.0949
16.205807461423195 58.2401
16.228349126881973 57.5974
16.25087385432698 57.6863
16.27341678466365 56.9376
16.29594277784926 56.8873
16.31848697676433 56.6234
16.341031811604868 56.1703
16.36355971058487 55.9934
16.3861058195587 55.7949
16.40863499352978 55.1236
16.431182380342005 55.0378
16.453730407713202 54.9802
16.476261501364792 54.5722
16.498810812136167 54.6368
16.52134319004079 54.5473
16.54389378792203 54.3226
16.566445031001553 54.2033
16.588979342490088 54.1752
16.61153187824822 54.0946
16.634067483263312 53.912
16.656621315414416 53.9281
16.679175797408888 53.4124
16.701713349928728 53.3552
16.72426913389191 53.6928
16.74680798922351 53.8272
16.76936507887444 53.4536
16.791905240734874 53.5842
16.814463639794468 53.6061
16.837022695210294 53.7656
16.859564824093756 53.9034
16.882125194503903 53.9098
16.904668639217885 54.2735
16.927230328348003 54.0438
16.949792678493612 54.102
16.972338104193863 54.1367
16.994901778652235 54.2289
17.017448529496576 54.5391
17.040013531998152 55.2853
17.06257920018044 55.8578
17.0851279459922 56.5145
17.107694947817667 57.2946
17.130245028099072 57.9383
17.15281336730298 59.2098
17.17536478578733 60.9133
17.19793446610687 63.1137
17.220504818648422 66.3504
17.243058251703697 70.25
17.265629950971032 75.3885
17.288184731571736 80.4752
17.310757781306908 83.9902
17.33333150794385 82.3518
17.355888317140174 79.3233
17.37846339986244 72.9934
17.401021565958885 66.999
17.42359800851343 62.515
17.44617513265564 59.8141
17.468735341390783 58.747
17.491261035594565 58.2293
17.51396340099364 58.0292
17.536490463869136 58.1917
17.559018209820174 58.0481
17.58154663977963 58.2753
17.604251766089718 58.4589
17.626781572227713 58.7165
17.64931206518155 58.9
17.671843245885103 58.9442
17.69455114821572 59.1785
17.717083712612634 59.497
17.739616967569667 59.9638
17.762150914021706 60.4122
17.78486160749854 60.5761
17.807396945166804 61.748999999999995
17.829932977143503 63.1241
17.85246970436452 64.5478
17.875183204129467 66.0669
17.897721330097664 67.8723
17.920260154126645 70.4031
17.942799677153296 73.531
17.9655159983646 77.5361
17.988056927677544 82.9678
18.010598558807683 90.84700000000001
18.033140892692916 101.542
18.05586005052525 114.089
18.07840379824407 127.588
18.10094825154059 138.053
18.12366954819864 142.826
18.146215420998306 137.023
18.16876200220057 124.012
18.191309292745153 107.999
18.214033452627167 94.795
18.236582170236648 85.9456
18.259131600016456 83.2335
18.281681742907335 84.9905
18.304408781233683 90.5623
18.32696035875955 97.2745
18.349512652227624 102.55799999999999
18.372065662579683 106.70100000000001
18.394795594587553 104.92299999999999
18.41735004715306 98.2088
18.43990521943684 89.1375
18.46246111238171 80.179
18.485193953325208 71.8699
18.507751296070428 66.0373
18.530309362314178 63.2877
18.552868153000343 61.9065
18.57560391815056 60.8223
18.59816416623245 60.4834
18.620725141597372 60.0437
18.643286845190268 59.4833
18.666025549835414 59.3284
18.688588718427933 58.659
18.711152618092243 58.51
18.73389353884365 58.3508
18.75645890921984 58.03
18.77902501351406 57.4443
18.801591852673102 57.5791
18.824335739722738 57.0688
18.846904057212626 57.1233
18.8694731124168 56.867
18.89204290628315 56.8764
18.914789774966803 56.6894
18.937361054791623 56.3618
18.959933076131318 55.9783
18.982505839934877 56.0706
19.00525570560582 55.9264
19.027829963004184 55.733999999999995
19.05040496572238 56.0803
19.072980714710468 56.0729
19.095733592739563 56.3823
19.11831084296757 56.3069
19.140888842324735 56.6221
19.16346759176222 56.9612
19.18622349753803 57.4718
19.208803755869358 58.3626
19.231384767143577 59.7772
19.253966532312948 61.4631
19.276725481241822 63.7724
19.29930876296784 66.4085
19.3218928014549 69.7653
19.34465404436217 72.417
19.36723960516257 74.9261
19.389825925592426 75.4464
19.412413006605938 72.8059
19.43517731967805 68.5519
19.457765930683355 63.9984
19.48035530514408 59.8071
19.50294544401556 56.7613
19.525712842708348 54.6681
19.54830451925909 53.7519
19.570896963095727 53.2252
19.593490175174704 52.9889
19.616260674962184 52.9279
19.638855432416964 52.8203
19.661450960992624 52.7193
19.68404726164677 52.448
19.706820878021247 52.4123
19.729418731756834 53.0191
19.752017360452857 52.5548
19.77461676506804 52.7807
19.797393513540218 52.9242
19.819994478951667 53.0892
19.84259622316767 53.6342
19.8651987471481 53.853
19.887978643247177 54.1459
19.91058273574792 54.8618
19.933187610901943 55.7132
19.955969879466828 56.7098
19.97857632894404 58.2583
20.00118356396599 60.0843
20.023791585494575 62.611000000000004
20.046577028914875 65.6457
20.069186632506966 68.0527
20.091797025500632 69.8983
20.114408208858933 69.8825
20.137196842715273 68.5566
20.159809615886765 66.3017
20.18242318232135 63.195
20.20503754298326 61.4179
20.227829382875154 60.7809
20.250445341109344 61.1354
20.27306209647285 62.4383
20.29567964993108 64.1919
20.31847471147704 65.1436
20.34109387027612 65.5401
20.363713830075454 64.4179
20.386334591841646 61.9856
20.409132890679302 58.7985
20.431755265564437 55.6895
20.454378445325528 53.1774
20.477002430930366 51.5487
20.499803982716553 50.6256
20.522429589228004 50.1363
20.54505600449589 49.4474
20.567683229489194 49.5674
20.590488049900088 49.292
20.61311690359731 49.1928
20.63574656993626 49.0092
20.658553853717297 48.7998
20.681185154618298 48.702
20.703817271080066 48.6757
20.72645020407368 48.3006
20.749260783967177 48.1898
20.771895359337133 48.1198
20.794530754161617 48.1514
20.817166969412938 48.0702
20.83998086114876 47.9542
20.86261872660049 47.9435
20.885257415405402 47.9467
20.90789692853701 47.8328
20.930714147864748 47.9296
20.953355319030678 48.0638
20.97599731745334 47.8758
20.99864014410749 47.7761
21.021460706796564 47.8153
21.044105199328826 48.0218
21.06675052302631 48.2482
21.089396678865015 48.4192
21.112220600704806 48.5695
21.134868430275347 48.9593
21.15751709492456 49.4358
21.180166595629693 49.6455
21.202993892429635 50.3792
21.22564507473034 50.6408
21.24829709602816 50.6858
21.27112693608965 50.6045
21.293780644891275 50.5478
21.316435195634053 49.7713
21.339090589297417 48.9862
21.361923832041875 48.486000000000004
21.384580921090404 48.0015
21.407238856007325 47.52
21.429897637773326 47.4607
21.45273429906592 47.6638
21.475394784108598 47.701
21.498056118951983 47.6408
21.520718304578022 47.9436
21.543558400304388 47.9325
21.566222297108816 48.2043
21.58888704765135 48.3367
21.61155265291521 48.6573
21.63439619898156 48.9794
21.657063523335786 49.2298
21.67973170537063 49.7033
21.7024007460706 50.361999999999995
21.72524775840385 50.9343
21.747918526116475 52.0188
21.770590155457388 53.3673
21.79326264741238 55.2114
21.816113141960237 56.8963
21.838787368860547 59.0638
21.861462461341976 61.2443
21.884315579735777 63.5503
21.90699241312273 64.3732
21.92967011506078 64.2263
21.95234868653799 62.7819
21.9752053151131 60.8903
21.997885635446785 58.6609
22.020566828293532 57.0007
22.04324889464272 55.6712
22.066109049404666 55.1497
22.088792872571794 55.2072
22.111477572219204 55.4642
22.1341631493376 55.6356
22.157026846313123 54.998999999999995
22.179714188221507 53.9668
22.202402410582668 52.5479
22.22509151438863 51.0177
22.24795876962584 49.8804
22.270649646204486 49.0749
22.293341407213727 48.4666
22.316034053646906 48.2098
22.338904883215342 48.1159
22.36159931041458 48.0594
22.38429462602756 47.9409
22.40699083104897 47.6016
22.429865251039757 47.7364
22.452563244831367 47.7358
22.47526213102522 47.8092
22.49813925616515 47.7139
22.520839937143307 47.62
22.543541513520587 47.7726
22.56624398629403 47.7221
22.589124730075895 47.7368
22.611829005656723 47.9711
22.63453418063466 47.8687
22.657240256008077 48.1812
22.680124634582935 48.3338
22.70283252079775 48.5836
22.725541310413075 48.7537
22.74825100442868 49.0144
22.771139033969575 49.4957
22.79385054687155 49.9832
22.81656296718292 50.5566
22.83927629590484 51.4136
22.862167992606945 52.5155
22.88488314827121 53.7836
22.907599215359284 54.9363
22.93031619487366 56.2061
22.953211574954405 57.1328
22.975930389478226 57.475
22.998650119445763 57.1755
23.02137076586092 55.8331
23.044269845560063 54.1493
23.06699233506288 52.51
23.089715744034912 50.7657
23.112617610931565 49.3397
23.135342869061212 48.6376
23.158069049684816 48.1192
23.1807961538087 47.8663
23.20370174880544 47.8532
23.226430710184808 48.0897
23.249160598093425 48.1061
23.271891413539002 48.1369
23.294800752937697 48.0352
23.31753343374794 48.3962
23.340267045128353 48.4186
23.36300158808808 48.655
23.38591468821339 48.9808
23.408651104658304 49.4923
23.431388455719986 50.1911
23.454126742409 51.1832
23.4770436196085 52.343
23.499783787914662 53.6646
23.522524894889884 54.9513
23.54526694154616 56.1118
23.56818761219047 57.3314
23.59093154860734 57.6232
23.613676427751283 57.4455
23.636422250635754 55.8807
23.659346731118656 53.6639
23.68209445191868 51.6629
23.704843119509587 49.6125
23.72759273490623 47.7944
23.750521041644767 46.7748
23.77327256312355 46.1146
23.796025035462787 45.6704
23.818956224555475 45.2027
23.841710609113413 45.1553
23.86446594758979 44.8161
23.887222241002014 44.6596
23.910157285144578 44.3617
23.932915498962537 44.4644
23.955674670778713 44.2806
23.978434801611975 44.0567
24.001373717286125 43.9477
24.024135776723917 43.7156
24.046898798245582 43.6704
24.06966278287146 43.6435
24.092605586582614 43.2746
24.115371508023642 43.248999999999995
24.1381383956401 43.258
24.16090625045381 43.1707
24.183852958731244 43.0852
24.206622758582608 42.8972
24.229393528706886 42.648
24.252165270127392 42.8632
24.27511589952438 42.6976
24.297889594216997 42.67
24.32066426328598 42.5666
24.34343990775613 42.4609
24.36639447485003 42.3202
24.38917208083877 42.3336
24.41195066531332 42.2444
24.43490819850244 42.3752
24.457688750692377 42.0457
24.48047028445616 42.2038
24.503252800821233 42.3224
24.526214300784112 42.4038
24.548998793132213 42.3591
24.57178427117417 42.1543
24.59457073593893 42.2811
24.617536219319863 42.2764
24.64032466834748 42.1645
24.663114107195035 42.0286
24.685904536893013 41.6432
24.708874020360852 41.6586
24.731666442613744 41.5364
24.754459858818787 41.6422
24.777254270007962 41.6619
24.80022777025625 41.4831
24.82302418230472 41.4334
24.845821592443674 41.4906
24.86862000170663 41.5385
24.891597535453727 41.3857
24.914397953892728 41.586999999999996
24.93719937456671 41.4938
24.96000179851076 41.8004
24.98298338249997 41.8728
25.00578782394922 42.0348
25.028593271784167 42.1811
25.05157790644186 42.5662
25.07438537804115 42.8436
25.097193859145293 43.0382
25.120003350792075 43.3213
25.142992065061257 43.7078
25.165803588823465 43.9046
25.18861612625217 43.8735
25.211429678386736 43.778
25.234422489079968 43.797
25.257238081693636 43.9114
25.280054692141732 44.1776
25.3028723214652 44.132
25.325869245420463 44.3975
25.348688923599397 44.2614
25.371509623787006 44.0604
25.394331347025812 43.6235
25.41733240110666 43.0581
25.440156181590016 42.3225
25.46298098826268 41.8368
25.48580682216873 41.2821
25.50881202326435 40.825
25.53163992281684 40.5523
25.55446885274561 40.2809
25.577298814096377 40.2531
25.600308179121807 40.0131
25.623140214533745 40.0429
25.64597328451537 39.9491
25.66898578564376 39.6841
25.691820936010206 39.7181
25.714657124097695 39.7421
25.737494350954734 39.7599
25.760511045684957 39.744
25.783350361364224 39.6883
25.806190718969255 39.8114
25.82903211955018 39.7476
25.852053024868923 39.8403
25.874896522722523 39.827
25.897741066713106 39.8234
25.920586657892454 40.0671
25.943611790812668 40.1617
25.966459487728237 40.3143
25.989308234998564 40.2568
26.01215803367705 40.7005
26.03518741123814 40.9678
26.05803932412957 41.0895
26.080892291600094 41.0488
26.10374631470478 41.0585
26.12677995397268 41.1056
26.14963609978026 40.8866
26.172493304397875 40.4303
26.19535156888223 40.2578
26.218389486949604 39.934
26.241249882640123 39.7544
26.26411134137826 39.4519
26.28715248187403 39.5632
26.31001607820869 39.4738
26.3328807407756 39.1493
26.35574647063438 39.2785
26.37879191991473 39.369
26.401659795896734 39.4479
26.424528742360263 39.5762
26.447398760366614 39.8066
26.470448535598294 39.8676
26.49332070826805 39.9867
26.516193955675355 40.4335
26.53906827888316 40.5904
26.562122397260108 40.8466
26.584998883685063 41.1915
26.607876449110325 41.4328
26.63075509460056 41.646
26.65381357334404 41.7123
26.67669439061878 41.5741
26.699576291163382 41.3137
26.722459276044212 41.071000000000005
26.745522132402975 40.7668
26.768407297649354 40.5215
26.791293550442003 40.3818
26.814180891848974 40.2064
26.837248143099337 39.7549
26.860137673466657 39.7085
26.88302829566349 39.3062
26.90592001075963 39.2255
26.92899167420566 39.1182
26.951885586870763 38.7462
26.974780595655517 38.5505
26.99785558178161 38.4674
27.020752794605112 38.3366
27.043651106772522 38.2154
27.06655051935668 38.1855
27.089629948036183 38.031
27.112531573292053 37.9958
27.135434302194138 38.1569
27.158338135817015 37.9269
27.181422024430987 38.0081
27.204328079372566 37.7876
27.22723524226965 37.9587
27.250143514198573 37.9081
27.273231880156334 38.028
27.296142382065014 37.7416
27.319053996245536 37.6803
27.341966723775965 37.7937
27.365059584515222 37.9377
27.38797455070062 37.9718
27.410890633481237 37.7241
27.433807833936918 37.7176
27.456905206923906 37.864000000000004
27.47982465472398 37.9302
27.502745223449743 37.9656
27.525666914182825 38.0132
27.548768816912457 38.0108
27.571692763693633 37.833
27.59461783573812 37.7911
27.617723149491244 37.5841
27.640650484125285 37.5195
27.66357894728264 37.5342
27.686508540048052 37.4833
27.709618414237887 37.3553
27.732550278321757 37.184
27.755483275279115 37.2961
27.778417406196485 37.2287
27.801531858397514 37.3516
27.824468269376716 37.1894
27.847405817586786 37.2377
27.870344504116094 37.4304
27.893463551932008 37.5104
27.916404527281053 37.7261
27.93934664422563 37.7425
27.962289903855886 37.8152
27.98541356491974 38.0655
28.00835912214229 38.2623
28.03130582533231 38.556
28.054253675581805 38.5859
28.077381967556104 38.3439
28.100332124185126 38.4255
28.123283431160893 38.3201
28.146235889577238 38.099000000000004
28.169368830154156 37.9825
28.192323603752033 37.8756
28.215279532083304 37.4406
28.238415973016764 37.3224
28.261374223145094 37.288000000000004
28.284333631303806 37.0056
28.307294198589954 36.5905
28.330435319167677 36.471
28.353398217078915 36.1655
28.376362277420153 35.9999
28.39932750129032 35.8041
28.422473319286713 35.7487
28.44544088262495 35.8024
28.468409612800283 35.5571
28.491379510913497 35.3709
28.51453004413313 35.4009
28.53750229057244 35.4013
28.56047570826344 35.3007
28.583450298308804 35.2438
28.606605564586562 35.0123
28.629582511831156 35.085
28.65256063474956 35.0261
28.675539934446338 35.0679
28.698699951647605 34.9611
28.72168161743193 34.8343
28.74466446331978 34.8395
28.767648490417624 34.7633
28.790813276438353 34.8161
28.813799678527303 34.7394
28.836787265157085 34.8997
28.859955641890075 34.9138
28.882945610203045 34.9033
28.905936766392035 34.658
28.928929111566863 34.6826
28.952102288520145 34.5446
28.975097024308607 34.5057
28.998092952423807 34.4261
29.021090073977508 34.1739
29.04426806913204 34.2246
29.067267590245258 34.0044
29.090268308143695 34.0195
29.11327022394099 33.9917
29.13645305530891 33.900999999999996
29.159457379627167 33.7893
29.18246290519685 33.7267
29.20546963313352 33.6742
29.22865731875826 33.7165
29.25166646419296 33.7559
29.27467681535305 33.6301
29.29768837335608 33.6265
29.320880931312562 33.5802
29.34389491580634 33.6245
29.366910110507334 33.6781
29.38992651653503 33.795
29.41312396492981 33.6613
29.436142806456754 33.4938
29.45916286268059 33.4046
29.48236399319994 33.2867
29.50538649169417 33.173
29.528410208259935 33.0801
29.55143514402014 32.8251
29.574641196749695 32.7812
29.597668583816574 32.6263
29.6206971934585 32.510999999999996
29.64372702680042 32.6121
29.666938019934474 32.4339
29.689970313635285 32.4376
29.713003834422636 32.3777
29.73603858342347 32.3401
29.759254535188578 32.2211
29.78229175361658 32.2411
29.80533020365064 32.4255
29.82836988641968 32.3464
29.85159081507472 32.1043
29.874632976355343 32.0989
29.89767637376955 32.2379
29.920721008448314 32.0141
29.9439469322847 32.03
29.96699405457564 31.9386
29.9900424175358 31.9767
30.013092022298157 31.9092
30.03632295963995 31.881
30.059375061131373 32.0065
30.08242840783577 31.9297
30.105483000888153 32.0076
30.128718970092244 31.8691
30.151776069006917 31.8547
30.17483441768648 32.0287
30.198074175317235 31.9044
30.221135036724256 31.8659
30.24419715131772 31.789
30.267260520236203 31.6548
30.290505341942243 31.7096
30.313571232750228 31.7611
30.336638381310948 31.7522
30.35970678876503 31.7079
30.38295669299435 31.6082
30.40602763151657 31.6322
30.429099832366074 31.5156
30.452173296685572 31.5059
30.47542830191959 31.5852
30.498504306502497 31.4795
30.521581577995562 31.56
30.544660117543582 31.6603
30.56792024229725 31.7106
30.59100133132069 31.5965
30.614083691845494 31.5376
30.637167325018545 31.6343
30.660432587840603 31.662
30.683518779717886 31.7197
30.70660624769615 31.7424
30.729694992924372 31.7136
30.75296541239743 31.595
30.77605672557558 31.5349
30.799149319462742 31.5399
30.8224236211637 31.5306
30.845518789950724 31.3017
30.868615242910597 31.1713
30.891712981195973 31.0889
30.91499247215866 31.0614
30.938092794619365 31.0171
30.96119440587579 30.9355
30.984297307082752 30.741
31.00758200598383 30.6995
31.030687500658694 30.5983
31.053794288760695 30.5891
31.076902371446767 30.5195
31.100192296997445 30.476
31.12330298246119 30.4756
31.14641496599209 30.3261
31.169528248749216 30.371
31.19282341969534 30.4456
31.215939314557186 30.3858
31.239056512134788 30.362
31.262175013589378 30.3534
31.28547544871168 30.3638
31.30859657161541 30.2143
31.331719001892175 30.2549
31.35484274070538 30.3381
31.378148458819545 30.4393
31.401274828443725 30.2848
31.424402510106933 30.3066
31.447712205419993 30.5264
31.470842524931633 30.3546
31.493974159989783 30.2577
31.51710711176168 30.2184
31.54042212308802 30.1707
31.563557722100917 30.1657
31.586694641341655 29.9836
31.609832881979628 29.9314
31.63315322823208 29.8761
31.656294125521327 29.8084
31.679436347728515 29.7507
31.70257989602529 29.7443
31.725905596152327 29.6264
31.74905181052835 29.6468
31.772199354521323 29.6587
31.79534822930507 29.6238
31.818679302290967 29.636
31.84183085259981 29.5127
31.864983737233473 29.603
31.88813795736804 29.6544
31.911474422233013 29.5108
31.934631327356435 29.5764
31.9577895715215 29.5479
31.980949155906522 29.5919
32.004291031706956 29.5041
32.027453310562606 29.3379
32.05061693318573 29.2757
32.07396288236386 29.2389
32.09712920658542 29.1711
32.12029687812702 29.095
32.14346589817093 29.0171
32.166817291729984 28.9242
32.18998902288583 28.8884
32.21316210610336 28.9059
32.23633654256711 28.6902
32.259693399663725 28.6632
32.282870556771144 28.6901
32.30604907069099 28.679000000000002
32.329228942610065 28.5566
32.35259128243769 28.4772
32.375773884550505 28.493000000000002
32.398957848235646 28.4398
32.422143174682176 28.3132
32.445511016471215 28.234
32.468699082679954 28.1926
32.49188851523011 28.188000000000002
32.51507931531304 28.0772
32.538452678331 28.0921
32.56164622776311 27.9826
32.58484114831493 28.0403
32.60803744118015 28.0179
32.631416344731896 28.0351
32.654615396551876 27.9844
32.67781582427913 27.9681
32.701198898634416 27.8461
32.72440209253756 27.7357
32.747606665947124 27.8056
32.77081262006088 27.659000000000002
32.79420126883317 27.6676
32.81740999876112 27.6681
32.840620112999424 27.5343
32.86383161274818 27.5594
32.88722585534586 27.528000000000002
32.91044014056596 27.5985
32.933655814909734 27.4159
32.95687287957963 27.5338
32.98027273544904 27.4524
33.00349259526636 27.4319
33.026713849030116 27.4501
33.04993649794511 27.316999999999997
33.073341986570746 27.3403
33.09656744032826 27.2556
33.11979429286444 27.2573
33.14302254538647 27.2704
33.166433686291185 27.2216
33.18966475336992 27.1714
33.212897224069096 27.1477
33.23613109959831 27.195
33.259547912343415 27.1014
33.2827846121627 27.064
33.306022720453775 26.976
33.32926223842861 26.8767
33.352684742614166 26.9032
33.37592709463173 26.9253
33.399170859982064 26.8315
33.422597648419426 26.695
33.44584425514446 26.5708
33.46909227885668 26.6424
33.4923417207723 26.5795
33.51577423505344 26.6129
33.539026528130385 26.42
33.56228024307245 26.368000000000002
33.585535381098246 26.3255
33.60897364093058 26.2731
33.63223163992385 26.1911
33.6554910656699 26.2206
33.678751919389796 26.2706
33.702195944520106 26.1694
33.72545966903325 26.1089
33.74872482519663 25.9677
33.771991414233746 26.0651
33.79544122444841 25.9827
33.81871069412428 25.997
33.84198160035767 25.9182
33.86525394437455 25.967
33.88870955949969 25.8506
33.911984794020626 25.9287
33.93526147001624 25.7978
33.958539588715006 25.6405
33.98200102861669 25.6672
34.0052820477047 25.5597
34.02856451319451 25.6487
34.05203033759056 25.5628
34.07531571090147 25.5046
34.09860253431845 25.5178
34.121890809074316 25.4552
34.145362493118924 25.4691
34.16865368561615 25.304000000000002
34.191946333164054 25.2843
34.21524043699793 25.2841
34.23871800066799 25.3035
34.26201503218366 25.2181
34.28531352370466 25.2545
34.30861347646881 25.1393
34.33209693978188 25.0935
34.3553998301885 25.1246
34.378704185565205 25.0435
34.402010007152356 24.8533
34.42549939016683 24.8906
34.44880815937748 24.7375
34.472118398533134 24.8232
34.49543010887669 24.7737
34.51892543169198 24.7325
34.54224009966052 24.7208
34.56555624255917 24.7267
34.58887386163339 24.6922
34.61237514439016 24.5259
34.6356957311114 24.5049
34.65901779775809 24.4992
34.68252356662995 24.4904
34.705848608458616 24.4588
34.72917513396849 24.381
34.75250314440949 24.3863
34.77601490857862 24.2395
34.799345904259795 24.2401
34.82267838863559 24.2253
34.846012362958525 24.2743
34.869530142679984 24.2894
34.89286711232212 24.2196
34.91620557568269 24.1543
34.93954553401677 24.1404
34.9630693495876 24.0317
34.986412313340814 24.0872
35.00975677584668 24.0942
35.033102738362956 24.0345
35.05663261012228 23.9172
35.0799815881786 23.930999999999997
35.10333207003229 23.873
35.12668405694369 23.8948
35.150220005273056 23.8812
35.17357501786656 23.815
35.19693153931268 23.7888
35.220289570874385 23.7539
35.24383161619786 23.7947
35.267192683604904 23.7701
35.290555264930376 23.6581
35.314101899412165 23.673000000000002
35.33746752422433 23.6486
35.36083466676374 23.6299
35.38420332829803 23.5557
35.407756095629054 23.5879
35.43112781085063 23.6102
35.45450104888391 23.5554
35.477875810999194 23.5676
35.50143473172161 23.3979
35.52481255774625 23.4931
35.54819191167777 23.4075
35.57157279478914 23.3071
35.595137889488406 23.2914
35.61852184675279 23.2711
35.641907337029984 23.226999999999997
35.665294361595684 23.1953
35.68886565090076 23.0864
35.7122557598848 23.1697
35.73564740699838 23.1605
35.759040593519934 23.0455
35.78261809810353 22.9628
35.80601437933051 22.925
35.829412203814705 22.8456
35.85281157283719 22.8809
35.876395313415884 22.8382
35.8997977874528 22.7861
35.92320180988546 22.7377
35.946790244133936 22.6691
35.97019737933222 22.7446
35.993606066789866 22.699
36.01701630779276 22.613000000000003
36.04061101440684 22.608
36.06402437852291 22.5815
36.08743930005611 22.5609
36.1108557802951 22.4066
36.13445678011326 22.3969
36.15787639383515 22.4041
36.18129757014299 22.4465
36.20472031032821 22.3679
36.22832762423364 22.2922
36.25175350829375 22.285999999999998
36.275180960119776 22.1874
36.298609981005924 22.2675
36.32222362992669 22.2683
36.34565580510207 22.2451
36.36908955323448 22.1148
36.39252487562093 22.0451
36.416144880530226 22.0453
36.43958336764275 21.9971
36.463023432914625 22.0106
36.486465077645676 21.9298
36.51009145956204 22.0003
36.53353627947859 22.003
36.55698268276811 21.9134
36.58043067073321 21.8986
36.60406345072071 21.8002
36.62751462435344 21.768
36.65096738658405 21.7478
36.67460498210655 21.7174
36.69806093788647 21.6957
36.72151848619297 21.6409
36.744977628333636 21.6595
36.76862165890998 21.5979
36.79208400512205 21.6299
36.81554794910557 21.5416
36.83901349217101 21.4529
36.862663978991606 21.46
36.88613273667352 21.4687
36.90960309738324 21.4546
36.933075062434064 21.3454
36.95673202673572 21.3571
36.98020721697122 21.3139
37.003684015502365 21.1946
37.027162423645365 21.1783
37.050825886711465 21.1278
37.07430753063053 21.0912
37.09779078812467 21.0889
37.121275660513014 21.0677
37.144945643673694 21.0541
37.16843376245278 21.0421
37.19192350009803 20.9992
37.215414857931435 20.956999999999997
37.239091382563885 20.8669
37.262585997426164 20.9062
37.28608223645736 20.8879
37.309763684451696 20.8098
37.33326318851098 20.7172
37.356764320726555 20.7838
37.380267082425526 20.7954
37.40395510942588 20.6892
37.42746114683234 20.6304
37.45096881771841 20.5502
37.474478123414166 20.6051
37.49817275092816 20.5669
37.52168534303452 20.5531
37.54519957395567 20.471
37.568715445024665 20.5063
37.592416694607714 20.4989
37.61593586281424 20.4855
37.63945667518264 20.4623
37.66297913304891 20.3348
37.68668702630454 20.3166
37.710212792059274 20.2496
37.733740207334854 20.2085
37.757269273470364 20.14
37.780983832050374 20.156
37.80451621684926 20.1383
37.82805025654007 20.1779
37.851585952464795 20.0542
37.8753071980695 19.9894
37.89884622345676 19.9267
37.92238690911902 19.9598
37.94611318753442 19.9421
37.969657210779765 19.8879
37.99320289834801 19.9303
38.016750251586465 19.8505
38.04048325513017 19.8026
38.06403395679343 19.7636
38.087586328183946 19.7326
38.11114037065203 19.7333
38.13488012115898 19.7654
38.1584375229181 19.6592
38.181996599821 19.5738
38.205557353221124 19.6119
38.229303872575656 19.599
38.2528679961576 19.5881
38.27643380031219 19.5112
38.30000128639589 19.4783
38.32375459653193 19.4835
38.34732546371299 19.4814
38.37089801690786 19.3885
38.39447225747609 19.3483
38.418232380377425 19.2932
38.441810012983396 19.2851
38.46538933705673 19.2387
38.488970353960084 19.2198
38.51273731166058 19.176
38.536321731567014 19.1415
38.55990784840681 19.1407
38.58367995004091 19.1554
38.60726947812959 19.0654
38.63086070726198 19.0785
38.654453638806274 19.042
38.678232613930824 19.0331
38.70182896773327 18.9274
38.72542702806741 18.9615
38.7490267963045 18.8872
38.77281266709232 18.8299
38.79641586862214 18.8186
38.8200207821842 18.792
38.843627409152944 18.7566
38.86742019782782 18.7782
38.891030269149255 18.7078
38.914642058016156 18.7072
38.938255565806124 18.6524
38.96205529464307 18.5967
38.98567225787121 18.6219
39.00929094417078 18.6408
39.03291135492255 18.5991
39.05671804624804 18.4945
39.080341923549106 18.4549
39.103967529460334 18.5189
39.127594865365744 18.4027
39.15140854155791 18.4102
39.17503935514948 18.424
39.19867190290282 18.3815
39.22249083587951 18.3583
39.24612686969409 18.2636
39.269764641845306 18.289
39.293404153722804 18.2224
39.317230110864074 18.1598
39.34087311998506 18.1508
39.36451787301696 18.1499
39.388164371352595 18.0673
39.41199737518003 18.0623
39.43564738196752 18.0422
39.45929913825317 18.052
39.48295264543308 18.0573
39.506792718520884 17.9745
39.530449745387216 17.9242
39.55410852735203 17.9024
39.57776906581474 17.8819
39.60161623079 17.8445
39.625280300200025 17.8537
39.64894613032202 17.7854
39.67261372255866 17.7054
39.6964680021016 17.6792
39.72013913657293 17.7453
39.74381203738292 17.6946
39.76748670593756 17.7104
39.79134812278169 17.658
39.81502634488497 17.6356
39.83870633896685 17.593
39.862388106436654 17.5623
39.88625668336918 17.4867
39.90994201572829 17.4795
39.933629125719285 17.4512
39.957503091207826 17.3764
39.9811937746168 17.3813
40.00488623990914 17.3484
40.02858048850006 17.3117
40.05246165409549 17.256
40.076159487492085 17.238
40.099859108448875 17.2858
40.123560518384345 17.2564
40.1474489070226 17.1984
40.171153913178564 17.1305
40.194860712584955 17.1488
40.2185693066637 17.1719
40.242464941335314 17.0846
40.26617714307655 17.0614
40.289891143772046 17.0403
40.3136069448471 17.0426
40.33750984859743 17.0013
40.3612292688043 16.942
40.3849504936829 16.9324
40.40867352466194 16.9593
40.43258372059144 16.8511
40.45631038219906 16.8887
40.48003885420956 16.8566
40.503769138055105 16.8237
40.52768664931955 16.8012
40.55142057531802 16.7574
40.57515631746428 16.6833
40.599079334038514 16.6865
40.62281872700477 16.677
40.64655994043941 16.6021
40.67030297578061 16.6169
40.69423334835778 16.6186
40.71798004609188 16.566
40.74172857006355 16.5267
40.76547892171441 16.531
40.7894166736039 16.5208
40.813170699248566 16.5116
40.83692655691388 16.4734
40.86068424804498 16.452
40.884629402612525 16.3724
40.908390779366385 16.3772
40.932153993938 16.3586
40.95591904777605 16.2416
40.979871628443995 16.3106
41.003640379561936 16.2924
41.02741097430883 16.2307
41.05118341413683 16.1552
41.075143444384416 16.1686
41.098919593177826 16.171
41.1226975914255 16.1373
41.14647744058318 16.0942
41.170444943946755 16.0801
41.19422851378379 16.1414
41.218013938914645 16.0351
41.24198706625173 15.9222
41.26577622087193 15.9227
41.289567235177785 15.8916
41.31336011063129 15.9099
41.337340752422875 15.8956
41.361137369129835 15.8299
41.38493585138705 15.821
41.40873620066004 15.8148
41.43272438060107 15.8012
41.45652848292052 15.695
41.48033445666918 15.6592
41.50414230331616 15.6523
41.528138045159764 15.6598
41.551949656675205 15.66
41.575763145513235 15.6421
41.59957851314666 15.5795
41.62358184070442 15.5993
41.64740098505737 15.5283
41.6712220126409 15.4931
41.69504492493139 15.4884
41.71905586207357 15.4986
41.74288256296395 15.4457
41.766711153007456 15.3834
41.79054163368412 15.3706
41.814560204340054 15.3951
41.838394485526365 15.3159
41.86223066180303 15.2554
41.88625497706819 15.3091
41.910094962812 15.2552
41.93393684811168 15.1901
41.95778063445365 15.1473
41.981812625263366 15.104000000000001
42.00566023303407 15.0841
42.029509746323676 15.110999999999999
42.05336116662236 15.1526
42.077400857069705 15.0868
42.10125611078846 15.0206
42.12511327600405 15.0241
42.14897235421036 14.9648
42.173019768448455 15.0105
42.19688269209613 14.9498
42.22074753323349 14.9424
42.24461429335818 14.9222
42.268669455600495 14.9452
42.292540073217886 14.8959
42.31641261433284 14.8348
42.34028708044675 14.8294
42.36435001496739 14.7954
42.38822835065557 14.757
42.41210861586426 14.7495
42.4359908120986 14.6662
42.46006154323262 14.624
42.48394762115317 14.6354
42.507835634632315 14.6764
42.531912233047436 14.6263
42.55580413732265 14.6278
42.579697981698 14.5985
42.60359376768525 14.5664
42.62767820545945 14.5061
42.65157789440821 14.5013
42.67547952952185 14.452
42.699383112316 14.4117
42.72347541395347 14.3722
42.74738291190531 14.3471
42.771292362102166 14.3737
42.795203766063516 14.3614
42.819303956130405 14.3032
42.843219287476536 14.2777
42.86713657716324 14.2289
42.89105582671383 14.1786
42.91516392983864 14.2203
42.939087119032166 14.1931
42.963012272677304 14.0993
42.98693939230129 14.1252
43.01105543317513 14.1298
43.034986504731386 14.0379
43.05891954686589 14.0393
43.08285456110972 14.0347
43.10697856448665 13.9841
43.130917542983475 13.9329
43.15485849820081 14.0117
43.17880143167367 13.9414
43.20293342237094 13.9052
43.226880332449 13.8717
43.25082922540554 13.8669
43.27496722682525 13.8613
43.29892010567796 13.8393
43.32287497204102 13.8303
43.34683182745632 13.7518
43.370977859791836 13.7677
43.39493871351105 13.6976
43.41890156092628 13.7345
43.44286640358341 13.6693
43.46702049182749 13.6772
43.49098934522816 13.6314
43.51496019852649 13.6427
43.5389330532723 13.6295
43.56309522248204 13.5416
43.58707210044314 13.5331
43.61105098451946 13.4708
43.63503187626491 13.5006
43.659202151562134 13.4717
43.68318707902681 13.3988
43.70717401884041 13.4191
43.731162972560874 13.3947
43.75534137913236 13.421
43.779334381108384 13.3248
43.803329401683186 13.2364
43.82732644241872 13.2991
43.8515130055166 13.3103
43.87551410707659 13.2336
43.89951723350145 13.2609
43.923709934595614 13.2642
43.94771713129917 13.1586
43.97172635758096 13.1321
43.99573761501002 13.1196
44.0199385169922 13.1365
44.04395385732619 13.1135
44.067971233533086 13.0974
44.09199064718605 13.0465
44.11619977548961 13.0086
44.14022328470671 12.9729
44.16424883610785 13.0085
44.18827643127035 12.972000000000001
44.21249381139513 12.956
44.236525514814076 12.9084
44.26055926674478 12.895
44.28459506876863 12.936
44.3088207262813 12.8469
44.33286064928722 12.8189
44.35690262714919 12.7985
44.38094666145278 12.7426
44.4051806219871 12.7657
44.42922879003185 12.7589
44.45327901929361 12.6714
44.477331311362136 12.687999999999999
44.501573600619416 12.642000000000001
44.525630039221795 12.637
44.54968854541895 12.6519
44.573937102200176 12.6113
44.5979997645541 12.6158
44.622064499300315 12.5637
44.64613130803592 12.5647
44.67038823869318 12.5409
44.69445921643748 12.4833
44.718532272981385 12.4697
44.742607409926194 12.4107
44.76687274034801 12.4432
44.79095205918753 12.4016
44.81503346325094 12.4012
44.839116954143876 12.3764
44.86339071028742 12.3578
44.88747839599524 12.3227
44.91156817336837 12.3264
44.93566004401666 12.284
44.959942251908146 12.2413
44.984038330325966 12.2072
45.00813650686762 12.2215
45.03223678314731 12.1871
45.05652746888232 12.1895
45.08063196592069 12.172
45.104738567558705 12.1205
45.128847275414856 12.0964
45.15314646515866 12.0409
45.17725940679741 12.055
45.20137445952892 12.0539
45.22568004865265 12.0868
45.24979934496396 11.9974
45.27392075725247 11.9879
45.29804428714431 11.9305
45.322358426247604 11.9289
45.346486212804315 11.9049
45.370616121861914 11.8893
45.39474815505086 11.8765
45.41907087049246 11.8307
45.4432071734666 11.8141
45.46734560548283 11.8418
45.49148616817604 11.8394
45.51581748638564 11.7774
45.5399623320197 11.7586
45.56410931325473 11.7293
45.58825843173002 11.7371
45.61259837920865 11.6989
45.636751793816 11.6848
45.66090735060093 11.6502
45.68506505120716 11.6272
45.7094136545275 11.6335
45.73357566449271 11.5788
45.75773982322992 11.575
45.78190613238733 11.5674
45.806263418194064 11.5173
45.83043404997326 11.5157
45.85460683713677 11.4873
45.87897065658495 11.5281
45.90314777634752 11.4548
45.92732705646868 11.3883
45.9515084986045 11.4114
45.97588104735473 11.413
46.00006683541565 11.4099
46.02425479047904 11.357999999999999
46.04844491420549 11.312000000000001
46.0728262191024 11.3247
46.09702070211635 11.3317
46.12121735879483 11.3091
46.14541619080294 11.2441
46.169806278764455 11.2593
46.194009483459034 11.2388
46.21821486849841 11.187000000000001
46.24242243555223 11.1462
46.266821333570014 11.1203
46.29103328674601 11.1019
46.31524742696538 11.1012
46.33946375590237 11.0971
46.36387149104216 11.0727
46.38809221957392 10.9896
46.41231514186606 10.9806
46.436540259597464 10.9701
46.460956858999374 10.9479
46.48518638983522 11.0097
46.509418121166966 10.9577
46.533652054678114 10.9114
46.55807754555709 10.8768
46.58231590571962 10.8672
46.60655647313217 10.8383
46.630988654873654 10.8193
46.655233659129024 10.8022
46.67948087571551 10.7946
46.70373030632484 10.7584
46.72817142736393 10.7326
46.752425308428684 10.7126
46.77668140861147 10.7199
46.80093972960865 10.6723
46.82538981736788 10.6255
46.849652602470904 10.6949
46.87391761349769 10.6739
46.8981848521493 10.5802
46.9226439341274 10.5399
46.946915650573224 10.577
46.97118959976749 10.5852
46.99546578341598 10.5575
47.019933887188216 10.5246
47.04421456235744 10.5125
47.06849747711879 10.5023
47.09278263318286 10.4855
47.11725978640143 10.4478
47.14154944775105 10.4546
47.165841355555656 10.4246
47.1901355115306 10.3753
47.214621741924994 10.3389
47.23892041698887 10.3505
47.26322134538975 10.3037
47.28771440635075 10.3029
47.31201986422527 10.3197
47.33632758061436 10.2393
47.360637557241866 10.2656
47.38513974410611 10.292
47.40945426407847 10.2276
47.43377104948137 10.2238
47.45809010204344 10.1846
47.48260144275502 10.1534
47.506925052572285 10.1478
47.53125093475548 10.0746
47.55557909103813 10.057
47.58009961361992 10.0782
47.60443234110732 10.0386
47.62876734791564 10.0853
47.65310463578333 10.0418
47.6776343683373 10.033
47.7019762413987 9.96955
47.72632040075572 9.96832
47.75066684815169 9.98069
47.77520581885936 9.96566
47.799556865477655 9.95267
47.823910205386 9.90405
47.84826584033272 9.84511
47.87281407745551 9.82956
47.89717432569297 9.82927
47.92153687423484 9.85384
47.94609208429692 9.83538
47.97045925671401 9.798639999999999
47.99482873471275 9.746939999999999
48.01920052005013 9.76937
48.04376504619224 9.744439999999999
48.068141469543484 9.71768
48.09252020552573 9.69984
48.11690125590099 9.67169
48.1414751266064 9.67654
48.16586082917454 9.64428
48.19024885144316 9.611239999999999
48.2146391951793 9.63599
48.239222439012764 9.61396
48.26361744916137 9.57599
48.28801478610016 9.57086
48.31241445160131 9.50883
48.337007097209366 9.52002
48.36141144338331 9.54176
48.38581812345755 9.4971
48.41022713920929 9.4688
48.434829215320704 9.458969999999999
48.45924292604658 9.45635
48.48365897780325 9.4403
48.50807737237308 9.43926
48.532688907799276 9.44929
48.55711201168574 9.37914
48.581537463754074 9.3614
48.60615611725119 9.35942
48.63058628942721 9.31583
48.65501881516546 9.27541
48.6794536962573 9.27167
48.70408185970339 9.22771
48.72852147531801 9.23371
48.75296345168211 9.23747
48.77740779059232 9.23198
48.80204549302823 9.241489999999999
48.82649458091802 9.23645
48.85094603676547 9.16308
48.87539986237231 9.1333
48.90004713292306 9.133389999999999
48.92450572200832 9.09025
48.94896668628025 9.08773
48.97343002754588 9.077069999999999
48.99808689542115 9.03808
49.02255501470614 9.08826
49.04702551642794 8.990839999999999
49.0714984023988 8.97517
49.096164896893235 8.95608
49.120642575466796 8.98536
49.145122643748394 8.9727
49.16960510355558 8.92612
49.19428125404938 8.91773
49.2187685210852 8.91699
49.243258185121555 8.89087
49.26794160167084 8.88113
49.2924360839405 8.85352
49.31693296869764 8.84405
49.34143225776915 8.80086
49.36612538195438 8.77983
49.39062950396021 8.81676
49.41513603578346 8.80222
49.4396449792564 8.76395
49.46434784069503 8.74954
49.488861631846454 8.69391
49.513377840166804 8.69462
49.537896467493745 8.67198
49.56260909589029 8.66235
49.587132585683285 8.642719999999999
49.611658500018365 8.65221
49.636186840738596 8.636280000000001
49.66090926588511 8.60206
49.685442483902584 8.56942
49.70997813385706 8.56991
49.734516217597076 8.5761
49.75924846937352 8.53133
49.7837914452858 8.499830000000001
49.80833686055187 8.47967
49.83288471702571 8.47213
49.85762682540054 8.47994
49.882179588965734 8.45375
49.9067347993235 8.401480000000001
49.93129245833333 8.43477
49.95604445336378 8.412239999999999
49.98060703442832 8.38642
50.005172069746266 8.384789999999999
50.02993150438364 8.39118
50.05450147301533 8.36651
50.07907390151433 8.345
50.10364879174981 8.31968
50.12841816587289 8.311739999999999
50.1529980044635 8.28731
50.17758031042124 8.26936
50.20216508562089 8.25254
50.22694442953363 8.23062
50.25153416817468 8.191230000000001
50.27612638170508 8.20143
50.300721072005196 8.15052
50.325510416102105 8.16052
50.350110084975064 8.13395
50.37471223628208 8.16729
50.39931687190919 8.1389
50.424116246675766 8.09838
50.44872587605249 8.11201
50.47333799543065 8.08565
50.49795260670191 8.060139999999999
50.52276204271512 8.0349
50.54738166295838 8.01947
50.57200378079314 8.04261
50.596628398116835 7.997789999999999
50.62144792604559 8.00521
50.646077567609396 7.94477
50.670709714377715 7.97567
50.69553683636198 7.9502
50.72017401885922 7.9189300000000005
50.7448137122895 7.907960000000001
50.76945591856022 7.915260000000001
50.79429318636823 7.8764
50.818940443716784 7.88656
50.84359021965163 7.83435
50.868242516085964 7.853160000000001
50.893089960641895 7.83692
50.917747323549435 7.79835
50.94240721271973 7.788310000000001
50.96706963007175 7.7522
50.99192728239342 7.760860000000001
51.01659478166073 7.77215
51.04126481489051 7.71288
51.06593738400761 7.7171
51.090805275207074 7.683789999999999
51.11548294172845 7.66863
51.14016314993547 7.63735
51.164845901758845 7.6292100000000005
51.18972406304274 7.61523
51.21441192780656 7.591589999999999
51.23910234200271 7.59068
51.2637953075678 7.590669999999999
51.288683770237945 7.58524
51.31338186432707 7.519410000000001
51.33808251561888 7.5087
51.362978729967345 7.5057
51.387684521509755 7.52642
51.41239287610203 7.51156
51.437103795691165 7.47876
51.46201036644977 7.466080000000001
51.486726441956634 7.40245
51.51144508832545 7.44972
51.536166307509156 7.4260600000000005
51.56108326624387 7.394480000000001
51.58580965706056 7.44297
51.61053862657523 7.35272
51.635270176746864 7.293819999999999
51.66019755512065 7.37352
51.68493429268881 7.338710000000001
51.70967361681515 7.27545
51.73441552946465 7.30209
51.759353359237934 7.29196
51.7841004750961 7.270980000000001
51.80885018539685 7.253639999999999
51.833602492111254 7.237419999999999
51.8585508051424 7.228960000000001
51.883308330926425 7.18582
51.90806845906181 7.188210000000001
51.932831191525715 7.193169999999999
51.95779001977161 7.157760000000001
51.98255798721516 7.12173
52.00732856494335 7.08989
52.03229530577543 7.117430000000001
52.057071130455945 7.08967
52.081849571391054 7.09052
52.106630630568695 7.06698
52.13160794279417 7.0288699999999995
52.15639426492067 7.051589999999999
52.18118321127822 6.99562
52.205974783860896 6.98698
52.23096269971011 7.01426
52.255759551287994 6.98042
52.280559035098186 6.98125
52.30536115314103 6.99078
52.33035970494467 6.970280000000001
52.35516711807904 6.9612300000000005
52.37997717147198 6.93763
52.40478986713005 6.93071
52.42979908731974 6.88312
52.454617094216 6.843660000000001
52.47943774942214 6.82777
52.50426105495102 6.8555
52.529280976059844 6.81296
52.554109609024096 6.78775
52.57894089837482 6.783410000000001
52.60377484613117 6.79276
52.62880550079408 6.79818
52.65364479223379 6.729360000000001
52.67848674816189 6.75133
52.70352547971946 6.761139999999999
52.72837279155837 6.687760000000001
52.753222773982785 6.722589999999999
52.778075429022984 6.693689999999999
52.80312495150885 6.687819999999999
52.827982978797436 6.65238
52.85284368481815 6.644889999999999
52.87770707160767 6.614260000000001
52.90276741793998 6.592960000000001
52.92763619336701 6.58173
52.952507655698504 6.54903
52.977381806977576 6.586189999999999
53.00245301017842 6.578530000000001
53.02733256653592 6.53541
53.052214817996074 6.5399400000000005
53.077099766608484 6.506480000000001
53.102181859804446 6.47815
53.127072229988265 6.51755
53.15196530349892 6.4707300000000005
53.17686108239249 6.5129
53.20195409881522 6.4614199999999995
53.22685531582556 6.42123
53.25175924441303 6.38476
53.27666588664027 6.3800300000000005
53.30176985962693 6.39272
53.3266819565689 6.4034
53.35159677336455 6.37398
53.376514312083096 6.32791
53.40162927507703 6.34678
53.42655228516116 6.330430000000001
53.45147802340193 6.3238199999999996
53.47660125628886 6.3106599999999995
53.50153247842639 6.298719999999999
53.52646643496923 6.262569999999999
53.55140312799818 6.25847
53.576537409691696 6.2525
53.60147960336152 6.22695
53.626424539786164 6.23681
53.65137222105307 6.18693
53.67651758529126 6.1858699999999995
53.70147078399681 6.171130000000001
53.72642673383343 6.1778
53.75138543689533 6.15026
53.776541917524526 6.139869999999999
53.801506154876755 6.1859
53.826473151763246 6.0921199999999995
53.851442910284916 6.07607
53.87661054126026 6.07529
53.9015858509782 6.11845
53.92656392866066 6.05959
53.95154477641532 6.06399
53.976723591801296 6.03779
54.00171000771266 6.031680000000001
54.02669920004598 6.00775
54.051691170915745 5.98621
54.076881204886796 5.985040000000001
54.101878760928514 5.99233
54.12687910187696 5.92035
54.152077577768296 5.9639999999999995
54.1770835166946 5.93421
54.20209224691339 5.9425300000000005
54.22710377055121 5.9107199999999995
54.25231352511594 5.893330000000001
54.27733066384342 5.85935
54.30235060239643 5.86214
54.32737334290836 5.82181
54.35259441062629 5.77109
54.377622783395324 5.8272
54.40265396455061 5.74843
54.42768795623251 5.7529
54.45292037169559 5.7241599999999995
54.477960012857906 5.73784
54.50300247099511 5.72893
54.52804774825457 5.70758
54.55329154616743 5.6612599999999995
54.57834249018678 5.667619999999999
54.6033962597977 5.67933
54.6284528571545 5.67771
54.653708072335164 5.60344
54.67877035378786 5.61444
54.70383546947698 5.56455
54.72890342156389 5.510680000000001
54.7541700889442 5.54937
54.77924374251975 5.48782
54.8043202390049 5.46247
54.82959552413022 5.45757
54.8546777351945 5.42671
54.87976279569621 5.390280000000001
54.90485070780914 5.40878
54.930137506558005 5.3651599999999995
54.95523115074295 5.44361
54.98032765308844 5.38404
55.005427015775496 5.32066
55.03072536339621 5.34301
55.05583047570572 5.26612
55.080938454927676 5.26328
55.10604930325027 5.26516
55.131359235107396 5.25053
55.15647585066083 5.1494800000000005
55.181595341907496 5.20479
55.20671771104285 5.16096
55.232039262617704 5.14187
55.25716741665048 5.11678
55.28229845518636 5.09013
55.30743238042802 5.06464
55.33276558731939 5.06083
55.357905315183636 4.99987
55.383047936390035 5.00668
55.40819345314859 4.970280000000001
55.433538351073295 4.96828
55.458689688238415 4.89691
55.483843927614096 4.9240900000000005
55.509197623043605 4.92088
55.53435769621134 4.8342
55.55952067826466 4.847580000000001
55.5846865714265 4.798369999999999
55.61005202069737 4.83626
55.63522376553902 4.89366
55.66039842818645 4.788069999999999
55.68557601087004 4.76056
55.7109532500271 4.69489
55.73613670233794 4.75052
