TT I
1.2716486653135266 7.2469
1.2939594142134223 7.28516
1.3162702121660406 6.69875
1.3385810600174564 6.47605
1.3608919586137629 7.018680000000001
1.383202908801069 6.38068
1.405513911425503 6.28306
1.4278249673332093 6.28975
1.4501343378461518 6.22042
1.4724455028545926 6.06659
1.4947567236847858 6.20665
1.517068001182951 5.96258
1.5393793361953272 5.92886
1.5616907295681737 5.33141
1.5840021821477681 5.83129
1.60631369478041 5.32866
1.6286252683124185 5.87556
1.6509369035901333 4.8160300000000005
1.6732468618895553 5.0246699999999995
1.695558623192809 4.72308
1.7178704487808514 4.6929300000000005
1.7401823395001077 4.5538300000000005
1.7625012545597203 4.85661
1.7848028405262486 5.08668
1.8071218901122095 4.8911
1.8294236121921872 4.31438
1.8517427996910911 4.38448
1.8740620574440425 5.12927
1.8963639900671978 4.8648
1.9186833908139995 4.93772
1.9409854680117449 4.8154
1.9633050151394713 4.60309
1.9856246367570705 4.96963
2.0079269371922672 4.684019999999999
2.03024671027244 4.70496
2.0525491637446027 4.53195
2.074869091674931 4.33027
2.097171701569106 5.11491
2.1194917877373847 4.99003
2.141811954326636 4.92333
2.164114805233074 5.18245
2.186435135143035 6.2771
2.208738150935709 17.5841
2.231058647554722 39.3746
2.2533792288321184 30.9302
2.275682498336085 12.9833
2.298003251406138 6.471030000000001
2.3203066942619714 5.92191
2.3426276225136022 5.3825199999999995
2.3649486396617507 6.03563
2.387252348930071 6.32798
2.4095735463442893 5.26307
2.4318774374315884 5.63865
2.4541988185014043 6.17552
2.476502894794693 6.58257
2.498824462909887 6.37474
2.521146125856138 6.526680000000001
2.5434504863470337 7.51365
2.5657723414244717 7.960839999999999
2.588076895590662 8.28994
2.610398946189713 7.607530000000001
2.6327210958598384 7.16476
2.6550259469304716 7.7228699999999995
2.6773482972090137 7.781860000000001
2.6996533504259 7.38674
2.7219759047039602 7.904319999999999
2.744298562293959 8.53631
2.7666039251246595 8.22835
2.7889267918020164 8.15002
2.8112323652516555 8.479610000000001
2.833555444408179 8.30213
2.8558786311183852 8.13635
2.8781845268938557 9.07501
2.9005079311721484 9.06719
2.9228140460410397 9.52542
2.9451376712799635 9.10467
2.967444008632326 10.0589
2.9897678582247247 9.995610000000001
3.0120918213106695 10.5579
3.0343984987899373 10.9431
3.0567226913198637 11.294
3.079029599759726 11.9888
3.101354025127254 11.6549
3.123678568232338 13.0165
3.145985829517914 13.21
3.16831061055229 14.017000000000001
3.1906181112775593 14.2628
3.212943133635653 14.9402
3.2352682779763207 15.2964
3.2575761442691227 15.5468
3.2799015350264273 15.7578
3.302209649240067 16.2986
3.3245352898092655 16.465
3.3468436553365257 17.1566
3.369169549113219 17.8
3.3914955708171384 18.6353
3.413804319727358 19.0713
3.4361305997334863 19.5365
3.4584396084414553 20.254
3.4807661501462652 20.8556
3.503092824025881 20.6266
3.5254022288463154 21.3835
3.5477291695206588 22.2703
3.5700388426251948 22.9053
3.5923660534916446 24.7175
3.6146934007816114 43.8842
3.637003482731501 118.524
3.6593311053109985 138.06799999999998
3.681641464033634 74.9052
3.7039693653009733 34.6246
3.726297407241705 27.0794
3.7486081875460804 26.2534
3.7709365132734978 26.689
3.793247578841633 27.1947
3.8155761917550093 27.1508
3.8378875459837216 27.3969
3.8602164494827234 27.7635
3.882545499606844 28.4587
3.9048572932539183 29.3175
3.9271866390645718 29.748
3.9494987298666713 30.255
3.971828374764527 30.840999999999998
3.9941581705403255 31.4211
4.016470713506008 31.8323
4.038800813471445 33.0205
4.061113662089144 33.2756
4.0834440696459176 34.34
4.105774632334751 34.6924
4.128087945865126 35.3531
4.150418821249301 36.2538
4.172732448931298 37.4388
4.195063640413578 39.3077
4.2173775856475215 44.4442
4.239709096631102 85.3188
4.262040768704612 326.425
4.284355196706267 464.89
4.306687193387355 300.45799999999997
4.329001947444346 104.426
4.35133427213731 51.931999999999995
4.373666762177566 46.0791
4.395982011761091 45.4882
4.418314834921175 46.5431
4.44063041906622 57.1218
4.4629635787515625 73.3403
4.4852969080429785 74.0933
4.5076130004776225 57.7102
4.529946671403969 50.9626
4.552263106909177 49.9261
4.574597122877047 51.2993
4.596931312711224 52.3756
4.619248269273446 53.3226
4.6415828092605835 53.8505
4.663900117405352 54.9288
4.686235010953232 56.6951
4.708552674085913 57.8086
4.730887924602802 59.18899999999999
4.753223354952695 60.5816
4.775541557023902 61.5393
4.797877349456786 62.9446
4.820195915032126 65.1491
4.842532072957498 66.6573
4.864868414979744 68.6866
4.88718753227192 70.6621
4.909524244902505 72.7083
4.931843734218147 74.3
4.954180820867835 76.6152
4.976518095879839 79.5204
4.998838149695359 82.8013
5.021175803844231 85.7382
5.043496238205739 88.806
5.065834274903528 93.1095
5.088172504230693 97.8854
5.1104935158799565 103.824
5.132832132875765 129.621
5.155153533596801 188.298
5.1774925416746225 225.06900000000002
5.199814334878411 324.117
5.2221537374521505 876.09
5.244493338631803 2500.14
5.266815727034316 6940.74
5.289155727832427 12661.6
5.311478517248165 9423.6
5.333818921080011 3356.13
5.356159527788849 665.2610000000001
5.3784829252032536 196.588
5.400823940070432 148.295
5.423147747031976 130.559
5.445489173474152 120.05799999999999
5.467830807066149 113.206
5.490155234831516 108.977
5.512497285125229 105.556
5.534822130975162 103.35
5.557164601388673 101.505
5.579489868738879 99.1377
5.601832762690846 98.5498
5.6241758697774475 97.9734
5.646501775867269 96.8921
5.668845311622074 94.7269
5.691171647754637 93.4051
5.713515615597765 91.9775
5.735859800852677 91.2498
5.758186788542988 90.7595
5.780531411018185 90.7483
5.802858837297399 90.348
5.825203900414495 90.1688
5.8475491852224 89.944
5.869877275883075 90.4874
5.892223006467101 91.7667
5.914551544266608 92.6888
5.936897724049891 94.5804
5.959244129804903 99.0924
5.981573344815301 113.35799999999999
6.0039202049061 183.544
6.026249875609095 396.05800000000005
6.04859719346037 854.7539999999999
6.070927323278297 1956.34
6.093275102315365 4215.93
6.115623113320588 5300.19
6.137953938319995 3543.68
6.160302415650845 1145.72
6.182633708324452 270.677
6.2049826554078376 120.76
6.227331838745022 95.1218
6.249663839443684 86.7069
6.27201349767565 84.23700000000001
6.294345974611799 93.4255
6.316696111167083 112.995
6.339046488263839 107.38600000000001
6.361379686074702 85.3302
6.383730546639482 73.6223
6.406064229255215 69.143
6.428415576718203 68.3411
6.450749747566656 67.7497
6.47310158535871 66.115
6.495453669698332 65.4423
6.517788579421056 65.0471
6.540141159237969 63.9544
6.562476565766648 63.3262
6.5848296444934045 63.3204
6.607182974060425 63.1996
6.6295191323281015 63.367
6.651872965955752 67.8865
6.6742096296068985 103.896
6.6965639707294615 176.11900000000003
6.71891856698715 182.696
6.741255995248479 116.554
6.763611104154477 74.3497
6.785949046381137 61.9897
6.808304671371482 58.773
6.8306605557940046 58.7103
6.852999275508618 57.7263
6.875355681171544 57.4981
6.897694923437771 57.1393
6.92005185377892 57.003
6.9423916220322655 57.1139
6.964749080490181 56.5048
6.987106804399774 56.1861
7.009447368180821 56.2566
7.031805625367033 56.0846
7.054146723727803 55.9107
7.076505517631004 55.4734
7.098864581288365 55.7711
7.121206488070854 55.5157
7.143566093607822 55.7608
7.165908543567245 56.0221
7.188268694426048 55.95399999999999
7.2106291193438095 56.3231
7.232972390625943 58.3697
7.255333366030969 74.3348
7.277677189091925 150.292
7.300038718428332 230.66400000000002
7.322400526130865 195.62099999999998
7.344745183422596 110.431
7.367107550224791 66.8165
7.389452767901992 57.9488
7.411815697249891 56.3524
7.434161478756298 55.1061
7.456524974096713 54.9242
7.478888753837185 54.5567
7.501235387657368 55.1176
7.523599738562711 55.2517
7.545946944825532 55.3269
7.568311870344528 55.5931
7.5906770845765665 55.8035
7.613025156078678 58.3046
7.635390950099687 60.1654
7.657739602662809 58.5931
7.680105979923558 56.8243
7.702472650212829 56.4296
7.724822180948224 56.0447
7.747189439655568 56.0678
7.769539560075357 56.2839
7.791907410653562 56.883
7.81425812420825 56.6692
7.836626570110925 56.9064
7.858995315087906 57.9637
7.881346924933401 58.0253
7.903716270417482 58.163999999999994
7.926068482028405 58.8499
7.948438431475253 59.2978
7.9708086843180235 59.9447
7.993161805171116 60.155
8.015532667162402 60.7746
8.037886398416653 61.7759
8.060257873014221 62.2394
8.082629655331942 62.5964
8.104984308787587 64.0876
8.127356708900503 67.8475
8.149711981398308 75.9723
8.172085002766314 79.844
8.194458336181368 74.7157
8.216814543847752 70.3147
8.23918850371002 69.572
8.26154533906492 70.1548
8.283919928836452 71.5209
8.306277395339652 72.4077
8.328652618483376 73.668
8.351028159736202 75.7742
8.373386579575245 77.7086
8.395762759396959 79.3272
8.418121819038275 85.28299999999999
8.440498640894003 102.309
8.462875785192262 121.726
8.485235811156207 129.81799999999998
8.507613602688501 155.608
8.529974277114228 229.377
8.552352719347912 354.064
8.574731488360351 582.904
8.59709314210385 1055.57
8.619472567021075 1717.28
8.64183487789147 2152.31
8.664214962183097 1936.82
8.686577933647762 1045.37
8.708958680784317 421.654
8.731339760774953 181.141
8.753703729764451 114.96799999999999
8.77608547780821 100.178
8.798450116065078 95.7898
8.820832535634787 92.6374
8.843215292401656 90.9555
8.865580941199045 89.4035
8.887964374703538 88.2788
8.910330701447199 90.3391
8.932714815164482 94.4881
8.955099270424924 94.0012
8.977466620733543 89.6698
8.999851761421976 85.6355
9.022219798361645 83.5615
9.04460562795561 83.1958
9.066991803441677 82.5811
9.089360876979615 82.3319
9.111747746589993 82.4081
9.13411751544971 81.9907
9.156505082664324 81.5853
9.178875550323522 81.704
9.20126381862328 82.3836
9.223652438908596 83.1382
9.246023961427412 82.9405
9.26841328802173 82.0693
9.290785518039224 81.4206
9.313175554425882 81.9309
9.335565947154315 81.7439
9.357939245086508 81.9655
9.380330352834827 82.4093
9.40270436697103 82.223
9.425096193225055 82.6352
9.447488380180165 83.2412
9.469863475295412 83.6781
9.492256385987508 83.9579
9.514632206018318 84.5798
9.537025843935714 85.1969
9.559402392368193 85.8848
9.581796761000229 86.3865
9.604191496441521 87.2589
9.626569144158516 92.1838
9.648964615551032 99.3644
9.671343000390081 102.40299999999999
9.693739211225699 98.4679
9.716135793237463 94.2336
9.738515290448102 92.4946
9.760912617143402 93.3779
9.783292860202891 94.8263
9.805690935076182 95.6859
9.828089385495742 96.9114
9.850470754023561 99.352
9.872869957865444 108.995
9.89525208097539 130.39700000000002
9.917652041736662 149.077
9.940052382417589 146.32
9.962435644102392 141.355
9.984836746950979 164.43099999999998
10.007220771957746 219.99599999999998
10.029622640473708 311.482
10.052007432299963 468.723
10.074410069984072 728.5269999999999
10.096813093716005 1157.77
10.119199042482517 1650.66
10.141602840636468 1962.27
10.163989564971628 1721.46
10.186394141051062 1003.5
10.208799107559706 458.80300000000005
10.231187001965623 210.87099999999998
10.253592751657669 132.32399999999998
10.275981430388155 115.182
10.298387966769793 115.69
10.320794897965431 119.958
10.343184759907361 119.82
10.36559248305461 112.315
10.387983138083852 105.027
10.410391656691655 105.70700000000001
10.432800574501677 114.38799999999999
10.455192425893369 128.167
10.47760214443012 151.33100000000002
10.499994797678786 188.102
10.522405320453982 259.131
10.54479877906917 359.13
10.567210109595656 482.707
10.5896218454736 571.783
10.612016518879773 533.444
10.634429067781074 383.52
10.656824555333241 225.805
10.679237920773568 135.85299999999998
10.701651695961992 98.7147
10.724048411481384 89.8595
10.746463008485165 86.7288
10.768860546937125 85.2571
10.791275969274796 83.2854
10.81369180576079 82.1861
10.836090585366925 81.0159
10.858507252467449 79.695
10.88090686379991 78.8483
10.903324365036394 78.6379
10.925724811614439 78.81
10.948143150509463 81.1222
10.970561909719066 80.6114
10.992963615930844 78.2799
11.015383218085756 75.1946
11.037785768347074 73.4136
11.06020621697282 72.8993
11.082627090322113 72.3477
11.105030913430326 72.0905
11.12745263854165 73.2178
11.149857314510728 78.0673
11.172279894912576 87.4225
11.194702904450653 89.7251
11.217108866490921 84.4479
11.239532736615194 77.5247
11.26193956033512 74.0603
11.284364294577085 71.9198
11.306789462371718 69.1894
11.329197585398376 67.6945
11.351623622610898 67.3611
11.37403261614354 65.9634
11.396459526308487 65.9507
11.418869393879497 65.6062
11.441297180532617 65.4307
11.463725406927658 65.1441
11.486136592353875 65.1612
11.508565700543707 65.8907
11.530977768845315 68.7791
11.553407762368774 70.27600000000001
11.575838200059769 69.6991
11.598251599479612 66.7907
11.620682927815501 64.3901
11.64309721895548 63.7353
11.665529441478206 63.5368
11.687962112597958 62.9181
11.710377748130886 62.9716
11.732811318753434 62.805
11.755227854859067 63.1292
11.777662328529495 62.6727
11.800079768750786 62.7917
11.822515149015453 62.778999999999996
11.844950984084935 62.8802
11.867369787303163 62.4426
11.889806534289491 62.4825
11.912226250487029 62.9439
11.934663912939751 62.8511
11.9571020346363 63.0594
11.979523127133968 63.0239
12.001962169624331 63.4852
12.024384183972964 64.0331
12.046824150809913 66.4537
12.069264581333726 71.3124
12.091687985297767 77.1684
12.11412934550045 86.1016
12.136553680195208 99.3751
12.158995973632788 119.117
12.181438735204349 144.93200000000002
12.20386447284199 174.399
12.226308172985636 203.415
12.24873485024193 208.375
12.271179492516982 177.03099999999998
12.293607112949127 139.395
12.316052700916226 105.57600000000001
12.338498763250042 85.1883
12.360927805303868 73.6629
12.383374818673879 68.154
12.405804812803074 65.2636
12.428252780773262 64.7301
12.45070122756722 64.3817
12.473132656675375 64.3856
12.49558206341869 64.623
12.518014453510101 64.4169
12.540464823770117 64.5531
12.562915677315177 64.6368
12.58534951575545 65.7769
12.607801338171472 68.3253
12.630236146511358 75.8963
12.652688941369085 83.624
12.675124723177234 84.69200000000001
12.697578494048786 79.0927
12.720032754458185 72.215
12.742470003354093 68.6834
12.764925245138771 67.9732
12.787363476431278 68.0544
12.809819703166806 68.3148
12.83227642391173 69.2433
12.854716135692716 69.6843
12.877173846755147 70.8837
12.899614549869717 71.065
12.9220732548287 71.618
12.94453245827299 71.8394
12.966974655289818 72.7747
12.989434858002571 73.6303
13.011878055298721 74.3118
13.034339260862497 75.2649
13.056800969391883 76.5487
13.079245674017244 78.3532
13.101708390774869 79.931
13.12415410463411 85.4098
13.146617833206086 96.4705
13.169064559883248 107.96
13.191529303857127 121.031
13.213994557076367 141.386
13.236442809902437 173.467
13.258909083908291 221.797
13.28135835851934 282.63
13.30382565690295 352.64300000000003
13.326293469022952 418.212
13.348744283242008 439.94699999999995
13.371213125129904 384.51599999999996
13.39366497011003 289.676
13.416134845360597 191.122
13.438605238843131 131.546
13.46105863690397 107.34899999999999
13.483530069144786 103.779
13.505984506951902 107.728
13.528456981549432 115.896
13.550929978879088 129.336
13.573385983253365 149.939
13.595860028340867 182.56
13.618317081455832 230.15400000000002
13.64079217790333 281.752
13.663250283359057 335.975
13.685726434770173 372.61800000000005
13.708203115221277 354.11300000000006
13.730662806148091 289.778
13.75314054697177 204.929
13.775601299246777 138.72299999999998
13.798080104050406 101.62700000000001
13.820559442405358 86.7593
13.843021793671388 82.21799999999999
13.865502201420897 80.5383
13.887965623051947 79.4937
13.910447103807167 78.5815
13.932929122629764 77.0817
13.955394156785959 76.6343
13.977877254034569 76.0666
14.000343367582113 74.8291
14.022827546871707 74.15899999999999
14.045294743423524 73.4038
14.06778000837062 72.9225
14.090265817715476 72.8942
14.112734645763819 72.6999
14.13522154619454 72.6047
14.157691466286913 72.9567
14.180179461423874 72.5502
14.202668005486178 71.765
14.22513957064374 70.7897
14.247629214846473 70.2939
14.270101881097517 69.9147
14.29259262906496 70.6631
14.315083930490205 72.1893
14.337558255389705 72.3504
14.360050666019726 71.9671
14.382526101071944 70.8728
14.405019624534942 69.4827
14.427513705993134 68.6118
14.449990813291825 68.6135
14.47248601302899 68.2978
14.49496423954951 68.2973
14.517460561197822 68.7313
14.539939910570322 68.3244
14.562437357763558 68.5953
14.58493536931253 70.0586
14.607416409993311 71.8026
14.62991555254159 73.0011
14.652397725157423 72.5572
14.674898002342799 71.5186
14.697398848433282 70.567
14.719882725991326 70.8387
14.74238471217934 71.0367
14.764869730765593 73.7064
14.787372860692983 77.0981
14.809876564079925 81.0786
14.83236330125751 86.1489
14.854868153850365 93.7365
14.877356041159485 104.944
14.899862046604186 121.243
14.922351087688757 144.085
14.944858249632887 170.386
14.967365991421232 196.173
14.989856770231246 217.764
15.012365673994204 221.50400000000002
15.03485761569738 197.642
15.05736768508665 159.52200000000002
15.07987833888692 123.056
15.102372032001655 96.068
15.124883856909658 78.9998
15.14737872204565 73.0216
15.169891721717274 70.8697
15.192405310371893 70.8491
15.214901940621196 71.5957
15.237416709527137 72.238
15.259914520936249 72.8875
15.282430473753607 71.6185
15.304947020131227 69.983
15.327446610371178 68.8417
15.349964346154254 67.6934
15.372465126703139 66.9547
15.394984055556009 66.484
15.417486030076159 66.5332
15.44000615566487 66.0149
15.462526881230803 66.1729
15.485030653812652 66.3605
15.507552581617434 66.4784
15.530057557334603 66.6218
15.55258069104857 66.4659
15.575104429329837 66.3761
15.597611216864632 65.6723
15.620136166564563 65.7048
15.6426441664095 66.0545
15.665170331202765 67.7603
15.687697105158826 70.6023
15.710206930593545 73.9538
15.732734925158933 77.6874
15.755245972089478 83.1131
15.77777519094324 91.3196
15.800287463046663 103.09700000000001
15.822817909869592 119.306
15.84534897229804 138.178
15.867863089299354 161.795
15.890395385222186 182.803
15.912910736597423 194.86599999999999
15.935444269699861 190.206
15.957978423016485 166.47299999999998
15.980495633101265 134.708
16.003031029129367 103.723
16.02554948280019 80.8873
16.048086125229432 69.9835
16.070623392487107 66.8292
16.09314371869582 65.7994
16.11568223789321 64.9902
16.13820381691126 63.6715
16.160743591742527 62.3968
16.183283996022084 61.1526
16.205807461423195 60.0639
16.228349126881973 59.2782
16.25087385432698 59.2459
16.27341678466365 58.5328
16.29594277784926 58.4635
16.31848697676433 58.9715
16.341031811604868 59.9051
16.36355971058487 60.5509
16.3861058195587 60.3806
16.40863499352978 58.7769
16.431182380342005 57.1609
16.453730407713202 56.3233
16.476261501364792 56.0437
16.498810812136167 55.6249
16.52134319004079 55.7573
16.54389378792203 55.6843
16.566445031001553 55.3794
16.588979342490088 55.2503
16.61153187824822 55.1515
16.634067483263312 55.0131
16.656621315414416 54.7073
16.679175797408888 54.7039
16.701713349928728 54.8545
16.72426913389191 55.1226
16.74680798922351 55.1797
16.76936507887444 55.2812
16.791905240734874 55.2821
16.814463639794468 54.958999999999996
16.837022695210294 55.056000000000004
16.859564824093756 55.3705
16.882125194503903 56.4821
16.904668639217885 57.6703
16.927230328348003 58.0245
16.949792678493612 57.8697
16.972338104193863 56.8898
16.994901778652235 56.1502
17.017448529496576 55.7596
17.040013531998152 55.8137
17.06257920018044 55.9485
17.0851279459922 56.8598
17.107694947817667 57.538999999999994
17.130245028099072 58.3248
17.15281336730298 59.4991
17.17536478578733 61.0506
17.19793446610687 63.07
17.220504818648422 65.5302
17.243058251703697 68.4249
17.265629950971032 72.6096
17.288184731571736 77.5368
17.310757781306908 82.1233
17.33333150794385 84.6652
17.355888317140174 84.1989
17.37846339986244 79.1055
17.401021565958885 72.6089
17.42359800851343 66.6126
17.44617513265564 62.7204
17.468735341390783 60.3639
17.491261035594565 59.111999999999995
17.51396340099364 58.9438
17.536490463869136 59.1953
17.559018209820174 59.1553
17.58154663977963 59.0135
17.604251766089718 59.1876
17.626781572227713 59.4996
17.64931206518155 59.7503
17.671843245885103 60.2723
17.69455114821572 60.7517
17.717083712612634 61.0383
17.739616967569667 61.2518
17.762150914021706 61.2907
17.78486160749854 61.0399
17.807396945166804 61.7726
17.829932977143503 62.0654
17.85246970436452 63.4346
17.875183204129467 65.2445
17.897721330097664 67.3712
17.920260154126645 69.5568
17.942799677153296 72.3241
17.9655159983646 75.7002
17.988056927677544 80.1967
18.010598558807683 87.0863
18.033140892692916 95.7375
18.05586005052525 105.956
18.07840379824407 117.085
18.10094825154059 129.134
18.12366954819864 138.713
18.146215420998306 142.673
18.16876200220057 136.128
18.191309292745153 122.899
18.214033452627167 107.902
18.236582170236648 94.8062
18.259131600016456 87.2331
18.281681742907335 85.4364
18.304408781233683 88.6217
18.32696035875955 92.9968
18.349512652227624 98.1624
18.372065662579683 103.48700000000001
18.394795594587553 106.665
18.41735004715306 105.76100000000001
18.43990521943684 100.446
18.46246111238171 90.9334
18.485193953325208 80.60600000000001
18.507751296070428 72.1374
18.530309362314178 67.0117
18.552868153000343 63.8949
18.57560391815056 62.4419
18.59816416623245 62.0183
18.620725141597372 61.3863
18.643286845190268 61.0178
18.666025549835414 60.5842
18.688588718427933 59.9907
18.711152618092243 59.7518
18.73389353884365 59.5457
18.75645890921984 59.1528
18.77902501351406 58.6888
18.801591852673102 58.5933
18.824335739722738 58.2107
18.846904057212626 58.1686
18.8694731124168 57.8276
18.89204290628315 57.6449
18.914789774966803 57.4087
18.937361054791623 57.1574
18.959933076131318 57.0196
18.982505839934877 57.0581
19.00525570560582 57.2237
19.027829963004184 57.0932
19.05040496572238 57.1393
19.072980714710468 57.1052
19.095733592739563 57.0504
19.11831084296757 57.3448
19.140888842324735 57.8213
19.16346759176222 58.2699
19.18622349753803 58.7938
19.208803755869358 59.4573
19.231384767143577 60.2894
19.253966532312948 61.5028
19.276725481241822 63.3392
19.29930876296784 65.7094
19.3218928014549 68.4526
19.34465404436217 72.0157
19.36723960516257 75.238
19.389825925592426 77.48899999999999
19.412413006605938 77.2929
19.43517731967805 74.4515
19.457765930683355 69.7132
19.48035530514408 65.0467
19.50294544401556 60.8235
19.525712842708348 57.4654
19.54830451925909 55.7727
19.570896963095727 54.4589
19.593490175174704 54.1385
19.616260674962184 53.9471
19.638855432416964 53.6262
19.661450960992624 53.7065
19.68404726164677 53.5773
19.706820878021247 53.151
19.729418731756834 53.4695
19.752017360452857 53.3825
19.77461676506804 53.4256
19.797393513540218 53.6138
19.819994478951667 53.8733
19.84259622316767 54.5493
19.8651987471481 54.9861
19.887978643247177 55.1806
19.91058273574792 55.5582
19.933187610901943 56.0562
19.955969879466828 57.037
19.97857632894404 58.167
20.00118356396599 59.6434
20.023791585494575 61.3889
20.046577028914875 64.0707
20.069186632506966 66.4453
20.091797025500632 68.4248
20.114408208858933 69.9199
20.137196842715273 70.3528
20.159809615886765 69.2029
20.18242318232135 66.4463
20.20503754298326 64.033
20.227829382875154 62.5534
20.250445341109344 61.9358
20.27306209647285 62.0418
20.29567964993108 63.0399
20.31847471147704 64.1756
20.34109387027612 65.5608
20.363713830075454 65.7849
20.386334591841646 64.9511
20.409132890679302 62.6074
20.431755265564437 59.2582
20.454378445325528 56.4975
20.477002430930366 54.5096
20.499803982716553 53.0841
20.522429589228004 52.1556
20.54505600449589 51.5889
20.567683229489194 51.4924
20.590488049900088 51.0187
20.61311690359731 50.4714
20.63574656993626 50.2956
20.658553853717297 49.783
20.681185154618298 49.7015
20.703817271080066 49.724
20.72645020407368 49.5311
20.749260783967177 49.2012
20.771895359337133 49.1916
20.794530754161617 49.0242
20.817166969412938 48.9071
20.83998086114876 48.9516
20.86261872660049 48.8431
20.885257415405402 48.7479
20.90789692853701 48.7342
20.930714147864748 48.571999999999996
20.953355319030678 48.5163
20.97599731745334 48.6554
20.99864014410749 48.67100000000001
21.021460706796564 48.6999
21.044105199328826 48.9545
21.06675052302631 49.1578
21.089396678865015 49.2238
21.112220600704806 49.5591
21.134868430275347 49.7653
21.15751709492456 49.972
21.180166595629693 50.1397
21.202993892429635 50.8294
21.22564507473034 51.1554
21.24829709602816 51.4742
21.27112693608965 51.4919
21.293780644891275 51.7702
21.316435195634053 51.0539
21.339090589297417 50.2217
21.361923832041875 49.8669
21.384580921090404 49.141000000000005
21.407238856007325 48.7766
21.429897637773326 48.6707
21.45273429906592 48.5102
21.475394784108598 48.3863
21.498056118951983 48.2632
21.520718304578022 48.6706
21.543558400304388 48.3878
21.566222297108816 48.7666
21.58888704765135 48.7544
21.61155265291521 49.085
21.63439619898156 49.5972
21.657063523335786 49.8116
21.67973170537063 50.2119
21.7024007460706 50.613
21.72524775840385 51.34
21.747918526116475 52.2623
21.770590155457388 53.3027
21.79326264741238 54.8788
21.816113141960237 56.2803
21.838787368860547 58.018
21.861462461341976 59.9753
21.884315579735777 61.9912
21.90699241312273 63.4995
21.92967011506078 64.6312
21.95234868653799 65.0965
21.9752053151131 64.3848
21.997885635446785 62.5141
22.020566828293532 60.5718
22.04324889464272 58.4408
22.066109049404666 56.8801
22.088792872571794 56.1735
22.111477572219204 56.0875
22.1341631493376 56.1609
22.157026846313123 56.2316
22.179714188221507 55.9273
22.202402410582668 54.8768
22.22509151438863 53.4301
22.24795876962584 51.8859
22.270649646204486 50.9935
22.293341407213727 50.3313
22.316034053646906 49.6641
22.338904883215342 49.3453
22.36159931041458 49.2209
22.38429462602756 49.1436
22.40699083104897 49.0372
22.429865251039757 49.2712
22.452563244831367 49.2167
22.47526213102522 49.1832
22.49813925616515 49.0399
22.520839937143307 48.81
22.543541513520587 48.716
22.56624398629403 48.7096
22.589124730075895 48.6198
22.611829005656723 48.5564
22.63453418063466 48.6018
22.657240256008077 48.695
22.680124634582935 49.1009
22.70283252079775 49.3898
22.725541310413075 49.5106
22.74825100442868 49.6799
22.771139033969575 49.9628
22.79385054687155 50.1798
22.81656296718292 50.7218
22.83927629590484 51.5398
22.862167992606945 52.5741
22.88488314827121 53.5964
22.907599215359284 54.5235
22.93031619487366 55.7457
22.953211574954405 56.7831
22.975930389478226 57.7368
22.998650119445763 58.5209
23.02137076586092 58.0493
23.044269845560063 57.0878
23.06699233506288 55.6676
23.089715744034912 53.7118
23.112617610931565 51.7483
23.135342869061212 50.4446
23.158069049684816 49.5662
23.1807961538087 49.0481
23.20370174880544 48.975
23.226430710184808 48.8083
23.249160598093425 48.9369
23.271891413539002 48.8775
23.294800752937697 48.8199
23.31753343374794 49.0926
23.340267045128353 49.1816
23.36300158808808 49.3161
23.38591468821339 49.5318
23.408651104658304 50.0535
23.431388455719986 50.6469
23.454126742409 51.2757
23.4770436196085 52.1089
23.499783787914662 53.1425
23.522524894889884 54.2389
23.54526694154616 55.3785
23.56818761219047 56.6292
23.59093154860734 57.6501
23.613676427751283 58.3309
23.636422250635754 57.9033
23.659346731118656 56.7159
23.68209445191868 54.8189
23.704843119509587 52.5532
23.72759273490623 50.449
23.750521041644767 48.7421
23.77327256312355 47.6756
23.796025035462787 46.9629
23.818956224555475 46.2885
23.841710609113413 46.1897
23.86446594758979 46.0655
23.887222241002014 45.6743
23.910157285144578 45.3055
23.932915498962537 45.3113
23.955674670778713 45.1077
23.978434801611975 44.8532
24.001373717286125 44.9269
24.024135776723917 44.8353
24.046898798245582 44.7097
24.06966278287146 44.7115
24.092605586582614 44.3922
24.115371508023642 44.297
24.1381383956401 44.2193
24.16090625045381 44.2904
24.183852958731244 44.0715
24.206622758582608 44.0552
24.229393528706886 43.7816
24.252165270127392 43.8443
24.27511589952438 43.7386
24.297889594216997 43.4291
24.32066426328598 43.402
24.34343990775613 43.4231
24.36639447485003 43.2888
24.38917208083877 43.3039
24.41195066531332 43.2396
24.43490819850244 43.2719
24.457688750692377 43.1351
24.48047028445616 42.9913
24.503252800821233 43.1597
24.526214300784112 43.1019
24.548998793132213 43.2226
24.57178427117417 43.0787
24.59457073593893 43.0208
24.617536219319863 43.1616
24.64032466834748 43.0336
24.663114107195035 42.7993
24.685904536893013 42.751000000000005
24.708874020360852 42.7182
24.731666442613744 42.5832
24.754459858818787 42.5467
24.777254270007962 42.3882
24.80022777025625 42.351000000000006
24.82302418230472 42.4224
24.845821592443674 42.3829
24.86862000170663 42.2576
24.891597535453727 41.9501
24.914397953892728 42.3439
24.93719937456671 42.1353
24.96000179851076 42.4503
24.98298338249997 42.4196
25.00578782394922 42.7573
25.028593271784167 42.7834
25.05157790644186 43.2251
25.07438537804115 43.2118
25.097193859145293 43.4219
25.120003350792075 43.6618
25.142992065061257 44.0792
25.165803588823465 44.2798
25.18861612625217 44.6083
25.211429678386736 44.6376
25.234422489079968 44.7952
25.257238081693636 44.7804
25.280054692141732 44.9956
25.3028723214652 44.8389
25.325869245420463 45.083999999999996
25.348688923599397 45.1661
25.371509623787006 45.091
25.394331347025812 44.7741
25.41733240110666 44.6003
25.440156181590016 44.1427
25.46298098826268 43.6398
25.48580682216873 42.9831
25.50881202326435 42.2484
25.53163992281684 41.8427
25.55446885274561 41.4222
25.577298814096377 41.0928
25.600308179121807 41.056999999999995
25.623140214533745 41.0396
25.64597328451537 40.8301
25.66898578564376 40.5421
25.691820936010206 40.6153
25.714657124097695 40.6633
25.737494350954734 40.6646
25.760511045684957 40.5896
25.783350361364224 40.5746
25.806190718969255 40.5828
25.82903211955018 40.7168
25.852053024868923 40.7151
25.874896522722523 40.805
25.897741066713106 40.8604
25.920586657892454 40.7801
25.943611790812668 41.0249
25.966459487728237 41.0896
25.989308234998564 40.9667
26.01215803367705 41.2396
26.03518741123814 41.3663
26.05803932412957 41.6469
26.080892291600094 41.6893
26.10374631470478 41.6972
26.12677995397268 41.9847
26.14963609978026 41.9722
26.172493304397875 41.6536
26.19535156888223 41.4213
26.218389486949604 41.0239
26.241249882640123 40.7682
26.26411134137826 40.48
26.28715248187403 40.4244
26.31001607820869 40.1182
26.3328807407756 40.205
26.35574647063438 40.2918
26.37879191991473 40.1251
26.401659795896734 40.1755
26.424528742360263 40.1936
26.447398760366614 40.3313
26.470448535598294 40.5838
26.49332070826805 40.7298
26.516193955675355 40.9827
26.53906827888316 41.2697
26.562122397260108 41.3509
26.584998883685063 41.6072
26.607876449110325 41.8512
26.63075509460056 42.0387
26.65381357334404 42.3202
26.67669439061878 42.2923
26.699576291163382 42.4234
26.722459276044212 42.3639
26.745522132402975 42.0804
26.768407297649354 41.6628
26.791293550442003 41.2125
26.814180891848974 41.011
26.837248143099337 40.6423
26.860137673466657 40.6555
26.88302829566349 40.353
26.90592001075963 40.1726
26.92899167420566 40.0129
26.951885586870763 39.7317
26.974780595655517 39.3932
26.99785558178161 39.3831
27.020752794605112 39.1822
27.043651106772522 39.0002
27.06655051935668 39.0174
27.089629948036183 38.8641
27.112531573292053 38.76
27.135434302194138 38.8626
27.158338135817015 38.6983
27.181422024430987 38.7452
27.204328079372566 38.5839
27.22723524226965 38.6817
27.250143514198573 38.6991
27.273231880156334 38.5987
27.296142382065014 38.4731
27.319053996245536 38.398
27.341966723775965 38.5316
27.365059584515222 38.501
27.38797455070062 38.5387
27.410890633481237 38.4709
27.433807833936918 38.3361
27.456905206923906 38.4931
27.47982465472398 38.5926
27.502745223449743 38.5912
27.525666914182825 38.6971
27.548768816912457 38.6001
27.571692763693633 38.5876
27.59461783573812 38.4932
27.617723149491244 38.3071
27.640650484125285 38.2926
27.66357894728264 38.2369
27.686508540048052 38.2512
27.709618414237887 38.0281
27.732550278321757 37.9348
27.755483275279115 37.9681
27.778417406196485 37.9223
27.801531858397514 37.8175
27.824468269376716 37.7364
27.847405817586786 37.7192
27.870344504116094 37.9571
27.893463551932008 38.1889
27.916404527281053 38.3574
27.93934664422563 38.356
27.962289903855886 38.3554
27.98541356491974 38.4494
28.00835912214229 38.7469
28.03130582533231 39.126999999999995
28.054253675581805 39.2134
28.077381967556104 39.1322
28.100332124185126 39.1877
28.123283431160893 39.1207
28.146235889577238 39.1024
28.169368830154156 38.9282
28.192323603752033 38.7495
28.215279532083304 38.2724
28.238415973016764 38.1127
28.261374223145094 38.1582
28.284333631303806 38.0247
28.307294198589954 37.7725
28.330435319167677 37.3636
28.353398217078915 37.1181
28.376362277420153 36.8462
28.39932750129032 36.7113
28.422473319286713 36.5586
28.44544088262495 36.647
28.468409612800283 36.4505
28.491379510913497 36.1202
28.51453004413313 36.0506
28.53750229057244 36.1443
28.56047570826344 35.992
28.583450298308804 36.073
28.606605564586562 35.8284
28.629582511831156 35.8834
28.65256063474956 35.834
28.675539934446338 35.7073
28.698699951647605 35.6455
28.72168161743193 35.6751
28.74466446331978 35.6503
28.767648490417624 35.6365
28.790813276438353 35.5669
28.813799678527303 35.5597
28.836787265157085 35.6871
28.859955641890075 35.6319
28.882945610203045 35.6027
28.905936766392035 35.441
28.928929111566863 35.4573
28.952102288520145 35.4003
28.975097024308607 35.3417
28.998092952423807 35.2378
29.021090073977508 35.0456
29.04426806913204 34.9702
29.067267590245258 34.8602
29.090268308143695 34.8008
29.11327022394099 34.7761
29.13645305530891 34.564
29.159457379627167 34.534
29.18246290519685 34.5064
29.20546963313352 34.4249
29.22865731875826 34.4575
29.25166646419296 34.5293
29.27467681535305 34.2997
29.29768837335608 34.4073
29.320880931312562 34.3524
29.34389491580634 34.3178
29.366910110507334 34.3654
29.38992651653503 34.3978
29.41312396492981 34.3438
29.436142806456754 34.2147
29.45916286268059 34.1956
29.48236399319994 34.1286
29.50538649169417 33.9845
29.528410208259935 33.8346
29.55143514402014 33.685
29.574641196749695 33.6014
29.597668583816574 33.4826
29.6206971934585 33.3671
29.64372702680042 33.3527
29.666938019934474 33.1776
29.689970313635285 33.0613
29.713003834422636 33.0427
29.73603858342347 32.9945
29.759254535188578 33.148
29.78229175361658 33.0032
29.80533020365064 33.0362
29.82836988641968 33.0689
29.85159081507472 32.9495
29.874632976355343 32.8104
29.89767637376955 32.8802
29.920721008448314 32.758
29.9439469322847 32.6748
29.96699405457564 32.5999
29.9900424175358 32.6689
30.013092022298157 32.6376
30.03632295963995 32.5408
30.059375061131373 32.6629
30.08242840783577 32.6594
30.105483000888153 32.5785
30.128718970092244 32.6004
30.151776069006917 32.5049
30.17483441768648 32.523
30.198074175317235 32.554
30.221135036724256 32.5282
30.24419715131772 32.4484
30.267260520236203 32.4824
30.290505341942243 32.4154
30.313571232750228 32.4661
30.336638381310948 32.4197
30.35970678876503 32.3512
30.38295669299435 32.3852
30.40602763151657 32.3798
30.429099832366074 32.324
30.452173296685572 32.2344
30.47542830191959 32.1197
30.498504306502497 32.1122
30.521581577995562 32.1269
30.544660117543582 32.1509
30.56792024229725 32.2739
30.59100133132069 32.231
30.614083691845494 32.1668
30.637167325018545 32.2682
30.660432587840603 32.3808
30.683518779717886 32.2188
30.70660624769615 32.3741
30.729694992924372 32.3829
30.75296541239743 32.3042
30.77605672557558 32.2856
30.799149319462742 32.301
30.8224236211637 32.1708
30.845518789950724 32.0053
30.868615242910597 31.9844
30.891712981195973 31.8324
30.91499247215866 31.7064
30.938092794619365 31.7541
30.96119440587579 31.5745
30.984297307082752 31.5846
31.00758200598383 31.403000000000002
31.030687500658694 31.3331
31.053794288760695 31.338
31.076902371446767 31.2304
31.100192296997445 31.165
31.12330298246119 31.1173
31.14641496599209 31.051
31.169528248749216 31.0156
31.19282341969534 31.0774
31.215939314557186 31.1398
31.239056512134788 31.017
31.262175013589378 31.0314
31.28547544871168 30.9512
31.30859657161541 30.7822
31.331719001892175 30.8814
31.35484274070538 30.9804
31.378148458819545 30.9865
31.401274828443725 30.9243
31.424402510106933 30.9507
31.447712205419993 31.0553
31.470842524931633 30.9442
31.493974159989783 30.9042
31.51710711176168 30.8208
31.54042212308802 30.8928
31.563557722100917 30.965
31.586694641341655 30.7856
31.609832881979628 30.6738
31.63315322823208 30.5506
31.656294125521327 30.3574
31.679436347728515 30.4019
31.70257989602529 30.3816
31.725905596152327 30.3511
31.74905181052835 30.1566
31.772199354521323 30.3794
31.79534822930507 30.338
31.818679302290967 30.2155
31.84183085259981 30.1773
31.864983737233473 30.1915
31.88813795736804 30.2267
31.911474422233013 30.1243
31.934631327356435 30.089000000000002
31.9577895715215 30.2019
31.980949155906522 30.1808
32.004291031706956 30.145
32.027453310562606 30.0514
32.05061693318573 29.9826
32.07396288236386 29.9964
32.09712920658542 29.9273
32.12029687812702 29.7158
32.14346589817093 29.7496
32.166817291729984 29.7359
32.18998902288583 29.6555
32.21316210610336 29.5268
32.23633654256711 29.4125
32.259693399663725 29.3718
32.282870556771144 29.2927
32.30604907069099 29.2371
32.329228942610065 29.2074
32.35259128243769 29.0619
32.375773884550505 29.0874
32.398957848235646 29.0273
32.422143174682176 28.9296
32.445511016471215 28.8654
32.468699082679954 28.8224
32.49188851523011 28.8566
32.51507931531304 28.7472
32.538452678331 28.8187
32.56164622776311 28.711
32.58484114831493 28.4691
32.60803744118015 28.5872
32.631416344731896 28.6462
32.654615396551876 28.5471
32.67781582427913 28.5191
32.701198898634416 28.5459
32.72440209253756 28.4405
32.747606665947124 28.3512
32.77081262006088 28.2252
32.79420126883317 28.266
32.81740999876112 28.2982
32.840620112999424 28.1896
32.86383161274818 28.168000000000003
32.88722585534586 28.2099
32.91044014056596 28.1778
32.933655814909734 28.131999999999998
32.95687287957963 28.0638
32.98027273544904 28.0117
33.00349259526636 27.9284
33.026713849030116 28.0489
33.04993649794511 28.0015
33.073341986570746 27.9052
33.09656744032826 27.8799
33.11979429286444 27.9397
33.14302254538647 27.8034
33.166433686291185 27.7558
33.18966475336992 27.8314
33.212897224069096 27.6502
33.23613109959831 27.7721
33.259547912343415 27.7404
33.2827846121627 27.6832
33.306022720453775 27.5481
33.32926223842861 27.4535
33.352684742614166 27.5005
33.37592709463173 27.4476
33.399170859982064 27.4196
33.422597648419426 27.4216
33.44584425514446 27.2672
33.46909227885668 27.2959
33.4923417207723 27.0673
33.51577423505344 27.1974
33.539026528130385 27.0102
33.56228024307245 27.0143
33.585535381098246 26.9306
33.60897364093058 26.8601
33.63223163992385 26.8743
33.6554910656699 26.7897
33.678751919389796 26.8308
33.702195944520106 26.6788
33.72545966903325 26.6678
33.74872482519663 26.6196
33.771991414233746 26.6955
33.79544122444841 26.6002
33.81871069412428 26.5159
33.84198160035767 26.5331
33.86525394437455 26.5096
33.88870955949969 26.3707
33.911984794020626 26.4574
33.93526147001624 26.4137
33.958539588715006 26.2577
33.98200102861669 26.285999999999998
34.0052820477047 26.1818
34.02856451319451 26.149
34.05203033759056 26.0428
34.07531571090147 26.0793
34.09860253431845 26.0496
34.121890809074316 25.9941
34.145362493118924 25.9957
34.16865368561615 25.9395
34.191946333164054 25.916999999999998
34.21524043699793 25.9083
34.23871800066799 25.8587
34.26201503218366 25.658
34.28531352370466 25.6911
34.30861347646881 25.6197
34.33209693978188 25.6876
34.3553998301885 25.6927
34.378704185565205 25.5996
34.402010007152356 25.5756
34.42549939016683 25.5455
34.44880815937748 25.4266
34.472118398533134 25.4212
34.49543010887669 25.3256
34.51892543169198 25.2479
34.54224009966052 25.2426
34.56555624255917 25.3305
34.58887386163339 25.2588
34.61237514439016 25.1384
34.6356957311114 25.1322
34.65901779775809 24.9956
34.68252356662995 24.9897
34.705848608458616 25.061999999999998
34.72917513396849 24.9477
34.75250314440949 24.9417
34.77601490857862 24.8153
34.799345904259795 24.7597
34.82267838863559 24.7857
34.846012362958525 24.8337
34.869530142679984 24.68
34.89286711232212 24.6922
34.91620557568269 24.642
34.93954553401677 24.6471
34.9630693495876 24.6513
34.986412313340814 24.5766
35.00975677584668 24.5183
35.033102738362956 24.531999999999996
35.05663261012228 24.454
35.0799815881786 24.4982
35.10333207003229 24.4443
35.12668405694369 24.4284
35.150220005273056 24.4709
35.17357501786656 24.4444
35.19693153931268 24.3327
35.220289570874385 24.2973
35.24383161619786 24.3087
35.267192683604904 24.2813
35.290555264930376 24.1951
35.314101899412165 24.0893
35.33746752422433 24.1593
35.36083466676374 24.1176
35.38420332829803 24.1889
35.407756095629054 24.1078
35.43112781085063 24.073
35.45450104888391 24.0316
35.477875810999194 24.0118
35.50143473172161 23.9377
35.52481255774625 24.0191
35.54819191167777 23.9066
35.57157279478914 23.9308
35.595137889488406 23.8578
35.61852184675279 23.8807
35.641907337029984 23.7949
35.665294361595684 23.7764
35.68886565090076 23.6924
35.7122557598848 23.6851
35.73564740699838 23.6006
35.759040593519934 23.6151
35.78261809810353 23.6168
35.80601437933051 23.4911
35.829412203814705 23.4357
35.85281157283719 23.3984
35.876395313415884 23.4115
35.8997977874528 23.3285
35.92320180988546 23.2863
35.946790244133936 23.2581
35.97019737933222 23.2685
35.993606066789866 23.208000000000002
36.01701630779276 23.2143
36.04061101440684 23.2086
36.06402437852291 23.0983
36.08743930005611 23.1177
36.1108557802951 23.0201
36.13445678011326 23.0125
36.15787639383515 22.9586
36.18129757014299 22.9203
36.20472031032821 22.9326
36.22832762423364 22.8104
36.25175350829375 22.7857
36.275180960119776 22.7564
36.298609981005924 22.7507
36.32222362992669 22.7954
36.34565580510207 22.7047
36.36908955323448 22.7287
36.39252487562093 22.6256
36.416144880530226 22.5409
36.43958336764275 22.5274
36.463023432914625 22.5197
36.486465077645676 22.3842
36.51009145956204 22.5407
36.53353627947859 22.5452
36.55698268276811 22.5026
36.58043067073321 22.3087
36.60406345072071 22.3295
36.62751462435344 22.2921
36.65096738658405 22.2913
36.67460498210655 22.2647
36.69806093788647 22.3017
36.72151848619297 22.0998
36.744977628333636 22.1937
36.76862165890998 22.0413
36.79208400512205 22.0556
36.81554794910557 22.1344
36.83901349217101 21.9501
36.862663978991606 21.8985
36.88613273667352 21.9328
36.90960309738324 21.8841
36.933075062434064 21.8423
36.95673202673572 21.7739
36.98020721697122 21.7189
37.003684015502365 21.666999999999998
37.027162423645365 21.7083
37.050825886711465 21.776
37.07430753063053 21.5761
37.09779078812467 21.5508
37.121275660513014 21.5475
37.144945643673694 21.5137
37.16843376245278 21.5033
37.19192350009803 21.4472
37.215414857931435 21.3454
37.239091382563885 21.2966
37.262585997426164 21.3534
37.28608223645736 21.3567
37.309763684451696 21.3193
37.33326318851098 21.2417
37.356764320726555 21.2985
37.380267082425526 21.2532
37.40395510942588 21.2024
37.42746114683234 21.0969
37.45096881771841 21.0438
37.474478123414166 20.9807
37.49817275092816 21.0758
37.52168534303452 21.0343
37.54519957395567 20.971
37.568715445024665 20.9335
37.592416694607714 20.8825
37.61593586281424 20.8663
37.63945667518264 20.9619
37.66297913304891 20.8807
37.68668702630454 20.7694
37.710212792059274 20.7738
37.733740207334854 20.7194
37.757269273470364 20.6411
37.780983832050374 20.5829
37.80451621684926 20.5603
37.82805025654007 20.5337
37.851585952464795 20.5453
37.8753071980695 20.5001
37.89884622345676 20.4194
37.92238690911902 20.3942
37.94611318753442 20.3564
37.969657210779765 20.3768
37.99320289834801 20.317999999999998
38.016750251586465 20.3623
38.04048325513017 20.225
38.06403395679343 20.1681
38.087586328183946 20.1863
38.11114037065203 20.1665
38.13488012115898 20.1459
38.1584375229181 20.0758
38.181996599821 20.0234
38.205557353221124 20.0464
38.229303872575656 20.0463
38.2528679961576 19.9891
38.27643380031219 19.8839
38.30000128639589 19.8816
38.32375459653193 19.904
38.34732546371299 19.8575
38.37089801690786 19.8276
38.39447225747609 19.7915
38.418232380377425 19.7323
38.441810012983396 19.7352
38.46538933705673 19.75
38.488970353960084 19.6679
38.51273731166058 19.6807
38.536321731567014 19.5739
38.55990784840681 19.5633
38.58367995004091 19.5151
38.60726947812959 19.4619
38.63086070726198 19.5018
38.654453638806274 19.4744
38.678232613930824 19.4216
38.70182896773327 19.3142
38.72542702806741 19.308
38.7490267963045 19.3341
38.77281266709232 19.3289
38.79641586862214 19.2764
38.8200207821842 19.1953
38.843627409152944 19.320999999999998
38.86742019782782 19.2311
38.891030269149255 19.149
38.914642058016156 19.1478
38.938255565806124 19.0499
38.96205529464307 18.9582
38.98567225787121 19.0108
39.00929094417078 18.989
39.03291135492255 18.9655
39.05671804624804 18.9527
39.080341923549106 18.9459
39.103967529460334 18.8831
39.127594865365744 18.8152
39.15140854155791 18.7865
39.17503935514948 18.809
39.19867190290282 18.7936
39.22249083587951 18.7871
39.24612686969409 18.722
39.269764641845306 18.6645
39.293404153722804 18.6281
39.317230110864074 18.6436
39.34087311998506 18.5418
39.36451787301696 18.5596
39.388164371352595 18.4733
39.41199737518003 18.4839
39.43564738196752 18.4698
39.45929913825317 18.4144
39.48295264543308 18.3413
39.506792718520884 18.2904
39.530449745387216 18.3131
39.55410852735203 18.3377
39.57776906581474 18.3075
39.60161623079 18.1933
39.625280300200025 18.2194
39.64894613032202 18.1832
39.67261372255866 18.1556
39.6964680021016 18.083
39.72013913657293 18.1138
39.74381203738292 18.0836
39.76748670593756 18.0629
39.79134812278169 18.1007
39.81502634488497 18.0144
39.83870633896685 17.971
39.862388106436654 17.9395
39.88625668336918 17.933
39.90994201572829 17.908
39.933629125719285 17.8062
39.957503091207826 17.7801
39.9811937746168 17.813
40.00488623990914 17.7585
40.02858048850006 17.7128
40.05246165409549 17.7105
40.076159487492085 17.6822
40.099859108448875 17.6798
40.123560518384345 17.6201
40.1474489070226 17.6337
40.171153913178564 17.5233
40.194860712584955 17.5207
40.2185693066637 17.5017
40.242464941335314 17.4884
40.26617714307655 17.4196
40.289891143772046 17.4392
40.3136069448471 17.4099
40.33750984859743 17.3729
40.3612292688043 17.3545
40.3849504936829 17.2762
40.40867352466194 17.2536
40.43258372059144 17.212
40.45631038219906 17.2192
40.48003885420956 17.1347
40.503769138055105 17.1142
40.52768664931955 17.1373
40.55142057531802 17.1491
40.57515631746428 17.1311
40.599079334038514 17.1153
40.62281872700477 17.021
40.64655994043941 17.0113
40.67030297578061 16.9814
40.69423334835778 16.9491
40.71798004609188 16.9462
40.74172857006355 16.9234
40.76547892171441 16.9043
40.7894166736039 16.8953
40.813170699248566 16.8236
40.83692655691388 16.8104
40.86068424804498 16.8201
40.884629402612525 16.7654
40.908390779366385 16.7548
40.932153993938 16.7114
40.95591904777605 16.7213
40.979871628443995 16.706
41.003640379561936 16.6603
41.02741097430883 16.6066
41.05118341413683 16.6296
41.075143444384416 16.5589
41.098919593177826 16.5158
41.1226975914255 16.5059
41.14647744058318 16.4959
41.170444943946755 16.4155
41.19422851378379 16.3656
41.218013938914645 16.3343
41.24198706625173 16.3017
41.26577622087193 16.2778
41.289567235177785 16.275
41.31336011063129 16.2379
41.337340752422875 16.2529
41.361137369129835 16.2394
41.38493585138705 16.1664
41.40873620066004 16.1598
41.43272438060107 16.1614
41.45652848292052 16.1235
41.48033445666918 16.0914
41.50414230331616 16.0074
41.528138045159764 16.0079
41.551949656675205 15.9598
41.575763145513235 15.9727
41.59957851314666 15.9302
41.62358184070442 15.9075
41.64740098505737 15.8579
41.6712220126409 15.8551
41.69504492493139 15.8071
41.71905586207357 15.8145
41.74288256296395 15.7586
41.766711153007456 15.7567
41.79054163368412 15.7678
41.814560204340054 15.7265
41.838394485526365 15.6954
41.86223066180303 15.6451
41.88625497706819 15.6409
41.910094962812 15.5837
41.93393684811168 15.602
41.95778063445365 15.6061
41.981812625263366 15.5766
42.00566023303407 15.5217
42.029509746323676 15.4598
42.05336116662236 15.4336
42.077400857069705 15.4286
42.10125611078846 15.3828
42.12511327600405 15.3705
42.14897235421036 15.3511
42.173019768448455 15.2991
42.19688269209613 15.2509
42.22074753323349 15.2551
42.24461429335818 15.277000000000001
42.268669455600495 15.2658
42.292540073217886 15.2181
42.31641261433284 15.1801
42.34028708044675 15.1462
42.36435001496739 15.0815
42.38822835065557 15.0886
42.41210861586426 15.1077
42.4359908120986 15.0574
42.46006154323262 14.9662
42.48394762115317 14.9874
42.507835634632315 14.9938
42.531912233047436 14.9323
42.55580413732265 14.9075
42.579697981698 14.8766
42.60359376768525 14.8415
42.62767820545945 14.8624
42.65157789440821 14.8903
42.67547952952185 14.8487
42.699383112316 14.7474
42.72347541395347 14.7067
42.74738291190531 14.6764
42.771292362102166 14.7005
42.795203766063516 14.7058
42.819303956130405 14.6132
42.843219287476536 14.585
42.86713657716324 14.5475
42.89105582671383 14.5513
42.91516392983864 14.5269
42.939087119032166 14.5338
42.963012272677304 14.4802
42.98693939230129 14.4782
43.01105543317513 14.3854
43.034986504731386 14.4229
43.05891954686589 14.3984
43.08285456110972 14.3579
43.10697856448665 14.3396
43.130917542983475 14.2955
43.15485849820081 14.3113
43.17880143167367 14.2932
43.20293342237094 14.2571
43.226880332449 14.248
43.25082922540554 14.2063
43.27496722682525 14.1726
43.29892010567796 14.1271
43.32287497204102 14.1003
43.34683182745632 14.0692
43.370977859791836 14.0815
43.39493871351105 14.0003
43.41890156092628 14.0569
43.44286640358341 13.9659
43.46702049182749 13.9657
43.49098934522816 13.9267
43.51496019852649 13.922
43.5389330532723 13.9243
43.56309522248204 13.8612
43.58707210044314 13.9005
43.61105098451946 13.8119
43.63503187626491 13.7924
43.659202151562134 13.7863
43.68318707902681 13.8048
43.70717401884041 13.7224
43.731162972560874 13.7225
43.75534137913236 13.6725
43.779334381108384 13.6076
43.803329401683186 13.6257
43.82732644241872 13.6195
43.8515130055166 13.6126
43.87551410707659 13.5499
43.89951723350145 13.5522
43.923709934595614 13.5202
43.94771713129917 13.5142
43.97172635758096 13.4544
43.99573761501002 13.4416
44.0199385169922 13.4479
44.04395385732619 13.4647
44.067971233533086 13.4523
44.09199064718605 13.3512
44.11619977548961 13.3367
44.14022328470671 13.2962
44.16424883610785 13.3509
44.18827643127035 13.3434
44.21249381139513 13.2637
44.236525514814076 13.2183
44.26055926674478 13.2178
44.28459506876863 13.2181
44.3088207262813 13.132
44.33286064928722 13.1553
44.35690262714919 13.0956
44.38094666145278 13.1019
44.4051806219871 13.0919
44.42922879003185 12.9763
44.45327901929361 12.9706
44.477331311362136 13.0026
44.501573600619416 12.9679
44.525630039221795 12.9367
44.54968854541895 12.9335
44.573937102200176 12.8971
44.5979997645541 12.8724
44.622064499300315 12.8645
44.64613130803592 12.8502
44.67038823869318 12.8447
44.69445921643748 12.764000000000001
44.718532272981385 12.7233
44.742607409926194 12.7503
44.76687274034801 12.7266
44.79095205918753 12.6621
44.81503346325094 12.6793
44.839116954143876 12.6626
44.86339071028742 12.6655
44.88747839599524 12.6211
44.91156817336837 12.5531
44.93566004401666 12.6231
44.959942251908146 12.5541
44.984038330325966 12.5174
45.00813650686762 12.5016
45.03223678314731 12.4773
45.05652746888232 12.4563
45.08063196592069 12.4519
45.104738567558705 12.3937
45.128847275414856 12.4323
45.15314646515866 12.342
45.17725940679741 12.317
45.20137445952892 12.3472
45.22568004865265 12.3075
45.24979934496396 12.2813
45.27392075725247 12.2886
45.29804428714431 12.2136
45.322358426247604 12.2322
45.346486212804315 12.1886
45.370616121861914 12.1861
45.39474815505086 12.2015
45.41907087049246 12.1269
45.4432071734666 12.0941
45.46734560548283 12.0754
45.49148616817604 12.1018
45.51581748638564 12.0602
45.5399623320197 12.0587
45.56410931325473 12.0148
45.58825843173002 12.0092
45.61259837920865 11.9645
45.636751793816 11.9742
45.66090735060093 11.9067
45.68506505120716 11.9034
45.7094136545275 11.8541
45.73357566449271 11.8397
45.75773982322992 11.8524
45.78190613238733 11.8081
45.806263418194064 11.7677
45.83043404997326 11.7757
45.85460683713677 11.7629
45.87897065658495 11.7368
45.90314777634752 11.6658
45.92732705646868 11.6902
45.9515084986045 11.6978
45.97588104735473 11.67
46.00006683541565 11.6104
46.02425479047904 11.6274
46.04844491420549 11.6266
46.0728262191024 11.6417
46.09702070211635 11.552
46.12121735879483 11.5477
46.14541619080294 11.5202
46.169806278764455 11.491
46.194009483459034 11.4712
46.21821486849841 11.4189
46.24242243555223 11.4252
46.266821333570014 11.4004
46.29103328674601 11.3908
46.31524742696538 11.3812
46.33946375590237 11.3137
46.36387149104216 11.3087
46.38809221957392 11.290999999999999
46.41231514186606 11.2314
46.436540259597464 11.2744
46.460956858999374 11.2555
46.48518638983522 11.2114
46.509418121166966 11.177999999999999
46.533652054678114 11.2035
46.55807754555709 11.14
46.58231590571962 11.1383
46.60655647313217 11.1201
46.630988654873654 11.0892
46.655233659129024 11.0433
46.67948087571551 11.0715
46.70373030632484 11.0129
46.72817142736393 11.0286
46.752425308428684 10.9859
46.77668140861147 11.0012
46.80093972960865 10.9509
46.82538981736788 10.932
46.849652602470904 10.8672
46.87391761349769 10.855
46.8981848521493 10.8311
46.9226439341274 10.8644
46.946915650573224 10.7984
46.97118959976749 10.7831
46.99546578341598 10.8068
47.019933887188216 10.7628
47.04421456235744 10.7697
47.06849747711879 10.731
47.09278263318286 10.6872
47.11725978640143 10.6886
47.14154944775105 10.6557
47.165841355555656 10.6648
47.1901355115306 10.6579
47.214621741924994 10.6101
47.23892041698887 10.5638
47.26322134538975 10.5832
47.28771440635075 10.5533
47.31201986422527 10.5455
47.33632758061436 10.5469
47.360637557241866 10.4956
47.38513974410611 10.4766
47.40945426407847 10.4776
47.43377104948137 10.4409
47.45809010204344 10.4195
47.48260144275502 10.3885
47.506925052572285 10.3695
47.53125093475548 10.322000000000001
47.55557909103813 10.3018
47.58009961361992 10.3176
47.60443234110732 10.3033
47.62876734791564 10.2991
47.65310463578333 10.2312
47.6776343683373 10.25
47.7019762413987 10.1714
47.72632040075572 10.1957
47.75066684815169 10.2167
47.77520581885936 10.1633
47.799556865477655 10.1289
47.823910205386 10.1047
47.84826584033272 10.072000000000001
47.87281407745551 10.0682
47.89717432569297 10.0539
47.92153687423484 10.0241
47.94609208429692 10.0407
47.97045925671401 10.0084
47.99482873471275 9.97822
48.01920052005013 9.98536
48.04376504619224 9.96167
48.068141469543484 9.96668
48.09252020552573 9.947569999999999
48.11690125590099 9.95607
48.1414751266064 9.92717
48.16586082917454 9.903369999999999
48.19024885144316 9.85618
48.2146391951793 9.84811
48.239222439012764 9.87352
48.26361744916137 9.836310000000001
48.28801478610016 9.76984
48.31241445160131 9.78817
48.337007097209366 9.778310000000001
48.36141144338331 9.765889999999999
48.38581812345755 9.70305
48.41022713920929 9.68357
48.434829215320704 9.65077
48.45924292604658 9.671560000000001
48.48365897780325 9.660739999999999
48.50807737237308 9.63289
48.532688907799276 9.62032
48.55711201168574 9.57197
48.581537463754074 9.562560000000001
48.60615611725119 9.555819999999999
48.63058628942721 9.59419
48.65501881516546 9.53464
48.6794536962573 9.52015
48.70408185970339 9.51948
48.72852147531801 9.422830000000001
48.75296345168211 9.41605
48.77740779059232 9.42689
48.80204549302823 9.43866
48.82649458091802 9.42793
48.85094603676547 9.3549
48.87539986237231 9.38908
48.90004713292306 9.38141
48.92450572200832 9.336310000000001
48.94896668628025 9.32432
48.97343002754588 9.29498
48.99808689542115 9.3097
49.02255501470614 9.272730000000001
49.04702551642794 9.23897
49.0714984023988 9.219710000000001
49.096164896893235 9.20915
49.120642575466796 9.19988
49.145122643748394 9.15594
49.16960510355558 9.137780000000001
49.19428125404938 9.1758
49.2187685210852 9.16015
49.243258185121555 9.091569999999999
49.26794160167084 9.07882
49.2924360839405 9.06587
49.31693296869764 9.02662
49.34143225776915 9.0115
49.36612538195438 8.977319999999999
49.39062950396021 9.02192
49.41513603578346 8.96273
49.4396449792564 8.968580000000001
49.46434784069503 8.95336
49.488861631846454 8.90692
49.513377840166804 8.87889
49.537896467493745 8.8763
49.56260909589029 8.82601
49.587132585683285 8.826310000000001
49.611658500018365 8.824810000000001
49.636186840738596 8.79577
49.66090926588511 8.7913
49.685442483902584 8.780569999999999
49.70997813385706 8.74956
49.734516217597076 8.72397
49.75924846937352 8.743360000000001
49.7837914452858 8.732510000000001
49.80833686055187 8.70523
49.83288471702571 8.70463
49.85762682540054 8.70604
49.882179588965734 8.66295
49.9067347993235 8.65315
49.93129245833333 8.61604
49.95604445336378 8.611080000000001
49.98060703442832 8.5683
50.005172069746266 8.57593
50.02993150438364 8.54904
50.05450147301533 8.56852
50.07907390151433 8.524280000000001
50.10364879174981 8.52167
50.12841816587289 8.476280000000001
50.1529980044635 8.480780000000001
50.17758031042124 8.47193
50.20216508562089 8.43213
50.22694442953363 8.42657
50.25153416817468 8.43062
50.27612638170508 8.41279
50.300721072005196 8.348469999999999
50.325510416102105 8.33118
50.350110084975064 8.34728
50.37471223628208 8.34201
50.39931687190919 8.33608
50.424116246675766 8.30075
50.44872587605249 8.29005
50.47333799543065 8.269730000000001
50.49795260670191 8.2525
50.52276204271512 8.21539
50.54738166295838 8.20979
50.57200378079314 8.23048
50.596628398116835 8.18595
50.62144792604559 8.16358
50.646077567609396 8.15344
50.670709714377715 8.168
50.69553683636198 8.17072
50.72017401885922 8.095189999999999
50.7448137122895 8.12223
50.76945591856022 8.08925
50.79429318636823 8.058119999999999
50.818940443716784 8.07832
50.84359021965163 8.03209
50.868242516085964 8.01422
50.893089960641895 7.9898
50.917747323549435 7.94865
50.94240721271973 7.94154
50.96706963007175 7.92283
50.99192728239342 7.93917
51.01659478166073 7.973510000000001
51.04126481489051 7.927169999999999
51.06593738400761 7.909
51.090805275207074 7.879060000000001
51.11548294172845 7.8730899999999995
51.14016314993547 7.843560000000001
51.164845901758845 7.8400300000000005
51.18972406304274 7.786460000000001
51.21441192780656 7.78096
51.23910234200271 7.7807699999999995
51.2637953075678 7.75921
51.288683770237945 7.78072
51.31338186432707 7.7159699999999996
51.33808251561888 7.7393600000000005
51.362978729967345 7.742389999999999
51.387684521509755 7.7167699999999995
51.41239287610203 7.67427
51.437103795691165 7.658939999999999
51.46201036644977 7.64854
51.486726441956634 7.6098
51.51144508832545 7.578010000000001
51.536166307509156 7.599819999999999
51.56108326624387 7.5705800000000005
51.58580965706056 7.571330000000001
51.61053862657523 7.55503
51.635270176746864 7.52309
51.66019755512065 7.5202800000000005
51.68493429268881 7.48544
51.70967361681515 7.487539999999999
51.73441552946465 7.4622399999999995
51.759353359237934 7.49516
51.7841004750961 7.445589999999999
51.80885018539685 7.40401
51.833602492111254 7.3653699999999995
51.8585508051424 7.337110000000001
51.883308330926425 7.37758
51.90806845906181 7.35378
51.932831191525715 7.30474
51.95779001977161 7.305280000000001
51.98255798721516 7.28418
52.00732856494335 7.267010000000001
52.03229530577543 7.2509
52.057071130455945 7.257060000000001
52.081849571391054 7.25482
52.106630630568695 7.220689999999999
52.13160794279417 7.1940800000000005
52.15639426492067 7.19159
52.18118321127822 7.205430000000001
52.205974783860896 7.180039999999999
52.23096269971011 7.170839999999999
52.255759551287994 7.13161
52.280559035098186 7.106089999999999
52.30536115314103 7.1111
52.33035970494467 7.09168
52.35516711807904 7.12184
52.37997717147198 7.069939999999999
52.40478986713005 7.061719999999999
52.42979908731974 7.02959
52.454617094216 7.003189999999999
52.47943774942214 6.994269999999999
52.50426105495102 6.986789999999999
52.529280976059844 6.9881899999999995
52.554109609024096 6.96267
52.57894089837482 6.94065
52.60377484613117 6.9192800000000005
52.62880550079408 6.9222
52.65364479223379 6.927230000000001
52.67848674816189 6.8903300000000005
52.70352547971946 6.882339999999999
52.72837279155837 6.87322
52.753222773982785 6.85917
52.778075429022984 6.852519999999999
52.80312495150885 6.83303
52.827982978797436 6.78866
52.85284368481815 6.822310000000001
52.87770707160767 6.79188
52.90276741793998 6.79064
52.92763619336701 6.73355
52.952507655698504 6.7202399999999995
52.977381806977576 6.712089999999999
53.00245301017842 6.7423
53.02733256653592 6.69235
53.052214817996074 6.66622
53.077099766608484 6.6772
53.102181859804446 6.64625
53.127072229988265 6.6461
53.15196530349892 6.6478399999999995
53.17686108239249 6.5883
53.20195409881522 6.60013
53.22685531582556 6.58565
53.25175924441303 6.55071
53.27666588664027 6.55732
53.30176985962693 6.51414
53.3266819565689 6.480580000000001
53.35159677336455 6.52122
53.376514312083096 6.5292699999999995
53.40162927507703 6.50929
53.42655228516116 6.4743
53.45147802340193 6.47425
53.47660125628886 6.47144
53.50153247842639 6.444719999999999
53.52646643496923 6.42117
53.55140312799818 6.40183
53.576537409691696 6.3825
53.60147960336152 6.3689
53.626424539786164 6.37897
53.65137222105307 6.325819999999999
53.67651758529126 6.32976
53.70147078399681 6.29164
53.72642673383343 6.3095300000000005
53.75138543689533 6.28555
53.776541917524526 6.31182
53.801506154876755 6.28557
53.826473151763246 6.2378800000000005
53.851442910284916 6.20523
53.87661054126026 6.24108
53.9015858509782 6.19819
53.92656392866066 6.212269999999999
53.95154477641532 6.19261
53.976723591801296 6.1820900000000005
54.00171000771266 6.1593599999999995
54.02669920004598 6.11953
54.051691170915745 6.09755
54.076881204886796 6.1431
54.101878760928514 6.14187
54.12687910187696 6.0970699999999995
54.152077577768296 6.081259999999999
54.1770835166946 6.07302
54.20209224691339 6.03276
54.22710377055121 6.051159999999999
54.25231352511594 6.05006
54.27733066384342 6.017930000000001
54.30235060239643 5.9454400000000005
54.32737334290836 5.95844
54.35259441062629 5.94209
54.377622783395324 5.9001
54.40265396455061 5.93466
54.42768795623251 5.92287
54.45292037169559 5.84457
54.477960012857906 5.88436
54.50300247099511 5.82333
54.52804774825457 5.79397
54.55329154616743 5.79051
54.57834249018678 5.81299
54.6033962597977 5.7474099999999995
54.6284528571545 5.77
54.653708072335164 5.6978800000000005
54.67877035378786 5.70228
54.70383546947698 5.68276
54.72890342156389 5.6646
54.7541700889442 5.645169999999999
54.77924374251975 5.63223
54.8043202390049 5.603619999999999
54.82959552413022 5.58166
54.8546777351945 5.56922
54.87976279569621 5.52301
54.90485070780914 5.54675
54.930137506558005 5.52795
54.95523115074295 5.52351
54.98032765308844 5.48262
55.005427015775496 5.47795
55.03072536339621 5.42804
55.05583047570572 5.4382
55.080938454927676 5.38392
55.10604930325027 5.3729
55.131359235107396 5.40951
55.15647585066083 5.3664
55.181595341907496 5.30659
55.20671771104285 5.30336
55.232039262617704 5.25743
55.25716741665048 5.21079
55.28229845518636 5.232080000000001
55.30743238042802 5.18927
55.33276558731939 5.18506
55.357905315183636 5.18647
55.383047936390035 5.12061
55.40819345314859 5.07169
55.433538351073295 5.08645
55.458689688238415 5.0618
55.483843927614096 5.03691
55.509197623043605 5.02568
55.53435769621134 4.9505300000000005
55.55952067826466 4.9698400000000005
55.5846865714265 4.97129
55.61005202069737 4.88869
55.63522376553902 4.93837
55.66039842818645 4.89574
55.68557601087004 4.86207
55.7109532500271 4.81074
55.73613670233794 4.8360199999999995
