TT I
1.2716486653135266 8.209610000000001
1.2939594142134223 7.75715
1.3162702121660406 7.09565
1.3385810600174564 6.938460000000001
1.3608919586137629 7.0389
1.383202908801069 6.42718
1.405513911425503 6.76412
1.4278249673332093 6.2589999999999995
1.4501343378461518 6.26366
1.4724455028545926 6.04787
1.4947567236847858 6.51564
1.517068001182951 6.072430000000001
1.5393793361953272 5.55262
1.5616907295681737 5.715
1.5840021821477681 5.87266
1.60631369478041 4.818169999999999
1.6286252683124185 5.31613
1.6509369035901333 4.29732
1.6732468618895553 4.91821
1.695558623192809 4.76207
1.7178704487808514 5.9128300000000005
1.7401823395001077 5.40224
1.7625012545597203 5.0637099999999995
1.7848028405262486 4.65658
1.8071218901122095 4.44714
1.8294236121921872 4.39185
1.8517427996910911 5.4095699999999995
1.8740620574440425 4.60956
1.8963639900671978 4.10717
1.9186833908139995 3.9783
1.9409854680117449 4.89669
1.9633050151394713 4.34424
1.9856246367570705 5.14561
2.0079269371922672 4.46818
2.03024671027244 4.48877
2.0525491637446027 4.4724699999999995
2.074869091674931 3.8214699999999997
2.097171701569106 4.381819999999999
2.1194917877373847 4.9573599999999995
2.141811954326636 4.4600800000000005
2.164114805233074 4.76846
2.186435135143035 4.98095
2.208738150935709 10.2265
2.231058647554722 18.8353
2.2533792288321184 15.1932
2.275682498336085 7.89237
2.298003251406138 5.47178
2.3203066942619714 5.4082099999999995
2.3426276225136022 5.23949
2.3649486396617507 4.66185
2.387252348930071 4.90856
2.4095735463442893 4.7137400000000005
2.4318774374315884 5.3979
2.4541988185014043 6.1399300000000006
2.476502894794693 6.237509999999999
2.498824462909887 6.15492
2.521146125856138 6.26881
2.5434504863470337 6.05641
2.5657723414244717 6.6272199999999994
2.588076895590662 7.344939999999999
2.610398946189713 7.69614
2.6327210958598384 6.6777
2.6550259469304716 7.3795399999999995
2.6773482972090137 8.00933
2.6996533504259 7.14049
2.7219759047039602 7.588769999999999
2.744298562293959 7.740239999999999
2.7666039251246595 7.538189999999999
2.7889267918020164 7.7106
2.8112323652516555 7.72739
2.833555444408179 8.23478
2.8558786311183852 7.83357
2.8781845268938557 7.75253
2.9005079311721484 8.77639
2.9228140460410397 8.467410000000001
2.9451376712799635 9.53256
2.967444008632326 9.355739999999999
2.9897678582247247 9.66071
3.0120918213106695 10.2744
3.0343984987899373 10.9531
3.0567226913198637 11.0479
3.079029599759726 11.6553
3.101354025127254 12.3986
3.123678568232338 12.8043
3.145985829517914 12.8984
3.16831061055229 13.1768
3.1906181112775593 14.0996
3.212943133635653 14.3556
3.2352682779763207 14.7413
3.2575761442691227 15.1357
3.2799015350264273 15.4602
3.302209649240067 15.8723
3.3245352898092655 16.5816
3.3468436553365257 16.9281
3.369169549113219 17.3407
3.3914955708171384 18.1362
3.413804319727358 18.7899
3.4361305997334863 18.7755
3.4584396084414553 19.5653
3.4807661501462652 19.879
3.503092824025881 21.0151
3.5254022288463154 21.7042
3.5477291695206588 21.9069
3.5700388426251948 22.2149
3.5923660534916446 23.4191
3.6146934007816114 32.8265
3.637003482731501 63.9775
3.6593311053109985 69.2404
3.681641464033634 43.6656
3.7039693653009733 28.2642
3.726297407241705 25.6108
3.7486081875460804 25.638
3.7709365132734978 25.9459
3.793247578841633 26.521
3.8155761917550093 26.5511
3.8378875459837216 27.158
3.8602164494827234 27.4514
3.882545499606844 28.2912
3.9048572932539183 28.7244
3.9271866390645718 29.1859
3.9494987298666713 29.9136
3.971828374764527 30.2038
3.9941581705403255 30.5324
4.016470713506008 31.5148
4.038800813471445 32.5147
4.061113662089144 33.1993
4.0834440696459176 33.6499
4.105774632334751 33.9946
4.128087945865126 34.8677
4.150418821249301 35.3765
4.172732448931298 36.6259
4.195063640413578 37.9349
4.2173775856475215 40.8
4.239709096631102 62.065
4.262040768704612 162.30700000000002
4.284355196706267 210.437
4.306687193387355 139.018
4.329001947444346 65.4279
4.35133427213731 46.1095
4.373666762177566 44.1991
4.395982011761091 44.5747
4.418314834921175 45.8603
4.44063041906622 50.5856
4.4629635787515625 57.6193
4.4852969080429785 57.5333
4.5076130004776225 52.3378
4.529946671403969 52.0523
4.552263106909177 52.298
4.574597122877047 52.5802
4.596931312711224 53.4893
4.619248269273446 54.0984
4.6415828092605835 55.2107
4.663900117405352 56.1717
4.686235010953232 57.7361
4.708552674085913 59.2634
4.730887924602802 60.8965
4.753223354952695 62.2364
4.775541557023902 64.3944
4.797877349456786 65.7876
4.820195915032126 67.7524
4.842532072957498 68.2754
4.864868414979744 70.8441
4.88718753227192 73.3117
4.909524244902505 75.3382
4.931843734218147 76.7076
4.954180820867835 79.5213
4.976518095879839 82.6446
4.998838149695359 86.4412
5.021175803844231 89.6893
5.043496238205739 93.8167
5.065834274903528 98.6796
5.088172504230693 104.50299999999999
5.1104935158799565 112.37299999999999
5.132832132875765 132.04399999999998
5.155153533596801 168.218
5.1774925416746225 224.908
5.199814334878411 511.676
5.2221537374521505 1393.55
5.244493338631803 3455.56
5.266815727034316 7651.06
5.289155727832427 11772.3
5.311478517248165 8736.33
5.333818921080011 3000.74
5.356159527788849 615.1619999999999
5.3784829252032536 204.56
5.400823940070432 154.29399999999998
5.423147747031976 134.465
5.445489173474152 123.088
5.467830807066149 117.589
5.490155234831516 113.135
5.512497285125229 109.094
5.534822130975162 106.92
5.557164601388673 104.31200000000001
5.579489868738879 101.431
5.601832762690846 100.645
5.6241758697774475 99.3626
5.646501775867269 98.4233
5.668845311622074 97.1829
5.691171647754637 96.5402
5.713515615597765 95.6164
5.735859800852677 94.6807
5.758186788542988 94.2088
5.780531411018185 94.8158
5.802858837297399 93.4058
5.825203900414495 94.5445
5.8475491852224 96.0162
5.869877275883075 96.3209
5.892223006467101 97.2466
5.914551544266608 98.9451
5.936897724049891 102.765
5.959244129804903 111.431
5.981573344815301 145.165
6.0039202049061 283.78700000000003
6.026249875609095 598.807
6.04859719346037 1185.21
6.070927323278297 2340.6
6.093275102315365 4216.68
6.115623113320588 5239.87
6.137953938319995 3338.53
6.160302415650845 1095.91
6.182633708324452 264.135
6.2049826554078376 120.66
6.227331838745022 96.7253
6.249663839443684 87.7253
6.27201349767565 83.8932
6.294345974611799 86.0731
6.316696111167083 91.7706
6.339046488263839 87.7289
6.361379686074702 77.6174
6.383730546639482 72.5502
6.406064229255215 70.4872
6.428415576718203 70.2121
6.450749747566656 68.5812
6.47310158535871 67.0563
6.495453669698332 66.2084
6.517788579421056 65.332
6.540141159237969 64.2152
6.562476565766648 63.8375
6.5848296444934045 63.7856
6.607182974060425 63.2725
6.6295191323281015 62.5864
6.651872965955752 64.9558
6.6742096296068985 80.2819
6.6965639707294615 108.851
6.71891856698715 109.46
6.741255995248479 81.7784
6.763611104154477 65.0131
6.785949046381137 60.2828
6.808304671371482 58.6789
6.8306605557940046 58.7583
6.852999275508618 57.948
6.875355681171544 57.8735
6.897694923437771 57.5458
6.92005185377892 57.1277
6.9423916220322655 56.6904
6.964749080490181 56.0411
6.987106804399774 55.9588
7.009447368180821 56.353
7.031805625367033 56.2577
7.054146723727803 55.8035
7.076505517631004 55.7921
7.098864581288365 55.961000000000006
7.121206488070854 55.6239
7.143566093607822 55.4412
7.165908543567245 55.8212
7.188268694426048 55.8257
7.2106291193438095 55.4707
7.232972390625943 56.437
7.255333366030969 63.8304
7.277677189091925 96.1892
7.300038718428332 124.541
7.322400526130865 109.48200000000001
7.344745183422596 76.375
7.367107550224791 59.6389
7.389452767901992 56.3104
7.411815697249891 55.6541
7.434161478756298 54.7349
7.456524974096713 54.766000000000005
7.478888753837185 54.8728
7.501235387657368 55.2376
7.523599738562711 55.2634
7.545946944825532 55.312
7.568311870344528 55.9993
7.5906770845765665 55.6091
7.613025156078678 56.9538
7.635390950099687 57.864
7.657739602662809 56.9833
7.680105979923558 56.6526
7.702472650212829 56.7167
7.724822180948224 56.843
7.747189439655568 56.7386
7.769539560075357 56.7562
7.791907410653562 57.5486
7.81425812420825 57.5411
7.836626570110925 57.6801
7.858995315087906 58.7025
7.881346924933401 58.3654
7.903716270417482 58.9168
7.926068482028405 59.5351
7.948438431475253 60.1241
7.9708086843180235 60.8052
7.993161805171116 61.5184
8.015532667162402 61.769
8.037886398416653 62.7956
8.060257873014221 63.1993
8.082629655331942 63.6564
8.104984308787587 64.6556
8.127356708900503 67.4727
8.149711981398308 71.5922
8.172085002766314 73.41
8.194458336181368 71.4984
8.216814543847752 70.2408
8.23918850371002 70.6325
8.26154533906492 71.5969
8.283919928836452 73.39
8.306277395339652 74.1839
8.328652618483376 75.9224
8.351028159736202 77.92
8.373386579575245 80.1856
8.395762759396959 82.2507
8.418121819038275 86.5402
8.440498640894003 96.9189
8.462875785192262 110.85600000000001
8.485235811156207 138.715
8.507613602688501 206.05700000000002
8.529974277114228 313.497
8.552352719347912 461.656
8.574731488360351 738.507
8.59709314210385 1226.24
8.619472567021075 1821.64
8.64183487789147 2150.29
8.664214962183097 1853.42
8.686577933647762 1004.54
8.708958680784317 401.474
8.731339760774953 172.02
8.753703729764451 114.74600000000001
8.77608547780821 101.60700000000001
8.798450116065078 97.7291
8.820832535634787 94.2742
8.843215292401656 93.1371
8.865580941199045 91.40899999999999
8.887964374703538 90.6997
8.910330701447199 90.9568
8.932714815164482 91.4954
8.955099270424924 90.5203
8.977466620733543 88.3845
8.999851761421976 86.4224
9.022219798361645 85.3508
9.04460562795561 84.6603
9.066991803441677 84.8096
9.089360876979615 84.6985
9.111747746589993 83.928
9.13411751544971 83.5717
9.156505082664324 83.3146
9.178875550323522 83.5434
9.20126381862328 83.6136
9.223652438908596 83.8451
9.246023961427412 83.6945
9.26841328802173 83.3011
9.290785518039224 83.7981
9.313175554425882 84.5173
9.335565947154315 84.4742
9.357939245086508 84.9552
9.380330352834827 84.8389
9.40270436697103 84.9942
9.425096193225055 84.8482
9.447488380180165 85.5773
9.469863475295412 85.4422
9.492256385987508 85.9944
9.514632206018318 86.7945
9.537025843935714 87.2077
9.559402392368193 87.7277
9.581796761000229 89.2882
9.604191496441521 90.4469
9.626569144158516 93.0798
9.648964615551032 96.0454
9.671343000390081 97.0086
9.693739211225699 95.7384
9.716135793237463 94.8648
9.738515290448102 94.7363
9.760912617143402 96.0427
9.783292860202891 97.4227
9.805690935076182 98.8144
9.828089385495742 99.9491
9.850470754023561 101.81700000000001
9.872869957865444 107.632
9.89525208097539 118.147
9.917652041736662 128.14
9.940052382417589 135.22899999999998
9.962435644102392 162.673
9.984836746950979 217.731
10.007220771957746 292.961
10.029622640473708 408.30300000000005
10.052007432299963 595.124
10.074410069984072 872.164
10.096813093716005 1267.76
10.119199042482517 1690.98
10.141602840636468 1914.72
10.163989564971628 1630.08
10.186394141051062 942.789
10.208799107559706 416.006
10.231187001965623 195.265
10.253592751657669 130.091
10.275981430388155 115.51
10.298387966769793 113.32600000000001
10.320794897965431 113.90299999999999
10.343184759907361 112.45100000000001
10.36559248305461 108.87899999999999
10.387983138083852 108.056
10.410391656691655 115.44
10.432800574501677 130.782
10.455192425893369 149.745
10.47760214443012 178.128
10.499994797678786 222.025
10.522405320453982 297.57099999999997
10.54479877906917 397.611
10.567210109595656 491.38
10.5896218454736 566.711
10.612016518879773 497.63300000000004
10.634429067781074 354.211
10.656824555333241 203.595
10.679237920773568 126.40100000000001
10.701651695961992 97.8822
10.724048411481384 91.1086
10.746463008485165 88.2586
10.768860546937125 86.3994
10.791275969274796 84.2506
10.81369180576079 82.9765
10.836090585366925 82.1463
10.858507252467449 81.2273
10.88090686379991 80.0399
10.903324365036394 79.4326
10.925724811614439 78.6415
10.948143150509463 79.4802
10.970561909719066 78.6239
10.992963615930844 77.1647
11.015383218085756 75.6934
11.037785768347074 74.4797
11.06020621697282 73.6426
11.082627090322113 73.3999
11.105030913430326 72.6391
11.12745263854165 72.4115
11.149857314510728 74.3072
11.172279894912576 78.1659
11.194702904450653 78.1954
11.217108866490921 75.3159
11.239532736615194 72.8247
11.26193956033512 71.429
11.284364294577085 70.277
11.306789462371718 68.9932
11.329197585398376 68.0679
11.351623622610898 67.6745
11.37403261614354 66.9357
11.396459526308487 66.7573
11.418869393879497 66.2339
11.441297180532617 65.9444
11.463725406927658 65.7882
11.486136592353875 65.4465
11.508565700543707 66.0081
11.530977768845315 66.9983
11.553407762368774 67.2063
11.575838200059769 66.8479
11.598251599479612 65.6489
11.620682927815501 64.6356
11.64309721895548 64.6114
11.665529441478206 64.2454
11.687962112597958 63.9051
11.710377748130886 63.9569
11.732811318753434 63.9132
11.755227854859067 63.8951
11.777662328529495 63.681000000000004
11.800079768750786 63.5298
11.822515149015453 63.4888
11.844950984084935 63.7713
11.867369787303163 63.2243
11.889806534289491 63.2396
11.912226250487029 63.4595
11.934663912939751 63.533
11.9571020346363 64.0065
11.979523127133968 64.3503
12.001962169624331 65.4069
12.024384183972964 67.3077
12.046824150809913 72.0171
12.069264581333726 77.5741
12.091687985297767 83.9774
12.11412934550045 93.9245
12.136553680195208 109.02799999999999
12.158995973632788 129.434
12.181438735204349 154.838
12.20386447284199 183.523
12.226308172985636 203.77
12.24873485024193 202.21200000000002
12.271179492516982 172.733
12.293607112949127 126.311
12.316052700916226 93.1694
12.338498763250042 77.21300000000001
12.360927805303868 69.3921
12.383374818673879 66.4854
12.405804812803074 65.2141
12.428252780773262 64.9788
12.45070122756722 64.8815
12.473132656675375 65.0503
12.49558206341869 65.4086
12.518014453510101 65.1999
12.540464823770117 65.2688
12.562915677315177 65.5648
12.58534951575545 66.2047
12.607801338171472 67.2513
12.630236146511358 70.9393
12.652688941369085 73.8064
12.675124723177234 74.2985
12.697578494048786 72.2904
12.720032754458185 69.6112
12.742470003354093 68.4782
12.764925245138771 68.8007
12.787363476431278 69.1798
12.809819703166806 69.6165
12.83227642391173 70.2156
12.854716135692716 70.632
12.877173846755147 71.7896
12.899614549869717 72.4973
12.9220732548287 73.3535
12.94453245827299 73.6048
12.966974655289818 74.7845
12.989434858002571 75.3122
13.011878055298721 76.5217
13.034339260862497 77.5277
13.056800969391883 78.5193
13.079245674017244 81.5421
13.101708390774869 85.8122
13.12415410463411 95.9092
13.146617833206086 109.292
13.169064559883248 122.02600000000001
13.191529303857127 137.63299999999998
13.213994557076367 162.429
13.236442809902437 198.588
13.258909083908291 249.53900000000002
13.28135835851934 303.936
13.30382565690295 363.788
13.326293469022952 415.009
13.348744283242008 419.142
13.371213125129904 358.235
13.39366497011003 265.798
13.416134845360597 174.043
13.438605238843131 125.729
13.46105863690397 111.696
13.483530069144786 113.39399999999999
13.505984506951902 119.63600000000001
13.528456981549432 130.155
13.550929978879088 146.37
13.573385983253365 170.18400000000003
13.595860028340867 206.524
13.618317081455832 252.291
13.64079217790333 298.005
13.663250283359057 338.885
13.685726434770173 370.36
13.708203115221277 340.70300000000003
13.730662806148091 269.507
13.75314054697177 189.68900000000002
13.775601299246777 128.17600000000002
13.798080104050406 98.1963
13.820559442405358 86.87
13.843021793671388 83.2436
13.865502201420897 81.4626
13.887965623051947 80.741
13.910447103807167 79.8786
13.932929122629764 78.3318
13.955394156785959 78.0219
13.977877254034569 77.008
14.000343367582113 76.3052
14.022827546871707 75.4931
14.045294743423524 74.8405
14.06778000837062 73.911
14.090265817715476 74.0468
14.112734645763819 73.7373
14.13522154619454 73.4804
14.157691466286913 73.337
14.180179461423874 73.0537
14.202668005486178 72.4386
14.22513957064374 71.9398
14.247629214846473 71.4907
14.270101881097517 71.3221
14.29259262906496 71.4068
14.315083930490205 71.6568
14.337558255389705 72.0311
14.360050666019726 71.57600000000001
14.382526101071944 70.8917
14.405019624534942 70.4752
14.427513705993134 70.0181
14.449990813291825 69.7558
14.47248601302899 69.873
14.49496423954951 69.8351
14.517460561197822 70.0353
14.539939910570322 69.7627
14.562437357763558 70.2284
14.58493536931253 71.1915
14.607416409993311 71.383
14.62991555254159 71.8864
14.652397725157423 72.1231
14.674898002342799 71.7938
14.697398848433282 71.8805
14.719882725991326 73.26
14.74238471217934 75.2449
14.764869730765593 79.5206
14.787372860692983 83.6216
14.809876564079925 88.6458
14.83236330125751 95.072
14.854868153850365 104.071
14.877356041159485 117.70200000000001
14.899862046604186 135.312
14.922351087688757 157.048
14.944858249632887 181.21099999999998
14.967365991421232 203.112
14.989856770231246 217.985
15.012365673994204 216.377
15.03485761569738 188.775
15.05736768508665 148.972
15.07987833888692 115.463
15.102372032001655 91.1877
15.124883856909658 77.8348
15.14737872204565 73.4135
15.169891721717274 71.8278
15.192405310371893 71.5464
15.214901940621196 71.4107
15.237416709527137 71.2195
15.259914520936249 71.0975
15.282430473753607 70.3018
15.304947020131227 69.3833
15.327446610371178 68.7049
15.349964346154254 68.05199999999999
15.372465126703139 67.773
15.394984055556009 67.6276
15.417486030076159 67.5436
15.44000615566487 67.0916
15.462526881230803 66.9889
15.485030653812652 67.2136
15.507552581617434 66.972
15.530057557334603 66.9202
15.55258069104857 67.1801
15.575104429329837 67.3788
15.597611216864632 67.1689
15.620136166564563 67.7815
15.6426441664095 69.7327
15.665170331202765 73.0746
15.687697105158826 76.6533
15.710206930593545 80.1573
15.732734925158933 84.7318
15.755245972089478 91.5177
15.77777519094324 101.094
15.800287463046663 113.868
15.822817909869592 130.636
15.84534897229804 147.71200000000002
15.867863089299354 168.03
15.890395385222186 181.78799999999998
15.912910736597423 191.395
15.935444269699861 182.687
15.957978423016485 156.645
15.980495633101265 125.301
16.003031029129367 97.133
16.02554948280019 77.4589
16.048086125229432 68.6997
16.070623392487107 65.6581
16.09314371869582 64.6566
16.11568223789321 63.6869
16.13820381691126 62.7939
16.160743591742527 61.9981
16.183283996022084 61.4154
16.205807461423195 60.2984
16.228349126881973 59.7449
16.25087385432698 59.6418
16.27341678466365 59.1222
16.29594277784926 58.9587
16.31848697676433 59.028999999999996
16.341031811604868 59.1205
16.36355971058487 59.1398
16.3861058195587 59.16
16.40863499352978 58.0109
16.431182380342005 57.5998
16.453730407713202 57.0207
16.476261501364792 56.7383
16.498810812136167 56.531000000000006
16.52134319004079 56.3911
16.54389378792203 56.2252
16.566445031001553 56.1558
16.588979342490088 56.0873
16.61153187824822 55.8456
16.634067483263312 55.5685
16.656621315414416 55.7735
16.679175797408888 55.6004
16.701713349928728 55.4921
16.72426913389191 55.7359
16.74680798922351 55.7327
16.76936507887444 55.7593
16.791905240734874 55.6723
16.814463639794468 55.6129
16.837022695210294 55.5239
16.859564824093756 55.9405
16.882125194503903 56.4851
16.904668639217885 56.9142
16.927230328348003 56.7835
16.949792678493612 57.06399999999999
16.972338104193863 56.523999999999994
16.994901778652235 56.3283
17.017448529496576 56.6247
17.040013531998152 57.1948
17.06257920018044 57.7534
17.0851279459922 58.7166
17.107694947817667 59.5493
17.130245028099072 60.5162
17.15281336730298 61.6184
17.17536478578733 63.4893
17.19793446610687 65.854
17.220504818648422 68.5368
17.243058251703697 71.4489
17.265629950971032 75.0687
17.288184731571736 78.6629
17.310757781306908 81.9992
17.33333150794385 83.2904
17.355888317140174 82.7586
17.37846339986244 77.508
17.401021565958885 71.8979
17.42359800851343 66.4859
17.44617513265564 62.827
17.468735341390783 61.0494
17.491261035594565 60.0549
17.51396340099364 59.8049
17.536490463869136 60.2236
17.559018209820174 60.0715
17.58154663977963 60.1576
17.604251766089718 60.3042
17.626781572227713 60.53
17.64931206518155 60.85
17.671843245885103 61.4659
17.69455114821572 61.6664
17.717083712612634 61.7901
17.739616967569667 61.9853
17.762150914021706 62.4315
17.78486160749854 62.6821
17.807396945166804 63.5845
17.829932977143503 64.8415
17.85246970436452 66.8088
17.875183204129467 69.0058
17.897721330097664 71.2257
17.920260154126645 73.6275
17.942799677153296 77.2137
17.9655159983646 80.9717
17.988056927677544 86.5316
18.010598558807683 93.6516
18.033140892692916 102.73100000000001
18.05586005052525 111.619
18.07840379824407 121.329
18.10094825154059 132.012
18.12366954819864 139.405
18.146215420998306 140.38
18.16876200220057 133.311
18.191309292745153 119.947
18.214033452627167 105.854
18.236582170236648 94.3716
18.259131600016456 88.7122
18.281681742907335 88.6398
18.304408781233683 91.9289
18.32696035875955 96.1798
18.349512652227624 100.625
18.372065662579683 105.294
18.394795594587553 106.93799999999999
18.41735004715306 104.04799999999999
18.43990521943684 97.5465
18.46246111238171 88.1463
18.485193953325208 78.2317
18.507751296070428 70.7551
18.530309362314178 66.5921
18.552868153000343 64.4385
18.57560391815056 63.1334
18.59816416623245 62.788999999999994
18.620725141597372 62.1783
18.643286845190268 61.7959
18.666025549835414 61.5275
18.688588718427933 60.9078
18.711152618092243 60.7446
18.73389353884365 60.3096
18.75645890921984 59.9049
18.77902501351406 59.6495
18.801591852673102 59.6724
18.824335739722738 59.0447
18.846904057212626 58.853
18.8694731124168 58.665
18.89204290628315 58.6644
18.914789774966803 58.4106
18.937361054791623 58.2045
18.959933076131318 57.9549
18.982505839934877 58.2067
19.00525570560582 58.1135
19.027829963004184 57.7256
19.05040496572238 58.0156
19.072980714710468 58.1945
19.095733592739563 58.6451
19.11831084296757 58.7591
19.140888842324735 59.1235
19.16346759176222 59.4214
19.18622349753803 59.9102
19.208803755869358 60.769
19.231384767143577 62.006
19.253966532312948 63.9363
19.276725481241822 65.6876
19.29930876296784 67.6999
19.3218928014549 70.3256
19.34465404436217 72.6998
19.36723960516257 75.4189
19.389825925592426 76.7532
19.412413006605938 76.2767
19.43517731967805 73.2383
19.457765930683355 68.82300000000001
19.48035530514408 64.2757
19.50294544401556 60.2178
19.525712842708348 57.575
19.54830451925909 56.1278
19.570896963095727 54.8555
19.593490175174704 54.7274
19.616260674962184 54.6813
19.638855432416964 54.5809
19.661450960992624 54.63
19.68404726164677 54.3398
19.706820878021247 54.2916
19.729418731756834 54.4422
19.752017360452857 54.1905
19.77461676506804 54.5718
19.797393513540218 54.7981
19.819994478951667 55.1233
19.84259622316767 55.5487
19.8651987471481 55.7809
19.887978643247177 56.2402
19.91058273574792 56.7292
19.933187610901943 57.6437
19.955969879466828 58.935
19.97857632894404 60.3743
20.00118356396599 61.7507
20.023791585494575 63.6657
20.046577028914875 65.8878
20.069186632506966 67.7243
20.091797025500632 69.6153
20.114408208858933 70.7939
20.137196842715273 70.7683
20.159809615886765 69.189
20.18242318232135 66.9371
20.20503754298326 64.7997
20.227829382875154 63.31
20.250445341109344 62.9597
20.27306209647285 63.4459
20.29567964993108 64.473
20.31847471147704 65.2666
20.34109387027612 66.2846
20.363713830075454 66.0707
20.386334591841646 64.693
20.409132890679302 62.097
20.431755265564437 58.9845
20.454378445325528 56.3596
20.477002430930366 54.3686
20.499803982716553 52.9031
20.522429589228004 52.1493
20.54505600449589 51.5787
20.567683229489194 51.5324
20.590488049900088 51.2697
20.61311690359731 50.9638
20.63574656993626 50.9261
20.658553853717297 50.4924
20.681185154618298 50.3018
20.703817271080066 50.1828
20.72645020407368 49.854
20.749260783967177 49.8319
20.771895359337133 49.8933
20.794530754161617 49.9302
20.817166969412938 49.7394
20.83998086114876 49.5252
20.86261872660049 49.4513
20.885257415405402 49.6112
20.90789692853701 49.5247
20.930714147864748 49.3947
20.953355319030678 49.4245
20.97599731745334 49.6613
20.99864014410749 49.6169
21.021460706796564 49.3821
21.044105199328826 49.7417
21.06675052302631 49.8696
21.089396678865015 50.1627
21.112220600704806 50.3717
21.134868430275347 50.7969
21.15751709492456 50.8903
21.180166595629693 51.1343
21.202993892429635 51.5219
21.22564507473034 51.786
21.24829709602816 52.1817
21.27112693608965 52.345
21.293780644891275 52.4177
21.316435195634053 51.6264
21.339090589297417 50.8552
21.361923832041875 50.4596
21.384580921090404 49.7458
21.407238856007325 49.2743
21.429897637773326 49.2549
21.45273429906592 49.2636
21.475394784108598 49.1662
21.498056118951983 49.2401
21.520718304578022 49.5683
21.543558400304388 49.5167
21.566222297108816 49.8552
21.58888704765135 50.0847
21.61155265291521 50.3421
21.63439619898156 50.873000000000005
21.657063523335786 50.9394
21.67973170537063 51.656000000000006
21.7024007460706 52.1182
21.72524775840385 53.0034
21.747918526116475 53.8509
21.770590155457388 55.2825
21.79326264741238 56.9571
21.816113141960237 58.2596
21.838787368860547 59.8457
21.861462461341976 61.5728
21.884315579735777 63.3548
21.90699241312273 64.5591
21.92967011506078 65.3889
21.95234868653799 65.3801
21.9752053151131 64.3294
21.997885635446785 62.4653
22.020566828293532 60.5699
22.04324889464272 58.5273
22.066109049404666 57.1288
22.088792872571794 56.6363
22.111477572219204 56.544
22.1341631493376 56.8648
22.157026846313123 56.7334
22.179714188221507 56.2146
22.202402410582668 55.2922
22.22509151438863 53.7983
22.24795876962584 52.3667
22.270649646204486 51.2936
22.293341407213727 50.6983
22.316034053646906 50.0831
22.338904883215342 49.873999999999995
22.36159931041458 49.9229
22.38429462602756 49.6527
22.40699083104897 49.382
22.429865251039757 49.4608
22.452563244831367 49.516999999999996
22.47526213102522 49.4409
22.49813925616515 49.4895
22.520839937143307 49.451
22.543541513520587 49.4982
22.56624398629403 49.3906
22.589124730075895 49.2886
22.611829005656723 49.6255
22.63453418063466 49.7129
22.657240256008077 49.9274
22.680124634582935 50.0381
22.70283252079775 50.3351
22.725541310413075 50.6411
22.74825100442868 50.6974
22.771139033969575 51.284
22.79385054687155 51.633
22.81656296718292 52.173
22.83927629590484 52.9496
22.862167992606945 53.9969
22.88488314827121 55.0349
22.907599215359284 55.6568
22.93031619487366 56.5232
22.953211574954405 57.5667
22.975930389478226 58.4696
22.998650119445763 58.6932
23.02137076586092 58.0956
23.044269845560063 57.031000000000006
23.06699233506288 55.4166
23.089715744034912 53.5938
23.112617610931565 51.8703
23.135342869061212 50.8029
23.158069049684816 50.0857
23.1807961538087 49.6014
23.20370174880544 49.6399
23.226430710184808 49.6997
23.249160598093425 49.7925
23.271891413539002 49.8105
23.294800752937697 49.8512
23.31753343374794 50.1383
23.340267045128353 50.1526
23.36300158808808 50.4039
23.38591468821339 50.8563
23.408651104658304 51.4501
23.431388455719986 52.1008
23.454126742409 52.8263
23.4770436196085 53.5763
23.499783787914662 54.6487
23.522524894889884 55.4283
23.54526694154616 56.3579
23.56818761219047 57.3556
23.59093154860734 57.8751
23.613676427751283 58.5044
23.636422250635754 57.863
23.659346731118656 56.5462
23.68209445191868 54.7192
23.704843119509587 52.4737
23.72759273490623 50.5363
23.750521041644767 48.9933
23.77327256312355 47.8589
23.796025035462787 47.1573
23.818956224555475 46.7409
23.841710609113413 46.6052
23.86446594758979 46.5245
23.887222241002014 46.3163
23.910157285144578 45.9522
23.932915498962537 45.9336
23.955674670778713 45.7705
23.978434801611975 45.5522
24.001373717286125 45.4156
24.024135776723917 45.3321
24.046898798245582 45.2319
24.06966278287146 44.9547
24.092605586582614 44.7927
24.115371508023642 44.792
24.1381383956401 44.7524
24.16090625045381 44.7374
24.183852958731244 44.7124
24.206622758582608 44.6205
24.229393528706886 44.3755
24.252165270127392 44.4335
24.27511589952438 44.3715
24.297889594216997 44.1705
24.32066426328598 43.9588
24.34343990775613 44.0247
24.36639447485003 43.928999999999995
24.38917208083877 43.8537
24.41195066531332 43.7668
24.43490819850244 43.7318
24.457688750692377 43.5798
24.48047028445616 43.5094
24.503252800821233 43.6653
24.526214300784112 43.7449
24.548998793132213 43.7945
24.57178427117417 43.6568
24.59457073593893 43.7266
24.617536219319863 43.6917
24.64032466834748 43.5641
24.663114107195035 43.4489
24.685904536893013 43.2732
24.708874020360852 43.0759
24.731666442613744 43.172
24.754459858818787 43.1537
24.777254270007962 42.9741
24.80022777025625 42.7899
24.82302418230472 42.8876
24.845821592443674 42.8369
24.86862000170663 42.9481
24.891597535453727 42.6697
24.914397953892728 43.0696
24.93719937456671 43.0349
24.96000179851076 43.0278
24.98298338249997 43.2946
25.00578782394922 43.6183
25.028593271784167 43.748999999999995
25.05157790644186 43.9106
25.07438537804115 44.0035
25.097193859145293 44.1638
25.120003350792075 44.3516
25.142992065061257 44.9412
25.165803588823465 45.2798
25.18861612625217 45.3211
25.211429678386736 45.2267
25.234422489079968 45.5025
25.257238081693636 45.51
25.280054692141732 45.3892
25.3028723214652 45.3922
25.325869245420463 45.4352
25.348688923599397 45.6454
25.371509623787006 45.6058
25.394331347025812 45.35
25.41733240110666 44.8937
25.440156181590016 44.1776
25.46298098826268 43.6831
25.48580682216873 43.1511
25.50881202326435 42.4825
25.53163992281684 42.2687
25.55446885274561 41.9556
25.577298814096377 41.5259
25.600308179121807 41.5303
25.623140214533745 41.5437
25.64597328451537 41.4327
25.66898578564376 41.3918
25.691820936010206 41.3286
25.714657124097695 41.2515
25.737494350954734 41.216
25.760511045684957 41.1055
25.783350361364224 41.2431
25.806190718969255 41.2083
25.82903211955018 41.3416
25.852053024868923 41.2734
25.874896522722523 41.2592
25.897741066713106 41.1471
25.920586657892454 41.3711
25.943611790812668 41.5117
25.966459487728237 41.6468
25.989308234998564 41.5284
26.01215803367705 41.9032
26.03518741123814 42.0602
26.05803932412957 42.1006
26.080892291600094 42.1696
26.10374631470478 42.331
26.12677995397268 42.3921
26.14963609978026 42.3538
26.172493304397875 41.9478
26.19535156888223 41.8262
26.218389486949604 41.5514
26.241249882640123 41.198
26.26411134137826 40.9452
26.28715248187403 41.0658
26.31001607820869 40.8003
26.3328807407756 40.6209
26.35574647063438 40.8925
26.37879191991473 40.8316
26.401659795896734 40.9637
26.424528742360263 40.9965
26.447398760366614 41.2278
26.470448535598294 41.3243
26.49332070826805 41.4908
26.516193955675355 41.70399999999999
26.53906827888316 41.8177
26.562122397260108 41.9858
26.584998883685063 42.2664
26.607876449110325 42.523
26.63075509460056 42.6357
26.65381357334404 42.8143
26.67669439061878 42.8233
26.699576291163382 42.7505
26.722459276044212 42.505
26.745522132402975 42.275
26.768407297649354 42.1131
26.791293550442003 41.708
26.814180891848974 41.5077
26.837248143099337 41.1136
26.860137673466657 41.093999999999994
26.88302829566349 40.9224
26.90592001075963 40.6965
26.92899167420566 40.5481
26.951885586870763 40.153
26.974780595655517 40.0318
26.99785558178161 39.8772
27.020752794605112 39.6894
27.043651106772522 39.6313
27.06655051935668 39.3462
27.089629948036183 39.235
27.112531573292053 39.4096
27.135434302194138 39.5365
27.158338135817015 39.2233
27.181422024430987 39.2295
27.204328079372566 39.1996
27.22723524226965 39.1405
27.250143514198573 39.1684
27.273231880156334 39.2985
27.296142382065014 38.9912
27.319053996245536 38.9099
27.341966723775965 39.0815
27.365059584515222 39.1267
27.38797455070062 39.2446
27.410890633481237 39.0259
27.433807833936918 39.0078
27.456905206923906 39.0556
27.47982465472398 39.2044
27.502745223449743 39.1784
27.525666914182825 39.1988
27.548768816912457 39.133
27.571692763693633 39.1526
27.59461783573812 39.0299
27.617723149491244 38.7639
27.640650484125285 38.8834
27.66357894728264 38.7832
27.686508540048052 38.7481
27.709618414237887 38.6431
27.732550278321757 38.4285
27.755483275279115 38.5804
27.778417406196485 38.6529
27.801531858397514 38.6048
27.824468269376716 38.485
27.847405817586786 38.3846
27.870344504116094 38.6981
27.893463551932008 38.7167
27.916404527281053 38.771
27.93934664422563 39.0171
27.962289903855886 39.007
27.98541356491974 39.2786
28.00835912214229 39.3385
28.03130582533231 39.6147
28.054253675581805 39.7554
28.077381967556104 39.6467
28.100332124185126 39.5477
28.123283431160893 39.4304
28.146235889577238 39.41
28.169368830154156 39.2753
28.192323603752033 39.0302
28.215279532083304 38.6053
28.238415973016764 38.4606
28.261374223145094 38.4343
28.284333631303806 38.2636
28.307294198589954 38.1697
28.330435319167677 37.7089
28.353398217078915 37.4479
28.376362277420153 37.3282
28.39932750129032 37.0944
28.422473319286713 36.9483
28.44544088262495 36.9719
28.468409612800283 36.8819
28.491379510913497 36.6958
28.51453004413313 36.64
28.53750229057244 36.4913
28.56047570826344 36.3803
28.583450298308804 36.3558
28.606605564586562 36.1758
28.629582511831156 36.3094
28.65256063474956 36.1907
28.675539934446338 36.2823
28.698699951647605 36.2186
28.72168161743193 36.0219
28.74466446331978 36.0367
28.767648490417624 36.044000000000004
28.790813276438353 35.9368
28.813799678527303 36.089
28.836787265157085 35.9459
28.859955641890075 36.0398
28.882945610203045 35.9514
28.905936766392035 35.8253
28.928929111566863 35.9104
28.952102288520145 35.809
28.975097024308607 35.8325
28.998092952423807 35.6272
29.021090073977508 35.4556
29.04426806913204 35.3737
29.067267590245258 35.2089
29.090268308143695 35.1849
29.11327022394099 35.0151
29.13645305530891 34.9195
29.159457379627167 34.8751
29.18246290519685 34.9555
29.20546963313352 34.8396
29.22865731875826 34.9979
29.25166646419296 34.9235
29.27467681535305 34.6699
29.29768837335608 34.8079
29.320880931312562 34.9333
29.34389491580634 34.8988
29.366910110507334 34.7115
29.38992651653503 34.69
29.41312396492981 34.6198
29.436142806456754 34.7037
29.45916286268059 34.6556
29.48236399319994 34.5292
29.50538649169417 34.3318
29.528410208259935 34.2243
29.55143514402014 34.0334
29.574641196749695 33.9379
29.597668583816574 33.8333
29.6206971934585 33.6833
29.64372702680042 33.799
29.666938019934474 33.6556
29.689970313635285 33.5383
29.713003834422636 33.5049
29.73603858342347 33.5109
29.759254535188578 33.3382
29.78229175361658 33.3182
29.80533020365064 33.4731
29.82836988641968 33.4343
29.85159081507472 33.3576
29.874632976355343 33.2794
29.89767637376955 33.3316
29.920721008448314 33.1916
29.9439469322847 33.1215
29.96699405457564 33.0368
29.9900424175358 33.1093
30.013092022298157 32.9536
30.03632295963995 32.9599
30.059375061131373 32.9349
30.08242840783577 33.0516
30.105483000888153 33.0652
30.128718970092244 32.9557
30.151776069006917 32.8138
30.17483441768648 33.0429
30.198074175317235 32.8325
30.221135036724256 32.8506
30.24419715131772 32.7913
30.267260520236203 32.7898
30.290505341942243 32.8228
30.313571232750228 32.9368
30.336638381310948 32.8504
30.35970678876503 32.788000000000004
30.38295669299435 32.7026
30.40602763151657 32.6117
30.429099832366074 32.5483
30.452173296685572 32.6055
30.47542830191959 32.5847
30.498504306502497 32.6273
30.521581577995562 32.6509
30.544660117543582 32.6897
30.56792024229725 32.6962
30.59100133132069 32.6035
30.614083691845494 32.6462
30.637167325018545 32.698
30.660432587840603 32.6994
30.683518779717886 32.7148
30.70660624769615 32.7849
30.729694992924372 32.6574
30.75296541239743 32.7016
30.77605672557558 32.5818
30.799149319462742 32.5647
30.8224236211637 32.4692
30.845518789950724 32.2786
30.868615242910597 32.3768
30.891712981195973 32.2309
30.91499247215866 32.0602
30.938092794619365 32.0206
30.96119440587579 32.0123
30.984297307082752 31.8415
31.00758200598383 31.7752
31.030687500658694 31.7566
31.053794288760695 31.6859
31.076902371446767 31.5502
31.100192296997445 31.6116
31.12330298246119 31.6021
31.14641496599209 31.4721
31.169528248749216 31.3961
31.19282341969534 31.4653
31.215939314557186 31.428
31.239056512134788 31.4598
31.262175013589378 31.4277
31.28547544871168 31.3337
31.30859657161541 31.3466
31.331719001892175 31.4824
31.35484274070538 31.5238
31.378148458819545 31.4631
31.401274828443725 31.3419
31.424402510106933 31.4287
31.447712205419993 31.4051
31.470842524931633 31.3753
31.493974159989783 31.2825
31.51710711176168 31.2491
31.54042212308802 31.3414
31.563557722100917 31.2587
31.586694641341655 31.1436
31.609832881979628 31.0794
31.63315322823208 30.9569
31.656294125521327 30.8793
31.679436347728515 30.8342
31.70257989602529 30.8044
31.725905596152327 30.7001
31.74905181052835 30.5016
31.772199354521323 30.6442
31.79534822930507 30.6017
31.818679302290967 30.7113
31.84183085259981 30.6587
31.864983737233473 30.7009
31.88813795736804 30.6395
31.911474422233013 30.5425
31.934631327356435 30.6109
31.9577895715215 30.5106
31.980949155906522 30.5772
32.004291031706956 30.4893
32.027453310562606 30.4065
32.05061693318573 30.3028
32.07396288236386 30.2732
32.09712920658542 30.2873
32.12029687812702 30.0792
32.14346589817093 30.0629
32.166817291729984 30.0659
32.18998902288583 29.8763
32.21316210610336 29.9188
32.23633654256711 29.7428
32.259693399663725 29.6757
32.282870556771144 29.6403
32.30604907069099 29.6357
32.329228942610065 29.5686
32.35259128243769 29.523000000000003
32.375773884550505 29.340999999999998
32.398957848235646 29.379
32.422143174682176 29.3518
32.445511016471215 29.2617
32.468699082679954 29.218000000000004
32.49188851523011 29.1324
32.51507931531304 29.0874
32.538452678331 29.0975
32.56164622776311 28.9534
32.58484114831493 29.0276
32.60803744118015 28.9823
32.631416344731896 28.9472
32.654615396551876 28.9157
32.67781582427913 28.8227
32.701198898634416 28.7102
32.72440209253756 28.7941
32.747606665947124 28.6932
32.77081262006088 28.5456
32.79420126883317 28.5909
32.81740999876112 28.636999999999997
32.840620112999424 28.4312
32.86383161274818 28.4248
32.88722585534586 28.4109
32.91044014056596 28.5077
32.933655814909734 28.385
32.95687287957963 28.4877
32.98027273544904 28.302
33.00349259526636 28.3327
33.026713849030116 28.303
33.04993649794511 28.3374
33.073341986570746 28.2339
33.09656744032826 28.2147
33.11979429286444 28.2293
33.14302254538647 28.2774
33.166433686291185 28.1611
33.18966475336992 28.1329
33.212897224069096 28.0219
33.23613109959831 28.0297
33.259547912343415 27.9249
33.2827846121627 28.0759
33.306022720453775 28.0015
33.32926223842861 27.8045
33.352684742614166 27.8363
33.37592709463173 27.793000000000003
33.399170859982064 27.7079
33.422597648419426 27.6488
33.44584425514446 27.5228
33.46909227885668 27.5735
33.4923417207723 27.4303
33.51577423505344 27.4367
33.539026528130385 27.3117
33.56228024307245 27.2567
33.585535381098246 27.1973
33.60897364093058 27.1387
33.63223163992385 27.1381
33.6554910656699 27.0475
33.678751919389796 27.1148
33.702195944520106 27.034000000000002
33.72545966903325 27.1156
33.74872482519663 26.9585
33.771991414233746 26.9074
33.79544122444841 26.927
33.81871069412428 26.7576
33.84198160035767 26.743000000000002
33.86525394437455 26.8733
33.88870955949969 26.7561
33.911984794020626 26.6119
33.93526147001624 26.6681
33.958539588715006 26.5698
33.98200102861669 26.537
34.0052820477047 26.5329
34.02856451319451 26.5012
34.05203033759056 26.4155
34.07531571090147 26.3941
34.09860253431845 26.379
34.121890809074316 26.2967
34.145362493118924 26.3478
34.16865368561615 26.3114
34.191946333164054 26.1625
34.21524043699793 26.1249
34.23871800066799 26.1148
34.26201503218366 26.0519
34.28531352370466 26.0606
34.30861347646881 25.9463
34.33209693978188 26.0358
34.3553998301885 25.9892
34.378704185565205 25.8188
34.402010007152356 25.8143
34.42549939016683 25.8269
34.44880815937748 25.6425
34.472118398533134 25.6293
34.49543010887669 25.6254
34.51892543169198 25.561999999999998
34.54224009966052 25.6099
34.56555624255917 25.5973
34.58887386163339 25.4611
34.61237514439016 25.3585
34.6356957311114 25.3941
34.65901779775809 25.3197
34.68252356662995 25.3111
34.705848608458616 25.3415
34.72917513396849 25.2374
34.75250314440949 25.1797
34.77601490857862 25.1252
34.799345904259795 25.065
34.82267838863559 25.0652
34.846012362958525 25.1222
34.869530142679984 25.0478
34.89286711232212 24.934
34.91620557568269 25.0085
34.93954553401677 24.9923
34.9630693495876 24.8687
34.986412313340814 24.9096
35.00975677584668 24.9104
35.033102738362956 24.8546
35.05663261012228 24.7456
35.0799815881786 24.7607
35.10333207003229 24.7466
35.12668405694369 24.767
35.150220005273056 24.6712
35.17357501786656 24.7224
35.19693153931268 24.6082
35.220289570874385 24.5458
35.24383161619786 24.476
35.267192683604904 24.384
35.290555264930376 24.4323
35.314101899412165 24.4384
35.33746752422433 24.4571
35.36083466676374 24.4343
35.38420332829803 24.3328
35.407756095629054 24.331999999999997
35.43112781085063 24.34
35.45450104888391 24.3122
35.477875810999194 24.3414
35.50143473172161 24.224
35.52481255774625 24.2594
35.54819191167777 24.2083
35.57157279478914 24.0973
35.595137889488406 24.1425
35.61852184675279 24.0589
35.641907337029984 23.9736
35.665294361595684 24.0098
35.68886565090076 23.8514
35.7122557598848 23.7976
35.73564740699838 23.8942
35.759040593519934 23.8552
35.78261809810353 23.8103
35.80601437933051 23.684
35.829412203814705 23.6547
35.85281157283719 23.6593
35.876395313415884 23.5805
35.8997977874528 23.5453
35.92320180988546 23.5807
35.946790244133936 23.5018
35.97019737933222 23.5392
35.993606066789866 23.4508
36.01701630779276 23.3738
36.04061101440684 23.3206
36.06402437852291 23.4329
36.08743930005611 23.355999999999998
36.1108557802951 23.177
36.13445678011326 23.2575
36.15787639383515 23.2064
36.18129757014299 23.1742
36.20472031032821 23.0696
36.22832762423364 22.971
36.25175350829375 23.0921
36.275180960119776 23.0226
36.298609981005924 23.0432
36.32222362992669 22.9461
36.34565580510207 22.9132
36.36908955323448 23.0196
36.39252487562093 22.8878
36.416144880530226 22.7723
36.43958336764275 22.8451
36.463023432914625 22.8701
36.486465077645676 22.7249
36.51009145956204 22.8162
36.53353627947859 22.7411
36.55698268276811 22.6398
36.58043067073321 22.5606
36.60406345072071 22.439
36.62751462435344 22.5436
36.65096738658405 22.5671
36.67460498210655 22.4677
36.69806093788647 22.4123
36.72151848619297 22.3273
36.744977628333636 22.3772
36.76862165890998 22.3376
36.79208400512205 22.3845
36.81554794910557 22.3019
36.83901349217101 22.2456
36.862663978991606 22.1681
36.88613273667352 22.1842
36.90960309738324 22.1577
36.933075062434064 22.0647
36.95673202673572 21.9748
36.98020721697122 22.0408
37.003684015502365 22.0
37.027162423645365 21.9635
37.050825886711465 21.982
37.07430753063053 21.8624
37.09779078812467 21.7763
37.121275660513014 21.8042
37.144945643673694 21.7054
37.16843376245278 21.7269
37.19192350009803 21.7399
37.215414857931435 21.6649
37.239091382563885 21.5967
37.262585997426164 21.545
37.28608223645736 21.5714
37.309763684451696 21.5305
37.33326318851098 21.5209
37.356764320726555 21.5024
37.380267082425526 21.4368
37.40395510942588 21.4083
37.42746114683234 21.3804
37.45096881771841 21.3303
37.474478123414166 21.3196
37.49817275092816 21.2333
37.52168534303452 21.3033
37.54519957395567 21.1005
37.568715445024665 21.0958
37.592416694607714 21.0666
37.61593586281424 21.128
37.63945667518264 21.1152
37.66297913304891 21.0668
37.68668702630454 21.0191
37.710212792059274 20.9487
37.733740207334854 20.9746
37.757269273470364 20.8139
37.780983832050374 20.8358
37.80451621684926 20.8204
37.82805025654007 20.7125
37.851585952464795 20.8007
37.8753071980695 20.6734
37.89884622345676 20.6711
37.92238690911902 20.6083
37.94611318753442 20.5989
37.969657210779765 20.6293
37.99320289834801 20.6129
38.016750251586465 20.5435
38.04048325513017 20.4544
38.06403395679343 20.4858
38.087586328183946 20.3132
38.11114037065203 20.3701
38.13488012115898 20.3027
38.1584375229181 20.2614
38.181996599821 20.2691
38.205557353221124 20.2023
38.229303872575656 20.28
38.2528679961576 20.2612
38.27643380031219 20.1522
38.30000128639589 20.0716
38.32375459653193 20.1344
38.34732546371299 20.1325
38.37089801690786 20.0224
38.39447225747609 19.9623
38.418232380377425 19.9558
38.441810012983396 20.006
38.46538933705673 19.9271
38.488970353960084 19.9227
38.51273731166058 19.8594
38.536321731567014 19.7921
38.55990784840681 19.7942
38.58367995004091 19.7572
38.60726947812959 19.7055
38.63086070726198 19.6876
38.654453638806274 19.7214
38.678232613930824 19.6448
38.70182896773327 19.5472
38.72542702806741 19.5247
38.7490267963045 19.538
38.77281266709232 19.5507
38.79641586862214 19.5004
38.8200207821842 19.4063
38.843627409152944 19.399
38.86742019782782 19.409000000000002
38.891030269149255 19.3712
38.914642058016156 19.3277
38.938255565806124 19.3188
38.96205529464307 19.2742
38.98567225787121 19.2341
39.00929094417078 19.2119
39.03291135492255 19.1762
39.05671804624804 19.1494
39.080341923549106 19.1023
39.103967529460334 19.0416
39.127594865365744 19.0201
39.15140854155791 18.9468
39.17503935514948 18.9405
39.19867190290282 18.9682
39.22249083587951 18.9548
39.24612686969409 18.89
39.269764641845306 18.8219
39.293404153722804 18.8015
39.317230110864074 18.7748
39.34087311998506 18.7841
39.36451787301696 18.7406
39.388164371352595 18.6967
39.41199737518003 18.6486
39.43564738196752 18.6668
39.45929913825317 18.5809
39.48295264543308 18.5514
39.506792718520884 18.5781
39.530449745387216 18.5276
39.55410852735203 18.4269
39.57776906581474 18.4232
39.60161623079 18.4523
39.625280300200025 18.4292
39.64894613032202 18.3386
39.67261372255866 18.4051
39.6964680021016 18.2998
39.72013913657293 18.2844
39.74381203738292 18.3218
39.76748670593756 18.2564
39.79134812278169 18.2803
39.81502634488497 18.1855
39.83870633896685 18.1827
39.862388106436654 18.1542
39.88625668336918 18.1114
39.90994201572829 18.0981
39.933629125719285 18.0828
39.957503091207826 18.0279
39.9811937746168 18.0368
40.00488623990914 17.9799
40.02858048850006 17.9387
40.05246165409549 17.8602
40.076159487492085 17.8086
40.099859108448875 17.883
40.123560518384345 17.7776
40.1474489070226 17.7994
40.171153913178564 17.7492
40.194860712584955 17.7235
40.2185693066637 17.6973
40.242464941335314 17.6386
40.26617714307655 17.5526
40.289891143772046 17.6255
40.3136069448471 17.5616
40.33750984859743 17.5499
40.3612292688043 17.4845
40.3849504936829 17.5
40.40867352466194 17.4243
40.43258372059144 17.409000000000002
40.45631038219906 17.5074
40.48003885420956 17.4291
40.503769138055105 17.3842
40.52768664931955 17.3566
40.55142057531802 17.2836
40.57515631746428 17.2863
40.599079334038514 17.283
40.62281872700477 17.2073
40.64655994043941 17.2275
40.67030297578061 17.2039
40.69423334835778 17.127
40.71798004609188 17.1158
40.74172857006355 17.0873
40.76547892171441 17.0729
40.7894166736039 17.0824
40.813170699248566 16.9675
40.83692655691388 16.9644
40.86068424804498 16.9895
40.884629402612525 16.9576
40.908390779366385 16.889
40.932153993938 16.9401
40.95591904777605 16.902
40.979871628443995 16.8676
41.003640379561936 16.8332
41.02741097430883 16.7773
41.05118341413683 16.7765
41.075143444384416 16.7198
41.098919593177826 16.7227
41.1226975914255 16.6872
41.14647744058318 16.6245
41.170444943946755 16.5987
41.19422851378379 16.5954
41.218013938914645 16.546
41.24198706625173 16.4728
41.26577622087193 16.4987
41.289567235177785 16.4555
41.31336011063129 16.477999999999998
41.337340752422875 16.3465
41.361137369129835 16.3711
41.38493585138705 16.3833
41.40873620066004 16.3191
41.43272438060107 16.2978
41.45652848292052 16.1833
41.48033445666918 16.1898
41.50414230331616 16.2111
41.528138045159764 16.2143
41.551949656675205 16.1218
41.575763145513235 16.1651
41.59957851314666 16.115
41.62358184070442 16.0554
41.64740098505737 16.0081
41.6712220126409 16.0058
41.69504492493139 16.0016
41.71905586207357 15.9228
41.74288256296395 15.9719
41.766711153007456 15.9072
41.79054163368412 15.9201
41.814560204340054 15.9379
41.838394485526365 15.8925
41.86223066180303 15.7763
41.88625497706819 15.7631
41.910094962812 15.7658
41.93393684811168 15.76
41.95778063445365 15.6662
41.981812625263366 15.6892
42.00566023303407 15.6676
42.029509746323676 15.6324
42.05336116662236 15.5681
42.077400857069705 15.5603
42.10125611078846 15.5343
42.12511327600405 15.4733
42.14897235421036 15.459000000000001
42.173019768448455 15.5014
42.19688269209613 15.4594
42.22074753323349 15.4362
42.24461429335818 15.3826
42.268669455600495 15.4033
42.292540073217886 15.3567
42.31641261433284 15.2925
42.34028708044675 15.2853
42.36435001496739 15.3154
42.38822835065557 15.2563
42.41210861586426 15.2436
42.4359908120986 15.2228
42.46006154323262 15.1702
42.48394762115317 15.1845
42.507835634632315 15.1867
42.531912233047436 15.1098
42.55580413732265 15.0548
42.579697981698 15.0344
42.60359376768525 15.0179
42.62767820545945 14.9987
42.65157789440821 14.9715
42.67547952952185 14.9243
42.699383112316 14.904000000000002
42.72347541395347 14.8699
42.74738291190531 14.8267
42.771292362102166 14.8476
42.795203766063516 14.8153
42.819303956130405 14.783
42.843219287476536 14.724
42.86713657716324 14.755999999999998
42.89105582671383 14.752
42.91516392983864 14.6818
42.939087119032166 14.6877
42.963012272677304 14.6604
42.98693939230129 14.642000000000001
43.01105543317513 14.5898
43.034986504731386 14.5227
43.05891954686589 14.4565
43.08285456110972 14.4929
43.10697856448665 14.4463
43.130917542983475 14.4154
43.15485849820081 14.4463
43.17880143167367 14.4599
43.20293342237094 14.3966
43.226880332449 14.3759
43.25082922540554 14.3435
43.27496722682525 14.2511
43.29892010567796 14.2792
43.32287497204102 14.2249
43.34683182745632 14.2216
43.370977859791836 14.1858
43.39493871351105 14.1903
43.41890156092628 14.1834
43.44286640358341 14.0986
43.46702049182749 14.1662
43.49098934522816 14.0725
43.51496019852649 14.0206
43.5389330532723 14.0125
43.56309522248204 13.9719
43.58707210044314 14.005
43.61105098451946 13.931
43.63503187626491 13.9281
43.659202151562134 13.8983
43.68318707902681 13.8753
43.70717401884041 13.9259
43.731162972560874 13.8019
43.75534137913236 13.7727
43.779334381108384 13.7522
43.803329401683186 13.7271
43.82732644241872 13.7731
43.8515130055166 13.7602
43.87551410707659 13.6935
43.89951723350145 13.6961
43.923709934595614 13.6318
43.94771713129917 13.6384
43.97172635758096 13.5977
43.99573761501002 13.6255
44.0199385169922 13.5384
44.04395385732619 13.5243
44.067971233533086 13.552
44.09199064718605 13.4591
44.11619977548961 13.4096
44.14022328470671 13.4087
44.16424883610785 13.4426
44.18827643127035 13.4246
44.21249381139513 13.3894
44.236525514814076 13.3235
44.26055926674478 13.3607
44.28459506876863 13.3467
44.3088207262813 13.273
44.33286064928722 13.2192
44.35690262714919 13.2421
44.38094666145278 13.1725
44.4051806219871 13.2229
44.42922879003185 13.1424
44.45327901929361 13.1169
44.477331311362136 13.1389
44.501573600619416 13.1128
44.525630039221795 13.0739
44.54968854541895 13.1039
44.573937102200176 13.0533
44.5979997645541 12.9948
44.622064499300315 12.9708
44.64613130803592 12.9378
44.67038823869318 12.9546
44.69445921643748 12.9662
44.718532272981385 12.908
44.742607409926194 12.8748
44.76687274034801 12.8608
44.79095205918753 12.8148
44.81503346325094 12.797
44.839116954143876 12.7526
44.86339071028742 12.7577
44.88747839599524 12.752
44.91156817336837 12.7136
44.93566004401666 12.6914
44.959942251908146 12.7066
44.984038330325966 12.6907
45.00813650686762 12.5888
45.03223678314731 12.5992
45.05652746888232 12.5444
45.08063196592069 12.58
45.104738567558705 12.5178
45.128847275414856 12.479000000000001
45.15314646515866 12.4827
45.17725940679741 12.4471
45.20137445952892 12.4223
45.22568004865265 12.4465
45.24979934496396 12.3788
45.27392075725247 12.4026
45.29804428714431 12.3369
45.322358426247604 12.3443
45.346486212804315 12.2861
45.370616121861914 12.2842
45.39474815505086 12.259
45.41907087049246 12.2348
45.4432071734666 12.2016
45.46734560548283 12.1969
45.49148616817604 12.2015
45.51581748638564 12.1545
45.5399623320197 12.1817
45.56410931325473 12.1428
45.58825843173002 12.1072
45.61259837920865 12.0678
45.636751793816 12.0739
45.66090735060093 12.0189
45.68506505120716 11.9918
45.7094136545275 11.9984
45.73357566449271 11.9412
45.75773982322992 11.8979
45.78190613238733 11.8848
45.806263418194064 11.8351
45.83043404997326 11.8856
45.85460683713677 11.8539
45.87897065658495 11.8529
45.90314777634752 11.8197
45.92732705646868 11.8281
45.9515084986045 11.7546
45.97588104735473 11.7732
46.00006683541565 11.7278
46.02425479047904 11.7113
46.04844491420549 11.6715
46.0728262191024 11.65
46.09702070211635 11.6402
46.12121735879483 11.68
46.14541619080294 11.6029
46.169806278764455 11.6059
46.194009483459034 11.607000000000001
46.21821486849841 11.5731
46.24242243555223 11.4913
46.266821333570014 11.4611
46.29103328674601 11.4754
46.31524742696538 11.4954
46.33946375590237 11.4648
46.36387149104216 11.445
46.38809221957392 11.3951
46.41231514186606 11.3657
46.436540259597464 11.3865
46.460956858999374 11.3218
46.48518638983522 11.2964
46.509418121166966 11.258
46.533652054678114 11.2517
46.55807754555709 11.2501
46.58231590571962 11.232999999999999
46.60655647313217 11.2164
46.630988654873654 11.2048
46.655233659129024 11.1731
46.67948087571551 11.1793
46.70373030632484 11.1431
46.72817142736393 11.1057
46.752425308428684 11.0857
46.77668140861147 11.0822
46.80093972960865 11.0065
46.82538981736788 11.0153
46.849652602470904 10.9913
46.87391761349769 10.9986
46.8981848521493 10.9741
46.9226439341274 10.9359
46.946915650573224 10.8917
46.97118959976749 10.8968
46.99546578341598 10.8663
47.019933887188216 10.866
47.04421456235744 10.8436
47.06849747711879 10.8095
47.09278263318286 10.8135
47.11725978640143 10.7595
47.14154944775105 10.7897
47.165841355555656 10.7252
47.1901355115306 10.6726
47.214621741924994 10.7236
47.23892041698887 10.6693
47.26322134538975 10.615
47.28771440635075 10.6534
47.31201986422527 10.6329
47.33632758061436 10.6212
47.360637557241866 10.562999999999999
47.38513974410611 10.5747
47.40945426407847 10.5574
47.43377104948137 10.5064
47.45809010204344 10.4829
47.48260144275502 10.4858
47.506925052572285 10.4374
47.53125093475548 10.4402
47.55557909103813 10.4201
47.58009961361992 10.4051
47.60443234110732 10.404000000000002
47.62876734791564 10.3701
47.65310463578333 10.3899
47.6776343683373 10.3645
47.7019762413987 10.3329
47.72632040075572 10.2974
47.75066684815169 10.2427
47.77520581885936 10.259
47.799556865477655 10.2137
47.823910205386 10.2604
47.84826584033272 10.205
47.87281407745551 10.1733
47.89717432569297 10.1451
47.92153687423484 10.1241
47.94609208429692 10.1051
47.97045925671401 10.1089
47.99482873471275 10.0784
48.01920052005013 10.0909
48.04376504619224 10.0416
48.068141469543484 10.0835
48.09252020552573 10.008
48.11690125590099 9.975480000000001
48.1414751266064 10.0113
48.16586082917454 9.94587
48.19024885144316 9.92212
48.2146391951793 9.905
48.239222439012764 9.88978
48.26361744916137 9.89129
48.28801478610016 9.86571
48.31241445160131 9.84286
48.337007097209366 9.834060000000001
48.36141144338331 9.823139999999999
48.38581812345755 9.82353
48.41022713920929 9.80209
48.434829215320704 9.78084
48.45924292604658 9.75997
48.48365897780325 9.76897
48.50807737237308 9.72274
48.532688907799276 9.71223
48.55711201168574 9.68595
48.581537463754074 9.65316
48.60615611725119 9.676969999999999
48.63058628942721 9.638530000000001
48.65501881516546 9.62348
48.6794536962573 9.596630000000001
48.70408185970339 9.61406
48.72852147531801 9.561010000000001
48.75296345168211 9.51436
48.77740779059232 9.54222
48.80204549302823 9.5425
48.82649458091802 9.4774
48.85094603676547 9.44743
48.87539986237231 9.45192
48.90004713292306 9.42026
48.92450572200832 9.434239999999999
48.94896668628025 9.4116
48.97343002754588 9.3926
48.99808689542115 9.387189999999999
49.02255501470614 9.3737
49.04702551642794 9.30684
49.0714984023988 9.27759
49.096164896893235 9.26783
49.120642575466796 9.25341
49.145122643748394 9.23709
49.16960510355558 9.23333
49.19428125404938 9.1872
49.2187685210852 9.22728
49.243258185121555 9.22123
49.26794160167084 9.16262
49.2924360839405 9.15731
49.31693296869764 9.122489999999999
49.34143225776915 9.1003
49.36612538195438 9.0809
49.39062950396021 9.05397
49.41513603578346 9.06845
49.4396449792564 9.06395
49.46434784069503 9.06016
49.488861631846454 8.96482
49.513377840166804 8.98508
49.537896467493745 8.968860000000001
49.56260909589029 8.95627
49.587132585683285 8.934330000000001
49.611658500018365 8.938889999999999
49.636186840738596 8.89413
49.66090926588511 8.865730000000001
49.685442483902584 8.88129
49.70997813385706 8.861360000000001
49.734516217597076 8.8342
49.75924846937352 8.8293
49.7837914452858 8.79093
49.80833686055187 8.774239999999999
49.83288471702571 8.77936
49.85762682540054 8.76167
49.882179588965734 8.71223
49.9067347993235 8.68127
49.93129245833333 8.68802
49.95604445336378 8.68569
49.98060703442832 8.656130000000001
50.005172069746266 8.635530000000001
50.02993150438364 8.66855
50.05450147301533 8.64917
50.07907390151433 8.60637
50.10364879174981 8.60949
50.12841816587289 8.57124
50.1529980044635 8.54529
50.17758031042124 8.5228
50.20216508562089 8.5024
50.22694442953363 8.52877
50.25153416817468 8.49535
50.27612638170508 8.48168
50.300721072005196 8.440010000000001
50.325510416102105 8.42145
50.350110084975064 8.40076
50.37471223628208 8.39197
50.39931687190919 8.36575
50.424116246675766 8.35395
50.44872587605249 8.34799
50.47333799543065 8.34564
50.49795260670191 8.344389999999999
50.52276204271512 8.304310000000001
50.54738166295838 8.28717
50.57200378079314 8.27185
50.596628398116835 8.24121
50.62144792604559 8.263580000000001
50.646077567609396 8.20875
50.670709714377715 8.2169
50.69553683636198 8.163860000000001
50.72017401885922 8.191980000000001
50.7448137122895 8.167860000000001
50.76945591856022 8.14051
50.79429318636823 8.1323
50.818940443716784 8.12595
50.84359021965163 8.103060000000001
50.868242516085964 8.10391
50.893089960641895 8.08169
50.917747323549435 8.05198
50.94240721271973 8.05707
50.96706963007175 8.01292
50.99192728239342 8.025310000000001
51.01659478166073 8.00424
51.04126481489051 7.9744600000000005
51.06593738400761 7.98901
51.090805275207074 7.98071
51.11548294172845 7.923610000000001
51.14016314993547 7.91438
51.164845901758845 7.90528
51.18972406304274 7.87962
51.21441192780656 7.87512
51.23910234200271 7.8445800000000006
51.2637953075678 7.820539999999999
51.288683770237945 7.79597
51.31338186432707 7.7756300000000005
51.33808251561888 7.7731699999999995
51.362978729967345 7.77738
51.387684521509755 7.77757
51.41239287610203 7.75712
51.437103795691165 7.71015
51.46201036644977 7.68025
51.486726441956634 7.67938
51.51144508832545 7.71025
51.536166307509156 7.66348
51.56108326624387 7.6547600000000005
51.58580965706056 7.6501399999999995
51.61053862657523 7.6181
51.635270176746864 7.576219999999999
51.66019755512065 7.60635
51.68493429268881 7.55995
51.70967361681515 7.550789999999999
51.73441552946465 7.557110000000001
51.759353359237934 7.523739999999999
51.7841004750961 7.49315
51.80885018539685 7.50073
51.833602492111254 7.4741800000000005
51.8585508051424 7.45954
51.883308330926425 7.4443399999999995
51.90806845906181 7.426410000000001
51.932831191525715 7.3734
51.95779001977161 7.35248
51.98255798721516 7.36592
52.00732856494335 7.373989999999999
52.03229530577543 7.3242899999999995
52.057071130455945 7.339510000000001
52.081849571391054 7.31743
52.106630630568695 7.2831
52.13160794279417 7.217569999999999
52.15639426492067 7.277660000000001
52.18118321127822 7.279660000000001
52.205974783860896 7.23717
52.23096269971011 7.21747
52.255759551287994 7.191730000000001
52.280559035098186 7.19459
52.30536115314103 7.18496
52.33035970494467 7.1806600000000005
52.35516711807904 7.15822
52.37997717147198 7.094760000000001
52.40478986713005 7.14997
52.42979908731974 7.142860000000001
52.454617094216 7.1059399999999995
52.47943774942214 7.06037
52.50426105495102 7.0628899999999994
52.529280976059844 7.029910000000001
52.554109609024096 7.05127
52.57894089837482 7.017710000000001
52.60377484613117 6.98425
52.62880550079408 7.000889999999999
52.65364479223379 6.95262
52.67848674816189 6.935230000000001
52.70352547971946 6.9557899999999995
52.72837279155837 6.92435
52.753222773982785 6.86682
52.778075429022984 6.90256
52.80312495150885 6.915889999999999
52.827982978797436 6.90015
52.85284368481815 6.82625
52.87770707160767 6.811560000000001
52.90276741793998 6.81323
52.92763619336701 6.806430000000001
52.952507655698504 6.82722
52.977381806977576 6.79356
53.00245301017842 6.775580000000001
53.02733256653592 6.803560000000001
53.052214817996074 6.75005
53.077099766608484 6.76434
53.102181859804446 6.75581
53.127072229988265 6.7020800000000005
53.15196530349892 6.64653
53.17686108239249 6.645789999999999
53.20195409881522 6.659839999999999
53.22685531582556 6.64668
53.25175924441303 6.614669999999999
53.27666588664027 6.62033
53.30176985962693 6.61945
53.3266819565689 6.60371
53.35159677336455 6.580660000000001
53.376514312083096 6.55885
53.40162927507703 6.55916
53.42655228516116 6.561789999999999
53.45147802340193 6.5221
53.47660125628886 6.48883
53.50153247842639 6.51804
53.52646643496923 6.45974
53.55140312799818 6.46159
53.576537409691696 6.4534
53.60147960336152 6.43245
53.626424539786164 6.42451
53.65137222105307 6.42175
53.67651758529126 6.3890199999999995
53.70147078399681 6.395569999999999
53.72642673383343 6.372730000000001
53.75138543689533 6.39999
53.776541917524526 6.355180000000001
53.801506154876755 6.3143400000000005
53.826473151763246 6.2861400000000005
53.851442910284916 6.26877
53.87661054126026 6.24443
53.9015858509782 6.26657
53.92656392866066 6.26733
53.95154477641532 6.28411
53.976723591801296 6.21938
54.00171000771266 6.23151
54.02669920004598 6.17685
54.051691170915745 6.18304
54.076881204886796 6.18843
54.101878760928514 6.11789
54.12687910187696 6.15564
54.152077577768296 6.14912
54.1770835166946 6.09249
54.20209224691339 6.0721300000000005
54.22710377055121 6.08625
54.25231352511594 6.04964
54.27733066384342 6.03453
54.30235060239643 6.060230000000001
54.32737334290836 6.0338
54.35259441062629 5.96163
54.377622783395324 5.99478
54.40265396455061 5.97118
54.42768795623251 5.95666
54.45292037169559 5.93544
54.477960012857906 5.9478599999999995
54.50300247099511 5.9294199999999995
54.52804774825457 5.87935
54.55329154616743 5.88899
54.57834249018678 5.8282300000000005
54.6033962597977 5.82493
54.6284528571545 5.79049
54.653708072335164 5.76789
54.67877035378786 5.76954
54.70383546947698 5.79735
54.72890342156389 5.76834
54.7541700889442 5.699730000000001
54.77924374251975 5.67165
54.8043202390049 5.667269999999999
54.82959552413022 5.63871
54.8546777351945 5.62195
54.87976279569621 5.61003
54.90485070780914 5.57787
54.930137506558005 5.53578
54.95523115074295 5.60085
54.98032765308844 5.5211
55.005427015775496 5.49275
55.03072536339621 5.49619
55.05583047570572 5.48456
55.080938454927676 5.45363
55.10604930325027 5.43562
55.131359235107396 5.4092199999999995
55.15647585066083 5.3935
55.181595341907496 5.35482
55.20671771104285 5.36016
55.232039262617704 5.31341
55.25716741665048 5.29844
55.28229845518636 5.34345
55.30743238042802 5.25858
55.33276558731939 5.188359999999999
55.357905315183636 5.1770000000000005
55.383047936390035 5.1567300000000005
55.40819345314859 5.15826
55.433538351073295 5.13322
55.458689688238415 5.14003
55.483843927614096 5.0498400000000006
55.509197623043605 5.0865
55.53435769621134 5.04686
55.55952067826466 5.01055
55.5846865714265 4.93255
55.61005202069737 4.9339
55.63522376553902 4.93467
55.66039842818645 4.8944
55.68557601087004 4.87782
55.7109532500271 4.80561
55.73613670233794 4.88645
