TT I
1.2716486653135266 7.25088
1.2939594142134223 7.2696
1.3162702121660406 6.76766
1.3385810600174564 6.68142
1.3608919586137629 6.42496
1.383202908801069 6.53341
1.405513911425503 6.01237
1.4278249673332093 6.41769
1.4501343378461518 6.01842
1.4724455028545926 5.7952
1.4947567236847858 6.31756
1.517068001182951 6.421119999999999
1.5393793361953272 5.964580000000001
1.5616907295681737 5.87216
1.5840021821477681 5.5022199999999994
1.60631369478041 6.01145
1.6286252683124185 5.35201
1.6509369035901333 5.54335
1.6732468618895553 5.58485
1.695558623192809 5.01281
1.7178704487808514 4.993869999999999
1.7401823395001077 5.1778699999999995
1.7625012545597203 5.11891
1.7848028405262486 5.02418
1.8071218901122095 4.67749
1.8294236121921872 4.4826
1.8517427996910911 4.5851
1.8740620574440425 4.4465699999999995
1.8963639900671978 4.98332
1.9186833908139995 5.12218
1.9409854680117449 5.01905
1.9633050151394713 4.99389
1.9856246367570705 4.31088
2.0079269371922672 4.5770599999999995
2.03024671027244 4.70357
2.0525491637446027 4.93315
2.074869091674931 4.63466
2.097171701569106 4.95905
2.1194917877373847 4.6997
2.141811954326636 5.138380000000001
2.164114805233074 5.17645
2.186435135143035 5.49161
2.208738150935709 15.5012
2.231058647554722 34.766
2.2533792288321184 26.7388
2.275682498336085 11.4083
2.298003251406138 5.87707
2.3203066942619714 5.74884
2.3426276225136022 4.97483
2.3649486396617507 5.413209999999999
2.387252348930071 5.64312
2.4095735463442893 5.71887
2.4318774374315884 5.63477
2.4541988185014043 5.43844
2.476502894794693 6.33026
2.498824462909887 6.8787
2.521146125856138 6.6972
2.5434504863470337 7.074160000000001
2.5657723414244717 7.191910000000001
2.588076895590662 7.586469999999999
2.610398946189713 7.82171
2.6327210958598384 7.68076
2.6550259469304716 7.01578
2.6773482972090137 7.8383899999999995
2.6996533504259 7.961239999999999
2.7219759047039602 8.38896
2.744298562293959 8.32964
2.7666039251246595 8.52104
2.7889267918020164 8.44551
2.8112323652516555 8.50111
2.833555444408179 8.87283
2.8558786311183852 8.80335
2.8781845268938557 8.25065
2.9005079311721484 8.81015
2.9228140460410397 9.32525
2.9451376712799635 9.4358
2.967444008632326 9.79951
2.9897678582247247 10.2964
3.0120918213106695 10.3952
3.0343984987899373 11.1042
3.0567226913198637 10.7463
3.079029599759726 11.0046
3.101354025127254 12.2322
3.123678568232338 12.6979
3.145985829517914 13.2942
3.16831061055229 13.6184
3.1906181112775593 14.2096
3.212943133635653 14.8885
3.2352682779763207 15.5279
3.2575761442691227 15.3575
3.2799015350264273 15.4996
3.302209649240067 16.250999999999998
3.3245352898092655 16.9989
3.3468436553365257 17.809
3.369169549113219 17.9922
3.3914955708171384 18.6321
3.413804319727358 18.9587
3.4361305997334863 19.3385
3.4584396084414553 20.0807
3.4807661501462652 20.5728
3.503092824025881 21.3412
3.5254022288463154 21.3923
3.5477291695206588 22.4157
3.5700388426251948 22.9653
3.5923660534916446 24.561
3.6146934007816114 42.7575
3.637003482731501 107.257
3.6593311053109985 121.71600000000001
3.681641464033634 66.7191
3.7039693653009733 32.8642
3.726297407241705 26.5242
3.7486081875460804 26.4154
3.7709365132734978 26.6319
3.793247578841633 26.9645
3.8155761917550093 27.2905
3.8378875459837216 27.6121
3.8602164494827234 27.904
3.882545499606844 28.7081
3.9048572932539183 29.2642
3.9271866390645718 29.7495
3.9494987298666713 30.4115
3.971828374764527 30.9163
3.9941581705403255 31.1109
4.016470713506008 31.6639
4.038800813471445 32.5192
4.061113662089144 33.5562
4.0834440696459176 33.854
4.105774632334751 34.3162
4.128087945865126 35.2493
4.150418821249301 36.2504
4.172732448931298 37.2196
4.195063640413578 39.4411
4.2173775856475215 44.2314
4.239709096631102 83.5522
4.262040768704612 287.724
4.284355196706267 404.707
4.306687193387355 257.905
4.329001947444346 93.5113
4.35133427213731 50.3902
4.373666762177566 46.0175
4.395982011761091 45.4908
4.418314834921175 46.4488
4.44063041906622 56.6611
4.4629635787515625 70.6069
4.4852969080429785 70.0792
4.5076130004776225 56.4931
4.529946671403969 50.7245
4.552263106909177 50.5001
4.574597122877047 51.7754
4.596931312711224 52.7104
4.619248269273446 53.6001
4.6415828092605835 54.7205
4.663900117405352 56.2078
4.686235010953232 57.2846
4.708552674085913 58.1618
4.730887924602802 59.7349
4.753223354952695 61.4622
4.775541557023902 62.5619
4.797877349456786 63.5841
4.820195915032126 66.3854
4.842532072957498 67.9495
4.864868414979744 69.5068
4.88718753227192 71.4539
4.909524244902505 73.5552
4.931843734218147 75.3089
4.954180820867835 77.8421
4.976518095879839 81.1899
4.998838149695359 84.1756
5.021175803844231 87.4118
5.043496238205739 90.1157
5.065834274903528 94.6401
5.088172504230693 100.40899999999999
5.1104935158799565 107.637
5.132832132875765 134.069
5.155153533596801 187.86
5.1774925416746225 224.13
5.199814334878411 365.478
5.2221537374521505 1015.54
5.244493338631803 2774.85
5.266815727034316 7271.36
5.289155727832427 12223.8
5.311478517248165 9427.61
5.333818921080011 3242.32
5.356159527788849 658.86
5.3784829252032536 203.19400000000002
5.400823940070432 149.553
5.423147747031976 131.681
5.445489173474152 120.697
5.467830807066149 113.995
5.490155234831516 109.936
5.512497285125229 106.459
5.534822130975162 105.141
5.557164601388673 103.133
5.579489868738879 99.8226
5.601832762690846 99.2361
5.6241758697774475 98.4296
5.646501775867269 97.3529
5.668845311622074 95.5775
5.691171647754637 94.5525
5.713515615597765 93.773
5.735859800852677 92.5142
5.758186788542988 92.1179
5.780531411018185 91.6353
5.802858837297399 91.6149
5.825203900414495 91.3883
5.8475491852224 91.8722
5.869877275883075 92.9086
5.892223006467101 93.9341
5.914551544266608 94.988
5.936897724049891 98.0669
5.959244129804903 103.38
5.981573344815301 120.853
6.0039202049061 207.34799999999998
6.026249875609095 450.57099999999997
6.04859719346037 949.9
6.070927323278297 2113.52
6.093275102315365 4243.47
6.115623113320588 5291.06
6.137953938319995 3425.48
6.160302415650845 1114.04
6.182633708324452 264.092
6.2049826554078376 119.63600000000001
6.227331838745022 95.7234
6.249663839443684 87.5296
6.27201349767565 84.79700000000001
6.294345974611799 92.9812
6.316696111167083 109.079
6.339046488263839 102.417
6.361379686074702 83.9141
6.383730546639482 73.4056
6.406064229255215 69.6706
6.428415576718203 69.0594
6.450749747566656 68.0996
6.47310158535871 66.8726
6.495453669698332 66.2034
6.517788579421056 65.3832
6.540141159237969 64.79899999999999
6.562476565766648 64.0418
6.5848296444934045 64.0961
6.607182974060425 63.4445
6.6295191323281015 63.3495
6.651872965955752 68.0392
6.6742096296068985 101.508
6.6965639707294615 163.089
6.71891856698715 163.293
6.741255995248479 106.194
6.763611104154477 71.1667
6.785949046381137 61.7013
6.808304671371482 59.4094
6.8306605557940046 58.9979
6.852999275508618 58.0181
6.875355681171544 57.7633
6.897694923437771 57.4333
6.92005185377892 57.2367
6.9423916220322655 57.4023
6.964749080490181 56.5526
6.987106804399774 56.1228
7.009447368180821 56.3185
7.031805625367033 56.1982
7.054146723727803 56.1846
7.076505517631004 55.8515
7.098864581288365 55.9708
7.121206488070854 55.9741
7.143566093607822 56.0111
7.165908543567245 56.363
7.188268694426048 56.3457
7.2106291193438095 56.1766
7.232972390625943 58.0437
7.255333366030969 73.7431
7.277677189091925 144.22899999999998
7.300038718428332 207.136
7.322400526130865 172.588
7.344745183422596 100.585
7.367107550224791 65.1422
7.389452767901992 57.4313
7.411815697249891 56.3839
7.434161478756298 55.0449
7.456524974096713 55.1852
7.478888753837185 55.1669
7.501235387657368 55.6496
7.523599738562711 55.5036
7.545946944825532 55.785
7.568311870344528 56.1772
7.5906770845765665 56.3921
7.613025156078678 58.1421
7.635390950099687 59.7964
7.657739602662809 58.6049
7.680105979923558 56.8564
7.702472650212829 56.7235
7.724822180948224 56.591
7.747189439655568 56.6762
7.769539560075357 56.5241
7.791907410653562 57.4519
7.81425812420825 56.9524
7.836626570110925 57.3826
7.858995315087906 58.5806
7.881346924933401 58.1764
7.903716270417482 59.0571
7.926068482028405 59.1614
7.948438431475253 59.7897
7.9708086843180235 60.5486
7.993161805171116 61.1607
8.015532667162402 61.4257
8.037886398416653 62.4588
8.060257873014221 62.9797
8.082629655331942 63.6351
8.104984308787587 64.5482
8.127356708900503 68.3846
8.149711981398308 75.5887
8.172085002766314 78.7352
8.194458336181368 74.2253
8.216814543847752 70.7072
8.23918850371002 70.2709
8.26154533906492 70.5458
8.283919928836452 72.5588
8.306277395339652 73.609
8.328652618483376 74.6721
8.351028159736202 76.7368
8.373386579575245 78.7521
8.395762759396959 80.7207
8.418121819038275 86.5884
8.440498640894003 102.946
8.462875785192262 119.74799999999999
8.485235811156207 129.77
8.507613602688501 164.59400000000002
8.529974277114228 248.555
8.552352719347912 377.714
8.574731488360351 640.321
8.59709314210385 1130.68
8.619472567021075 1795.2
8.64183487789147 2212.74
8.664214962183097 1877.7
8.686577933647762 1001.51
8.708958680784317 394.381
8.731339760774953 176.105
8.753703729764451 114.98899999999999
8.77608547780821 101.009
8.798450116065078 97.3366
8.820832535634787 93.2124
8.843215292401656 91.5543
8.865580941199045 89.9999
8.887964374703538 89.0423
8.910330701447199 90.5946
8.932714815164482 94.2912
8.955099270424924 93.7072
8.977466620733543 89.6442
8.999851761421976 86.3836
9.022219798361645 84.1022
9.04460562795561 83.8289
9.066991803441677 83.4913
9.089360876979615 83.2402
9.111747746589993 83.1583
9.13411751544971 82.1809
9.156505082664324 82.5122
9.178875550323522 82.8629
9.20126381862328 83.07
9.223652438908596 83.9072
9.246023961427412 83.3546
9.26841328802173 82.5726
9.290785518039224 82.3502
9.313175554425882 83.0087
9.335565947154315 82.7768
9.357939245086508 82.8
9.380330352834827 82.8393
9.40270436697103 83.1577
9.425096193225055 83.1152
9.447488380180165 84.4041
9.469863475295412 84.5577
9.492256385987508 85.0833
9.514632206018318 85.7056
9.537025843935714 85.6974
9.559402392368193 86.75399999999999
9.581796761000229 87.7071
9.604191496441521 88.7139
9.626569144158516 92.8864
9.648964615551032 98.9575
9.671343000390081 101.321
9.693739211225699 98.1451
9.716135793237463 94.7315
9.738515290448102 93.8911
9.760912617143402 94.5139
9.783292860202891 95.5747
9.805690935076182 96.7002
9.828089385495742 98.1692
9.850470754023561 100.318
9.872869957865444 109.765
9.89525208097539 129.329
9.917652041736662 144.952
9.940052382417589 143.019
9.962435644102392 143.29399999999998
9.984836746950979 173.562
10.007220771957746 235.016
10.029622640473708 332.319
10.052007432299963 501.413
10.074410069984072 768.296
10.096813093716005 1206.67
10.119199042482517 1715.79
10.141602840636468 1970.65
10.163989564971628 1664.16
10.186394141051062 951.908
10.208799107559706 412.835
10.231187001965623 194.635
10.253592751657669 128.98
10.275981430388155 115.15799999999999
10.298387966769793 115.637
10.320794897965431 119.04799999999999
10.343184759907361 118.227
10.36559248305461 111.505
10.387983138083852 105.65700000000001
10.410391656691655 107.382
10.432800574501677 117.455
10.455192425893369 134.03
10.47760214443012 158.472
10.499994797678786 197.51
10.522405320453982 272.907
10.54479877906917 380.148
10.567210109595656 514.044
10.5896218454736 566.925
10.612016518879773 526.385
10.634429067781074 369.56199999999995
10.656824555333241 207.97
10.679237920773568 126.38
10.701651695961992 97.5413
10.724048411481384 90.2309
10.746463008485165 87.3207
10.768860546937125 85.7899
10.791275969274796 83.8842
10.81369180576079 82.6467
10.836090585366925 81.7631
10.858507252467449 80.4604
10.88090686379991 79.53699999999999
10.903324365036394 79.3013
10.925724811614439 79.4149
10.948143150509463 80.8283
10.970561909719066 80.3746
10.992963615930844 78.001
11.015383218085756 75.6776
11.037785768347074 74.363
11.06020621697282 73.4554
11.082627090322113 73.0947
11.105030913430326 72.4632
11.12745263854165 73.4097
11.149857314510728 78.2716
11.172279894912576 85.9156
11.194702904450653 87.2613
11.217108866490921 82.1027
11.239532736615194 76.2617
11.26193956033512 73.7153
11.284364294577085 71.5944
11.306789462371718 69.3315
11.329197585398376 68.1204
11.351623622610898 67.7175
11.37403261614354 66.6897
11.396459526308487 66.429
11.418869393879497 66.0701
11.441297180532617 65.942
11.463725406927658 65.4093
11.486136592353875 65.119
11.508565700543707 66.2305
11.530977768845315 68.7481
11.553407762368774 70.1092
11.575838200059769 69.2436
11.598251599479612 66.4821
11.620682927815501 64.7224
11.64309721895548 64.3079
11.665529441478206 63.9441
11.687962112597958 63.6427
11.710377748130886 63.4315
11.732811318753434 63.4967
11.755227854859067 63.6075
11.777662328529495 63.5638
11.800079768750786 63.3568
11.822515149015453 62.9425
11.844950984084935 63.3498
11.867369787303163 62.8202
11.889806534289491 63.1005
11.912226250487029 63.4354
11.934663912939751 63.3383
11.9571020346363 63.6005
11.979523127133968 63.5843
12.001962169624331 64.1112
12.024384183972964 65.0975
12.046824150809913 67.9181
12.069264581333726 72.8739
12.091687985297767 78.9854
12.11412934550045 88.2633
12.136553680195208 101.79799999999999
12.158995973632788 122.165
12.181438735204349 149.342
12.20386447284199 179.467
12.226308172985636 206.033
12.24873485024193 209.28799999999998
12.271179492516982 170.81099999999998
12.293607112949127 133.047
12.316052700916226 98.7464
12.338498763250042 81.1284
12.360927805303868 72.1317
12.383374818673879 67.6479
12.405804812803074 65.6408
12.428252780773262 64.9693
12.45070122756722 64.7185
12.473132656675375 64.6734
12.49558206341869 65.2003
12.518014453510101 65.0835
12.540464823770117 65.3632
12.562915677315177 65.3068
12.58534951575545 65.9994
12.607801338171472 68.5864
12.630236146511358 75.8045
12.652688941369085 81.9639
12.675124723177234 82.189
12.697578494048786 77.2072
12.720032754458185 71.2591
12.742470003354093 69.0446
12.764925245138771 68.4199
12.787363476431278 68.5429
12.809819703166806 69.0388
12.83227642391173 69.8499
12.854716135692716 70.6431
12.877173846755147 71.2202
12.899614549869717 71.1929
12.9220732548287 72.1834
12.94453245827299 72.7971
12.966974655289818 73.6646
12.989434858002571 74.6513
13.011878055298721 75.4422
13.034339260862497 76.2324
13.056800969391883 77.3403
13.079245674017244 79.4933
13.101708390774869 81.3795
13.12415410463411 87.9667
13.146617833206086 99.5868
13.169064559883248 111.36399999999999
13.191529303857127 125.72
13.213994557076367 146.901
13.236442809902437 179.99099999999999
13.258909083908291 229.983
13.28135835851934 291.079
13.30382565690295 363.64099999999996
13.326293469022952 427.249
13.348744283242008 441.548
13.371213125129904 382.25699999999995
13.39366497011003 277.022
13.416134845360597 181.983
13.438605238843131 126.50299999999999
13.46105863690397 106.501
13.483530069144786 105.583
13.505984506951902 110.60700000000001
13.528456981549432 119.819
13.550929978879088 133.83100000000002
13.573385983253365 155.536
13.595860028340867 191.225
13.618317081455832 238.888
13.64079217790333 297.637
13.663250283359057 348.51
13.685726434770173 379.351
13.708203115221277 350.52099999999996
13.730662806148091 277.211
13.75314054697177 195.484
13.775601299246777 135.203
13.798080104050406 100.197
13.820559442405358 86.4988
13.843021793671388 82.7918
13.865502201420897 80.9424
13.887965623051947 80.2408
13.910447103807167 78.9189
13.932929122629764 77.4939
13.955394156785959 77.5658
13.977877254034569 76.5122
14.000343367582113 75.6917
14.022827546871707 75.0066
14.045294743423524 74.3621
14.06778000837062 73.6109
14.090265817715476 73.5666
14.112734645763819 73.085
14.13522154619454 73.0757
14.157691466286913 73.365
14.180179461423874 73.0612
14.202668005486178 72.4619
14.22513957064374 71.6302
14.247629214846473 71.1242
14.270101881097517 70.824
14.29259262906496 71.3159
14.315083930490205 72.3862
14.337558255389705 73.0162
14.360050666019726 72.60600000000001
14.382526101071944 71.22800000000001
14.405019624534942 70.0159
14.427513705993134 69.5529
14.449990813291825 69.3149
14.47248601302899 69.2345
14.49496423954951 69.3017
14.517460561197822 69.5904
14.539939910570322 69.1863
14.562437357763558 69.6695
14.58493536931253 71.005
14.607416409993311 72.2141
14.62991555254159 73.1096
14.652397725157423 72.7924
14.674898002342799 71.6555
14.697398848433282 71.2163
14.719882725991326 71.4414
14.74238471217934 72.1132
14.764869730765593 75.1931
14.787372860692983 78.8147
14.809876564079925 82.9773
14.83236330125751 88.6654
14.854868153850365 96.8478
14.877356041159485 109.01299999999999
14.899862046604186 125.986
14.922351087688757 149.88
14.944858249632887 178.08
14.967365991421232 206.452
14.989856770231246 224.63400000000001
15.012365673994204 224.351
15.03485761569738 194.91299999999998
15.05736768508665 153.924
15.07987833888692 117.87
15.102372032001655 92.7859
15.124883856909658 78.4701
15.14737872204565 73.1091
15.169891721717274 71.1191
15.192405310371893 71.2587
15.214901940621196 72.0272
15.237416709527137 72.4464
15.259914520936249 72.6683
15.282430473753607 71.4854
15.304947020131227 70.0207
15.327446610371178 68.9578
15.349964346154254 68.1242
15.372465126703139 67.6527
15.394984055556009 67.1078
15.417486030076159 67.0103
15.44000615566487 66.7549
15.462526881230803 66.8357
15.485030653812652 66.8385
15.507552581617434 66.9907
15.530057557334603 67.0534
15.55258069104857 67.0307
15.575104429329837 66.929
15.597611216864632 66.3902
15.620136166564563 66.404
15.6426441664095 67.2061
15.665170331202765 69.05199999999999
15.687697105158826 72.3727
15.710206930593545 75.6893
15.732734925158933 79.8361
15.755245972089478 85.4943
15.77777519094324 94.2884
15.800287463046663 105.65299999999999
15.822817909869592 123.069
15.84534897229804 143.359
15.867863089299354 168.398
15.890395385222186 187.662
15.912910736597423 198.028
15.935444269699861 187.55200000000002
15.957978423016485 160.168
15.980495633101265 127.085
16.003031029129367 98.9618
16.02554948280019 77.9804
16.048086125229432 69.0587
16.070623392487107 66.5233
16.09314371869582 65.887
16.11568223789321 64.9742
16.13820381691126 63.888000000000005
16.160743591742527 62.5722
16.183283996022084 61.3697
16.205807461423195 60.1184
16.228349126881973 59.7015
16.25087385432698 59.7287
16.27341678466365 58.8609
16.29594277784926 59.01
16.31848697676433 59.6155
16.341031811604868 60.222
16.36355971058487 60.553000000000004
16.3861058195587 60.3393
16.40863499352978 58.8799
16.431182380342005 57.5015
16.453730407713202 56.8107
16.476261501364792 56.2946
16.498810812136167 56.1253
16.52134319004079 56.1891
16.54389378792203 55.9331
16.566445031001553 55.858000000000004
16.588979342490088 55.7935
16.61153187824822 55.7118
16.634067483263312 55.4534
16.656621315414416 55.2388
16.679175797408888 55.1192
16.701713349928728 55.3859
16.72426913389191 55.5612
16.74680798922351 55.7317
16.76936507887444 55.7124
16.791905240734874 55.6891
16.814463639794468 55.5795
16.837022695210294 55.4043
16.859564824093756 55.9451
16.882125194503903 56.7981
16.904668639217885 57.4231
16.927230328348003 57.8436
16.949792678493612 58.0226
16.972338104193863 57.1507
16.994901778652235 56.4022
17.017448529496576 56.2794
17.040013531998152 56.2211
17.06257920018044 56.6441
17.0851279459922 57.5604
17.107694947817667 58.2516
17.130245028099072 59.0009
17.15281336730298 60.493
17.17536478578733 62.0622
17.19793446610687 64.1848
17.220504818648422 66.6713
17.243058251703697 69.7052
17.265629950971032 74.4712
17.288184731571736 78.8717
17.310757781306908 83.5441
17.33333150794385 84.7939
17.355888317140174 83.0208
17.37846339986244 79.0069
17.401021565958885 72.513
17.42359800851343 66.5229
17.44617513265564 62.6396
17.468735341390783 60.7255
17.491261035594565 59.7531
17.51396340099364 59.3474
17.536490463869136 59.6721
17.559018209820174 59.7266
17.58154663977963 59.9868
17.604251766089718 60.0107
17.626781572227713 60.0417
17.64931206518155 60.3943
17.671843245885103 61.0244
17.69455114821572 61.3717
17.717083712612634 61.4656
17.739616967569667 61.7803
17.762150914021706 61.8763
17.78486160749854 61.7277
17.807396945166804 62.3545
17.829932977143503 63.0674
17.85246970436452 64.475
17.875183204129467 66.175
17.897721330097664 68.3941
17.920260154126645 70.8912
17.942799677153296 73.992
17.9655159983646 77.242
17.988056927677544 81.8638
18.010598558807683 88.9132
18.033140892692916 98.1859
18.05586005052525 108.62799999999999
18.07840379824407 120.23899999999999
18.10094825154059 132.378
18.12366954819864 141.422
18.146215420998306 142.996
18.16876200220057 134.214
18.191309292745153 119.917
18.214033452627167 105.007
18.236582170236648 92.7905
18.259131600016456 86.5265
18.281681742907335 86.1885
18.304408781233683 90.2685
18.32696035875955 95.4388
18.349512652227624 100.959
18.372065662579683 106.29700000000001
18.394795594587553 108.304
18.41735004715306 105.63
18.43990521943684 98.6706
18.46246111238171 89.7754
18.485193953325208 79.4042
18.507751296070428 71.5819
18.530309362314178 66.8012
18.552868153000343 64.2443
18.57560391815056 62.7613
18.59816416623245 62.1949
18.620725141597372 61.8413
18.643286845190268 61.5397
18.666025549835414 61.2082
18.688588718427933 60.4874
18.711152618092243 60.1656
18.73389353884365 59.8137
18.75645890921984 59.4396
18.77902501351406 59.1865
18.801591852673102 59.3058
18.824335739722738 58.3426
18.846904057212626 58.4744
18.8694731124168 58.2556
18.89204290628315 58.2641
18.914789774966803 57.9941
18.937361054791623 57.7123
18.959933076131318 57.6133
18.982505839934877 57.5624
19.00525570560582 57.657
19.027829963004184 57.5228
19.05040496572238 57.5404
19.072980714710468 57.3528
19.095733592739563 57.6219
19.11831084296757 58.0568
19.140888842324735 58.5785
19.16346759176222 58.888000000000005
19.18622349753803 59.5519
19.208803755869358 60.221000000000004
19.231384767143577 60.918
19.253966532312948 62.1509
19.276725481241822 64.2195
19.29930876296784 66.5828
19.3218928014549 69.4764
19.34465404436217 73.164
19.36723960516257 76.2679
19.389825925592426 77.9239
19.412413006605938 77.34899999999999
19.43517731967805 73.8703
19.457765930683355 69.053
19.48035530514408 64.2744
19.50294544401556 60.1944
19.525712842708348 57.5361
19.54830451925909 55.8568
19.570896963095727 54.6231
19.593490175174704 54.614
19.616260674962184 54.3749
19.638855432416964 54.0527
19.661450960992624 54.2741
19.68404726164677 54.1498
19.706820878021247 53.8068
19.729418731756834 54.0266
19.752017360452857 53.7543
19.77461676506804 54.0516
19.797393513540218 54.0855
19.819994478951667 54.4051
19.84259622316767 54.9446
19.8651987471481 55.2686
19.887978643247177 55.4657
19.91058273574792 55.9131
19.933187610901943 56.6899
19.955969879466828 57.705
19.97857632894404 58.9983
20.00118356396599 60.3171
20.023791585494575 62.3247
20.046577028914875 64.969
20.069186632506966 67.2014
20.091797025500632 69.7298
20.114408208858933 70.8915
20.137196842715273 70.8388
20.159809615886765 69.095
20.18242318232135 66.4954
20.20503754298326 64.2468
20.227829382875154 62.6692
20.250445341109344 62.2219
20.27306209647285 63.0225
20.29567964993108 64.2375
20.31847471147704 65.6049
20.34109387027612 66.8075
20.363713830075454 66.7362
20.386334591841646 65.4687
20.409132890679302 62.6004
20.431755265564437 59.2107
20.454378445325528 56.1569
20.477002430930366 54.3067
20.499803982716553 53.1434
20.522429589228004 52.3251
20.54505600449589 51.8246
20.567683229489194 51.5651
20.590488049900088 51.1934
20.61311690359731 50.708999999999996
20.63574656993626 50.5297
20.658553853717297 50.2308
20.681185154618298 50.3908
20.703817271080066 49.9623
20.72645020407368 49.6078
20.749260783967177 49.6638
20.771895359337133 49.5836
20.794530754161617 49.6323
20.817166969412938 49.408
20.83998086114876 49.1387
20.86261872660049 49.1247
20.885257415405402 49.199
20.90789692853701 49.1519
20.930714147864748 48.8617
20.953355319030678 49.0783
20.97599731745334 49.0284
20.99864014410749 48.9268
21.021460706796564 49.032
21.044105199328826 49.4262
21.06675052302631 49.4365
21.089396678865015 49.5594
21.112220600704806 49.9933
21.134868430275347 50.2714
21.15751709492456 50.4863
21.180166595629693 50.8649
21.202993892429635 51.3723
21.22564507473034 51.7076
21.24829709602816 51.9184
21.27112693608965 52.0959
21.293780644891275 51.9484
21.316435195634053 51.2742
21.339090589297417 50.4219
21.361923832041875 50.0449
21.384580921090404 49.5299
21.407238856007325 48.9166
21.429897637773326 48.9247
21.45273429906592 48.7865
21.475394784108598 48.751000000000005
21.498056118951983 48.7025
21.520718304578022 48.9292
21.543558400304388 48.9376
21.566222297108816 49.1429
21.58888704765135 49.365
21.61155265291521 49.5742
21.63439619898156 50.1297
21.657063523335786 50.2578
21.67973170537063 50.7288
21.7024007460706 51.2918
21.72524775840385 52.045
21.747918526116475 53.0082
21.770590155457388 53.9191
21.79326264741238 55.342
21.816113141960237 56.9077
21.838787368860547 58.7623
21.861462461341976 60.7822
21.884315579735777 63.0339
21.90699241312273 64.5643
21.92967011506078 65.6574
21.95234868653799 65.5373
21.9752053151131 64.3203
21.997885635446785 62.2583
22.020566828293532 60.3583
22.04324889464272 58.3734
22.066109049404666 57.0488
22.088792872571794 56.4169
22.111477572219204 56.5787
22.1341631493376 56.8789
22.157026846313123 56.803000000000004
22.179714188221507 56.117
22.202402410582668 55.0134
22.22509151438863 53.4907
22.24795876962584 51.977
22.270649646204486 51.0781
22.293341407213727 50.2823
22.316034053646906 49.9292
22.338904883215342 49.6285
22.36159931041458 49.6493
22.38429462602756 49.5477
22.40699083104897 49.5291
22.429865251039757 49.4425
22.452563244831367 49.6818
22.47526213102522 49.4118
22.49813925616515 49.3079
22.520839937143307 49.1418
22.543541513520587 49.1
22.56624398629403 48.9985
22.589124730075895 48.9251
22.611829005656723 49.0682
22.63453418063466 48.9557
22.657240256008077 49.4116
22.680124634582935 49.3764
22.70283252079775 49.6452
22.725541310413075 49.8932
22.74825100442868 50.0757
22.771139033969575 50.5522
22.79385054687155 50.7653
22.81656296718292 51.37
22.83927629590484 52.2353
22.862167992606945 53.3161
22.88488314827121 54.1829
22.907599215359284 55.3309
22.93031619487366 56.5744
22.953211574954405 57.4877
22.975930389478226 58.4771
22.998650119445763 58.9534
23.02137076586092 58.3338
23.044269845560063 57.1185
23.06699233506288 55.3609
23.089715744034912 53.375
23.112617610931565 51.6529
23.135342869061212 50.5048
23.158069049684816 49.7881
23.1807961538087 49.2995
23.20370174880544 49.1355
23.226430710184808 49.3053
23.249160598093425 49.2571
23.271891413539002 49.1731
23.294800752937697 49.2686
23.31753343374794 49.498000000000005
23.340267045128353 49.4955
23.36300158808808 49.8664
23.38591468821339 50.0851
23.408651104658304 50.5813
23.431388455719986 51.0272
23.454126742409 51.7526
23.4770436196085 52.8793
23.499783787914662 54.0693
23.522524894889884 55.0159
23.54526694154616 56.0898
23.56818761219047 57.5114
23.59093154860734 58.2022
23.613676427751283 58.8652
23.636422250635754 58.0691
23.659346731118656 56.5543
23.68209445191868 54.4858
23.704843119509587 52.2018
23.72759273490623 50.1651
23.750521041644767 48.7609
23.77327256312355 47.6987
23.796025035462787 47.1922
23.818956224555475 46.6552
23.841710609113413 46.5449
23.86446594758979 46.2989
23.887222241002014 45.7971
23.910157285144578 45.6736
23.932915498962537 45.6819
23.955674670778713 45.4988
23.978434801611975 45.3574
24.001373717286125 45.263000000000005
24.024135776723917 45.119
24.046898798245582 44.9792
24.06966278287146 44.9239
24.092605586582614 44.6076
24.115371508023642 44.6119
24.1381383956401 44.4769
24.16090625045381 44.5434
24.183852958731244 44.4411
24.206622758582608 44.2974
24.229393528706886 44.0497
24.252165270127392 44.1381
24.27511589952438 44.1634
24.297889594216997 43.8639
24.32066426328598 43.693000000000005
24.34343990775613 43.8176
24.36639447485003 43.6228
24.38917208083877 43.505
24.41195066531332 43.5539
24.43490819850244 43.6129
24.457688750692377 43.4075
24.48047028445616 43.3447
24.503252800821233 43.4757
24.526214300784112 43.5229
24.548998793132213 43.4431
24.57178427117417 43.3246
24.59457073593893 43.3459
24.617536219319863 43.2993
24.64032466834748 43.4003
24.663114107195035 43.2229
24.685904536893013 43.0525
24.708874020360852 43.0104
24.731666442613744 42.9251
24.754459858818787 42.8071
24.777254270007962 42.7717
24.80022777025625 42.6052
24.82302418230472 42.6125
24.845821592443674 42.5571
24.86862000170663 42.6328
24.891597535453727 42.3651
24.914397953892728 42.6263
24.93719937456671 42.5252
24.96000179851076 42.6767
24.98298338249997 42.9073
25.00578782394922 43.0833
25.028593271784167 43.0811
25.05157790644186 43.5563
25.07438537804115 43.6236
25.097193859145293 43.9157
25.120003350792075 44.0996
25.142992065061257 44.4369
25.165803588823465 44.7757
25.18861612625217 45.0238
25.211429678386736 45.13
25.234422489079968 45.0772
25.257238081693636 45.1234
25.280054692141732 45.2688
25.3028723214652 45.227
25.325869245420463 45.3674
25.348688923599397 45.4809
25.371509623787006 45.5083
25.394331347025812 45.1012
25.41733240110666 44.6292
25.440156181590016 44.0133
25.46298098826268 43.5122
25.48580682216873 42.9488
25.50881202326435 42.3964
25.53163992281684 41.9616
25.55446885274561 41.641999999999996
25.577298814096377 41.298
25.600308179121807 41.2297
25.623140214533745 41.3127
25.64597328451537 41.166000000000004
25.66898578564376 41.0339
25.691820936010206 40.9809
25.714657124097695 40.9566
25.737494350954734 40.8645
25.760511045684957 40.8088
25.783350361364224 40.8424
25.806190718969255 40.9238
25.82903211955018 41.0091
25.852053024868923 40.9836
25.874896522722523 41.0399
25.897741066713106 41.1224
25.920586657892454 40.9733
25.943611790812668 41.18
25.966459487728237 41.3916
25.989308234998564 41.3823
26.01215803367705 41.7395
26.03518741123814 41.9181
26.05803932412957 41.8457
26.080892291600094 41.9458
26.10374631470478 42.0331
26.12677995397268 42.1158
26.14963609978026 42.1177
26.172493304397875 41.7489
26.19535156888223 41.5704
26.218389486949604 41.3114
26.241249882640123 40.8967
26.26411134137826 40.6991
26.28715248187403 40.5497
26.31001607820869 40.5188
26.3328807407756 40.3401
26.35574647063438 40.3626
26.37879191991473 40.495
26.401659795896734 40.4835
26.424528742360263 40.6296
26.447398760366614 40.7957
26.470448535598294 40.7878
26.49332070826805 41.0809
26.516193955675355 41.4799
26.53906827888316 41.5606
26.562122397260108 41.8542
26.584998883685063 42.1093
26.607876449110325 42.31
26.63075509460056 42.3864
26.65381357334404 42.6606
26.67669439061878 42.6919
26.699576291163382 42.5839
26.722459276044212 42.4571
26.745522132402975 41.9857
26.768407297649354 41.9001
26.791293550442003 41.528
26.814180891848974 41.2901
26.837248143099337 41.0787
26.860137673466657 41.0133
26.88302829566349 40.7013
26.90592001075963 40.4329
26.92899167420566 40.1889
26.951885586870763 39.8688
26.974780595655517 39.6504
26.99785558178161 39.5098
27.020752794605112 39.4321
27.043651106772522 39.2654
27.06655051935668 39.3039
27.089629948036183 39.0141
27.112531573292053 39.0525
27.135434302194138 39.1674
27.158338135817015 38.9321
27.181422024430987 38.9871
27.204328079372566 38.7949
27.22723524226965 38.8124
27.250143514198573 38.9643
27.273231880156334 38.9349
27.296142382065014 38.7815
27.319053996245536 38.684
27.341966723775965 38.6832
27.365059584515222 38.8255
27.38797455070062 38.8861
27.410890633481237 38.7879
27.433807833936918 38.7794
27.456905206923906 38.8873
27.47982465472398 38.9293
27.502745223449743 38.907
27.525666914182825 38.9879
27.548768816912457 38.9137
27.571692763693633 38.8721
27.59461783573812 38.8244
27.617723149491244 38.5271
27.640650484125285 38.3978
27.66357894728264 38.6213
27.686508540048052 38.4869
27.709618414237887 38.3807
27.732550278321757 38.1089
27.755483275279115 38.0137
27.778417406196485 38.2644
27.801531858397514 38.3927
27.824468269376716 38.1394
27.847405817586786 38.1816
27.870344504116094 38.3689
27.893463551932008 38.3656
27.916404527281053 38.5719
27.93934664422563 38.6517
27.962289903855886 38.6033
27.98541356491974 38.9703
28.00835912214229 39.018
28.03130582533231 39.2426
28.054253675581805 39.4302
28.077381967556104 39.3983
28.100332124185126 39.4333
28.123283431160893 39.4381
28.146235889577238 39.1927
28.169368830154156 38.9938
28.192323603752033 38.874
28.215279532083304 38.5754
28.238415973016764 38.4045
28.261374223145094 38.2509
28.284333631303806 37.995
28.307294198589954 37.8786
28.330435319167677 37.548
28.353398217078915 37.281
28.376362277420153 37.0106
28.39932750129032 36.8599
28.422473319286713 36.7212
28.44544088262495 36.7975
28.468409612800283 36.6808
28.491379510913497 36.4435
28.51453004413313 36.2566
28.53750229057244 36.3587
28.56047570826344 36.2162
28.583450298308804 36.1742
28.606605564586562 36.0731
28.629582511831156 36.1016
28.65256063474956 35.8974
28.675539934446338 35.9017
28.698699951647605 35.9571
28.72168161743193 35.8574
28.74466446331978 35.7947
28.767648490417624 35.8298
28.790813276438353 35.8283
28.813799678527303 35.8345
28.836787265157085 35.7883
28.859955641890075 35.8018
28.882945610203045 35.7732
28.905936766392035 35.6881
28.928929111566863 35.6744
28.952102288520145 35.6865
28.975097024308607 35.4344
28.998092952423807 35.3812
29.021090073977508 35.3196
29.04426806913204 35.2412
29.067267590245258 35.0032
29.090268308143695 34.8406
29.11327022394099 34.8257
29.13645305530891 34.6841
29.159457379627167 34.7801
29.18246290519685 34.7348
29.20546963313352 34.6132
29.22865731875826 34.6496
29.25166646419296 34.7043
29.27467681535305 34.4226
29.29768837335608 34.6849
29.320880931312562 34.6061
29.34389491580634 34.6328
29.366910110507334 34.5598
29.38992651653503 34.6366
29.41312396492981 34.6153
29.436142806456754 34.4706
29.45916286268059 34.3922
29.48236399319994 34.2562
29.50538649169417 34.1706
29.528410208259935 34.1706
29.55143514402014 33.9132
29.574641196749695 33.7574
29.597668583816574 33.611999999999995
29.6206971934585 33.5125
29.64372702680042 33.5361
29.666938019934474 33.385
29.689970313635285 33.2798
29.713003834422636 33.2743
29.73603858342347 33.2928
29.759254535188578 33.249
29.78229175361658 33.0258
29.80533020365064 33.1919
29.82836988641968 33.2275
29.85159081507472 33.1473
29.874632976355343 33.1644
29.89767637376955 33.0683
29.920721008448314 32.8771
29.9439469322847 32.9423
29.96699405457564 32.7846
29.9900424175358 32.8768
30.013092022298157 32.8126
30.03632295963995 32.7541
30.059375061131373 32.8422
30.08242840783577 32.757
30.105483000888153 32.8248
30.128718970092244 32.7138
30.151776069006917 32.7473
30.17483441768648 32.7543
30.198074175317235 32.7464
30.221135036724256 32.7347
30.24419715131772 32.6961
30.267260520236203 32.6155
30.290505341942243 32.7172
30.313571232750228 32.6716
30.336638381310948 32.6492
30.35970678876503 32.5467
30.38295669299435 32.4927
30.40602763151657 32.5209
30.429099832366074 32.4709
30.452173296685572 32.4979
30.47542830191959 32.4009
30.498504306502497 32.3896
30.521581577995562 32.3713
30.544660117543582 32.4737
30.56792024229725 32.4398
30.59100133132069 32.4037
30.614083691845494 32.4343
30.637167325018545 32.3826
30.660432587840603 32.5663
30.683518779717886 32.4571
30.70660624769615 32.494
30.729694992924372 32.4744
30.75296541239743 32.5017
30.77605672557558 32.398
30.799149319462742 32.4208
30.8224236211637 32.2582
30.845518789950724 32.1584
30.868615242910597 32.1825
30.891712981195973 31.9319
30.91499247215866 31.9849
30.938092794619365 31.8961
30.96119440587579 31.7986
30.984297307082752 31.7759
31.00758200598383 31.6115
31.030687500658694 31.4972
31.053794288760695 31.5446
31.076902371446767 31.389
31.100192296997445 31.4892
31.12330298246119 31.3772
31.14641496599209 31.1953
31.169528248749216 31.2637
31.19282341969534 31.1751
31.215939314557186 31.1916
31.239056512134788 31.2695
31.262175013589378 31.2094
31.28547544871168 31.1328
31.30859657161541 31.2008
31.331719001892175 31.1099
31.35484274070538 31.2463
31.378148458819545 31.186999999999998
31.401274828443725 31.1592
31.424402510106933 31.2256
31.447712205419993 31.2846
31.470842524931633 31.1803
31.493974159989783 31.1135
31.51710711176168 31.0893
31.54042212308802 31.0609
31.563557722100917 31.0591
31.586694641341655 30.9842
31.609832881979628 30.7759
31.63315322823208 30.7131
31.656294125521327 30.6472
31.679436347728515 30.6864
31.70257989602529 30.5086
31.725905596152327 30.4547
31.74905181052835 30.4172
31.772199354521323 30.4259
31.79534822930507 30.4995
31.818679302290967 30.4442
31.84183085259981 30.4076
31.864983737233473 30.4391
31.88813795736804 30.4654
31.911474422233013 30.3479
31.934631327356435 30.3939
31.9577895715215 30.3444
31.980949155906522 30.348000000000003
32.004291031706956 30.3474
32.027453310562606 30.1884
32.05061693318573 30.1331
32.07396288236386 30.0644
32.09712920658542 30.0565
32.12029687812702 29.9068
32.14346589817093 29.7617
32.166817291729984 29.8383
32.18998902288583 29.7297
32.21316210610336 29.6822
32.23633654256711 29.6341
32.259693399663725 29.5177
32.282870556771144 29.5507
32.30604907069099 29.5193
32.329228942610065 29.4418
32.35259128243769 29.2928
32.375773884550505 29.3042
32.398957848235646 29.2052
32.422143174682176 29.0837
32.445511016471215 29.0825
32.468699082679954 29.0876
32.49188851523011 28.9729
32.51507931531304 28.9709
32.538452678331 28.9409
32.56164622776311 28.9541
32.58484114831493 28.7587
32.60803744118015 28.7396
32.631416344731896 28.7611
32.654615396551876 28.7596
32.67781582427913 28.6655
32.701198898634416 28.559
32.72440209253756 28.5324
32.747606665947124 28.5559
32.77081262006088 28.436
32.79420126883317 28.4528
32.81740999876112 28.4735
32.840620112999424 28.351999999999997
32.86383161274818 28.2523
32.88722585534586 28.3292
32.91044014056596 28.3635
32.933655814909734 28.2813
32.95687287957963 28.3249
32.98027273544904 28.224
33.00349259526636 28.1463
33.026713849030116 28.241999999999997
33.04993649794511 28.1451
33.073341986570746 28.0994
33.09656744032826 28.1122
33.11979429286444 28.111
33.14302254538647 27.9976
33.166433686291185 27.984
33.18966475336992 27.8835
33.212897224069096 27.796999999999997
33.23613109959831 27.8436
33.259547912343415 27.8278
33.2827846121627 27.8436
33.306022720453775 27.7379
33.32926223842861 27.6483
33.352684742614166 27.6542
33.37592709463173 27.6645
33.399170859982064 27.6551
33.422597648419426 27.506
33.44584425514446 27.414
33.46909227885668 27.2584
33.4923417207723 27.1934
33.51577423505344 27.301
33.539026528130385 27.1439
33.56228024307245 27.1478
33.585535381098246 27.0767
33.60897364093058 26.9601
33.63223163992385 26.9834
33.6554910656699 26.9303
33.678751919389796 26.8789
33.702195944520106 26.8388
33.72545966903325 26.8672
33.74872482519663 26.7893
33.771991414233746 26.8489
33.79544122444841 26.6762
33.81871069412428 26.64
33.84198160035767 26.6592
33.86525394437455 26.6986
33.88870955949969 26.5149
33.911984794020626 26.618000000000002
33.93526147001624 26.4765
33.958539588715006 26.4092
33.98200102861669 26.3858
34.0052820477047 26.3097
34.02856451319451 26.2525
34.05203033759056 26.2412
34.07531571090147 26.2834
34.09860253431845 26.1917
34.121890809074316 26.1295
34.145362493118924 26.1308
34.16865368561615 26.0656
34.191946333164054 26.0917
34.21524043699793 26.0425
34.23871800066799 26.0363
34.26201503218366 25.8935
34.28531352370466 25.8815
34.30861347646881 25.86
34.33209693978188 25.8255
34.3553998301885 25.8369
34.378704185565205 25.7581
34.402010007152356 25.6835
34.42549939016683 25.6759
34.44880815937748 25.5529
34.472118398533134 25.6302
34.49543010887669 25.5455
34.51892543169198 25.3979
34.54224009966052 25.361
34.56555624255917 25.3602
34.58887386163339 25.2804
34.61237514439016 25.2201
34.6356957311114 25.2637
34.65901779775809 25.1787
34.68252356662995 25.2093
34.705848608458616 25.1033
34.72917513396849 25.0723
34.75250314440949 25.09
34.77601490857862 25.0079
34.799345904259795 24.8043
34.82267838863559 24.885
34.846012362958525 24.8873
34.869530142679984 24.9038
34.89286711232212 24.8707
34.91620557568269 24.845
34.93954553401677 24.8164
34.9630693495876 24.7493
34.986412313340814 24.7241
35.00975677584668 24.8155
35.033102738362956 24.648000000000003
35.05663261012228 24.5202
35.0799815881786 24.5615
35.10333207003229 24.538
35.12668405694369 24.5817
35.150220005273056 24.5666
35.17357501786656 24.4934
35.19693153931268 24.3783
35.220289570874385 24.4122
35.24383161619786 24.3749
35.267192683604904 24.3517
35.290555264930376 24.325
35.314101899412165 24.2933
35.33746752422433 24.3169
35.36083466676374 24.2748
35.38420332829803 24.2124
35.407756095629054 24.2004
35.43112781085063 24.2473
35.45450104888391 24.1837
35.477875810999194 24.1711
35.50143473172161 24.0457
35.52481255774625 24.075
35.54819191167777 24.0189
35.57157279478914 23.9858
35.595137889488406 23.9772
35.61852184675279 23.8939
35.641907337029984 23.8434
35.665294361595684 23.8443
35.68886565090076 23.8054
35.7122557598848 23.7926
35.73564740699838 23.7919
35.759040593519934 23.7136
35.78261809810353 23.6161
35.80601437933051 23.5425
35.829412203814705 23.5136
35.85281157283719 23.4296
35.876395313415884 23.5637
35.8997977874528 23.4461
35.92320180988546 23.3912
35.946790244133936 23.3308
35.97019737933222 23.3804
35.993606066789866 23.2727
36.01701630779276 23.2698
36.04061101440684 23.2641
36.06402437852291 23.1852
36.08743930005611 23.2146
36.1108557802951 23.0962
36.13445678011326 23.0836
36.15787639383515 23.0815
36.18129757014299 23.0424
36.20472031032821 22.9788
36.22832762423364 22.904
36.25175350829375 22.9333
36.275180960119776 22.8706
36.298609981005924 22.9116
36.32222362992669 22.8803
36.34565580510207 22.7813
36.36908955323448 22.7223
36.39252487562093 22.6573
36.416144880530226 22.6228
36.43958336764275 22.5802
36.463023432914625 22.6621
36.486465077645676 22.656999999999996
36.51009145956204 22.680999999999997
36.53353627947859 22.6271
36.55698268276811 22.6015
36.58043067073321 22.4748
36.60406345072071 22.3749
36.62751462435344 22.3943
36.65096738658405 22.4025
36.67460498210655 22.3504
36.69806093788647 22.3711
36.72151848619297 22.2813
36.744977628333636 22.2855
36.76862165890998 22.1937
36.79208400512205 22.1557
36.81554794910557 22.1737
36.83901349217101 22.0723
36.862663978991606 22.021
36.88613273667352 22.0525
36.90960309738324 22.0028
36.933075062434064 21.8901
36.95673202673572 21.9175
36.98020721697122 21.8863
37.003684015502365 21.8025
37.027162423645365 21.7608
37.050825886711465 21.7202
37.07430753063053 21.6877
37.09779078812467 21.7202
37.121275660513014 21.6634
37.144945643673694 21.5733
37.16843376245278 21.5915
37.19192350009803 21.5808
37.215414857931435 21.5698
37.239091382563885 21.5363
37.262585997426164 21.4512
37.28608223645736 21.4477
37.309763684451696 21.3763
37.33326318851098 21.348000000000003
37.356764320726555 21.3907
37.380267082425526 21.3712
37.40395510942588 21.3312
37.42746114683234 21.2585
37.45096881771841 21.1737
37.474478123414166 21.2205
37.49817275092816 21.1772
37.52168534303452 21.1549
37.54519957395567 21.0746
37.568715445024665 20.9659
37.592416694607714 20.9389
37.61593586281424 21.0115
37.63945667518264 21.0967
37.66297913304891 20.9465
37.68668702630454 20.9282
37.710212792059274 20.8799
37.733740207334854 20.8888
37.757269273470364 20.778000000000002
37.780983832050374 20.7389
37.80451621684926 20.7176
37.82805025654007 20.698
37.851585952464795 20.6393
37.8753071980695 20.6094
37.89884622345676 20.5283
37.92238690911902 20.5137
37.94611318753442 20.4476
37.969657210779765 20.4519
37.99320289834801 20.4852
38.016750251586465 20.375999999999998
38.04048325513017 20.3594
38.06403395679343 20.3326
38.087586328183946 20.3614
38.11114037065203 20.3653
38.13488012115898 20.2893
38.1584375229181 20.2878
38.181996599821 20.1762
38.205557353221124 20.2054
38.229303872575656 20.0797
38.2528679961576 20.109
38.27643380031219 20.0521
38.30000128639589 20.0328
38.32375459653193 20.0706
38.34732546371299 20.0539
38.37089801690786 19.8989
38.39447225747609 19.8852
38.418232380377425 19.8944
38.441810012983396 19.8547
38.46538933705673 19.7612
38.488970353960084 19.7796
38.51273731166058 19.7768
38.536321731567014 19.7641
38.55990784840681 19.6889
38.58367995004091 19.6311
38.60726947812959 19.5945
38.63086070726198 19.5987
38.654453638806274 19.6021
38.678232613930824 19.5779
38.70182896773327 19.5342
38.72542702806741 19.4555
38.7490267963045 19.4978
38.77281266709232 19.452
38.79641586862214 19.3708
38.8200207821842 19.3594
38.843627409152944 19.3776
38.86742019782782 19.2894
38.891030269149255 19.1987
38.914642058016156 19.1883
38.938255565806124 19.1506
38.96205529464307 19.1766
38.98567225787121 19.1802
39.00929094417078 19.1382
39.03291135492255 19.0733
39.05671804624804 18.9805
39.080341923549106 19.0522
39.103967529460334 19.0189
39.127594865365744 18.8765
39.15140854155791 18.9063
39.17503935514948 18.8977
39.19867190290282 18.8197
39.22249083587951 18.8135
39.24612686969409 18.8501
39.269764641845306 18.7456
39.293404153722804 18.7844
39.317230110864074 18.672
39.34087311998506 18.6334
39.36451787301696 18.6179
39.388164371352595 18.549
39.41199737518003 18.5769
39.43564738196752 18.5465
39.45929913825317 18.5226
39.48295264543308 18.4416
39.506792718520884 18.4157
39.530449745387216 18.4404
39.55410852735203 18.3461
39.57776906581474 18.4602
39.60161623079 18.3868
39.625280300200025 18.2994
39.64894613032202 18.2933
39.67261372255866 18.3203
39.6964680021016 18.2871
39.72013913657293 18.2467
39.74381203738292 18.2439
39.76748670593756 18.1672
39.79134812278169 18.1133
39.81502634488497 18.1461
39.83870633896685 18.0669
39.862388106436654 18.0758
39.88625668336918 18.0456
39.90994201572829 18.0125
39.933629125719285 17.9168
39.957503091207826 17.9202
39.9811937746168 17.9553
40.00488623990914 17.8661
40.02858048850006 17.8118
40.05246165409549 17.7781
40.076159487492085 17.7374
40.099859108448875 17.7221
40.123560518384345 17.677
40.1474489070226 17.6932
40.171153913178564 17.6622
40.194860712584955 17.647000000000002
40.2185693066637 17.6803
40.242464941335314 17.5748
40.26617714307655 17.5639
40.289891143772046 17.5605
40.3136069448471 17.5431
40.33750984859743 17.5181
40.3612292688043 17.4377
40.3849504936829 17.3765
40.40867352466194 17.3802
40.43258372059144 17.3538
40.45631038219906 17.367
40.48003885420956 17.2942
40.503769138055105 17.3011
40.52768664931955 17.2888
40.55142057531802 17.2665
40.57515631746428 17.2399
40.599079334038514 17.1779
40.62281872700477 17.0811
40.64655994043941 17.1737
40.67030297578061 17.0914
40.69423334835778 17.0476
40.71798004609188 17.0657
40.74172857006355 16.983
40.76547892171441 16.9903
40.7894166736039 16.9916
40.813170699248566 16.9229
40.83692655691388 16.8725
40.86068424804498 16.8625
40.884629402612525 16.8056
40.908390779366385 16.864
40.932153993938 16.8114
40.95591904777605 16.8206
40.979871628443995 16.8467
41.003640379561936 16.7981
41.02741097430883 16.7423
41.05118341413683 16.6398
41.075143444384416 16.6732
41.098919593177826 16.6428
41.1226975914255 16.5972
41.14647744058318 16.5653
41.170444943946755 16.5018
41.19422851378379 16.5459
41.218013938914645 16.4355
41.24198706625173 16.437
41.26577622087193 16.4327
41.289567235177785 16.4211
41.31336011063129 16.3974
41.337340752422875 16.3521
41.361137369129835 16.3322
41.38493585138705 16.3279
41.40873620066004 16.1916
41.43272438060107 16.219
41.45652848292052 16.1475
41.48033445666918 16.1652
41.50414230331616 16.1302
41.528138045159764 16.1453
41.551949656675205 16.0301
41.575763145513235 16.0107
41.59957851314666 16.0417
41.62358184070442 16.0064
41.64740098505737 15.9629
41.6712220126409 16.0028
41.69504492493139 15.9599
41.71905586207357 15.9079
41.74288256296395 15.9013
41.766711153007456 15.8317
41.79054163368412 15.7786
41.814560204340054 15.8697
41.838394485526365 15.8323
41.86223066180303 15.7189
41.88625497706819 15.7095
41.910094962812 15.7494
41.93393684811168 15.6841
41.95778063445365 15.609000000000002
41.981812625263366 15.6346
42.00566023303407 15.5826
42.029509746323676 15.5278
42.05336116662236 15.5216
42.077400857069705 15.4998
42.10125611078846 15.509
42.12511327600405 15.395999999999999
42.14897235421036 15.425999999999998
42.173019768448455 15.4099
42.19688269209613 15.3973
42.22074753323349 15.298
42.24461429335818 15.3346
42.268669455600495 15.2618
42.292540073217886 15.2696
42.31641261433284 15.2732
42.34028708044675 15.2504
42.36435001496739 15.2237
42.38822835065557 15.2013
42.41210861586426 15.1643
42.4359908120986 15.1149
42.46006154323262 15.081
42.48394762115317 15.1108
42.507835634632315 15.1096
42.531912233047436 15.0365
42.55580413732265 14.9705
42.579697981698 14.9807
42.60359376768525 14.9577
42.62767820545945 14.9704
42.65157789440821 14.9659
42.67547952952185 14.9007
42.699383112316 14.9051
42.72347541395347 14.8392
42.74738291190531 14.7978
42.771292362102166 14.7483
42.795203766063516 14.7786
42.819303956130405 14.7152
42.843219287476536 14.7156
42.86713657716324 14.6753
42.89105582671383 14.7217
42.91516392983864 14.6188
42.939087119032166 14.6067
42.963012272677304 14.5756
42.98693939230129 14.5499
43.01105543317513 14.5415
43.034986504731386 14.499
43.05891954686589 14.4727
43.08285456110972 14.4454
43.10697856448665 14.4003
43.130917542983475 14.3994
43.15485849820081 14.3803
43.17880143167367 14.3122
43.20293342237094 14.2907
43.226880332449 14.2674
43.25082922540554 14.3109
43.27496722682525 14.272
43.29892010567796 14.1966
43.32287497204102 14.1919
43.34683182745632 14.1645
43.370977859791836 14.1708
43.39493871351105 14.124
43.41890156092628 14.1617
43.44286640358341 14.0727
43.46702049182749 14.0424
43.49098934522816 14.0163
43.51496019852649 14.0331
43.5389330532723 13.9712
43.56309522248204 13.9456
43.58707210044314 13.9659
43.61105098451946 13.9158
43.63503187626491 13.8738
43.659202151562134 13.8349
43.68318707902681 13.8714
43.70717401884041 13.8644
43.731162972560874 13.8038
43.75534137913236 13.7425
43.779334381108384 13.739
43.803329401683186 13.7
43.82732644241872 13.6995
43.8515130055166 13.6786
43.87551410707659 13.6552
43.89951723350145 13.6656
43.923709934595614 13.6114
43.94771713129917 13.5593
43.97172635758096 13.5657
43.99573761501002 13.554
44.0199385169922 13.5274
44.04395385732619 13.5038
44.067971233533086 13.4727
44.09199064718605 13.4837
44.11619977548961 13.4356
44.14022328470671 13.3719
44.16424883610785 13.3989
44.18827643127035 13.3771
44.21249381139513 13.3485
44.236525514814076 13.335999999999999
44.26055926674478 13.3168
44.28459506876863 13.2741
44.3088207262813 13.2288
44.33286064928722 13.1775
44.35690262714919 13.1571
44.38094666145278 13.1469
44.4051806219871 13.1796
44.42922879003185 13.0932
44.45327901929361 13.0737
44.477331311362136 13.0827
44.501573600619416 13.0437
44.525630039221795 13.0629
44.54968854541895 13.0033
44.573937102200176 12.9658
44.5979997645541 12.9504
44.622064499300315 12.9344
44.64613130803592 12.8879
44.67038823869318 12.8961
44.69445921643748 12.8619
44.718532272981385 12.8558
44.742607409926194 12.8399
44.76687274034801 12.8164
44.79095205918753 12.783
44.81503346325094 12.7643
44.839116954143876 12.754000000000001
44.86339071028742 12.6922
44.88747839599524 12.6867
44.91156817336837 12.6865
44.93566004401666 12.6757
44.959942251908146 12.6387
44.984038330325966 12.5523
45.00813650686762 12.5885
45.03223678314731 12.5292
45.05652746888232 12.5101
45.08063196592069 12.4996
45.104738567558705 12.462
45.128847275414856 12.4256
45.15314646515866 12.4044
45.17725940679741 12.4486
45.20137445952892 12.3653
45.22568004865265 12.3755
45.24979934496396 12.3229
45.27392075725247 12.3376
45.29804428714431 12.3071
45.322358426247604 12.2942
45.346486212804315 12.2835
45.370616121861914 12.2549
45.39474815505086 12.2571
45.41907087049246 12.1832
45.4432071734666 12.1191
45.46734560548283 12.1736
45.49148616817604 12.1723
45.51581748638564 12.1054
45.5399623320197 12.1018
45.56410931325473 12.035
45.58825843173002 12.07
45.61259837920865 12.0207
45.636751793816 12.0182
45.66090735060093 11.9619
45.68506505120716 11.958
45.7094136545275 11.9279
45.73357566449271 11.9266
45.75773982322992 11.913
45.78190613238733 11.8816
45.806263418194064 11.8589
45.83043404997326 11.8478
45.85460683713677 11.7961
45.87897065658495 11.761
45.90314777634752 11.752
45.92732705646868 11.7407
45.9515084986045 11.7228
45.97588104735473 11.7499
46.00006683541565 11.7259
46.02425479047904 11.6973
46.04844491420549 11.6678
46.0728262191024 11.6704
46.09702070211635 11.6487
46.12121735879483 11.6186
46.14541619080294 11.5618
46.169806278764455 11.5751
46.194009483459034 11.5407
46.21821486849841 11.4952
46.24242243555223 11.4694
46.266821333570014 11.4513
46.29103328674601 11.4318
46.31524742696538 11.4602
46.33946375590237 11.4197
46.36387149104216 11.3593
46.38809221957392 11.3696
46.41231514186606 11.363
46.436540259597464 11.3133
46.460956858999374 11.2763
46.48518638983522 11.2819
46.509418121166966 11.2482
46.533652054678114 11.2033
46.55807754555709 11.2421
46.58231590571962 11.2056
46.60655647313217 11.1555
46.630988654873654 11.1562
46.655233659129024 11.1088
46.67948087571551 11.1272
46.70373030632484 11.1345
46.72817142736393 11.0842
46.752425308428684 11.0518
46.77668140861147 11.0331
46.80093972960865 10.9867
46.82538981736788 10.960999999999999
46.849652602470904 10.9483
46.87391761349769 10.9318
46.8981848521493 10.9287
46.9226439341274 10.9216
46.946915650573224 10.8327
46.97118959976749 10.8686
46.99546578341598 10.8331
47.019933887188216 10.8111
47.04421456235744 10.8153
47.06849747711879 10.8061
47.09278263318286 10.7518
47.11725978640143 10.7422
47.14154944775105 10.6893
47.165841355555656 10.7088
47.1901355115306 10.6924
47.214621741924994 10.6684
47.23892041698887 10.6524
47.26322134538975 10.6198
47.28771440635075 10.5722
47.31201986422527 10.5883
47.33632758061436 10.5392
47.360637557241866 10.5453
47.38513974410611 10.5301
47.40945426407847 10.4975
47.43377104948137 10.5085
47.45809010204344 10.4833
47.48260144275502 10.4493
47.506925052572285 10.4494
47.53125093475548 10.3737
47.55557909103813 10.4087
47.58009961361992 10.3345
47.60443234110732 10.3502
47.62876734791564 10.3556
47.65310463578333 10.3239
47.6776343683373 10.3216
47.7019762413987 10.257
47.72632040075572 10.2612
47.75066684815169 10.2313
47.77520581885936 10.21
47.799556865477655 10.1826
47.823910205386 10.1923
47.84826584033272 10.1466
47.87281407745551 10.1302
47.89717432569297 10.1318
47.92153687423484 10.1072
47.94609208429692 10.124
47.97045925671401 10.0926
47.99482873471275 10.0656
48.01920052005013 10.0596
48.04376504619224 9.99141
48.068141469543484 10.0173
48.09252020552573 9.9851
48.11690125590099 9.966439999999999
48.1414751266064 9.94512
48.16586082917454 9.948039999999999
48.19024885144316 9.94253
48.2146391951793 9.88366
48.239222439012764 9.85524
48.26361744916137 9.84886
48.28801478610016 9.84486
48.31241445160131 9.81574
48.337007097209366 9.77431
48.36141144338331 9.84265
48.38581812345755 9.77786
48.41022713920929 9.75889
48.434829215320704 9.74907
48.45924292604658 9.7329
48.48365897780325 9.73303
48.50807737237308 9.695780000000001
48.532688907799276 9.63915
48.55711201168574 9.647089999999999
48.581537463754074 9.63713
48.60615611725119 9.6186
48.63058628942721 9.607439999999999
48.65501881516546 9.56745
48.6794536962573 9.57065
48.70408185970339 9.55655
48.72852147531801 9.52909
48.75296345168211 9.517539999999999
48.77740779059232 9.49382
48.80204549302823 9.51068
48.82649458091802 9.48573
48.85094603676547 9.43113
48.87539986237231 9.42782
48.90004713292306 9.42033
48.92450572200832 9.41959
48.94896668628025 9.3632
48.97343002754588 9.31312
48.99808689542115 9.35341
49.02255501470614 9.3411
49.04702551642794 9.31882
49.0714984023988 9.273719999999999
49.096164896893235 9.25266
49.120642575466796 9.22627
49.145122643748394 9.21577
49.16960510355558 9.19148
49.19428125404938 9.19125
49.2187685210852 9.18379
49.243258185121555 9.16588
49.26794160167084 9.15295
49.2924360839405 9.08325
49.31693296869764 9.07161
49.34143225776915 9.07617
49.36612538195438 9.05467
49.39062950396021 9.05075
49.41513603578346 9.04557
49.4396449792564 9.028319999999999
49.46434784069503 9.02275
49.488861631846454 8.998330000000001
49.513377840166804 9.00163
49.537896467493745 8.92457
49.56260909589029 8.912519999999999
49.587132585683285 8.88914
49.611658500018365 8.91221
49.636186840738596 8.87797
49.66090926588511 8.87725
49.685442483902584 8.845460000000001
49.70997813385706 8.779919999999999
49.734516217597076 8.803230000000001
49.75924846937352 8.83305
49.7837914452858 8.771889999999999
49.80833686055187 8.74812
49.83288471702571 8.69973
49.85762682540054 8.7041
49.882179588965734 8.69622
49.9067347993235 8.66699
49.93129245833333 8.6725
49.95604445336378 8.637739999999999
49.98060703442832 8.65015
50.005172069746266 8.644039999999999
50.02993150438364 8.620519999999999
50.05450147301533 8.61473
50.07907390151433 8.59833
50.10364879174981 8.58825
50.12841816587289 8.53852
50.1529980044635 8.52556
50.17758031042124 8.5176
50.20216508562089 8.491530000000001
50.22694442953363 8.46488
50.25153416817468 8.460339999999999
50.27612638170508 8.46151
50.300721072005196 8.43699
50.325510416102105 8.38598
50.350110084975064 8.39043
50.37471223628208 8.40516
50.39931687190919 8.38851
50.424116246675766 8.35126
50.44872587605249 8.364469999999999
50.47333799543065 8.3209
50.49795260670191 8.30157
50.52276204271512 8.24422
50.54738166295838 8.26251
50.57200378079314 8.27342
50.596628398116835 8.2274
50.62144792604559 8.24386
50.646077567609396 8.20012
50.670709714377715 8.19012
50.69553683636198 8.15897
50.72017401885922 8.16695
50.7448137122895 8.15888
50.76945591856022 8.12844
50.79429318636823 8.12655
50.818940443716784 8.12535
50.84359021965163 8.082989999999999
50.868242516085964 8.056410000000001
50.893089960641895 8.03967
50.917747323549435 8.0046
50.94240721271973 8.0254
50.96706963007175 8.00201
50.99192728239342 7.967689999999999
51.01659478166073 7.96553
51.04126481489051 7.97715
51.06593738400761 7.92749
51.090805275207074 7.93451
51.11548294172845 7.896089999999999
51.14016314993547 7.905469999999999
51.164845901758845 7.892580000000001
51.18972406304274 7.848660000000001
51.21441192780656 7.7986
51.23910234200271 7.8265199999999995
51.2637953075678 7.82309
51.288683770237945 7.77312
51.31338186432707 7.753639999999999
51.33808251561888 7.753889999999999
51.362978729967345 7.7382800000000005
51.387684521509755 7.71904
51.41239287610203 7.6997800000000005
51.437103795691165 7.713080000000001
51.46201036644977 7.7144
51.486726441956634 7.640219999999999
51.51144508832545 7.649439999999999
51.536166307509156 7.6524600000000005
51.56108326624387 7.61445
51.58580965706056 7.57605
51.61053862657523 7.587689999999999
51.635270176746864 7.554410000000001
51.66019755512065 7.526689999999999
51.68493429268881 7.5084800000000005
51.70967361681515 7.50365
51.73441552946465 7.51491
51.759353359237934 7.506289999999999
51.7841004750961 7.51892
51.80885018539685 7.471710000000001
51.833602492111254 7.43478
51.8585508051424 7.432810000000001
51.883308330926425 7.428260000000001
51.90806845906181 7.397639999999999
51.932831191525715 7.36402
51.95779001977161 7.3685
51.98255798721516 7.3540600000000005
52.00732856494335 7.33564
52.03229530577543 7.334389999999999
52.057071130455945 7.301189999999999
52.081849571391054 7.288069999999999
52.106630630568695 7.2582
52.13160794279417 7.28402
52.15639426492067 7.247269999999999
52.18118321127822 7.22267
52.205974783860896 7.21758
52.23096269971011 7.20467
52.255759551287994 7.2203
52.280559035098186 7.186710000000001
52.30536115314103 7.14048
52.33035970494467 7.15908
52.35516711807904 7.123310000000001
52.37997717147198 7.12285
52.40478986713005 7.10545
52.42979908731974 7.102710000000001
52.454617094216 7.066960000000001
52.47943774942214 7.047289999999999
52.50426105495102 7.01518
52.529280976059844 7.0489
52.554109609024096 7.009989999999999
52.57894089837482 7.01668
52.60377484613117 7.01075
52.62880550079408 6.9912
52.65364479223379 6.9633199999999995
52.67848674816189 6.94946
52.70352547971946 6.9413800000000005
52.72837279155837 6.902839999999999
52.753222773982785 6.8862
52.778075429022984 6.89295
52.80312495150885 6.90152
52.827982978797436 6.85394
52.85284368481815 6.81805
52.87770707160767 6.79347
52.90276741793998 6.8049
52.92763619336701 6.79939
52.952507655698504 6.80403
52.977381806977576 6.77787
53.00245301017842 6.7487
53.02733256653592 6.744789999999999
53.052214817996074 6.77632
53.077099766608484 6.744339999999999
53.102181859804446 6.69544
53.127072229988265 6.6957
53.15196530349892 6.65723
53.17686108239249 6.68123
53.20195409881522 6.65203
53.22685531582556 6.648039999999999
53.25175924441303 6.5902899999999995
53.27666588664027 6.56504
53.30176985962693 6.58132
53.3266819565689 6.5962
53.35159677336455 6.53189
53.376514312083096 6.569710000000001
53.40162927507703 6.54357
53.42655228516116 6.49017
53.45147802340193 6.47
53.47660125628886 6.45781
53.50153247842639 6.42965
53.52646643496923 6.45294
53.55140312799818 6.41533
53.576537409691696 6.41338
53.60147960336152 6.42816
53.626424539786164 6.386340000000001
53.65137222105307 6.37239
53.67651758529126 6.36468
53.70147078399681 6.37373
53.72642673383343 6.35144
53.75138543689533 6.33098
53.776541917524526 6.3433
53.801506154876755 6.28722
53.826473151763246 6.24643
53.851442910284916 6.25514
53.87661054126026 6.26588
53.9015858509782 6.25059
53.92656392866066 6.2166
53.95154477641532 6.24126
53.976723591801296 6.194719999999999
54.00171000771266 6.21706
54.02669920004598 6.16809
54.051691170915745 6.20184
54.076881204886796 6.147959999999999
54.101878760928514 6.11759
54.12687910187696 6.0949599999999995
54.152077577768296 6.12665
54.1770835166946 6.08533
54.20209224691339 6.08386
54.22710377055121 6.07568
54.25231352511594 6.02732
54.27733066384342 6.03494
54.30235060239643 6.046530000000001
54.32737334290836 5.99134
54.35259441062629 5.95576
54.377622783395324 5.95461
54.40265396455061 5.95113
54.42768795623251 5.96165
54.45292037169559 5.9197
54.477960012857906 5.92416
54.50300247099511 5.907430000000001
54.52804774825457 5.86538
54.55329154616743 5.8475
54.57834249018678 5.8225
54.6033962597977 5.79938
54.6284528571545 5.79433
54.653708072335164 5.74346
54.67877035378786 5.74249
54.70383546947698 5.706519999999999
54.72890342156389 5.67885
54.7541700889442 5.72309
54.77924374251975 5.6952300000000005
54.8043202390049 5.6723300000000005
54.82959552413022 5.58675
54.8546777351945 5.57109
54.87976279569621 5.57029
54.90485070780914 5.58615
54.930137506558005 5.53855
54.95523115074295 5.55975
54.98032765308844 5.51628
55.005427015775496 5.47122
55.03072536339621 5.48838
55.05583047570572 5.4541
55.080938454927676 5.43449
55.10604930325027 5.39921
55.131359235107396 5.4572400000000005
55.15647585066083 5.36227
55.181595341907496 5.36425
55.20671771104285 5.35032
55.232039262617704 5.33076
55.25716741665048 5.271059999999999
55.28229845518636 5.28005
55.30743238042802 5.20869
55.33276558731939 5.18503
55.357905315183636 5.16983
55.383047936390035 5.17413
55.40819345314859 5.12148
55.433538351073295 5.1634
55.458689688238415 5.07755
55.483843927614096 5.08448
55.509197623043605 5.05092
55.53435769621134 4.978680000000001
55.55952067826466 4.91282
55.5846865714265 4.93354
55.61005202069737 4.9554800000000006
55.63522376553902 4.95504
55.66039842818645 4.92556
55.68557601087004 4.91718
55.7109532500271 4.862019999999999
55.73613670233794 4.88963
