TT I
1.2716486653135266 7.8909
1.2939594142134223 7.5692699999999995
1.3162702121660406 6.92227
1.3385810600174564 6.770510000000001
1.3608919586137629 7.02683
1.383202908801069 7.0017
1.405513911425503 6.0740099999999995
1.4278249673332093 6.49646
1.4501343378461518 6.30629
1.4724455028545926 5.9515199999999995
1.4947567236847858 6.3663
1.517068001182951 6.31862
1.5393793361953272 6.00127
1.5616907295681737 5.69461
1.5840021821477681 5.45717
1.60631369478041 5.53337
1.6286252683124185 5.26605
1.6509369035901333 5.13719
1.6732468618895553 4.94029
1.695558623192809 4.66944
1.7178704487808514 5.29826
1.7401823395001077 5.0115
1.7625012545597203 5.30703
1.7848028405262486 5.59544
1.8071218901122095 5.19353
1.8294236121921872 4.65188
1.8517427996910911 4.89645
1.8740620574440425 4.62549
1.8963639900671978 5.29318
1.9186833908139995 4.584169999999999
1.9409854680117449 5.18808
1.9633050151394713 4.88779
1.9856246367570705 5.20277
2.0079269371922672 4.74569
2.03024671027244 4.61137
2.0525491637446027 4.69385
2.074869091674931 4.48794
2.097171701569106 4.223
2.1194917877373847 4.8463
2.141811954326636 5.10995
2.164114805233074 5.06878
2.186435135143035 6.38464
2.208738150935709 16.6085
2.231058647554722 36.2843
2.2533792288321184 27.8504
2.275682498336085 11.7062
2.298003251406138 6.778460000000001
2.3203066942619714 5.8159
2.3426276225136022 5.38692
2.3649486396617507 5.70386
2.387252348930071 5.81076
2.4095735463442893 5.11279
2.4318774374315884 5.9259
2.4541988185014043 5.75755
2.476502894794693 5.44793
2.498824462909887 5.14778
2.521146125856138 6.0414699999999995
2.5434504863470337 6.25275
2.5657723414244717 6.7763100000000005
2.588076895590662 7.2170000000000005
2.610398946189713 7.84705
2.6327210958598384 7.485189999999999
2.6550259469304716 7.09668
2.6773482972090137 7.133189999999999
2.6996533504259 7.483689999999999
2.7219759047039602 7.6844600000000005
2.744298562293959 7.95432
2.7666039251246595 7.730110000000001
2.7889267918020164 7.862710000000001
2.8112323652516555 8.05353
2.833555444408179 7.96598
2.8558786311183852 8.315669999999999
2.8781845268938557 8.47966
2.9005079311721484 8.84714
2.9228140460410397 8.528310000000001
2.9451376712799635 8.787519999999999
2.967444008632326 9.06813
2.9897678582247247 9.891639999999999
3.0120918213106695 10.6382
3.0343984987899373 10.9815
3.0567226913198637 11.3202
3.079029599759726 11.6691
3.101354025127254 12.5605
3.123678568232338 13.0779
3.145985829517914 13.4716
3.16831061055229 13.7361
3.1906181112775593 14.0671
3.212943133635653 14.9106
3.2352682779763207 15.3951
3.2575761442691227 15.5045
3.2799015350264273 15.8459
3.302209649240067 16.472
3.3245352898092655 16.7054
3.3468436553365257 17.6869
3.369169549113219 18.2111
3.3914955708171384 19.0714
3.413804319727358 19.1573
3.4361305997334863 19.4522
3.4584396084414553 20.1365
3.4807661501462652 20.5807
3.503092824025881 20.8529
3.5254022288463154 21.176
3.5477291695206588 22.3719
3.5700388426251948 23.2945
3.5923660534916446 24.5277
3.6146934007816114 44.1799
3.637003482731501 113.96600000000001
3.6593311053109985 127.337
3.681641464033634 69.2585
3.7039693653009733 33.4786
3.726297407241705 27.2913
3.7486081875460804 26.5307
3.7709365132734978 26.2866
3.793247578841633 26.9209
3.8155761917550093 26.9972
3.8378875459837216 27.5725
3.8602164494827234 28.1345
3.882545499606844 29.3946
3.9048572932539183 29.6632
3.9271866390645718 29.8661
3.9494987298666713 30.6137
3.971828374764527 31.0322
3.9941581705403255 31.6216
4.016470713506008 32.0361
4.038800813471445 32.952
4.061113662089144 33.6904
4.0834440696459176 34.3649
4.105774632334751 34.8841
4.128087945865126 35.9367
4.150418821249301 36.9302
4.172732448931298 38.2088
4.195063640413578 40.8034
4.2173775856475215 45.8523
4.239709096631102 88.3359
4.262040768704612 313.14799999999997
4.284355196706267 425.395
4.306687193387355 266.60200000000003
4.329001947444346 95.6435
4.35133427213731 51.5895
4.373666762177566 46.3572
4.395982011761091 45.9323
4.418314834921175 47.3799
4.44063041906622 57.1559
4.4629635787515625 72.6604
4.4852969080429785 71.7172
4.5076130004776225 57.5036
4.529946671403969 52.497
4.552263106909177 52.2582
4.574597122877047 53.1402
4.596931312711224 53.2968
4.619248269273446 54.2547
4.6415828092605835 55.6005
4.663900117405352 56.7623
4.686235010953232 57.8168
4.708552674085913 59.3895
4.730887924602802 61.1051
4.753223354952695 62.5401
4.775541557023902 63.3843
4.797877349456786 65.1166
4.820195915032126 67.3573
4.842532072957498 68.70100000000001
4.864868414979744 71.1046
4.88718753227192 73.1047
4.909524244902505 74.8305
4.931843734218147 76.6907
4.954180820867835 79.3798
4.976518095879839 82.8636
4.998838149695359 85.7978
5.021175803844231 89.1525
5.043496238205739 92.9832
5.065834274903528 97.15
5.088172504230693 102.831
5.1104935158799565 110.95
5.132832132875765 140.564
5.155153533596801 200.577
5.1774925416746225 243.725
5.199814334878411 434.68699999999995
5.2221537374521505 1191.98
5.244493338631803 2964.9
5.266815727034316 6864.91
5.289155727832427 11496.0
5.311478517248165 9280.91
5.333818921080011 3485.3
5.356159527788849 739.46
5.3784829252032536 222.74400000000003
5.400823940070432 160.379
5.423147747031976 139.14
5.445489173474152 126.338
5.467830807066149 119.156
5.490155234831516 114.305
5.512497285125229 109.838
5.534822130975162 107.566
5.557164601388673 104.95
5.579489868738879 102.22399999999999
5.601832762690846 101.626
5.6241758697774475 100.727
5.646501775867269 99.3888
5.668845311622074 98.1551
5.691171647754637 97.1491
5.713515615597765 95.9285
5.735859800852677 94.4238
5.758186788542988 94.0961
5.780531411018185 93.9938
5.802858837297399 93.9518
5.825203900414495 94.5831
5.8475491852224 94.8946
5.869877275883075 94.8479
5.892223006467101 96.065
5.914551544266608 97.9477
5.936897724049891 100.87700000000001
5.959244129804903 107.42299999999999
5.981573344815301 129.526
6.0039202049061 234.207
6.026249875609095 510.67400000000004
6.04859719346037 1040.26
6.070927323278297 2089.35
6.093275102315365 3945.28
6.115623113320588 4909.47
6.137953938319995 3413.6
6.160302415650845 1208.26
6.182633708324452 299.303
6.2049826554078376 129.214
6.227331838745022 100.475
6.249663839443684 90.4477
6.27201349767565 86.9117
6.294345974611799 96.2864
6.316696111167083 113.324
6.339046488263839 105.25200000000001
6.361379686074702 85.0374
6.383730546639482 74.8925
6.406064229255215 71.5083
6.428415576718203 70.1116
6.450749747566656 69.06
6.47310158535871 68.2218
6.495453669698332 67.3347
6.517788579421056 66.824
6.540141159237969 65.8486
6.562476565766648 65.3184
6.5848296444934045 64.8906
6.607182974060425 64.8763
6.6295191323281015 64.5905
6.651872965955752 69.8532
6.6742096296068985 106.29700000000001
6.6965639707294615 170.535
6.71891856698715 169.52700000000002
6.741255995248479 108.30799999999999
6.763611104154477 72.9502
6.785949046381137 62.891999999999996
6.808304671371482 60.681000000000004
6.8306605557940046 60.2518
6.852999275508618 59.038999999999994
6.875355681171544 58.7781
6.897694923437771 58.4315
6.92005185377892 58.6947
6.9423916220322655 58.2427
6.964749080490181 57.5607
6.987106804399774 57.3613
7.009447368180821 57.1573
7.031805625367033 56.9887
7.054146723727803 57.0955
7.076505517631004 57.1479
7.098864581288365 56.9767
7.121206488070854 56.7178
7.143566093607822 56.592
7.165908543567245 57.1041
7.188268694426048 57.1233
7.2106291193438095 57.3456
7.232972390625943 59.786
7.255333366030969 77.0753
7.277677189091925 152.293
7.300038718428332 217.979
7.322400526130865 180.34799999999998
7.344745183422596 102.624
7.367107550224791 65.9938
7.389452767901992 59.0348
7.411815697249891 57.4461
7.434161478756298 56.5328
7.456524974096713 56.1044
7.478888753837185 55.931000000000004
7.501235387657368 56.2682
7.523599738562711 56.4931
7.545946944825532 56.4407
7.568311870344528 57.4624
7.5906770845765665 57.6158
7.613025156078678 59.1991
7.635390950099687 61.0407
7.657739602662809 59.3958
7.680105979923558 57.9652
7.702472650212829 57.7046
7.724822180948224 57.6911
7.747189439655568 57.7304
7.769539560075357 57.4252
7.791907410653562 57.9778
7.81425812420825 58.0126
7.836626570110925 58.4117
7.858995315087906 59.0247
7.881346924933401 59.5727
7.903716270417482 59.8083
7.926068482028405 59.9724
7.948438431475253 60.668
7.9708086843180235 61.5635
7.993161805171116 62.2228
8.015532667162402 62.375
8.037886398416653 63.3168
8.060257873014221 63.5593
8.082629655331942 64.8214
8.104984308787587 65.9265
8.127356708900503 70.1597
8.149711981398308 77.8073
8.172085002766314 80.5591
8.194458336181368 75.5102
8.216814543847752 71.2928
8.23918850371002 71.1449
8.26154533906492 72.0281
8.283919928836452 73.3751
8.306277395339652 74.5565
8.328652618483376 76.2112
8.351028159736202 78.1999
8.373386579575245 80.699
8.395762759396959 82.1156
8.418121819038275 88.3329
8.440498640894003 106.09100000000001
8.462875785192262 124.552
8.485235811156207 137.972
8.507613602688501 179.783
8.529974277114228 276.092
8.552352719347912 416.168
8.574731488360351 656.922
8.59709314210385 1088.91
8.619472567021075 1673.44
8.64183487789147 2108.85
8.664214962183097 1860.57
8.686577933647762 1104.7
8.708958680784317 461.81800000000004
8.731339760774953 194.36
8.753703729764451 121.331
8.77608547780821 104.751
8.798450116065078 99.2434
8.820832535634787 96.0244
8.843215292401656 93.8302
8.865580941199045 92.208
8.887964374703538 91.1953
8.910330701447199 92.9875
8.932714815164482 96.595
8.955099270424924 95.7904
8.977466620733543 91.4321
8.999851761421976 87.9214
9.022219798361645 85.90799999999999
9.04460562795561 85.8328
9.066991803441677 85.2733
9.089360876979615 84.7475
9.111747746589993 84.8952
9.13411751544971 84.0634
9.156505082664324 83.883
9.178875550323522 84.47200000000001
9.20126381862328 84.4632
9.223652438908596 85.0565
9.246023961427412 84.6539
9.26841328802173 83.6185
9.290785518039224 83.7156
9.313175554425882 84.7307
9.335565947154315 85.0277
9.357939245086508 84.8403
9.380330352834827 84.6602
9.40270436697103 84.9246
9.425096193225055 85.0508
9.447488380180165 85.9381
9.469863475295412 85.7134
9.492256385987508 86.3362
9.514632206018318 87.1789
9.537025843935714 87.4744
9.559402392368193 88.3199
9.581796761000229 89.7801
9.604191496441521 91.1371
9.626569144158516 95.3525
9.648964615551032 101.277
9.671343000390081 103.065
9.693739211225699 100.126
9.716135793237463 96.4479
9.738515290448102 95.0599
9.760912617143402 95.9918
9.783292860202891 97.2845
9.805690935076182 98.8754
9.828089385495742 99.7703
9.850470754023561 102.561
9.872869957865444 113.15
9.89525208097539 133.613
9.917652041736662 149.928
9.940052382417589 147.422
9.962435644102392 151.722
9.984836746950979 188.825
10.007220771957746 258.37
10.029622640473708 364.94699999999995
10.052007432299963 527.793
10.074410069984072 769.1160000000001
10.096813093716005 1138.43
10.119199042482517 1589.88
10.141602840636468 1902.58
10.163989564971628 1721.81
10.186394141051062 1086.62
10.208799107559706 493.647
10.231187001965623 231.21200000000002
10.253592751657669 140.72
10.275981430388155 119.89399999999999
10.298387966769793 119.515
10.320794897965431 123.075
10.343184759907361 121.55799999999999
10.36559248305461 113.765
10.387983138083852 108.26299999999999
10.410391656691655 111.08
10.432800574501677 122.895
10.455192425893369 141.075
10.47760214443012 165.986
10.499994797678786 204.548
10.522405320453982 269.626
10.54479877906917 365.579
10.567210109595656 476.42699999999996
10.5896218454736 544.804
10.612016518879773 533.105
10.634429067781074 384.469
10.656824555333241 228.035
10.679237920773568 139.085
10.701651695961992 102.618
10.724048411481384 92.8514
10.746463008485165 89.145
10.768860546937125 87.3565
10.791275969274796 85.2649
10.81369180576079 84.4479
10.836090585366925 83.2496
10.858507252467449 81.7308
10.88090686379991 81.023
10.903324365036394 80.5989
10.925724811614439 81.1466
10.948143150509463 83.3049
10.970561909719066 82.0912
10.992963615930844 79.9635
11.015383218085756 77.038
11.037785768347074 75.2642
11.06020621697282 74.7358
11.082627090322113 74.2919
11.105030913430326 73.9127
11.12745263854165 74.6708
11.149857314510728 80.0814
11.172279894912576 88.2421
11.194702904450653 89.68
11.217108866490921 83.8607
11.239532736615194 77.9652
11.26193956033512 75.1361
11.284364294577085 72.7502
11.306789462371718 70.7006
11.329197585398376 69.0127
11.351623622610898 68.6079
11.37403261614354 67.6425
11.396459526308487 67.6361
11.418869393879497 67.1854
11.441297180532617 67.152
11.463725406927658 66.5393
11.486136592353875 66.8327
11.508565700543707 67.8642
11.530977768845315 70.1618
11.553407762368774 71.3313
11.575838200059769 70.6858
11.598251599479612 67.7267
11.620682927815501 65.7608
11.64309721895548 65.3386
11.665529441478206 64.9496
11.687962112597958 64.5232
11.710377748130886 64.7837
11.732811318753434 64.9092
11.755227854859067 64.4147
11.777662328529495 64.65
11.800079768750786 64.3509
11.822515149015453 64.148
11.844950984084935 64.2415
11.867369787303163 63.7503
11.889806534289491 63.9744
11.912226250487029 64.344
11.934663912939751 64.315
11.9571020346363 64.321
11.979523127133968 64.5602
12.001962169624331 65.3452
12.024384183972964 66.5623
12.046824150809913 69.9116
12.069264581333726 75.4388
12.091687985297767 82.2031
12.11412934550045 91.2427
12.136553680195208 103.279
12.158995973632788 121.75200000000001
12.181438735204349 144.648
12.20386447284199 173.56799999999998
12.226308172985636 201.18
12.24873485024193 209.66400000000002
12.271179492516982 182.645
12.293607112949127 142.951
12.316052700916226 108.62
12.338498763250042 86.1358
12.360927805303868 74.5439
12.383374818673879 69.2329
12.405804812803074 66.6181
12.428252780773262 66.158
12.45070122756722 66.0167
12.473132656675375 65.9547
12.49558206341869 66.1947
12.518014453510101 66.234
12.540464823770117 66.2299
12.562915677315177 66.4209
12.58534951575545 67.6073
12.607801338171472 70.5501
12.630236146511358 77.9019
12.652688941369085 83.9792
12.675124723177234 84.0192
12.697578494048786 78.2566
12.720032754458185 72.3859
12.742470003354093 69.8805
12.764925245138771 69.5268
12.787363476431278 69.6823
12.809819703166806 70.1368
12.83227642391173 70.6925
12.854716135692716 71.5424
12.877173846755147 72.7144
12.899614549869717 72.733
12.9220732548287 73.8253
12.94453245827299 74.2504
12.966974655289818 74.8353
12.989434858002571 75.7357
13.011878055298721 76.4207
13.034339260862497 77.4178
13.056800969391883 78.5203
13.079245674017244 80.6172
13.101708390774869 83.3185
13.12415410463411 91.182
13.146617833206086 103.803
13.169064559883248 116.927
13.191529303857127 131.966
13.213994557076367 152.409
13.236442809902437 181.92700000000002
13.258909083908291 226.046
13.28135835851934 279.118
13.30382565690295 342.77
13.326293469022952 404.216
13.348744283242008 428.407
13.371213125129904 384.329
13.39366497011003 292.193
13.416134845360597 198.005
13.438605238843131 137.343
13.46105863690397 112.807
13.483530069144786 110.169
13.505984506951902 115.213
13.528456981549432 124.992
13.550929978879088 138.261
13.573385983253365 158.213
13.595860028340867 188.982
13.618317081455832 229.85299999999998
13.64079217790333 278.823
13.663250283359057 326.428
13.685726434770173 366.425
13.708203115221277 354.411
13.730662806148091 292.557
13.75314054697177 217.179
13.775601299246777 146.05100000000002
13.798080104050406 105.59899999999999
13.820559442405358 89.2838
13.843021793671388 84.4966
13.865502201420897 82.1707
13.887965623051947 81.7061
13.910447103807167 80.417
13.932929122629764 79.1039
13.955394156785959 78.5684
13.977877254034569 77.7882
14.000343367582113 76.8941
14.022827546871707 76.0074
14.045294743423524 75.3093
14.06778000837062 74.8579
14.090265817715476 74.9543
14.112734645763819 74.4669
14.13522154619454 74.4974
14.157691466286913 74.6005
14.180179461423874 74.5499
14.202668005486178 73.5955
14.22513957064374 72.7325
14.247629214846473 72.2909
14.270101881097517 72.1177
14.29259262906496 72.6279
14.315083930490205 73.825
14.337558255389705 74.3102
14.360050666019726 73.5318
14.382526101071944 72.2378
14.405019624534942 71.0932
14.427513705993134 70.5267
14.449990813291825 70.5936
14.47248601302899 70.3053
14.49496423954951 70.1703
14.517460561197822 70.494
14.539939910570322 70.1786
14.562437357763558 70.6453
14.58493536931253 72.2662
14.607416409993311 73.6274
14.62991555254159 74.6047
14.652397725157423 73.8346
14.674898002342799 72.9102
14.697398848433282 72.2928
14.719882725991326 72.5469
14.74238471217934 73.7645
14.764869730765593 77.28
14.787372860692983 81.0889
14.809876564079925 85.8349
14.83236330125751 91.8849
14.854868153850365 99.4627
14.877356041159485 111.02600000000001
14.899862046604186 125.809
14.922351087688757 146.275
14.944858249632887 171.118
14.967365991421232 197.30900000000003
14.989856770231246 217.889
15.012365673994204 222.458
15.03485761569738 203.4
15.05736768508665 163.887
15.07987833888692 127.641
15.102372032001655 99.35700000000001
15.124883856909658 82.2159
15.14737872204565 75.0477
15.169891721717274 72.7644
15.192405310371893 72.6998
15.214901940621196 73.4987
15.237416709527137 73.8638
15.259914520936249 73.9626
15.282430473753607 73.0039
15.304947020131227 71.2649
15.327446610371178 70.1831
15.349964346154254 69.1592
15.372465126703139 68.5013
15.394984055556009 68.1375
15.417486030076159 68.0272
15.44000615566487 67.8435
15.462526881230803 67.6779
15.485030653812652 67.9752
15.507552581617434 68.0099
15.530057557334603 68.2027
15.55258069104857 68.1638
15.575104429329837 67.9885
15.597611216864632 67.5535
15.620136166564563 67.7097
15.6426441664095 68.5481
15.665170331202765 71.1795
15.687697105158826 74.2349
15.710206930593545 77.9712
15.732734925158933 82.352
15.755245972089478 88.0152
15.77777519094324 95.6167
15.800287463046663 106.421
15.822817909869592 121.462
15.84534897229804 139.105
15.867863089299354 159.71
15.890395385222186 179.011
15.912910736597423 192.67
15.935444269699861 189.37400000000002
15.957978423016485 170.102
15.980495633101265 136.88299999999998
16.003031029129367 106.426
16.02554948280019 83.8191
16.048086125229432 72.2594
16.070623392487107 68.0948
16.09314371869582 67.3426
16.11568223789321 66.2514
16.13820381691126 64.9149
16.160743591742527 63.6998
16.183283996022084 62.409
16.205807461423195 61.1881
16.228349126881973 60.6682
16.25087385432698 60.6885
16.27341678466365 59.8854
16.29594277784926 60.0258
16.31848697676433 60.7314
16.341031811604868 61.0565
16.36355971058487 61.5517
16.3861058195587 61.1029
16.40863499352978 59.6279
16.431182380342005 58.5766
16.453730407713202 57.8489
16.476261501364792 57.1601
16.498810812136167 57.0597
16.52134319004079 57.1199
16.54389378792203 56.9591
16.566445031001553 56.8317
16.588979342490088 56.5958
16.61153187824822 56.3692
16.634067483263312 56.4827
16.656621315414416 56.2727
16.679175797408888 56.1036
16.701713349928728 56.0784
16.72426913389191 56.4322
16.74680798922351 56.526
16.76936507887444 56.3118
16.791905240734874 56.5818
16.814463639794468 56.2674
16.837022695210294 56.335
16.859564824093756 56.7368
16.882125194503903 57.7994
16.904668639217885 58.7564
16.927230328348003 59.0608
16.949792678493612 58.9108
16.972338104193863 57.9817
16.994901778652235 57.3178
17.017448529496576 57.0642
17.040013531998152 57.2479
17.06257920018044 57.5674
17.0851279459922 58.3461
17.107694947817667 59.3675
17.130245028099072 60.3198
17.15281336730298 61.6341
17.17536478578733 63.1537
17.19793446610687 65.152
17.220504818648422 67.2869
17.243058251703697 69.7738
17.265629950971032 73.3151
17.288184731571736 77.5601
17.310757781306908 81.7863
17.33333150794385 84.0336
17.355888317140174 83.3661
17.37846339986244 79.6015
17.401021565958885 74.01899999999999
17.42359800851343 68.6817
17.44617513265564 64.6067
17.468735341390783 62.0167
17.491261035594565 60.7414
17.51396340099364 60.4972
17.536490463869136 60.577
17.559018209820174 60.5605
17.58154663977963 60.9027
17.604251766089718 60.8265
17.626781572227713 61.1206
17.64931206518155 61.2596
17.671843245885103 61.8337
17.69455114821572 62.2601
17.717083712612634 62.4818
17.739616967569667 62.5518
17.762150914021706 62.7413
17.78486160749854 62.7401
17.807396945166804 63.2086
17.829932977143503 64.2188
17.85246970436452 65.6181
17.875183204129467 67.7123
17.897721330097664 70.1734
17.920260154126645 72.5555
17.942799677153296 75.7865
17.9655159983646 78.9724
17.988056927677544 83.3666
18.010598558807683 89.4415
18.033140892692916 97.1777
18.05586005052525 106.055
18.07840379824407 116.335
18.10094825154059 127.596
18.12366954819864 137.20600000000002
18.146215420998306 141.345
18.16876200220057 137.128
18.191309292745153 124.932
18.214033452627167 110.87899999999999
18.236582170236648 97.2006
18.259131600016456 89.4504
18.281681742907335 87.1865
18.304408781233683 89.2385
18.32696035875955 93.068
18.349512652227624 97.9834
18.372065662579683 103.42200000000001
18.394795594587553 106.64299999999999
18.41735004715306 105.83200000000001
18.43990521943684 100.766
18.46246111238171 91.8842
18.485193953325208 82.2538
18.507751296070428 73.6774
18.530309362314178 68.4698
18.552868153000343 65.6218
18.57560391815056 63.8608
18.59816416623245 63.1502
18.620725141597372 63.0609
18.643286845190268 62.3871
18.666025549835414 62.0604
18.688588718427933 61.3801
18.711152618092243 61.0532
18.73389353884365 60.9248
18.75645890921984 60.445
18.77902501351406 59.9893
18.801591852673102 59.9315
18.824335739722738 59.4885
18.846904057212626 59.5473
18.8694731124168 59.176
18.89204290628315 59.2686
18.914789774966803 59.1472
18.937361054791623 58.8078
18.959933076131318 58.472
18.982505839934877 58.4539
19.00525570560582 58.6318
19.027829963004184 58.3354
19.05040496572238 58.3967
19.072980714710468 58.4702
19.095733592739563 58.7105
19.11831084296757 59.0124
19.140888842324735 59.6525
19.16346759176222 59.9332
19.18622349753803 60.2525
19.208803755869358 61.0606
19.231384767143577 62.0472
19.253966532312948 63.2281
19.276725481241822 64.5431
19.29930876296784 66.4599
19.3218928014549 69.2863
19.34465404436217 72.4083
19.36723960516257 75.5391
19.389825925592426 77.5686
19.412413006605938 77.4419
19.43517731967805 75.1262
19.457765930683355 70.9702
19.48035530514408 66.0389
19.50294544401556 61.8836
19.525712842708348 58.9618
19.54830451925909 57.0782
19.570896963095727 55.8469
19.593490175174704 55.2255
19.616260674962184 55.2437
19.638855432416964 54.8857
19.661450960992624 54.9612
19.68404726164677 54.7472
19.706820878021247 54.622
19.729418731756834 54.7904
19.752017360452857 54.5245
19.77461676506804 54.7832
19.797393513540218 54.95
19.819994478951667 55.3367
19.84259622316767 56.13399999999999
19.8651987471481 56.3514
19.887978643247177 56.623000000000005
19.91058273574792 56.9353
19.933187610901943 57.5204
19.955969879466828 58.3239
19.97857632894404 59.6091
20.00118356396599 60.7739
20.023791585494575 62.4827
20.046577028914875 65.1008
20.069186632506966 67.0769
20.091797025500632 69.0886
20.114408208858933 70.7075
20.137196842715273 71.2405
20.159809615886765 70.1816
20.18242318232135 67.9889
20.20503754298326 65.6718
20.227829382875154 63.8349
20.250445341109344 63.0119
20.27306209647285 63.1877
20.29567964993108 64.1837
20.31847471147704 65.0318
20.34109387027612 66.1384
20.363713830075454 66.7025
20.386334591841646 65.9329
20.409132890679302 64.0457
20.431755265564437 60.8165
20.454378445325528 57.8195
20.477002430930366 55.6571
20.499803982716553 54.2588
20.522429589228004 53.276
20.54505600449589 52.7785
20.567683229489194 52.3019
20.590488049900088 51.8963
20.61311690359731 51.5222
20.63574656993626 51.3548
20.658553853717297 50.913999999999994
20.681185154618298 50.843
20.703817271080066 50.8583
20.72645020407368 50.5404
20.749260783967177 50.3872
20.771895359337133 50.403
20.794530754161617 50.3257
20.817166969412938 50.1081
20.83998086114876 50.0364
20.86261872660049 50.0007
20.885257415405402 50.1651
20.90789692853701 49.9321
20.930714147864748 49.7532
20.953355319030678 49.8116
20.97599731745334 50.02
20.99864014410749 49.8651
21.021460706796564 50.038999999999994
21.044105199328826 50.1631
21.06675052302631 50.45
21.089396678865015 50.5263
21.112220600704806 50.5551
21.134868430275347 50.8695
21.15751709492456 51.1836
21.180166595629693 51.426
21.202993892429635 51.8233
21.22564507473034 52.0222
21.24829709602816 52.3816
21.27112693608965 52.7464
21.293780644891275 52.9209
21.316435195634053 52.0782
21.339090589297417 51.4626
21.361923832041875 51.0246
21.384580921090404 50.4096
21.407238856007325 49.9413
21.429897637773326 49.8464
21.45273429906592 49.631
21.475394784108598 49.5727
21.498056118951983 49.4943
21.520718304578022 49.7037
21.543558400304388 49.8255
21.566222297108816 49.9354
21.58888704765135 50.0626
21.61155265291521 50.4498
21.63439619898156 50.953
21.657063523335786 51.1547
21.67973170537063 51.7722
21.7024007460706 52.18899999999999
21.72524775840385 52.8596
21.747918526116475 53.7098
21.770590155457388 54.6349
21.79326264741238 55.8731
21.816113141960237 57.3718
21.838787368860547 59.1643
21.861462461341976 60.6281
21.884315579735777 62.758
21.90699241312273 64.3241
21.92967011506078 65.5019
21.95234868653799 65.9821
21.9752053151131 65.6525
21.997885635446785 63.7544
22.020566828293532 61.7704
22.04324889464272 59.7372
22.066109049404666 58.0312
22.088792872571794 57.2237
22.111477572219204 56.9498
22.1341631493376 57.1124
22.157026846313123 57.3042
22.179714188221507 57.0521
22.202402410582668 56.0423
22.22509151438863 54.6459
22.24795876962584 53.1795
22.270649646204486 52.326
22.293341407213727 51.4652
22.316034053646906 50.8002
22.338904883215342 50.4777
22.36159931041458 50.504
22.38429462602756 50.5164
22.40699083104897 50.3173
22.429865251039757 50.3486
22.452563244831367 50.3496
22.47526213102522 50.2243
22.49813925616515 50.071000000000005
22.520839937143307 49.9491
22.543541513520587 49.8893
22.56624398629403 49.568000000000005
22.589124730075895 49.4239
22.611829005656723 49.8356
22.63453418063466 49.9793
22.657240256008077 50.0594
22.680124634582935 50.0674
22.70283252079775 50.4718
22.725541310413075 50.8551
22.74825100442868 51.0191
22.771139033969575 51.248000000000005
22.79385054687155 51.5973
22.81656296718292 52.0755
22.83927629590484 52.7405
22.862167992606945 53.4108
22.88488314827121 54.6769
22.907599215359284 55.4681
22.93031619487366 56.5353
22.953211574954405 57.5213
22.975930389478226 58.641000000000005
22.998650119445763 59.1864
23.02137076586092 59.0493
23.044269845560063 57.9921
23.06699233506288 56.5211
23.089715744034912 54.4847
23.112617610931565 52.8861
23.135342869061212 51.5601
23.158069049684816 50.751999999999995
23.1807961538087 50.2284
23.20370174880544 50.2051
23.226430710184808 50.0308
23.249160598093425 50.1691
23.271891413539002 50.0422
23.294800752937697 50.0995
23.31753343374794 50.2855
23.340267045128353 50.3345
23.36300158808808 50.6179
23.38591468821339 50.8865
23.408651104658304 51.163000000000004
23.431388455719986 51.7926
23.454126742409 52.4302
23.4770436196085 53.1101
23.499783787914662 54.0988
23.522524894889884 55.003
23.54526694154616 55.9551
23.56818761219047 57.2297
23.59093154860734 58.1735
23.613676427751283 59.085
23.636422250635754 58.6407
23.659346731118656 57.4456
23.68209445191868 55.8172
23.704843119509587 53.574
23.72759273490623 51.6177
23.750521041644767 50.1758
23.77327256312355 48.7835
23.796025035462787 47.9224
23.818956224555475 47.45
23.841710609113413 47.3664
23.86446594758979 46.8843
23.887222241002014 46.7063
23.910157285144578 46.4744
23.932915498962537 46.4767
23.955674670778713 46.286
23.978434801611975 46.1675
24.001373717286125 45.8516
24.024135776723917 45.6945
24.046898798245582 45.6141
24.06966278287146 45.4941
24.092605586582614 45.4207
24.115371508023642 45.2961
24.1381383956401 45.1834
24.16090625045381 45.1983
24.183852958731244 45.0741
24.206622758582608 45.0681
24.229393528706886 44.7697
24.252165270127392 45.0354
24.27511589952438 44.5781
24.297889594216997 44.5242
24.32066426328598 44.412
24.34343990775613 44.4832
24.36639447485003 44.3398
24.38917208083877 44.2673
24.41195066531332 44.1303
24.43490819850244 44.2323
24.457688750692377 44.0399
24.48047028445616 43.8812
24.503252800821233 44.1094
24.526214300784112 44.09
24.548998793132213 43.9668
24.57178427117417 44.0768
24.59457073593893 44.0617
24.617536219319863 44.0483
24.64032466834748 43.9539
24.663114107195035 43.9015
24.685904536893013 43.7048
24.708874020360852 43.6416
24.731666442613744 43.4989
24.754459858818787 43.5849
24.777254270007962 43.2772
24.80022777025625 43.2751
24.82302418230472 43.4409
24.845821592443674 43.2065
24.86862000170663 43.096000000000004
24.891597535453727 43.0132
24.914397953892728 43.248999999999995
24.93719937456671 43.1231
24.96000179851076 43.3282
24.98298338249997 43.4606
25.00578782394922 43.7834
25.028593271784167 43.7263
25.05157790644186 44.1116
25.07438537804115 44.2381
25.097193859145293 44.306000000000004
25.120003350792075 44.5063
25.142992065061257 44.9687
25.165803588823465 45.199
25.18861612625217 45.4493
25.211429678386736 45.5765
25.234422489079968 45.7493
25.257238081693636 45.6857
25.280054692141732 45.7556
25.3028723214652 45.7135
25.325869245420463 45.8442
25.348688923599397 45.8268
25.371509623787006 45.8727
25.394331347025812 45.771
25.41733240110666 45.2798
25.440156181590016 44.7302
25.46298098826268 44.2633
25.48580682216873 43.7895
25.50881202326435 43.1493
25.53163992281684 42.5729
25.55446885274561 42.3911
25.577298814096377 42.1095
25.600308179121807 41.8183
25.623140214533745 41.9824
25.64597328451537 41.771
25.66898578564376 41.5401
25.691820936010206 41.5951
25.714657124097695 41.4979
25.737494350954734 41.4584
25.760511045684957 41.4732
25.783350361364224 41.4845
25.806190718969255 41.4555
25.82903211955018 41.6102
25.852053024868923 41.6747
25.874896522722523 41.6528
25.897741066713106 41.5851
25.920586657892454 41.7171
25.943611790812668 41.8443
25.966459487728237 41.7899
25.989308234998564 41.8255
26.01215803367705 42.1979
26.03518741123814 42.2147
26.05803932412957 42.2846
26.080892291600094 42.4306
26.10374631470478 42.5526
26.12677995397268 42.7414
26.14963609978026 42.9086
26.172493304397875 42.5602
26.19535156888223 42.445
26.218389486949604 41.948
26.241249882640123 41.5907
26.26411134137826 41.4364
26.28715248187403 41.3288
26.31001607820869 41.0094
26.3328807407756 40.9331
26.35574647063438 40.9746
26.37879191991473 41.0751
26.401659795896734 41.1066
26.424528742360263 41.2305
26.447398760366614 41.4338
26.470448535598294 41.4732
26.49332070826805 41.5738
26.516193955675355 42.0112
26.53906827888316 41.9978
26.562122397260108 42.1457
26.584998883685063 42.4878
26.607876449110325 42.7583
26.63075509460056 42.8837
26.65381357334404 43.0475
26.67669439061878 43.1436
26.699576291163382 43.1285
26.722459276044212 43.1164
26.745522132402975 42.7555
26.768407297649354 42.4507
26.791293550442003 42.1101
26.814180891848974 41.9541
26.837248143099337 41.4999
26.860137673466657 41.3243
26.88302829566349 41.2581
26.90592001075963 41.1204
26.92899167420566 40.9829
26.951885586870763 40.5919
26.974780595655517 40.3616
26.99785558178161 40.1898
27.020752794605112 40.1333
27.043651106772522 39.8525
27.06655051935668 39.8245
27.089629948036183 39.7052
27.112531573292053 39.6803
27.135434302194138 39.681999999999995
27.158338135817015 39.478
27.181422024430987 39.4399
27.204328079372566 39.3908
27.22723524226965 39.505
27.250143514198573 39.5547
27.273231880156334 39.4692
27.296142382065014 39.323
27.319053996245536 39.4213
27.341966723775965 39.3189
27.365059584515222 39.3389
27.38797455070062 39.4288
27.410890633481237 39.1833
27.433807833936918 39.3457
27.456905206923906 39.4704
27.47982465472398 39.4119
27.502745223449743 39.4516
27.525666914182825 39.488
27.548768816912457 39.5208
27.571692763693633 39.4817
27.59461783573812 39.2509
27.617723149491244 39.1766
27.640650484125285 39.0477
27.66357894728264 39.1118
27.686508540048052 39.2747
27.709618414237887 38.9146
27.732550278321757 38.7539
27.755483275279115 38.8103
27.778417406196485 38.775999999999996
27.801531858397514 38.7168
27.824468269376716 38.6549
27.847405817586786 38.7611
27.870344504116094 38.8078
27.893463551932008 38.9754
27.916404527281053 39.1325
27.93934664422563 39.1936
27.962289903855886 39.2854
27.98541356491974 39.4037
28.00835912214229 39.4837
28.03130582533231 39.7694
28.054253675581805 39.9112
28.077381967556104 39.9064
28.100332124185126 39.8926
28.123283431160893 39.7458
28.146235889577238 39.6896
28.169368830154156 39.4508
28.192323603752033 39.304
28.215279532083304 39.1573
28.238415973016764 38.8013
28.261374223145094 38.7933
28.284333631303806 38.6207
28.307294198589954 38.582
28.330435319167677 38.2167
28.353398217078915 37.9119
28.376362277420153 37.7069
28.39932750129032 37.5444
28.422473319286713 37.3411
28.44544088262495 37.349000000000004
28.468409612800283 37.14
28.491379510913497 36.961
28.51453004413313 36.7609
28.53750229057244 36.8533
28.56047570826344 36.7028
28.583450298308804 36.7629
28.606605564586562 36.6255
28.629582511831156 36.4531
28.65256063474956 36.4366
28.675539934446338 36.5655
28.698699951647605 36.4379
28.72168161743193 36.3099
28.74466446331978 36.2224
28.767648490417624 36.3166
28.790813276438353 36.2338
28.813799678527303 36.3089
28.836787265157085 36.2685
28.859955641890075 36.301
28.882945610203045 36.2445
28.905936766392035 36.063
28.928929111566863 36.2401
28.952102288520145 36.0878
28.975097024308607 36.0275
28.998092952423807 35.808
29.021090073977508 35.7379
29.04426806913204 35.7402
29.067267590245258 35.4008
29.090268308143695 35.4052
29.11327022394099 35.3222
29.13645305530891 35.3734
29.159457379627167 35.203
29.18246290519685 35.1586
29.20546963313352 35.148
29.22865731875826 35.2621
29.25166646419296 35.1568
29.27467681535305 34.9768
29.29768837335608 34.9691
29.320880931312562 35.1158
29.34389491580634 35.1493
29.366910110507334 35.2005
29.38992651653503 35.0982
29.41312396492981 35.0815
29.436142806456754 35.0147
29.45916286268059 34.9641
29.48236399319994 34.8399
29.50538649169417 34.6777
29.528410208259935 34.6067
29.55143514402014 34.4938
29.574641196749695 34.2709
29.597668583816574 34.1094
29.6206971934585 33.8877
29.64372702680042 33.9807
29.666938019934474 33.8434
29.689970313635285 33.7961
29.713003834422636 33.7942
29.73603858342347 33.6673
29.759254535188578 33.6819
29.78229175361658 33.5691
29.80533020365064 33.5621
29.82836988641968 33.6982
29.85159081507472 33.6346
29.874632976355343 33.6174
29.89767637376955 33.7084
29.920721008448314 33.3779
29.9439469322847 33.3614
29.96699405457564 33.3379
29.9900424175358 33.328
30.013092022298157 33.3109
30.03632295963995 33.2597
30.059375061131373 33.2887
30.08242840783577 33.3552
30.105483000888153 33.1457
30.128718970092244 33.177
30.151776069006917 33.1542
30.17483441768648 33.2799
30.198074175317235 33.1786
30.221135036724256 33.1666
30.24419715131772 33.1477
30.267260520236203 33.0142
30.290505341942243 33.1005
30.313571232750228 33.18
30.336638381310948 33.1148
30.35970678876503 33.0963
30.38295669299435 32.9444
30.40602763151657 32.9486
30.429099832366074 32.8822
30.452173296685572 32.7932
30.47542830191959 32.8531
30.498504306502497 32.824
30.521581577995562 32.9352
30.544660117543582 32.9027
30.56792024229725 32.8126
30.59100133132069 32.8381
30.614083691845494 32.8748
30.637167325018545 32.9134
30.660432587840603 32.9572
30.683518779717886 32.9252
30.70660624769615 32.9387
30.729694992924372 32.9346
30.75296541239743 32.9497
30.77605672557558 32.9063
30.799149319462742 32.9317
30.8224236211637 32.6951
30.845518789950724 32.6845
30.868615242910597 32.6948
30.891712981195973 32.4566
30.91499247215866 32.3772
30.938092794619365 32.2659
30.96119440587579 32.2481
30.984297307082752 32.2329
31.00758200598383 32.1382
31.030687500658694 31.9927
31.053794288760695 31.9367
31.076902371446767 31.824
31.100192296997445 31.9318
31.12330298246119 31.8963
31.14641496599209 31.6686
31.169528248749216 31.6943
31.19282341969534 31.698
31.215939314557186 31.6827
31.239056512134788 31.7205
31.262175013589378 31.6251
31.28547544871168 31.4442
31.30859657161541 31.4744
31.331719001892175 31.5783
31.35484274070538 31.7515
31.378148458819545 31.6826
31.401274828443725 31.5541
31.424402510106933 31.6322
31.447712205419993 31.6328
31.470842524931633 31.5263
31.493974159989783 31.5275
31.51710711176168 31.601999999999997
31.54042212308802 31.505
31.563557722100917 31.4032
31.586694641341655 31.3451
31.609832881979628 31.2511
31.63315322823208 31.2718
31.656294125521327 31.1048
31.679436347728515 30.9715
31.70257989602529 31.0029
31.725905596152327 30.9424
31.74905181052835 30.8744
31.772199354521323 30.8749
31.79534822930507 30.851999999999997
31.818679302290967 30.8651
31.84183085259981 30.7372
31.864983737233473 30.8003
31.88813795736804 30.8819
31.911474422233013 30.7976
31.934631327356435 30.8309
31.9577895715215 30.8326
31.980949155906522 30.8105
32.004291031706956 30.7849
32.027453310562606 30.6423
32.05061693318573 30.5818
32.07396288236386 30.5813
32.09712920658542 30.4721
32.12029687812702 30.3451
32.14346589817093 30.2004
32.166817291729984 30.1952
32.18998902288583 30.2515
32.21316210610336 30.0654
32.23633654256711 30.0196
32.259693399663725 29.9983
32.282870556771144 29.9765
32.30604907069099 29.9014
32.329228942610065 29.8364
32.35259128243769 29.6567
32.375773884550505 29.7001
32.398957848235646 29.6526
32.422143174682176 29.6122
32.445511016471215 29.5567
32.468699082679954 29.4718
32.49188851523011 29.3816
32.51507931531304 29.2791
32.538452678331 29.3548
32.56164622776311 29.2621
32.58484114831493 29.2432
32.60803744118015 29.1845
32.631416344731896 29.2318
32.654615396551876 29.2097
32.67781582427913 29.1408
32.701198898634416 29.121
32.72440209253756 29.038
32.747606665947124 28.9596
32.77081262006088 28.7776
32.79420126883317 28.7994
32.81740999876112 28.8061
32.840620112999424 28.7345
32.86383161274818 28.6823
32.88722585534586 28.7466
32.91044014056596 28.7437
32.933655814909734 28.7255
32.95687287957963 28.6535
32.98027273544904 28.615
33.00349259526636 28.5191
33.026713849030116 28.5103
33.04993649794511 28.503
33.073341986570746 28.3999
33.09656744032826 28.5048
33.11979429286444 28.4522
33.14302254538647 28.4065
33.166433686291185 28.3323
33.18966475336992 28.369
33.212897224069096 28.2709
33.23613109959831 28.1865
33.259547912343415 28.1618
33.2827846121627 28.2307
33.306022720453775 28.1606
33.32926223842861 28.0981
33.352684742614166 28.061
33.37592709463173 28.0069
33.399170859982064 27.9519
33.422597648419426 27.9707
33.44584425514446 27.8543
33.46909227885668 27.8576
33.4923417207723 27.7346
33.51577423505344 27.6657
33.539026528130385 27.5928
33.56228024307245 27.6077
33.585535381098246 27.4096
33.60897364093058 27.4861
33.63223163992385 27.4554
33.6554910656699 27.3458
33.678751919389796 27.3395
33.702195944520106 27.2515
33.72545966903325 27.2483
33.74872482519663 27.1456
33.771991414233746 27.1913
33.79544122444841 27.0854
33.81871069412428 27.061999999999998
33.84198160035767 26.9558
33.86525394437455 26.9894
33.88870955949969 26.9405
33.911984794020626 26.9416
33.93526147001624 26.8752
33.958539588715006 26.8823
33.98200102861669 26.8099
34.0052820477047 26.7681
34.02856451319451 26.6316
34.05203033759056 26.6724
34.07531571090147 26.6287
34.09860253431845 26.5719
34.121890809074316 26.5476
34.145362493118924 26.4527
34.16865368561615 26.4662
34.191946333164054 26.4216
34.21524043699793 26.4116
34.23871800066799 26.3483
34.26201503218366 26.2848
34.28531352370466 26.2837
34.30861347646881 26.1829
34.33209693978188 26.1684
34.3553998301885 26.0234
34.378704185565205 26.0558
34.402010007152356 26.0405
34.42549939016683 26.1012
34.44880815937748 25.8567
34.472118398533134 25.8687
34.49543010887669 25.9039
34.51892543169198 25.8226
34.54224009966052 25.7861
34.56555624255917 25.7634
34.58887386163339 25.6573
34.61237514439016 25.6381
34.6356957311114 25.6075
34.65901779775809 25.6239
34.68252356662995 25.5089
34.705848608458616 25.516
34.72917513396849 25.4218
34.75250314440949 25.398000000000003
34.77601490857862 25.3422
34.799345904259795 25.2286
34.82267838863559 25.255
34.846012362958525 25.3178
34.869530142679984 25.2302
34.89286711232212 25.1849
34.91620557568269 25.1975
34.93954553401677 25.1394
34.9630693495876 25.0686
34.986412313340814 25.0384
35.00975677584668 25.0443
35.033102738362956 24.9459
35.05663261012228 24.9628
35.0799815881786 24.9487
35.10333207003229 24.8726
35.12668405694369 24.8792
35.150220005273056 24.8995
35.17357501786656 24.8726
35.19693153931268 24.8494
35.220289570874385 24.7507
35.24383161619786 24.7318
35.267192683604904 24.7284
35.290555264930376 24.7204
35.314101899412165 24.5724
35.33746752422433 24.5654
35.36083466676374 24.6212
35.38420332829803 24.5508
35.407756095629054 24.5802
35.43112781085063 24.5014
35.45450104888391 24.4601
35.477875810999194 24.4674
35.50143473172161 24.4269
35.52481255774625 24.4146
35.54819191167777 24.4511
35.57157279478914 24.4251
35.595137889488406 24.2961
35.61852184675279 24.2908
35.641907337029984 24.1992
35.665294361595684 24.1331
35.68886565090076 24.1361
35.7122557598848 24.2082
35.73564740699838 24.0758
35.759040593519934 24.0542
35.78261809810353 23.9735
35.80601437933051 23.9641
35.829412203814705 23.9143
35.85281157283719 23.7821
35.876395313415884 23.8973
35.8997977874528 23.8115
35.92320180988546 23.7126
35.946790244133936 23.6421
35.97019737933222 23.6434
35.993606066789866 23.576999999999998
36.01701630779276 23.5814
36.04061101440684 23.583000000000002
36.06402437852291 23.6547
36.08743930005611 23.5388
36.1108557802951 23.4232
36.13445678011326 23.4684
36.15787639383515 23.4326
36.18129757014299 23.3957
36.20472031032821 23.3228
36.22832762423364 23.3095
36.25175350829375 23.2906
36.275180960119776 23.2016
36.298609981005924 23.2142
36.32222362992669 23.2167
36.34565580510207 23.1108
36.36908955323448 23.0916
36.39252487562093 23.0087
36.416144880530226 23.0121
36.43958336764275 23.0372
36.463023432914625 22.9438
36.486465077645676 22.8727
36.51009145956204 22.9579
36.53353627947859 23.0052
36.55698268276811 22.8356
36.58043067073321 22.8384
36.60406345072071 22.7399
36.62751462435344 22.7749
36.65096738658405 22.7309
36.67460498210655 22.6861
36.69806093788647 22.6872
36.72151848619297 22.5804
36.744977628333636 22.6522
36.76862165890998 22.5307
36.79208400512205 22.4678
36.81554794910557 22.4976
36.83901349217101 22.3994
36.862663978991606 22.2935
36.88613273667352 22.3753
36.90960309738324 22.3334
36.933075062434064 22.2559
36.95673202673572 22.2776
36.98020721697122 22.2311
37.003684015502365 22.1319
37.027162423645365 22.1499
37.050825886711465 22.1029
37.07430753063053 22.0338
37.09779078812467 21.958000000000002
37.121275660513014 21.9578
37.144945643673694 21.916
37.16843376245278 21.8857
37.19192350009803 21.9538
37.215414857931435 21.8522
37.239091382563885 21.7934
37.262585997426164 21.7854
37.28608223645736 21.7867
37.309763684451696 21.7953
37.33326318851098 21.6837
37.356764320726555 21.6849
37.380267082425526 21.6683
37.40395510942588 21.6442
37.42746114683234 21.5879
37.45096881771841 21.415
37.474478123414166 21.3733
37.49817275092816 21.4672
37.52168534303452 21.4135
37.54519957395567 21.2835
37.568715445024665 21.2808
37.592416694607714 21.3316
37.61593586281424 21.2955
37.63945667518264 21.3194
37.66297913304891 21.224
37.68668702630454 21.2204
37.710212792059274 21.145
37.733740207334854 21.116999999999997
37.757269273470364 21.0866
37.780983832050374 21.0272
37.80451621684926 20.9797
37.82805025654007 20.9558
37.851585952464795 20.9494
37.8753071980695 20.9038
37.89884622345676 20.8489
37.92238690911902 20.8087
37.94611318753442 20.7883
37.969657210779765 20.8096
37.99320289834801 20.7953
38.016750251586465 20.745
38.04048325513017 20.625999999999998
38.06403395679343 20.6842
38.087586328183946 20.6494
38.11114037065203 20.6394
38.13488012115898 20.6112
38.1584375229181 20.4788
38.181996599821 20.4009
38.205557353221124 20.4502
38.229303872575656 20.4701
38.2528679961576 20.3651
38.27643380031219 20.3638
38.30000128639589 20.2576
38.32375459653193 20.3269
38.34732546371299 20.2528
38.37089801690786 20.1016
38.39447225747609 20.1342
38.418232380377425 20.1521
38.441810012983396 20.1388
38.46538933705673 20.1344
38.488970353960084 20.0355
38.51273731166058 20.028
38.536321731567014 19.9953
38.55990784840681 19.9546
38.58367995004091 19.8893
38.60726947812959 19.8555
38.63086070726198 19.8695
38.654453638806274 19.8866
38.678232613930824 19.7998
38.70182896773327 19.7167
38.72542702806741 19.7473
38.7490267963045 19.7279
38.77281266709232 19.6982
38.79641586862214 19.6642
38.8200207821842 19.5935
38.843627409152944 19.6329
38.86742019782782 19.5487
38.891030269149255 19.5193
38.914642058016156 19.4618
38.938255565806124 19.4663
38.96205529464307 19.4084
38.98567225787121 19.3777
39.00929094417078 19.399
39.03291135492255 19.3904
39.05671804624804 19.2776
39.080341923549106 19.3037
39.103967529460334 19.3181
39.127594865365744 19.2303
39.15140854155791 19.2268
39.17503935514948 19.2158
39.19867190290282 19.202
39.22249083587951 19.1302
39.24612686969409 19.0486
39.269764641845306 19.1302
39.293404153722804 19.0432
39.317230110864074 18.9116
39.34087311998506 18.8717
39.36451787301696 18.8487
39.388164371352595 18.8356
39.41199737518003 18.8535
39.43564738196752 18.7463
39.45929913825317 18.7801
39.48295264543308 18.7502
39.506792718520884 18.7119
39.530449745387216 18.6889
39.55410852735203 18.6367
39.57776906581474 18.6901
39.60161623079 18.621
39.625280300200025 18.6083
39.64894613032202 18.5417
39.67261372255866 18.564
39.6964680021016 18.5798
39.72013913657293 18.4781
39.74381203738292 18.4648
39.76748670593756 18.3999
39.79134812278169 18.3375
39.81502634488497 18.3542
39.83870633896685 18.2972
39.862388106436654 18.2415
39.88625668336918 18.2649
39.90994201572829 18.2648
39.933629125719285 18.1937
39.957503091207826 18.1375
39.9811937746168 18.1466
40.00488623990914 18.1495
40.02858048850006 18.0904
40.05246165409549 18.053
40.076159487492085 17.9134
40.099859108448875 17.9858
40.123560518384345 18.0063
40.1474489070226 17.9583
40.171153913178564 17.9046
40.194860712584955 17.8568
40.2185693066637 17.8704
40.242464941335314 17.7457
40.26617714307655 17.7139
40.289891143772046 17.7887
40.3136069448471 17.7261
40.33750984859743 17.6863
40.3612292688043 17.706
40.3849504936829 17.6796
40.40867352466194 17.5952
40.43258372059144 17.6058
40.45631038219906 17.6212
40.48003885420956 17.5834
40.503769138055105 17.5123
40.52768664931955 17.5402
40.55142057531802 17.5034
40.57515631746428 17.4013
40.599079334038514 17.4284
40.62281872700477 17.3279
40.64655994043941 17.3713
40.67030297578061 17.3897
40.69423334835778 17.3194
40.71798004609188 17.3204
40.74172857006355 17.2286
40.76547892171441 17.2062
40.7894166736039 17.1534
40.813170699248566 17.1325
40.83692655691388 17.1111
40.86068424804498 17.1398
40.884629402612525 17.1143
40.908390779366385 17.0694
40.932153993938 17.0089
40.95591904777605 17.0339
40.979871628443995 16.9884
41.003640379561936 16.9666
41.02741097430883 16.9431
41.05118341413683 16.9148
41.075143444384416 16.831
41.098919593177826 16.9194
41.1226975914255 16.8481
41.14647744058318 16.7387
41.170444943946755 16.7686
41.19422851378379 16.6714
41.218013938914645 16.6293
41.24198706625173 16.6262
41.26577622087193 16.6006
41.289567235177785 16.6115
41.31336011063129 16.5731
41.337340752422875 16.5595
41.361137369129835 16.5423
41.38493585138705 16.514
41.40873620066004 16.4731
41.43272438060107 16.4202
41.45652848292052 16.3906
41.48033445666918 16.3721
41.50414230331616 16.372
41.528138045159764 16.3811
41.551949656675205 16.3196
41.575763145513235 16.3068
41.59957851314666 16.2861
41.62358184070442 16.1955
41.64740098505737 16.1674
41.6712220126409 16.1925
41.69504492493139 16.1266
41.71905586207357 16.1162
41.74288256296395 16.0724
41.766711153007456 16.1017
41.79054163368412 16.0391
41.814560204340054 16.0301
41.838394485526365 16.041
41.86223066180303 15.9396
41.88625497706819 15.901
41.910094962812 15.9009
41.93393684811168 15.8325
41.95778063445365 15.8218
41.981812625263366 15.8183
42.00566023303407 15.7957
42.029509746323676 15.738
42.05336116662236 15.7298
42.077400857069705 15.7209
42.10125611078846 15.7178
42.12511327600405 15.6288
42.14897235421036 15.6189
42.173019768448455 15.630999999999998
42.19688269209613 15.5865
42.22074753323349 15.599
42.24461429335818 15.5333
42.268669455600495 15.5102
42.292540073217886 15.4441
42.31641261433284 15.4602
42.34028708044675 15.4245
42.36435001496739 15.3631
42.38822835065557 15.3972
42.41210861586426 15.3853
42.4359908120986 15.3332
42.46006154323262 15.2721
42.48394762115317 15.2364
42.507835634632315 15.2639
42.531912233047436 15.1978
42.55580413732265 15.1733
42.579697981698 15.1903
42.60359376768525 15.137
42.62767820545945 15.0944
42.65157789440821 15.0681
42.67547952952185 15.0723
42.699383112316 15.0209
42.72347541395347 15.0087
42.74738291190531 14.9583
42.771292362102166 14.9638
42.795203766063516 14.9353
42.819303956130405 14.892999999999999
42.843219287476536 14.8777
42.86713657716324 14.8354
42.89105582671383 14.8056
42.91516392983864 14.8682
42.939087119032166 14.828
42.963012272677304 14.7728
42.98693939230129 14.7484
43.01105543317513 14.7219
43.034986504731386 14.7009
43.05891954686589 14.6564
43.08285456110972 14.6683
43.10697856448665 14.5729
43.130917542983475 14.5524
43.15485849820081 14.5641
43.17880143167367 14.5192
43.20293342237094 14.4967
43.226880332449 14.4494
43.25082922540554 14.4524
43.27496722682525 14.4489
43.29892010567796 14.4023
43.32287497204102 14.3827
43.34683182745632 14.2813
43.370977859791836 14.3076
43.39493871351105 14.296
43.41890156092628 14.3029
43.44286640358341 14.2625
43.46702049182749 14.2294
43.49098934522816 14.2094
43.51496019852649 14.1973
43.5389330532723 14.0879
43.56309522248204 14.1117
43.58707210044314 14.1492
43.61105098451946 14.0551
43.63503187626491 14.0343
43.659202151562134 14.0219
43.68318707902681 14.0282
43.70717401884041 13.9935
43.731162972560874 13.955
43.75534137913236 13.8896
43.779334381108384 13.9044
43.803329401683186 13.8911
43.82732644241872 13.929
43.8515130055166 13.8822
43.87551410707659 13.8058
43.89951723350145 13.7853
43.923709934595614 13.7329
43.94771713129917 13.7305
43.97172635758096 13.7537
43.99573761501002 13.7852
44.0199385169922 13.7279
44.04395385732619 13.687999999999999
44.067971233533086 13.6545
44.09199064718605 13.619000000000002
44.11619977548961 13.5787
44.14022328470671 13.5379
44.16424883610785 13.5934
44.18827643127035 13.524000000000001
44.21249381139513 13.5061
44.236525514814076 13.4932
44.26055926674478 13.4321
44.28459506876863 13.4074
44.3088207262813 13.3871
44.33286064928722 13.364
44.35690262714919 13.3557
44.38094666145278 13.3371
44.4051806219871 13.3323
44.42922879003185 13.2353
44.45327901929361 13.2392
44.477331311362136 13.2575
44.501573600619416 13.2184
44.525630039221795 13.2117
44.54968854541895 13.1794
44.573937102200176 13.1139
44.5979997645541 13.1475
44.622064499300315 13.1193
44.64613130803592 13.0582
44.67038823869318 13.0801
44.69445921643748 12.9836
44.718532272981385 12.954
44.742607409926194 12.9989
44.76687274034801 12.9804
44.79095205918753 12.9086
44.81503346325094 12.8747
44.839116954143876 12.8722
44.86339071028742 12.855
44.88747839599524 12.8737
44.91156817336837 12.8399
44.93566004401666 12.7946
44.959942251908146 12.7819
44.984038330325966 12.8311
45.00813650686762 12.7152
45.03223678314731 12.6889
45.05652746888232 12.6805
45.08063196592069 12.6709
45.104738567558705 12.6315
45.128847275414856 12.6255
45.15314646515866 12.5716
45.17725940679741 12.5539
45.20137445952892 12.545
45.22568004865265 12.5557
45.24979934496396 12.484000000000002
45.27392075725247 12.4936
45.29804428714431 12.425999999999998
45.322358426247604 12.4409
45.346486212804315 12.4082
45.370616121861914 12.3843
45.39474815505086 12.3888
45.41907087049246 12.3501
45.4432071734666 12.3826
45.46734560548283 12.2987
45.49148616817604 12.2822
45.51581748638564 12.2522
45.5399623320197 12.1827
45.56410931325473 12.1998
45.58825843173002 12.2397
45.61259837920865 12.1862
45.636751793816 12.1823
45.66090735060093 12.1037
45.68506505120716 12.1083
45.7094136545275 12.0438
45.73357566449271 12.0579
45.75773982322992 12.0529
45.78190613238733 12.0222
45.806263418194064 11.9596
45.83043404997326 11.9825
45.85460683713677 11.9547
45.87897065658495 11.9267
45.90314777634752 11.919
45.92732705646868 11.89
45.9515084986045 11.8356
45.97588104735473 11.8007
46.00006683541565 11.8578
46.02425479047904 11.8392
46.04844491420549 11.7974
46.0728262191024 11.7895
46.09702070211635 11.7553
46.12121735879483 11.7419
46.14541619080294 11.7409
46.169806278764455 11.675999999999998
46.194009483459034 11.6909
46.21821486849841 11.6509
46.24242243555223 11.609000000000002
46.266821333570014 11.6153
46.29103328674601 11.6009
46.31524742696538 11.6187
46.33946375590237 11.5587
46.36387149104216 11.5163
46.38809221957392 11.4794
46.41231514186606 11.4412
46.436540259597464 11.4417
46.460956858999374 11.4094
46.48518638983522 11.423
46.509418121166966 11.373
46.533652054678114 11.347999999999999
46.55807754555709 11.3379
46.58231590571962 11.3116
46.60655647313217 11.3295
46.630988654873654 11.2618
46.655233659129024 11.2427
46.67948087571551 11.2651
46.70373030632484 11.2357
46.72817142736393 11.1807
46.752425308428684 11.1713
46.77668140861147 11.1432
46.80093972960865 11.1033
46.82538981736788 11.134
46.849652602470904 11.0825
46.87391761349769 11.0825
46.8981848521493 11.0581
46.9226439341274 11.0364
46.946915650573224 11.0325
46.97118959976749 10.9899
46.99546578341598 10.9318
47.019933887188216 10.9534
47.04421456235744 10.940999999999999
47.06849747711879 10.9137
47.09278263318286 10.9048
47.11725978640143 10.8674
47.14154944775105 10.8445
47.165841355555656 10.8306
47.1901355115306 10.8061
47.214621741924994 10.8127
47.23892041698887 10.7738
47.26322134538975 10.7333
47.28771440635075 10.7468
47.31201986422527 10.7641
47.33632758061436 10.7146
47.360637557241866 10.6584
47.38513974410611 10.6577
47.40945426407847 10.6015
47.43377104948137 10.6062
47.45809010204344 10.6036
47.48260144275502 10.5878
47.506925052572285 10.5349
47.53125093475548 10.5618
47.55557909103813 10.5135
47.58009961361992 10.5019
47.60443234110732 10.5159
47.62876734791564 10.4809
47.65310463578333 10.4248
47.6776343683373 10.4239
47.7019762413987 10.3697
47.72632040075572 10.3902
47.75066684815169 10.3587
47.77520581885936 10.3416
47.799556865477655 10.3281
47.823910205386 10.3247
47.84826584033272 10.2804
47.87281407745551 10.2922
47.89717432569297 10.2621
47.92153687423484 10.2523
47.94609208429692 10.1836
47.97045925671401 10.2074
47.99482873471275 10.1945
48.01920052005013 10.1572
48.04376504619224 10.1062
48.068141469543484 10.1124
48.09252020552573 10.1116
48.11690125590099 10.0716
48.1414751266064 10.0755
48.16586082917454 10.0397
48.19024885144316 10.0361
48.2146391951793 10.0222
48.239222439012764 10.0102
48.26361744916137 9.96993
48.28801478610016 9.98128
48.31241445160131 9.95317
48.337007097209366 9.9284
48.36141144338331 9.88207
48.38581812345755 9.864889999999999
48.41022713920929 9.87812
48.434829215320704 9.88671
48.45924292604658 9.88419
48.48365897780325 9.86111
48.50807737237308 9.77651
48.532688907799276 9.78519
48.55711201168574 9.75346
48.581537463754074 9.74777
48.60615611725119 9.77245
48.63058628942721 9.740689999999999
48.65501881516546 9.701889999999999
48.6794536962573 9.67052
48.70408185970339 9.67221
48.72852147531801 9.65692
48.75296345168211 9.63448
48.77740779059232 9.61651
48.80204549302823 9.61174
48.82649458091802 9.60112
48.85094603676547 9.50831
48.87539986237231 9.52117
48.90004713292306 9.510589999999999
48.92450572200832 9.48462
48.94896668628025 9.46695
48.97343002754588 9.4699
48.99808689542115 9.4663
49.02255501470614 9.44399
49.04702551642794 9.42665
49.0714984023988 9.37878
49.096164896893235 9.3738
49.120642575466796 9.35731
49.145122643748394 9.30911
49.16960510355558 9.30127
49.19428125404938 9.31449
49.2187685210852 9.29841
49.243258185121555 9.30057
49.26794160167084 9.252469999999999
49.2924360839405 9.25859
49.31693296869764 9.22466
49.34143225776915 9.23415
49.36612538195438 9.212710000000001
49.39062950396021 9.15802
49.41513603578346 9.13768
49.4396449792564 9.10983
49.46434784069503 9.10938
49.488861631846454 9.10392
49.513377840166804 9.07661
49.537896467493745 9.089839999999999
49.56260909589029 9.03321
49.587132585683285 9.04294
49.611658500018365 8.99286
49.636186840738596 8.97225
49.66090926588511 9.006269999999999
49.685442483902584 8.957939999999999
49.70997813385706 8.91516
49.734516217597076 8.86166
49.75924846937352 8.912889999999999
49.7837914452858 8.87048
49.80833686055187 8.86864
49.83288471702571 8.8202
49.85762682540054 8.80937
49.882179588965734 8.780330000000001
49.9067347993235 8.78317
49.93129245833333 8.7792
49.95604445336378 8.78132
49.98060703442832 8.7262
50.005172069746266 8.75623
50.02993150438364 8.714739999999999
50.05450147301533 8.674660000000001
50.07907390151433 8.70986
50.10364879174981 8.66895
50.12841816587289 8.62994
50.1529980044635 8.60797
50.17758031042124 8.595369999999999
50.20216508562089 8.57549
50.22694442953363 8.54391
50.25153416817468 8.56818
50.27612638170508 8.546380000000001
50.300721072005196 8.494110000000001
50.325510416102105 8.51485
50.350110084975064 8.47357
50.37471223628208 8.48878
50.39931687190919 8.46227
50.424116246675766 8.42362
50.44872587605249 8.43265
50.47333799543065 8.42577
50.49795260670191 8.43747
50.52276204271512 8.4154
50.54738166295838 8.37451
50.57200378079314 8.38365
50.596628398116835 8.34347
50.62144792604559 8.32944
50.646077567609396 8.32427
50.670709714377715 8.29568
50.69553683636198 8.29065
50.72017401885922 8.25867
50.7448137122895 8.26019
50.76945591856022 8.244860000000001
50.79429318636823 8.20159
50.818940443716784 8.22096
50.84359021965163 8.17959
50.868242516085964 8.15847
50.893089960641895 8.18257
50.917747323549435 8.12776
50.94240721271973 8.094660000000001
50.96706963007175 8.096960000000001
50.99192728239342 8.0687
51.01659478166073 8.08661
51.04126481489051 8.06719
51.06593738400761 8.05144
51.090805275207074 8.01987
51.11548294172845 7.99499
51.14016314993547 8.00681
51.164845901758845 7.98867
51.18972406304274 7.95645
51.21441192780656 7.90096
51.23910234200271 7.90963
51.2637953075678 7.899369999999999
51.288683770237945 7.8663
51.31338186432707 7.88144
51.33808251561888 7.83789
51.362978729967345 7.850460000000001
51.387684521509755 7.85274
51.41239287610203 7.815360000000001
51.437103795691165 7.78075
51.46201036644977 7.7583
51.486726441956634 7.722989999999999
51.51144508832545 7.76125
51.536166307509156 7.7369699999999995
51.56108326624387 7.70648
51.58580965706056 7.6995
51.61053862657523 7.734030000000001
51.635270176746864 7.64098
51.66019755512065 7.69556
51.68493429268881 7.6349100000000005
51.70967361681515 7.62308
51.73441552946465 7.61233
51.759353359237934 7.57925
51.7841004750961 7.56848
51.80885018539685 7.57609
51.833602492111254 7.5403199999999995
51.8585508051424 7.533580000000001
51.883308330926425 7.4964
51.90806845906181 7.47646
51.932831191525715 7.45838
51.95779001977161 7.46662
51.98255798721516 7.435630000000001
52.00732856494335 7.43855
52.03229530577543 7.427860000000001
52.057071130455945 7.40833
52.081849571391054 7.38208
52.106630630568695 7.38733
52.13160794279417 7.325989999999999
52.15639426492067 7.319030000000001
52.18118321127822 7.32768
52.205974783860896 7.3068100000000005
52.23096269971011 7.27088
52.255759551287994 7.28828
52.280559035098186 7.25425
52.30536115314103 7.219930000000001
52.33035970494467 7.24805
52.35516711807904 7.1752
52.37997717147198 7.2126600000000005
52.40478986713005 7.1617
52.42979908731974 7.14248
52.454617094216 7.14721
52.47943774942214 7.1238399999999995
52.50426105495102 7.11848
52.529280976059844 7.1093
52.554109609024096 7.0895399999999995
52.57894089837482 7.091589999999999
52.60377484613117 7.060110000000001
52.62880550079408 7.0391699999999995
52.65364479223379 7.01824
52.67848674816189 7.04042
52.70352547971946 7.01655
52.72837279155837 6.981610000000001
52.753222773982785 6.93692
52.778075429022984 6.96497
52.80312495150885 6.97301
52.827982978797436 6.95925
52.85284368481815 6.943110000000001
52.87770707160767 6.882680000000001
52.90276741793998 6.873360000000001
52.92763619336701 6.88022
52.952507655698504 6.84088
52.977381806977576 6.865819999999999
53.00245301017842 6.84408
53.02733256653592 6.802639999999999
53.052214817996074 6.83332
53.077099766608484 6.8312
53.102181859804446 6.78885
53.127072229988265 6.78521
53.15196530349892 6.7789600000000005
53.17686108239249 6.72507
53.20195409881522 6.77265
53.22685531582556 6.69066
53.25175924441303 6.675680000000001
53.27666588664027 6.6811
53.30176985962693 6.639419999999999
53.3266819565689 6.6656699999999995
53.35159677336455 6.63848
53.376514312083096 6.64227
53.40162927507703 6.6172699999999995
53.42655228516116 6.58645
53.45147802340193 6.610930000000001
53.47660125628886 6.53656
53.50153247842639 6.56853
53.52646643496923 6.50136
53.55140312799818 6.53068
53.576537409691696 6.5281
53.60147960336152 6.47922
53.626424539786164 6.4745099999999995
53.65137222105307 6.46861
53.67651758529126 6.46574
53.70147078399681 6.44474
53.72642673383343 6.42206
53.75138543689533 6.39332
53.776541917524526 6.40612
53.801506154876755 6.37448
53.826473151763246 6.33113
53.851442910284916 6.32367
53.87661054126026 6.3342
53.9015858509782 6.3163599999999995
53.92656392866066 6.290780000000001
53.95154477641532 6.31842
53.976723591801296 6.31171
54.00171000771266 6.251869999999999
54.02669920004598 6.2321800000000005
54.051691170915745 6.22926
54.076881204886796 6.28033
54.101878760928514 6.23759
54.12687910187696 6.1931199999999995
54.152077577768296 6.2139
54.1770835166946 6.184819999999999
54.20209224691339 6.16445
54.22710377055121 6.14768
54.25231352511594 6.14844
54.27733066384342 6.08254
54.30235060239643 6.10537
54.32737334290836 6.062069999999999
54.35259441062629 6.02763
54.377622783395324 6.06262
54.40265396455061 6.0204
54.42768795623251 6.00638
54.45292037169559 5.9344
54.477960012857906 5.97584
54.50300247099511 5.96742
54.52804774825457 5.96243
54.55329154616743 5.8808
54.57834249018678 5.8960300000000005
54.6033962597977 5.89634
54.6284528571545 5.87134
54.653708072335164 5.8014
54.67877035378786 5.82822
54.70383546947698 5.78205
54.72890342156389 5.77453
54.7541700889442 5.75789
54.77924374251975 5.7927599999999995
54.8043202390049 5.7218800000000005
54.82959552413022 5.647869999999999
54.8546777351945 5.66476
54.87976279569621 5.65554
54.90485070780914 5.68264
54.930137506558005 5.6384300000000005
54.95523115074295 5.6552
54.98032765308844 5.59368
55.005427015775496 5.6228
55.03072536339621 5.57854
55.05583047570572 5.50033
55.080938454927676 5.48353
55.10604930325027 5.47238
55.131359235107396 5.44214
55.15647585066083 5.44877
55.181595341907496 5.4417599999999995
55.20671771104285 5.4
55.232039262617704 5.31706
55.25716741665048 5.34839
55.28229845518636 5.31679
55.30743238042802 5.2983199999999995
55.33276558731939 5.2504
55.357905315183636 5.2416
55.383047936390035 5.17036
55.40819345314859 5.20629
55.433538351073295 5.19902
55.458689688238415 5.20046
55.483843927614096 5.11477
55.509197623043605 5.13002
55.53435769621134 5.13628
55.55952067826466 5.0304199999999994
55.5846865714265 5.01203
55.61005202069737 4.9881400000000005
55.63522376553902 5.01673
55.66039842818645 4.94304
55.68557601087004 4.97576
55.7109532500271 4.88485
55.73613670233794 4.93935
