TT I
1.2716486653135266 8.956560000000001
1.2939594142134223 8.585930000000001
1.3162702121660406 7.745089999999999
1.3385810600174564 7.624219999999999
1.3608919586137629 7.73997
1.383202908801069 6.96875
1.405513911425503 7.187989999999999
1.4278249673332093 6.687710000000001
1.4501343378461518 6.83122
1.4724455028545926 6.61453
1.4947567236847858 7.046460000000001
1.517068001182951 7.15999
1.5393793361953272 6.73182
1.5616907295681737 6.43195
1.5840021821477681 6.3956
1.60631369478041 6.11501
1.6286252683124185 6.00453
1.6509369035901333 6.434159999999999
1.6732468618895553 5.8187
1.695558623192809 5.74852
1.7178704487808514 5.84698
1.7401823395001077 6.05653
1.7625012545597203 5.52672
1.7848028405262486 5.25237
1.8071218901122095 5.56671
1.8294236121921872 5.33606
1.8517427996910911 5.7905
1.8740620574440425 5.87694
1.8963639900671978 5.57217
1.9186833908139995 6.00122
1.9409854680117449 5.4111400000000005
1.9633050151394713 5.34713
1.9856246367570705 5.19373
2.0079269371922672 5.57022
2.03024671027244 5.4707300000000005
2.0525491637446027 4.8096
2.074869091674931 4.75695
2.097171701569106 4.79748
2.1194917877373847 5.02215
2.141811954326636 4.93396
2.164114805233074 5.08587
2.186435135143035 4.60184
2.208738150935709 5.34218
2.231058647554722 4.55532
2.2533792288321184 4.36165
2.275682498336085 4.74337
2.298003251406138 4.99849
2.3203066942619714 5.32247
2.3426276225136022 4.26156
2.3649486396617507 4.23945
2.387252348930071 4.06393
2.4095735463442893 4.0816
2.4318774374315884 4.13631
2.4541988185014043 3.7536199999999997
2.476502894794693 4.33101
2.498824462909887 4.0782099999999994
2.521146125856138 3.8962199999999996
2.5434504863470337 4.687130000000001
2.5657723414244717 4.66938
2.588076895590662 4.2649300000000006
2.610398946189713 4.47
2.6327210958598384 4.71256
2.6550259469304716 4.7044
2.6773482972090137 4.50429
2.6996533504259 4.779780000000001
2.7219759047039602 5.35542
2.744298562293959 5.20754
2.7666039251246595 5.507569999999999
2.7889267918020164 6.0301800000000005
2.8112323652516555 6.06295
2.833555444408179 6.80306
2.8558786311183852 7.32994
2.8781845268938557 7.4038699999999995
2.9005079311721484 7.6305
2.9228140460410397 7.95021
2.9451376712799635 8.78606
2.967444008632326 8.91192
2.9897678582247247 9.59142
3.0120918213106695 10.1943
3.0343984987899373 10.4078
3.0567226913198637 10.8916
3.079029599759726 11.8687
3.101354025127254 11.9032
3.123678568232338 12.5247
3.145985829517914 12.612
3.16831061055229 13.4861
3.1906181112775593 13.5481
3.212943133635653 14.4056
3.2352682779763207 14.8712
3.2575761442691227 15.4973
3.2799015350264273 16.05
3.302209649240067 16.4468
3.3245352898092655 16.3928
3.3468436553365257 16.8162
3.369169549113219 17.6331
3.3914955708171384 18.0499
3.413804319727358 18.3881
3.4361305997334863 18.3624
3.4584396084414553 18.8161
3.4807661501462652 19.4273
3.503092824025881 20.1286
3.5254022288463154 20.3361
3.5477291695206588 20.6847
3.5700388426251948 20.8066
3.5923660534916446 21.7012
3.6146934007816114 21.8706
3.637003482731501 22.4156
3.6593311053109985 22.3623
3.681641464033634 22.6769
3.7039693653009733 23.0856
3.726297407241705 23.831
3.7486081875460804 23.7349
3.7709365132734978 24.4929
3.793247578841633 25.4014
3.8155761917550093 25.3944
3.8378875459837216 25.2662
3.8602164494827234 25.8626
3.882545499606844 26.5307
3.9048572932539183 27.5217
3.9271866390645718 27.7749
3.9494987298666713 28.1285
3.971828374764527 28.5904
3.9941581705403255 29.045
4.016470713506008 29.6158
4.038800813471445 30.2189
4.061113662089144 30.8
4.0834440696459176 31.0147
4.105774632334751 31.6129
4.128087945865126 31.8705
4.150418821249301 32.6392
4.172732448931298 33.7536
4.195063640413578 34.0597
4.2173775856475215 34.657
4.239709096631102 35.2548
4.262040768704612 35.9416
4.284355196706267 36.6119
4.306687193387355 37.2606
4.329001947444346 38.8547
4.35133427213731 39.6126
4.373666762177566 39.7213
4.395982011761091 40.486
4.418314834921175 41.5996
4.44063041906622 42.5757
4.4629635787515625 43.2596
4.4852969080429785 44.1806
4.5076130004776225 45.5083
4.529946671403969 46.9406
4.552263106909177 46.9672
4.574597122877047 48.5679
4.596931312711224 50.5355
4.619248269273446 51.4945
4.6415828092605835 51.9086
4.663900117405352 53.128
4.686235010953232 54.8468
4.708552674085913 55.9678
4.730887924602802 57.7597
4.753223354952695 58.8556
4.775541557023902 60.1098
4.797877349456786 62.3405
4.820195915032126 64.6638
4.842532072957498 66.2214
4.864868414979744 68.197
4.88718753227192 70.4191
4.909524244902505 73.1161
4.931843734218147 76.0452
4.954180820867835 79.7851
4.976518095879839 83.8691
4.998838149695359 88.2772
5.021175803844231 93.9438
5.043496238205739 99.4309
5.065834274903528 106.14299999999999
5.088172504230693 114.64399999999999
5.1104935158799565 126.054
5.132832132875765 143.821
5.155153533596801 174.37400000000002
5.1774925416746225 248.93
5.199814334878411 680.8610000000001
5.2221537374521505 2225.54
5.244493338631803 3792.43
5.266815727034316 4512.69
5.289155727832427 6479.44
5.311478517248165 9017.74
5.333818921080011 7206.04
5.356159527788849 2730.69
5.3784829252032536 703.497
5.400823940070432 283.809
5.423147747031976 193.679
5.445489173474152 158.167
5.467830807066149 139.959
5.490155234831516 128.819
5.512497285125229 120.568
5.534822130975162 116.46600000000001
5.557164601388673 112.288
5.579489868738879 108.324
5.601832762690846 105.374
5.6241758697774475 102.68
5.646501775867269 102.01899999999999
5.668845311622074 100.89200000000001
5.691171647754637 100.147
5.713515615597765 98.5485
5.735859800852677 97.4682
5.758186788542988 96.8949
5.780531411018185 97.8349
5.802858837297399 98.2847
5.825203900414495 98.8998
5.8475491852224 100.33
5.869877275883075 103.441
5.892223006467101 107.51
5.914551544266608 112.68
5.936897724049891 121.93
5.959244129804903 138.291
5.981573344815301 180.00799999999998
6.0039202049061 344.55
6.026249875609095 851.825
6.04859719346037 1443.22
6.070927323278297 1730.13
6.093275102315365 2115.96
6.115623113320588 3082.43
6.137953938319995 3840.62
6.160302415650845 2554.4
6.182633708324452 939.875
6.2049826554078376 299.664
6.227331838745022 150.472
6.249663839443684 112.87799999999999
6.27201349767565 96.4897
6.294345974611799 88.2048
6.316696111167083 81.8289
6.339046488263839 77.6599
6.361379686074702 74.1882
6.383730546639482 71.5821
6.406064229255215 69.2088
6.428415576718203 68.2409
6.450749747566656 66.6152
6.47310158535871 65.2081
6.495453669698332 64.4108
6.517788579421056 63.5034
6.540141159237969 62.3054
6.562476565766648 61.2667
6.5848296444934045 60.6154
6.607182974060425 59.7979
6.6295191323281015 59.0942
6.651872965955752 58.2738
6.6742096296068985 57.7673
6.6965639707294615 57.5454
6.71891856698715 56.8897
6.741255995248479 56.3921
6.763611104154477 55.943999999999996
6.785949046381137 55.6179
6.808304671371482 54.6111
6.8306605557940046 54.5985
6.852999275508618 53.8571
6.875355681171544 53.7494
6.897694923437771 54.06100000000001
6.92005185377892 53.6391
6.9423916220322655 53.3129
6.964749080490181 52.7093
6.987106804399774 52.5796
7.009447368180821 52.7496
7.031805625367033 52.096000000000004
7.054146723727803 52.1432
7.076505517631004 52.0853
7.098864581288365 52.4686
7.121206488070854 51.6754
7.143566093607822 51.1985
7.165908543567245 51.7647
7.188268694426048 51.6748
7.2106291193438095 51.251000000000005
7.232972390625943 51.0873
7.255333366030969 51.1517
7.277677189091925 50.8633
7.300038718428332 51.0281
7.322400526130865 51.0136
7.344745183422596 51.2424
7.367107550224791 51.3198
7.389452767901992 51.5525
7.411815697249891 51.7631
7.434161478756298 51.0534
7.456524974096713 51.317
7.478888753837185 51.497
7.501235387657368 53.4526
7.523599738562711 59.4254
7.545946944825532 71.7841
7.568311870344528 77.9726
7.5906770845765665 70.0941
7.613025156078678 59.2519
7.635390950099687 54.8302
7.657739602662809 52.7264
7.680105979923558 52.9385
7.702472650212829 53.0821
7.724822180948224 53.3895
7.747189439655568 53.1817
7.769539560075357 53.5919
7.791907410653562 54.093
7.81425812420825 53.808
7.836626570110925 54.4104
7.858995315087906 55.1276
7.881346924933401 55.1359
7.903716270417482 55.8579
7.926068482028405 56.3814
7.948438431475253 56.9875
7.9708086843180235 57.5323
7.993161805171116 57.9722
8.015532667162402 58.4479
8.037886398416653 59.4233
8.060257873014221 59.8884
8.082629655331942 60.376999999999995
8.104984308787587 61.1433
8.127356708900503 61.9618
8.149711981398308 62.868
8.172085002766314 63.6532
8.194458336181368 64.6272
8.216814543847752 65.6058
8.23918850371002 66.8778
8.26154533906492 68.3697
8.283919928836452 69.9867
8.306277395339652 71.3114
8.328652618483376 73.0476
8.351028159736202 75.2722
8.373386579575245 78.6271
8.395762759396959 80.4382
8.418121819038275 84.0976
8.440498640894003 89.809
8.462875785192262 98.6429
8.485235811156207 117.552
8.507613602688501 191.463
8.529974277114228 407.404
8.552352719347912 655.284
8.574731488360351 772.207
8.59709314210385 747.576
8.619472567021075 821.0039999999999
8.64183487789147 1131.77
8.664214962183097 1633.53
8.686577933647762 1755.49
8.708958680784317 1194.65
8.731339760774953 571.523
8.753703729764451 227.398
8.77608547780821 130.947
8.798450116065078 110.30799999999999
8.820832535634787 101.374
8.843215292401656 95.8297
8.865580941199045 92.5903
8.887964374703538 90.0817
8.910330701447199 88.1257
8.932714815164482 86.4866
8.955099270424924 84.9575
8.977466620733543 84.2491
8.999851761421976 83.6619
9.022219798361645 83.0219
9.04460562795561 82.7338
9.066991803441677 82.2712
9.089360876979615 81.8958
9.111747746589993 81.4358
9.13411751544971 80.8632
9.156505082664324 80.9673
9.178875550323522 81.6917
9.20126381862328 83.3342
9.223652438908596 93.3292
9.246023961427412 112.491
9.26841328802173 121.209
9.290785518039224 111.874
9.313175554425882 96.4321
9.335565947154315 85.8368
9.357939245086508 82.6237
9.380330352834827 81.7458
9.40270436697103 81.475
9.425096193225055 81.0052
9.447488380180165 82.0914
9.469863475295412 82.0086
9.492256385987508 82.7186
9.514632206018318 83.2696
9.537025843935714 83.4058
9.559402392368193 84.1256
9.581796761000229 85.4383
9.604191496441521 85.2922
9.626569144158516 85.9237
9.648964615551032 86.5824
9.671343000390081 87.3314
9.693739211225699 88.7723
9.716135793237463 89.7271
9.738515290448102 90.5573
9.760912617143402 92.3174
9.783292860202891 93.5337
9.805690935076182 94.939
9.828089385495742 96.0593
9.850470754023561 98.516
9.872869957865444 101.4
9.89525208097539 104.556
9.917652041736662 108.868
9.940052382417589 116.74
9.962435644102392 137.283
9.984836746950979 201.928
10.007220771957746 378.26099999999997
10.029622640473708 595.0419999999999
10.052007432299963 695.14
10.074410069984072 666.834
10.096813093716005 647.138
10.119199042482517 753.909
10.141602840636468 1047.96
10.163989564971628 1445.73
10.186394141051062 1626.17
10.208799107559706 1209.23
10.231187001965623 656.465
10.253592751657669 282.172
10.275981430388155 152.766
10.298387966769793 123.162
10.320794897965431 115.015
10.343184759907361 110.26299999999999
10.36559248305461 106.883
10.387983138083852 105.40899999999999
10.410391656691655 108.295
10.432800574501677 125.228
10.455192425893369 173.308
10.47760214443012 228.203
10.499994797678786 254.87599999999998
10.522405320453982 243.3
10.54479877906917 234.149
10.567210109595656 256.358
10.5896218454736 320.562
10.612016518879773 429.01300000000003
10.634429067781074 497.733
10.656824555333241 434.649
10.679237920773568 290.161
10.701651695961992 164.957
10.724048411481384 113.23899999999999
10.746463008485165 95.6427
10.768860546937125 87.9887
10.791275969274796 83.9364
10.81369180576079 81.6282
10.836090585366925 79.8361
10.858507252467449 78.2787
10.88090686379991 77.1661
10.903324365036394 76.0792
10.925724811614439 74.7016
10.948143150509463 74.7164
10.970561909719066 73.6562
10.992963615930844 72.5431
11.015383218085756 71.9472
11.037785768347074 70.9293
11.06020621697282 70.2983
11.082627090322113 69.9112
11.105030913430326 69.3195
11.12745263854165 68.7532
11.149857314510728 67.8044
11.172279894912576 67.707
11.194702904450653 66.6904
11.217108866490921 66.0078
11.239532736615194 65.6992
11.26193956033512 65.4724
11.284364294577085 65.1369
11.306789462371718 64.5713
11.329197585398376 64.388
11.351623622610898 64.296
11.37403261614354 63.5192
11.396459526308487 63.3263
11.418869393879497 63.0623
11.441297180532617 63.0229
11.463725406927658 62.4218
11.486136592353875 62.0561
11.508565700543707 61.7447
11.530977768845315 61.8764
11.553407762368774 61.2661
11.575838200059769 61.2065
11.598251599479612 61.0775
11.620682927815501 61.0752
11.64309721895548 61.0847
11.665529441478206 60.6731
11.687962112597958 60.5928
11.710377748130886 60.4226
11.732811318753434 60.4641
11.755227854859067 60.4625
11.777662328529495 60.5284
11.800079768750786 60.4138
11.822515149015453 60.4151
11.844950984084935 60.708
11.867369787303163 60.3444
11.889806534289491 60.86
11.912226250487029 62.5521
11.934663912939751 66.3369
11.9571020346363 70.38600000000001
11.979523127133968 70.7742
12.001962169624331 69.85300000000001
12.024384183972964 67.7439
12.046824150809913 69.3638
12.069264581333726 79.4279
12.091687985297767 93.4037
12.11412934550045 103.977
12.136553680195208 106.65799999999999
12.158995973632788 104.235
12.181438735204349 102.729
12.20386447284199 108.586
12.226308172985636 123.71600000000001
12.24873485024193 150.106
12.271179492516982 179.175
12.293607112949127 186.22099999999998
12.316052700916226 158.13
12.338498763250042 113.76
12.360927805303868 81.5623
12.383374818673879 68.5913
12.405804812803074 64.2997
12.428252780773262 62.9487
12.45070122756722 62.7551
12.473132656675375 62.3703
12.49558206341869 62.3138
12.518014453510101 61.9461
12.540464823770117 62.2017
12.562915677315177 62.089
12.58534951575545 62.591
12.607801338171472 62.1663
12.630236146511358 62.6225
12.652688941369085 63.2518
12.675124723177234 63.4857
12.697578494048786 63.9768
12.720032754458185 64.0351
12.742470003354093 64.2451
12.764925245138771 65.0901
12.787363476431278 65.4546
12.809819703166806 65.7545
12.83227642391173 66.6089
12.854716135692716 67.3226
12.877173846755147 68.2567
12.899614549869717 68.5057
12.9220732548287 69.2932
12.94453245827299 69.9423
12.966974655289818 70.9879
12.989434858002571 71.9794
13.011878055298721 72.7172
13.034339260862497 73.8311
13.056800969391883 75.6261
13.079245674017244 78.9351
13.101708390774869 81.734
13.12415410463411 87.9991
13.146617833206086 106.12
13.169064559883248 139.589
13.191529303857127 173.64
13.213994557076367 194.468
13.236442809902437 193.301
13.258909083908291 182.46099999999998
13.28135835851934 180.325
13.30382565690295 193.838
13.326293469022952 227.128
13.348744283242008 284.56
13.371213125129904 355.836
13.39366497011003 391.435
13.416134845360597 351.723
13.438605238843131 257.94
13.46105863690397 171.713
13.483530069144786 132.597
13.505984506951902 137.88
13.528456981549432 163.80700000000002
13.550929978879088 181.582
13.573385983253365 183.90200000000002
13.595860028340867 173.40900000000002
13.618317081455832 166.15599999999998
13.64079217790333 170.301
13.663250283359057 188.18200000000002
13.685726434770173 223.74599999999998
13.708203115221277 281.673
13.730662806148091 332.661
13.75314054697177 331.662
13.775601299246777 274.151
13.798080104050406 187.35299999999998
13.820559442405358 120.912
13.843021793671388 92.5725
13.865502201420897 83.0532
13.887965623051947 80.4907
13.910447103807167 78.8516
13.932929122629764 76.86399999999999
13.955394156785959 76.1995
13.977877254034569 75.3326
14.000343367582113 74.5639
14.022827546871707 73.6541
14.045294743423524 72.7841
14.06778000837062 71.9824
14.090265817715476 72.0003
14.112734645763819 72.7379
14.13522154619454 74.945
14.157691466286913 76.9462
14.180179461423874 77.3203
14.202668005486178 75.71
14.22513957064374 73.0772
14.247629214846473 70.6832
14.270101881097517 69.2596
14.29259262906496 68.6539
14.315083930490205 68.2268
14.337558255389705 68.0241
14.360050666019726 67.9332
14.382526101071944 67.6927
14.405019624534942 67.2428
14.427513705993134 67.0562
14.449990813291825 67.1425
14.47248601302899 66.9694
14.49496423954951 67.3055
14.517460561197822 67.3039
14.539939910570322 67.0114
14.562437357763558 67.2151
14.58493536931253 67.4322
14.607416409993311 67.4073
14.62991555254159 67.5661
14.652397725157423 67.9207
14.674898002342799 68.2831
14.697398848433282 68.7308
14.719882725991326 69.6056
14.74238471217934 70.5129
14.764869730765593 74.0776
14.787372860692983 81.1648
14.809876564079925 95.6864
14.83236330125751 110.572
14.854868153850365 119.56
14.877356041159485 120.15100000000001
14.899862046604186 115.708
14.922351087688757 112.359
14.944858249632887 114.117
14.967365991421232 122.241
14.989856770231246 136.40200000000002
15.012365673994204 161.53
15.03485761569738 190.93599999999998
15.05736768508665 206.174
15.07987833888692 196.49
15.102372032001655 162.02700000000002
15.124883856909658 118.213
15.14737872204565 89.3218
15.169891721717274 76.219
15.192405310371893 71.7225
15.214901940621196 69.6871
15.237416709527137 68.4058
15.259914520936249 67.8719
15.282430473753607 66.9319
15.304947020131227 66.2949
15.327446610371178 65.865
15.349964346154254 65.6089
15.372465126703139 65.4381
15.394984055556009 65.0337
15.417486030076159 65.1554
15.44000615566487 64.8463
15.462526881230803 64.5937
15.485030653812652 64.5713
15.507552581617434 64.2741
15.530057557334603 64.3033
15.55258069104857 64.4955
15.575104429329837 64.7879
15.597611216864632 64.722
15.620136166564563 65.0108
15.6426441664095 65.7674
15.665170331202765 68.2209
15.687697105158826 73.9813
15.710206930593545 85.8198
15.732734925158933 98.04799999999999
15.755245972089478 105.984
15.77777519094324 108.021
15.800287463046663 104.985
15.822817909869592 100.59200000000001
15.84534897229804 99.5714
15.867863089299354 104.194
15.890395385222186 112.60799999999999
15.912910736597423 127.165
15.935444269699861 150.785
15.957978423016485 173.984
15.980495633101265 182.55900000000003
16.003031029129367 170.15900000000002
16.02554948280019 136.123
16.048086125229432 102.165
16.070623392487107 80.2952
16.09314371869582 69.4112
16.11568223789321 64.4519
16.13820381691126 62.2343
16.160743591742527 60.9912
16.183283996022084 60.0084
16.205807461423195 58.7039
16.228349126881973 58.153
16.25087385432698 57.8165
16.27341678466365 57.1185
16.29594277784926 56.8847
16.31848697676433 56.4016
16.341031811604868 55.835
16.36355971058487 55.6601
16.3861058195587 55.4599
16.40863499352978 55.2654
16.431182380342005 54.7705
16.453730407713202 54.4657
16.476261501364792 54.2533
16.498810812136167 54.1334
16.52134319004079 54.2741
16.54389378792203 53.9267
16.566445031001553 53.6678
16.588979342490088 53.7442
16.61153187824822 53.5301
16.634067483263312 53.4613
16.656621315414416 53.2587
16.679175797408888 53.0722
16.701713349928728 53.141999999999996
16.72426913389191 53.3485
16.74680798922351 53.2038
16.76936507887444 53.1525
16.791905240734874 53.1787
16.814463639794468 52.9861
16.837022695210294 53.1011
16.859564824093756 53.1545
16.882125194503903 53.4111
16.904668639217885 53.853
16.927230328348003 54.1618
16.949792678493612 54.7168
16.972338104193863 54.5834
16.994901778652235 54.43
17.017448529496576 54.4236
17.040013531998152 54.5921
17.06257920018044 54.9038
17.0851279459922 56.129
17.107694947817667 58.3158
17.130245028099072 60.6405
17.15281336730298 62.7592
17.17536478578733 63.7284
17.19793446610687 63.5194
17.220504818648422 62.9649
17.243058251703697 62.3862
17.265629950971032 62.9399
17.288184731571736 63.9237
17.310757781306908 66.4602
17.33333150794385 69.3562
17.355888317140174 73.3164
17.37846339986244 78.2688
17.401021565958885 80.735
17.42359800851343 79.4475
17.44617513265564 74.4568
17.468735341390783 68.1012
17.491261035594565 62.4165
17.51396340099364 59.3397
17.536490463869136 58.3954
17.559018209820174 58.0324
17.58154663977963 57.9662
17.604251766089718 58.0734
17.626781572227713 58.1071
17.64931206518155 58.2498
17.671843245885103 58.7056
17.69455114821572 58.9745
17.717083712612634 59.2877
17.739616967569667 59.922
17.762150914021706 60.8636
17.78486160749854 60.9847
17.807396945166804 61.5846
17.829932977143503 62.1482
17.85246970436452 63.1657
17.875183204129467 66.2366
17.897721330097664 72.1418
17.920260154126645 79.2033
17.942799677153296 85.35799999999999
17.9655159983646 87.8586
17.988056927677544 87.4289
18.010598558807683 85.4632
18.033140892692916 84.0212
18.05586005052525 83.86200000000001
18.07840379824407 86.1335
18.10094825154059 90.9627
18.12366954819864 98.7229
18.146215420998306 111.70700000000001
18.16876200220057 128.616
18.191309292745153 143.678
18.214033452627167 148.898
18.236582170236648 140.111
18.259131600016456 121.28
18.281681742907335 101.111
18.304408781233683 87.4549
18.32696035875955 81.2128
18.349512652227624 79.6479
18.372065662579683 81.7149
18.394795594587553 85.4406
18.41735004715306 91.6656
18.43990521943684 98.2295
18.46246111238171 102.206
18.485193953325208 99.9171
18.507751296070428 91.9677
18.530309362314178 81.9241
18.552868153000343 72.609
18.57560391815056 66.2597
18.59816416623245 63.3757
18.620725141597372 61.9173
18.643286845190268 60.8673
18.666025549835414 60.2661
18.688588718427933 59.2965
18.711152618092243 58.9691
18.73389353884365 58.8075
18.75645890921984 58.3857
18.77902501351406 58.0843
18.801591852673102 57.9778
18.824335739722738 57.3652
18.846904057212626 57.1791
18.8694731124168 57.0492
18.89204290628315 56.8455
18.914789774966803 56.5628
18.937361054791623 56.3038
18.959933076131318 56.1302
18.982505839934877 55.9756
19.00525570560582 55.9849
19.027829963004184 55.7823
19.05040496572238 55.7236
19.072980714710468 55.8837
19.095733592739563 55.9912
19.11831084296757 56.4418
19.140888842324735 57.7263
19.16346759176222 59.1458
19.18622349753803 60.3322
19.208803755869358 61.5624
19.231384767143577 61.7479
19.253966532312948 61.0362
19.276725481241822 60.6429
19.29930876296784 60.6886
19.3218928014549 61.06399999999999
19.34465404436217 61.7039
19.36723960516257 63.0152
19.389825925592426 64.5918
19.412413006605938 66.7015
19.43517731967805 70.0223
19.457765930683355 72.626
19.48035530514408 73.1499
19.50294544401556 70.7939
19.525712842708348 66.4805
19.54830451925909 61.6257
19.570896963095727 57.1427
19.593490175174704 54.6024
19.616260674962184 53.626000000000005
19.638855432416964 53.1039
19.661450960992624 53.0113
19.68404726164677 52.8024
19.706820878021247 52.5591
19.729418731756834 52.8068
19.752017360452857 52.5335
19.77461676506804 52.6336
19.797393513540218 52.5996
19.819994478951667 52.9195
19.84259622316767 53.9375
19.8651987471481 55.4893
19.887978643247177 56.4223
19.91058273574792 57.2283
19.933187610901943 57.6765
19.955969879466828 57.5469
19.97857632894404 57.0621
20.00118356396599 56.5695
20.023791585494575 56.4676
20.046577028914875 57.2171
20.069186632506966 58.4351
20.091797025500632 60.7156
20.114408208858933 63.3039
20.137196842715273 66.2227
20.159809615886765 69.3659
20.18242318232135 71.0391
20.20503754298326 71.3457
20.227829382875154 69.3542
20.250445341109344 66.1769
20.27306209647285 62.523
20.29567964993108 59.4043
20.31847471147704 57.9024
20.34109387027612 58.17
20.363713830075454 59.3615
20.386334591841646 61.2942
20.409132890679302 63.2543
20.431755265564437 64.3046
20.454378445325528 63.2261
20.477002430930366 60.938
20.499803982716553 57.5472
20.522429589228004 54.0943
20.54505600449589 51.5647
20.567683229489194 50.5474
20.590488049900088 49.9513
20.61311690359731 49.4052
20.63574656993626 49.273
20.658553853717297 48.8808
20.681185154618298 48.8153
20.703817271080066 48.7113
20.72645020407368 48.4797
20.749260783967177 48.4552
20.771895359337133 48.5403
20.794530754161617 48.6253
20.817166969412938 48.535
20.83998086114876 48.5109
20.86261872660049 48.2135
20.885257415405402 48.1879
20.90789692853701 48.0603
20.930714147864748 48.0059
20.953355319030678 47.8817
20.97599731745334 48.2016
20.99864014410749 47.9961
21.021460706796564 48.3002
21.044105199328826 48.626999999999995
21.06675052302631 48.687
21.089396678865015 48.6204
21.112220600704806 48.58
21.134868430275347 48.5516
21.15751709492456 48.2665
21.180166595629693 48.111999999999995
21.202993892429635 48.3056
21.22564507473034 48.5089
21.24829709602816 48.7667
21.27112693608965 49.2226
21.293780644891275 49.7491
21.316435195634053 50.2885
21.339090589297417 50.3847
21.361923832041875 50.724
21.384580921090404 50.2582
21.407238856007325 49.3877
21.429897637773326 48.851000000000006
21.45273429906592 48.3058
21.475394784108598 47.9994
21.498056118951983 47.8814
21.520718304578022 47.913999999999994
21.543558400304388 48.0732
21.566222297108816 48.1439
21.58888704765135 48.1722
21.61155265291521 48.7351
21.63439619898156 49.7276
21.657063523335786 50.6947
21.67973170537063 51.9694
21.7024007460706 52.5725
21.72524775840385 53.1766
21.747918526116475 53.2287
21.770590155457388 53.0824
21.79326264741238 52.6672
21.816113141960237 52.588
21.838787368860547 53.0701
21.861462461341976 53.9717
21.884315579735777 55.4361
21.90699241312273 56.6918
21.92967011506078 58.2146
21.95234868653799 60.2001
21.9752053151131 62.4099
21.997885635446785 64.4263
22.020566828293532 65.1561
22.04324889464272 64.2462
22.066109049404666 61.8249
22.088792872571794 58.7205
22.111477572219204 55.8355
22.1341631493376 54.4148
22.157026846313123 53.852
22.179714188221507 54.3807
22.202402410582668 55.2816
22.22509151438863 55.516000000000005
22.24795876962584 55.1887
22.270649646204486 54.3529
22.293341407213727 52.9499
22.316034053646906 51.1712
22.338904883215342 49.8876
22.36159931041458 49.1118
22.38429462602756 48.5591
22.40699083104897 48.258
22.429865251039757 48.0653
22.452563244831367 48.0567
22.47526213102522 47.9902
22.49813925616515 48.0413
22.520839937143307 47.87
22.543541513520587 48.00899999999999
22.56624398629403 48.0072
22.589124730075895 47.7936
22.611829005656723 48.0205
22.63453418063466 48.1735
22.657240256008077 48.2117
22.680124634582935 48.7645
22.70283252079775 49.6637
22.725541310413075 50.3419
22.74825100442868 50.9149
22.771139033969575 51.3996
22.79385054687155 51.2797
22.81656296718292 50.9215
22.83927629590484 50.8735
22.862167992606945 50.653999999999996
22.88488314827121 50.7314
22.907599215359284 50.7677
22.93031619487366 51.0623
22.953211574954405 51.4137
22.975930389478226 52.2634
22.998650119445763 53.176
23.02137076586092 54.2544
23.044269845560063 55.9326
23.06699233506288 57.1505
23.089715744034912 57.5059
23.112617610931565 56.8538
23.135342869061212 55.2678
23.158069049684816 53.2306
23.1807961538087 50.9591
23.20370174880544 49.6041
23.226430710184808 48.8622
23.249160598093425 48.6018
23.271891413539002 48.7254
23.294800752937697 49.1193
23.31753343374794 50.0753
23.340267045128353 50.3925
23.36300158808808 50.9919
23.38591468821339 51.208
23.408651104658304 51.2712
23.431388455719986 50.9246
23.454126742409 50.4649
23.4770436196085 50.2951
23.499783787914662 50.3163
23.522524894889884 50.24100000000001
23.54526694154616 50.2143
23.56818761219047 50.7627
23.59093154860734 51.4922
23.613676427751283 52.5989
23.636422250635754 53.8156
23.659346731118656 55.2173
23.68209445191868 56.5005
23.704843119509587 57.1285
23.72759273490623 56.5617
23.750521041644767 54.6969
23.77327256312355 52.2678
23.796025035462787 49.8791
23.818956224555475 47.6852
23.841710609113413 46.6642
23.86446594758979 45.9707
23.887222241002014 45.5066
23.910157285144578 45.0556
23.932915498962537 45.0045
23.955674670778713 44.9289
23.978434801611975 44.5976
24.001373717286125 44.3022
24.024135776723917 44.3377
24.046898798245582 44.111999999999995
24.06966278287146 44.0406
24.092605586582614 43.7912
24.115371508023642 43.6561
24.1381383956401 43.4942
24.16090625045381 43.4474
24.183852958731244 43.4064
24.206622758582608 43.207
24.229393528706886 43.0802
24.252165270127392 43.3275
24.27511589952438 43.2673
24.297889594216997 42.9535
24.32066426328598 42.8682
24.34343990775613 42.9334
24.36639447485003 42.7691
24.38917208083877 42.6329
24.41195066531332 42.3498
24.43490819850244 42.5024
24.457688750692377 42.3498
24.48047028445616 42.2206
24.503252800821233 42.423
24.526214300784112 42.2742
24.548998793132213 42.321000000000005
24.57178427117417 42.1688
24.59457073593893 42.2972
24.617536219319863 42.3057
24.64032466834748 42.2776
24.663114107195035 42.3273
24.685904536893013 42.3101
24.708874020360852 42.2842
24.731666442613744 42.4008
24.754459858818787 42.2787
24.777254270007962 42.0492
24.80022777025625 41.8163
24.82302418230472 41.8886
24.845821592443674 41.8215
24.86862000170663 41.836000000000006
24.891597535453727 41.8361
24.914397953892728 42.2014
24.93719937456671 42.0422
24.96000179851076 42.1417
24.98298338249997 42.1575
25.00578782394922 42.2994
25.028593271784167 42.2355
25.05157790644186 42.5205
25.07438537804115 42.6043
25.097193859145293 42.8238
25.120003350792075 42.9092
25.142992065061257 43.2019
25.165803588823465 43.181000000000004
25.18861612625217 43.1879
25.211429678386736 43.3157
25.234422489079968 43.6507
25.257238081693636 43.8159
25.280054692141732 43.982
25.3028723214652 43.986000000000004
25.325869245420463 43.9693
25.348688923599397 43.7803
25.371509623787006 43.6571
25.394331347025812 43.4647
25.41733240110666 43.7314
25.440156181590016 43.9077
25.46298098826268 44.3225
25.48580682216873 44.3
25.50881202326435 43.907
25.53163992281684 43.18
25.55446885274561 42.2797
25.577298814096377 41.4072
25.600308179121807 41.0154
25.623140214533745 40.8123
25.64597328451537 40.5073
25.66898578564376 40.1657
25.691820936010206 40.2295
25.714657124097695 40.1866
25.737494350954734 40.1476
25.760511045684957 40.0891
25.783350361364224 40.1961
25.806190718969255 40.3256
25.82903211955018 40.4287
25.852053024868923 40.5322
25.874896522722523 40.4768
25.897741066713106 40.3356
25.920586657892454 40.2054
25.943611790812668 40.163000000000004
25.966459487728237 40.209
25.989308234998564 40.0049
26.01215803367705 40.1924
26.03518741123814 40.2775
26.05803932412957 40.1587
26.080892291600094 40.1986
26.10374631470478 40.1377
26.12677995397268 40.4962
26.14963609978026 40.8206
26.172493304397875 41.0002
26.19535156888223 41.3824
26.218389486949604 41.4336
26.241249882640123 41.3441
26.26411134137826 41.0371
26.28715248187403 40.9635
26.31001607820869 40.6219
26.3328807407756 40.2744
26.35574647063438 40.3098
26.37879191991473 40.1489
26.401659795896734 40.2405
26.424528742360263 40.2677
26.447398760366614 40.1835
26.470448535598294 40.1093
26.49332070826805 40.1798
26.516193955675355 40.3395
26.53906827888316 40.2552
26.562122397260108 40.2516
26.584998883685063 40.4397
26.607876449110325 40.4597
26.63075509460056 40.5616
26.65381357334404 40.5933
26.67669439061878 40.8667
26.699576291163382 41.0119
26.722459276044212 41.4747
26.745522132402975 41.6652
26.768407297649354 41.9072
26.791293550442003 41.8957
26.814180891848974 41.7283
26.837248143099337 41.1442
26.860137673466657 40.7391
26.88302829566349 40.2346
26.90592001075963 40.1414
26.92899167420566 40.2198
26.951885586870763 39.7942
26.974780595655517 39.7242
26.99785558178161 39.6462
27.020752794605112 39.4769
27.043651106772522 39.0823
27.06655051935668 38.844
27.089629948036183 38.6486
27.112531573292053 38.4662
27.135434302194138 38.5569
27.158338135817015 38.3984
27.181422024430987 38.2573
27.204328079372566 38.3225
27.22723524226965 38.4108
27.250143514198573 38.2746
27.273231880156334 38.3528
27.296142382065014 38.277
27.319053996245536 38.1313
27.341966723775965 38.1846
27.365059584515222 38.1822
27.38797455070062 38.1995
27.410890633481237 37.8989
27.433807833936918 37.9318
27.456905206923906 37.9687
27.47982465472398 37.9733
27.502745223449743 37.9338
27.525666914182825 38.0795
27.548768816912457 37.8948
27.571692763693633 38.058
27.59461783573812 37.9744
27.617723149491244 37.8867
27.640650484125285 38.0792
27.66357894728264 38.208
27.686508540048052 38.2913
27.709618414237887 38.1837
27.732550278321757 38.12
27.755483275279115 38.0099
27.778417406196485 37.9363
27.801531858397514 37.8815
27.824468269376716 37.7804
27.847405817586786 37.6436
27.870344504116094 37.7054
27.893463551932008 37.6369
27.916404527281053 37.7441
27.93934664422563 37.7243
27.962289903855886 37.7498
27.98541356491974 37.8928
28.00835912214229 37.8345
28.03130582533231 37.9421
28.054253675581805 37.9586
28.077381967556104 38.0245
28.100332124185126 38.0792
28.123283431160893 38.2032
28.146235889577238 38.4045
28.169368830154156 38.5714
28.192323603752033 38.6879
28.215279532083304 38.6438
28.238415973016764 38.4316
28.261374223145094 38.1387
28.284333631303806 37.904
28.307294198589954 37.6168
28.330435319167677 37.5598
28.353398217078915 37.443000000000005
28.376362277420153 37.2396
28.39932750129032 37.0111
28.422473319286713 36.7769
28.44544088262495 36.5657
28.468409612800283 36.3012
28.491379510913497 36.0177
28.51453004413313 35.7449
28.53750229057244 35.7653
28.56047570826344 35.6535
28.583450298308804 35.5691
28.606605564586562 35.4322
28.629582511831156 35.59
28.65256063474956 35.3216
28.675539934446338 35.3876
28.698699951647605 35.3624
28.72168161743193 35.1963
28.74466446331978 35.0364
28.767648490417624 34.9894
28.790813276438353 34.9065
28.813799678527303 34.9246
28.836787265157085 34.8302
28.859955641890075 34.8734
28.882945610203045 34.7994
28.905936766392035 34.7021
28.928929111566863 34.7698
28.952102288520145 34.8345
28.975097024308607 34.7106
28.998092952423807 34.7592
29.021090073977508 34.8151
29.04426806913204 34.7734
29.067267590245258 34.5446
29.090268308143695 34.6202
29.11327022394099 34.4199
29.13645305530891 34.3577
29.159457379627167 34.2499
29.18246290519685 34.1273
29.20546963313352 33.9696
29.22865731875826 34.0182
29.25166646419296 33.9437
29.27467681535305 33.8366
29.29768837335608 33.7229
29.320880931312562 33.6591
29.34389491580634 33.6969
29.366910110507334 33.5513
29.38992651653503 33.5537
29.41312396492981 33.5639
29.436142806456754 33.5829
29.45916286268059 33.628
29.48236399319994 33.6171
29.50538649169417 33.6516
29.528410208259935 33.7039
29.55143514402014 33.5889
29.574641196749695 33.3862
29.597668583816574 33.3236
29.6206971934585 33.1928
29.64372702680042 33.0673
29.666938019934474 32.8489
29.689970313635285 32.744
29.713003834422636 32.6506
29.73603858342347 32.6954
29.759254535188578 32.5956
29.78229175361658 32.3972
29.80533020365064 32.6077
29.82836988641968 32.5569
29.85159081507472 32.3341
29.874632976355343 32.3613
29.89767637376955 32.4532
29.920721008448314 32.2266
29.9439469322847 32.2515
29.96699405457564 32.155
29.9900424175358 32.259
30.013092022298157 32.1467
30.03632295963995 32.1062
30.059375061131373 32.1831
30.08242840783577 32.1291
30.105483000888153 32.0445
30.128718970092244 32.0008
30.151776069006917 31.9446
30.17483441768648 32.0012
30.198074175317235 31.9529
30.221135036724256 31.9443
30.24419715131772 31.8777
30.267260520236203 31.8196
30.290505341942243 31.8992
30.313571232750228 31.943
30.336638381310948 32.1117
30.35970678876503 32.0111
30.38295669299435 31.9956
30.40602763151657 31.9676
30.429099832366074 32.0249
30.452173296685572 31.8851
30.47542830191959 31.8514
30.498504306502497 31.7327
30.521581577995562 31.7132
30.544660117543582 31.7006
30.56792024229725 31.7023
30.59100133132069 31.6404
30.614083691845494 31.5656
30.637167325018545 31.629
30.660432587840603 31.735
30.683518779717886 31.559
30.70660624769615 31.7308
30.729694992924372 31.5924
30.75296541239743 31.643
30.77605672557558 31.6917
30.799149319462742 31.866
30.8224236211637 31.8354
30.845518789950724 31.8089
30.868615242910597 31.7426
30.891712981195973 31.5701
30.91499247215866 31.6107
30.938092794619365 31.5319
30.96119440587579 31.4437
30.984297307082752 31.2464
31.00758200598383 31.142
31.030687500658694 31.0906
31.053794288760695 31.0793
31.076902371446767 30.9367
31.100192296997445 31.0575
31.12330298246119 30.8984
31.14641496599209 30.7151
31.169528248749216 30.6869
31.19282341969534 30.6938
31.215939314557186 30.618000000000002
31.239056512134788 30.5584
31.262175013589378 30.5678
31.28547544871168 30.5558
31.30859657161541 30.4905
31.331719001892175 30.418000000000003
31.35484274070538 30.5024
31.378148458819545 30.534000000000002
31.401274828443725 30.4314
31.424402510106933 30.5168
31.447712205419993 30.5431
31.470842524931633 30.3851
31.493974159989783 30.325
31.51710711176168 30.3927
31.54042212308802 30.4684
31.563557722100917 30.4099
31.586694641341655 30.3991
31.609832881979628 30.358
31.63315322823208 30.4541
31.656294125521327 30.3779
31.679436347728515 30.3903
31.70257989602529 30.2146
31.725905596152327 30.1078
31.74905181052835 30.0016
31.772199354521323 29.9974
31.79534822930507 29.8481
31.818679302290967 29.8121
31.84183085259981 29.881
31.864983737233473 29.8509
31.88813795736804 29.7376
31.911474422233013 29.6213
31.934631327356435 29.6948
31.9577895715215 29.6404
31.980949155906522 29.5579
32.004291031706956 29.6363
32.027453310562606 29.5869
32.05061693318573 29.5036
32.07396288236386 29.6338
32.09712920658542 29.5306
32.12029687812702 29.5791
32.14346589817093 29.4876
32.166817291729984 29.4003
32.18998902288583 29.3524
32.21316210610336 29.2798
32.23633654256711 29.1974
32.259693399663725 29.1801
32.282870556771144 29.0515
32.30604907069099 29.0399
32.329228942610065 28.8989
32.35259128243769 28.8207
32.375773884550505 28.7619
32.398957848235646 28.573
32.422143174682176 28.5669
32.445511016471215 28.5736
32.468699082679954 28.438000000000002
32.49188851523011 28.3949
32.51507931531304 28.3086
32.538452678331 28.3344
32.56164622776311 28.235
32.58484114831493 28.1684
32.60803744118015 28.194000000000003
32.631416344731896 28.1426
32.654615396551876 28.1715
32.67781582427913 28.1213
32.701198898634416 28.1089
32.72440209253756 27.8634
32.747606665947124 27.8914
32.77081262006088 28.0109
32.79420126883317 27.8522
32.81740999876112 27.9155
32.840620112999424 27.8544
32.86383161274818 27.7303
32.88722585534586 27.715999999999998
32.91044014056596 27.7113
32.933655814909734 27.6823
32.95687287957963 27.7732
32.98027273544904 27.6849
33.00349259526636 27.5438
33.026713849030116 27.5377
33.04993649794511 27.5406
33.073341986570746 27.4543
33.09656744032826 27.3357
33.11979429286444 27.4253
33.14302254538647 27.4145
33.166433686291185 27.346
33.18966475336992 27.2549
33.212897224069096 27.2658
33.23613109959831 27.2285
33.259547912343415 27.2022
33.2827846121627 27.3182
33.306022720453775 27.2443
33.32926223842861 27.1794
33.352684742614166 27.1431
33.37592709463173 27.1675
33.399170859982064 27.1507
33.422597648419426 27.033
33.44584425514446 26.9675
33.46909227885668 26.9261
33.4923417207723 26.7901
33.51577423505344 26.9191
33.539026528130385 26.8209
33.56228024307245 26.7066
33.585535381098246 26.5769
33.60897364093058 26.5307
33.63223163992385 26.5562
33.6554910656699 26.4253
33.678751919389796 26.358
33.702195944520106 26.2793
33.72545966903325 26.37
33.74872482519663 26.2501
33.771991414233746 26.2615
33.79544122444841 26.2196
33.81871069412428 26.1606
33.84198160035767 26.0914
33.86525394437455 26.0607
33.88870955949969 25.9723
33.911984794020626 26.0266
33.93526147001624 25.9799
33.958539588715006 25.8626
33.98200102861669 25.811999999999998
34.0052820477047 25.8174
34.02856451319451 25.8108
34.05203033759056 25.6813
34.07531571090147 25.7384
34.09860253431845 25.7086
34.121890809074316 25.6504
34.145362493118924 25.631999999999998
34.16865368561615 25.6007
34.191946333164054 25.4366
34.21524043699793 25.4684
34.23871800066799 25.5031
34.26201503218366 25.351999999999997
34.28531352370466 25.3852
34.30861347646881 25.2469
34.33209693978188 25.2274
34.3553998301885 25.3151
34.378704185565205 25.171
34.402010007152356 25.1068
34.42549939016683 25.1625
34.44880815937748 25.0925
34.472118398533134 25.0553
34.49543010887669 24.9819
34.51892543169198 24.9519
34.54224009966052 24.9843
34.56555624255917 24.8293
34.58887386163339 24.7289
34.61237514439016 24.6668
34.6356957311114 24.6854
34.65901779775809 24.6464
34.68252356662995 24.6402
34.705848608458616 24.6642
34.72917513396849 24.5742
34.75250314440949 24.5554
34.77601490857862 24.4703
34.799345904259795 24.3265
34.82267838863559 24.4672
34.846012362958525 24.4106
34.869530142679984 24.4005
34.89286711232212 24.2956
34.91620557568269 24.1768
34.93954553401677 24.1904
34.9630693495876 24.2073
34.986412313340814 24.1884
35.00975677584668 24.1558
35.033102738362956 24.113000000000003
35.05663261012228 24.0363
35.0799815881786 24.0804
35.10333207003229 23.9688
35.12668405694369 24.0711
35.150220005273056 24.0382
35.17357501786656 23.9783
35.19693153931268 23.9395
35.220289570874385 23.84
35.24383161619786 23.9096
35.267192683604904 23.9094
35.290555264930376 23.755
35.314101899412165 23.721999999999998
35.33746752422433 23.6689
35.36083466676374 23.6526
35.38420332829803 23.6424
35.407756095629054 23.7143
35.43112781085063 23.5904
35.45450104888391 23.6229
35.477875810999194 23.6526
35.50143473172161 23.5702
35.52481255774625 23.5879
35.54819191167777 23.5304
35.57157279478914 23.4447
35.595137889488406 23.5142
35.61852184675279 23.4789
35.641907337029984 23.4308
35.665294361595684 23.4319
35.68886565090076 23.3803
35.7122557598848 23.3245
35.73564740699838 23.2585
35.759040593519934 23.1791
35.78261809810353 23.2028
35.80601437933051 23.0873
35.829412203814705 23.0975
35.85281157283719 23.069000000000003
35.876395313415884 23.0705
35.8997977874528 22.921999999999997
35.92320180988546 22.9449
35.946790244133936 22.8392
35.97019737933222 22.8136
35.993606066789866 22.7554
36.01701630779276 22.8797
36.04061101440684 22.7266
36.06402437852291 22.6774
36.08743930005611 22.6817
36.1108557802951 22.6282
36.13445678011326 22.6562
36.15787639383515 22.6113
36.18129757014299 22.5852
36.20472031032821 22.5033
36.22832762423364 22.5117
36.25175350829375 22.4952
36.275180960119776 22.4154
36.298609981005924 22.4107
36.32222362992669 22.3335
36.34565580510207 22.3358
36.36908955323448 22.2909
36.39252487562093 22.205
36.416144880530226 22.1222
36.43958336764275 22.2301
36.463023432914625 22.0806
36.486465077645676 22.0285
36.51009145956204 22.0954
36.53353627947859 22.1331
36.55698268276811 22.1158
36.58043067073321 21.9768
36.60406345072071 21.918000000000003
36.62751462435344 21.9255
36.65096738658405 21.9213
36.67460498210655 21.9067
36.69806093788647 21.8581
36.72151848619297 21.7992
36.744977628333636 21.8359
36.76862165890998 21.7868
36.79208400512205 21.8246
36.81554794910557 21.7403
36.83901349217101 21.6173
36.862663978991606 21.5933
36.88613273667352 21.5236
36.90960309738324 21.5352
36.933075062434064 21.5571
36.95673202673572 21.5156
36.98020721697122 21.4893
37.003684015502365 21.4008
37.027162423645365 21.3373
37.050825886711465 21.3272
37.07430753063053 21.2576
37.09779078812467 21.2951
37.121275660513014 21.2586
37.144945643673694 21.2114
37.16843376245278 21.1346
37.19192350009803 21.183000000000003
37.215414857931435 21.0843
37.239091382563885 20.9831
37.262585997426164 21.0141
37.28608223645736 21.0188
37.309763684451696 21.055
37.33326318851098 20.9421
37.356764320726555 20.8729
37.380267082425526 20.8917
37.40395510942588 20.7619
37.42746114683234 20.8037
37.45096881771841 20.7488
37.474478123414166 20.7479
37.49817275092816 20.705
37.52168534303452 20.6868
37.54519957395567 20.6354
37.568715445024665 20.6163
37.592416694607714 20.5715
37.61593586281424 20.568
37.63945667518264 20.4901
37.66297913304891 20.5016
37.68668702630454 20.5134
37.710212792059274 20.4184
37.733740207334854 20.3877
37.757269273470364 20.3587
37.780983832050374 20.3208
37.80451621684926 20.2955
37.82805025654007 20.2543
37.851585952464795 20.2789
37.8753071980695 20.1809
37.89884622345676 20.0891
37.92238690911902 20.028
37.94611318753442 20.0442
37.969657210779765 20.1106
37.99320289834801 20.0042
38.016750251586465 19.9497
38.04048325513017 19.9205
38.06403395679343 19.8808
38.087586328183946 19.8922
38.11114037065203 19.8666
38.13488012115898 19.83
38.1584375229181 19.811
38.181996599821 19.7647
38.205557353221124 19.7558
38.229303872575656 19.7473
38.2528679961576 19.698
38.27643380031219 19.6415
38.30000128639589 19.6067
38.32375459653193 19.557000000000002
38.34732546371299 19.6106
38.37089801690786 19.5245
38.39447225747609 19.5014
38.418232380377425 19.421
38.441810012983396 19.4016
38.46538933705673 19.3857
38.488970353960084 19.4235
38.51273731166058 19.3632
38.536321731567014 19.2767
38.55990784840681 19.2314
38.58367995004091 19.2205
38.60726947812959 19.1297
38.63086070726198 19.1693
38.654453638806274 19.1681
38.678232613930824 19.1369
38.70182896773327 19.0974
38.72542702806741 19.025
38.7490267963045 19.0099
38.77281266709232 19.0388
38.79641586862214 18.9638
38.8200207821842 18.9039
38.843627409152944 18.9028
38.86742019782782 18.9077
38.891030269149255 18.8612
38.914642058016156 18.8578
38.938255565806124 18.7578
38.96205529464307 18.7502
38.98567225787121 18.7
39.00929094417078 18.7175
39.03291135492255 18.6986
39.05671804624804 18.6135
39.080341923549106 18.621
39.103967529460334 18.5805
39.127594865365744 18.489
39.15140854155791 18.4686
39.17503935514948 18.4602
39.19867190290282 18.3842
39.22249083587951 18.4029
39.24612686969409 18.4211
39.269764641845306 18.3781
39.293404153722804 18.3432
39.317230110864074 18.2792
39.34087311998506 18.3318
39.36451787301696 18.297
39.388164371352595 18.2001
39.41199737518003 18.198
39.43564738196752 18.1555
39.45929913825317 18.1281
39.48295264543308 18.1083
39.506792718520884 18.059
39.530449745387216 18.0491
39.55410852735203 18.037
39.57776906581474 18.0217
39.60161623079 17.9517
39.625280300200025 17.95
39.64894613032202 17.8497
39.67261372255866 17.9241
39.6964680021016 17.8398
39.72013913657293 17.8461
39.74381203738292 17.8026
39.76748670593756 17.7152
39.79134812278169 17.7881
39.81502634488497 17.7089
39.83870633896685 17.6699
39.862388106436654 17.6216
39.88625668336918 17.6042
39.90994201572829 17.6525
39.933629125719285 17.6166
39.957503091207826 17.5423
39.9811937746168 17.5396
40.00488623990914 17.5106
40.02858048850006 17.4583
40.05246165409549 17.4263
40.076159487492085 17.4077
40.099859108448875 17.3576
40.123560518384345 17.3781
40.1474489070226 17.3538
40.171153913178564 17.2281
40.194860712584955 17.1897
40.2185693066637 17.2113
40.242464941335314 17.2034
40.26617714307655 17.164
40.289891143772046 17.1506
40.3136069448471 17.1218
40.33750984859743 17.1149
40.3612292688043 17.0657
40.3849504936829 17.0342
40.40867352466194 17.0478
40.43258372059144 17.0208
40.45631038219906 17.070999999999998
40.48003885420956 16.9818
40.503769138055105 16.9342
40.52768664931955 16.942999999999998
40.55142057531802 16.9323
40.57515631746428 16.8303
40.599079334038514 16.8119
40.62281872700477 16.7829
40.64655994043941 16.7757
40.67030297578061 16.7463
40.69423334835778 16.7374
40.71798004609188 16.7254
40.74172857006355 16.6548
40.76547892171441 16.6354
40.7894166736039 16.6512
40.813170699248566 16.6291
40.83692655691388 16.5144
40.86068424804498 16.532
40.884629402612525 16.4961
40.908390779366385 16.4874
40.932153993938 16.45
40.95591904777605 16.4049
40.979871628443995 16.4242
41.003640379561936 16.3882
41.02741097430883 16.3708
41.05118341413683 16.2992
41.075143444384416 16.2461
41.098919593177826 16.3101
41.1226975914255 16.2401
41.14647744058318 16.2006
41.170444943946755 16.2025
41.19422851378379 16.1764
41.218013938914645 16.1518
41.24198706625173 16.0694
41.26577622087193 16.0985
41.289567235177785 16.0263
41.31336011063129 16.0302
41.337340752422875 15.9823
41.361137369129835 15.978
41.38493585138705 15.9708
41.40873620066004 15.9674
41.43272438060107 15.947000000000001
41.45652848292052 15.8739
41.48033445666918 15.8076
41.50414230331616 15.799000000000001
41.528138045159764 15.8006
41.551949656675205 15.708
41.575763145513235 15.7012
41.59957851314666 15.7119
41.62358184070442 15.6453
41.64740098505737 15.5949
41.6712220126409 15.6218
41.69504492493139 15.5937
41.71905586207357 15.5374
41.74288256296395 15.5413
41.766711153007456 15.4833
41.79054163368412 15.5132
41.814560204340054 15.5256
41.838394485526365 15.4946
41.86223066180303 15.392999999999999
41.88625497706819 15.3582
41.910094962812 15.3629
41.93393684811168 15.3462
41.95778063445365 15.3233
41.981812625263366 15.2963
42.00566023303407 15.2208
42.029509746323676 15.2105
42.05336116662236 15.2358
42.077400857069705 15.1916
42.10125611078846 15.1278
42.12511327600405 15.0916
42.14897235421036 15.0866
42.173019768448455 15.0993
42.19688269209613 15.0655
42.22074753323349 15.0427
42.24461429335818 14.9434
42.268669455600495 15.0042
42.292540073217886 14.9884
42.31641261433284 14.8946
42.34028708044675 14.8844
42.36435001496739 14.8694
42.38822835065557 14.8806
42.41210861586426 14.7989
42.4359908120986 14.8372
42.46006154323262 14.7866
42.48394762115317 14.7414
42.507835634632315 14.7685
42.531912233047436 14.709000000000001
42.55580413732265 14.6989
42.579697981698 14.6429
42.60359376768525 14.6424
42.62767820545945 14.594000000000001
42.65157789440821 14.6355
42.67547952952185 14.5683
42.699383112316 14.5568
42.72347541395347 14.5125
42.74738291190531 14.4736
42.771292362102166 14.4793
42.795203766063516 14.3766
42.819303956130405 14.408
42.843219287476536 14.4247
42.86713657716324 14.3605
42.89105582671383 14.3755
42.91516392983864 14.353
42.939087119032166 14.2706
42.963012272677304 14.2592
42.98693939230129 14.2559
43.01105543317513 14.1712
43.034986504731386 14.1939
43.05891954686589 14.1608
43.08285456110972 14.1044
43.10697856448665 14.0787
43.130917542983475 14.0977
43.15485849820081 13.9822
43.17880143167367 13.9971
43.20293342237094 14.0034
43.226880332449 13.9808
43.25082922540554 13.997
43.27496722682525 14.0045
43.29892010567796 13.9376
43.32287497204102 13.8852
43.34683182745632 13.8341
43.370977859791836 13.8643
43.39493871351105 13.7928
43.41890156092628 13.7804
43.44286640358341 13.7647
43.46702049182749 13.7368
43.49098934522816 13.7442
43.51496019852649 13.7282
43.5389330532723 13.6754
43.56309522248204 13.5771
43.58707210044314 13.6004
43.61105098451946 13.5566
43.63503187626491 13.5469
43.659202151562134 13.5957
43.68318707902681 13.5724
43.70717401884041 13.5093
43.731162972560874 13.482999999999999
43.75534137913236 13.4173
43.779334381108384 13.4238
43.803329401683186 13.4436
43.82732644241872 13.3716
43.8515130055166 13.4327
43.87551410707659 13.3794
43.89951723350145 13.3392
43.923709934595614 13.3426
43.94771713129917 13.2705
43.97172635758096 13.2665
43.99573761501002 13.2452
44.0199385169922 13.2361
44.04395385732619 13.2006
44.067971233533086 13.1874
44.09199064718605 13.1468
44.11619977548961 13.1176
44.14022328470671 13.0607
44.16424883610785 13.0865
44.18827643127035 13.0659
44.21249381139513 13.0819
44.236525514814076 13.0264
44.26055926674478 12.9851
44.28459506876863 12.9816
44.3088207262813 12.9141
44.33286064928722 12.9011
44.35690262714919 12.8216
44.38094666145278 12.8705
44.4051806219871 12.8679
44.42922879003185 12.8297
44.45327901929361 12.769
44.477331311362136 12.7547
44.501573600619416 12.7431
44.525630039221795 12.7367
44.54968854541895 12.7437
44.573937102200176 12.6986
44.5979997645541 12.654000000000002
44.622064499300315 12.6316
44.64613130803592 12.6379
44.67038823869318 12.5968
44.69445921643748 12.5334
44.718532272981385 12.5422
44.742607409926194 12.536
44.76687274034801 12.4856
44.79095205918753 12.5019
44.81503346325094 12.4936
44.839116954143876 12.4234
44.86339071028742 12.4366
44.88747839599524 12.384
44.91156817336837 12.3769
44.93566004401666 12.3834
44.959942251908146 12.3507
44.984038330325966 12.3215
45.00813650686762 12.3161
45.03223678314731 12.2559
45.05652746888232 12.22
45.08063196592069 12.2295
45.104738567558705 12.2109
45.128847275414856 12.1862
45.15314646515866 12.1433
45.17725940679741 12.1673
45.20137445952892 12.1458
45.22568004865265 12.1167
45.24979934496396 12.0891
45.27392075725247 12.0788
45.29804428714431 11.9903
45.322358426247604 12.0352
45.346486212804315 11.9985
45.370616121861914 11.989
45.39474815505086 11.9377
45.41907087049246 11.9381
45.4432071734666 11.9351
45.46734560548283 11.9544
45.49148616817604 11.9165
45.51581748638564 11.8848
45.5399623320197 11.8436
45.56410931325473 11.7696
45.58825843173002 11.8033
45.61259837920865 11.759
45.636751793816 11.7928
45.66090735060093 11.7102
45.68506505120716 11.6957
45.7094136545275 11.6295
45.73357566449271 11.6232
45.75773982322992 11.595999999999998
45.78190613238733 11.6155
45.806263418194064 11.5661
45.83043404997326 11.6105
45.85460683713677 11.6141
45.87897065658495 11.5712
45.90314777634752 11.5034
45.92732705646868 11.4872
45.9515084986045 11.4653
45.97588104735473 11.4501
46.00006683541565 11.4122
46.02425479047904 11.4202
46.04844491420549 11.3954
46.0728262191024 11.4112
46.09702070211635 11.3433
46.12121735879483 11.3453
46.14541619080294 11.3059
46.169806278764455 11.3084
46.194009483459034 11.2668
46.21821486849841 11.2299
46.24242243555223 11.2208
46.266821333570014 11.2157
46.29103328674601 11.2011
46.31524742696538 11.177999999999999
46.33946375590237 11.1536
46.36387149104216 11.1361
46.38809221957392 11.0609
46.41231514186606 11.072000000000001
46.436540259597464 11.0603
46.460956858999374 11.0483
46.48518638983522 11.0285
46.509418121166966 11.0088
46.533652054678114 10.9686
46.55807754555709 10.9989
46.58231590571962 10.9693
46.60655647313217 10.9225
46.630988654873654 10.88
46.655233659129024 10.835999999999999
46.67948087571551 10.8517
46.70373030632484 10.8655
46.72817142736393 10.8185
46.752425308428684 10.8062
46.77668140861147 10.8003
46.80093972960865 10.7676
46.82538981736788 10.7067
46.849652602470904 10.7295
46.87391761349769 10.7117
46.8981848521493 10.67
46.9226439341274 10.6472
46.946915650573224 10.6328
46.97118959976749 10.6253
46.99546578341598 10.585
47.019933887188216 10.5922
47.04421456235744 10.6196
47.06849747711879 10.5289
47.09278263318286 10.5344
47.11725978640143 10.5376
47.14154944775105 10.4861
47.165841355555656 10.4801
47.1901355115306 10.4495
47.214621741924994 10.4036
47.23892041698887 10.387
47.26322134538975 10.3837
47.28771440635075 10.3449
47.31201986422527 10.3833
47.33632758061436 10.342
47.360637557241866 10.3621
47.38513974410611 10.29
47.40945426407847 10.2364
47.43377104948137 10.2434
47.45809010204344 10.2654
47.48260144275502 10.1785
47.506925052572285 10.19
47.53125093475548 10.172
47.55557909103813 10.1475
47.58009961361992 10.1305
47.60443234110732 10.107000000000001
47.62876734791564 10.1172
47.65310463578333 10.079
47.6776343683373 10.093
47.7019762413987 10.0314
47.72632040075572 10.0146
47.75066684815169 9.99642
47.77520581885936 9.96674
47.799556865477655 9.97568
47.823910205386 10.0007
47.84826584033272 9.959430000000001
47.87281407745551 9.9454
47.89717432569297 9.9379
47.92153687423484 9.92229
47.94609208429692 9.87707
47.97045925671401 9.87111
47.99482873471275 9.83147
48.01920052005013 9.80565
48.04376504619224 9.78028
48.068141469543484 9.837539999999999
48.09252020552573 9.76693
48.11690125590099 9.74067
48.1414751266064 9.72407
48.16586082917454 9.74827
48.19024885144316 9.667119999999999
48.2146391951793 9.692960000000001
48.239222439012764 9.70422
48.26361744916137 9.67983
48.28801478610016 9.67575
48.31241445160131 9.643510000000001
48.337007097209366 9.6272
48.36141144338331 9.5741
48.38581812345755 9.5716
48.41022713920929 9.57804
48.434829215320704 9.52925
48.45924292604658 9.50741
48.48365897780325 9.50739
48.50807737237308 9.51693
48.532688907799276 9.478860000000001
48.55711201168574 9.43928
48.581537463754074 9.44112
48.60615611725119 9.436689999999999
48.63058628942721 9.39475
48.65501881516546 9.364289999999999
48.6794536962573 9.36608
48.70408185970339 9.36481
48.72852147531801 9.30824
48.75296345168211 9.27791
48.77740779059232 9.28603
48.80204549302823 9.28658
48.82649458091802 9.26005
48.85094603676547 9.2122
48.87539986237231 9.19506
48.90004713292306 9.20085
48.92450572200832 9.19184
48.94896668628025 9.17775
48.97343002754588 9.17221
48.99808689542115 9.15498
49.02255501470614 9.11285
49.04702551642794 9.13584
49.0714984023988 9.09468
49.096164896893235 9.073789999999999
49.120642575466796 9.060989999999999
49.145122643748394 9.03389
49.16960510355558 9.0035
49.19428125404938 9.00196
49.2187685210852 8.96842
49.243258185121555 8.95934
49.26794160167084 8.93853
49.2924360839405 8.93732
49.31693296869764 8.90273
49.34143225776915 8.88529
49.36612538195438 8.84357
49.39062950396021 8.90212
49.41513603578346 8.84874
49.4396449792564 8.84198
49.46434784069503 8.84154
49.488861631846454 8.78507
49.513377840166804 8.77188
49.537896467493745 8.75586
49.56260909589029 8.73504
49.587132585683285 8.753639999999999
49.611658500018365 8.74531
49.636186840738596 8.71246
49.66090926588511 8.729569999999999
49.685442483902584 8.6725
49.70997813385706 8.64278
49.734516217597076 8.61711
49.75924846937352 8.60488
49.7837914452858 8.58955
49.80833686055187 8.541269999999999
49.83288471702571 8.56359
49.85762682540054 8.56343
49.882179588965734 8.52861
49.9067347993235 8.50896
49.93129245833333 8.51901
49.95604445336378 8.46223
49.98060703442832 8.466560000000001
50.005172069746266 8.45583
50.02993150438364 8.47509
50.05450147301533 8.439160000000001
50.07907390151433 8.38777
50.10364879174981 8.37352
50.12841816587289 8.35029
50.1529980044635 8.37101
50.17758031042124 8.313130000000001
50.20216508562089 8.31035
50.22694442953363 8.342369999999999
50.25153416817468 8.25901
50.27612638170508 8.26346
50.300721072005196 8.21932
50.325510416102105 8.2149
50.350110084975064 8.22803
50.37471223628208 8.22764
50.39931687190919 8.18417
50.424116246675766 8.18175
50.44872587605249 8.1689
50.47333799543065 8.150139999999999
50.49795260670191 8.13043
50.52276204271512 8.08125
50.54738166295838 8.10697
50.57200378079314 8.12096
50.596628398116835 8.0713
50.62144792604559 8.05516
50.646077567609396 8.03614
50.670709714377715 8.0388
50.69553683636198 8.0641
50.72017401885922 7.99043
50.7448137122895 7.99915
50.76945591856022 7.984210000000001
50.79429318636823 7.9676100000000005
50.818940443716784 7.93243
50.84359021965163 7.901089999999999
50.868242516085964 7.89554
50.893089960641895 7.865989999999999
50.917747323549435 7.8346
50.94240721271973 7.8656
50.96706963007175 7.852239999999999
50.99192728239342 7.80093
51.01659478166073 7.81977
51.04126481489051 7.779310000000001
51.06593738400761 7.77255
51.090805275207074 7.758719999999999
51.11548294172845 7.72947
51.14016314993547 7.7403699999999995
51.164845901758845 7.7117
51.18972406304274 7.71232
51.21441192780656 7.69953
51.23910234200271 7.70062
51.2637953075678 7.6595
51.288683770237945 7.61155
51.31338186432707 7.621589999999999
51.33808251561888 7.60543
51.362978729967345 7.60503
51.387684521509755 7.582669999999999
51.41239287610203 7.581
51.437103795691165 7.53378
51.46201036644977 7.5279
51.486726441956634 7.52602
51.51144508832545 7.500789999999999
51.536166307509156 7.47705
51.56108326624387 7.455760000000001
51.58580965706056 7.49642
51.61053862657523 7.415030000000001
51.635270176746864 7.42639
51.66019755512065 7.40315
51.68493429268881 7.36892
51.70967361681515 7.38178
51.73441552946465 7.36924
51.759353359237934 7.37018
51.7841004750961 7.368189999999999
51.80885018539685 7.3542
51.833602492111254 7.317769999999999
51.8585508051424 7.31928
51.883308330926425 7.2858
51.90806845906181 7.23837
51.932831191525715 7.225510000000001
51.95779001977161 7.195530000000001
51.98255798721516 7.20781
52.00732856494335 7.198760000000001
52.03229530577543 7.17443
52.057071130455945 7.1534
52.081849571391054 7.16344
52.106630630568695 7.1296
52.13160794279417 7.09761
52.15639426492067 7.08205
52.18118321127822 7.096839999999999
52.205974783860896 7.06728
52.23096269971011 7.048710000000001
52.255759551287994 7.04455
52.280559035098186 7.02908
52.30536115314103 7.01306
52.33035970494467 7.03008
52.35516711807904 7.024719999999999
52.37997717147198 6.980860000000001
52.40478986713005 6.97695
52.42979908731974 6.9432100000000005
52.454617094216 6.93128
52.47943774942214 6.899439999999999
52.50426105495102 6.895060000000001
52.529280976059844 6.879389999999999
52.554109609024096 6.863460000000001
52.57894089837482 6.877110000000001
52.60377484613117 6.858619999999999
52.62880550079408 6.85801
52.65364479223379 6.77482
52.67848674816189 6.78073
52.70352547971946 6.7638300000000005
52.72837279155837 6.7361699999999995
52.753222773982785 6.72467
52.778075429022984 6.72618
52.80312495150885 6.72432
52.827982978797436 6.74403
52.85284368481815 6.681989999999999
52.87770707160767 6.66328
52.90276741793998 6.661639999999999
52.92763619336701 6.66507
52.952507655698504 6.65868
52.977381806977576 6.64889
53.00245301017842 6.64762
53.02733256653592 6.6566399999999994
53.052214817996074 6.62449
53.077099766608484 6.587560000000001
53.102181859804446 6.56411
53.127072229988265 6.58352
53.15196530349892 6.542000000000001
53.17686108239249 6.53947
53.20195409881522 6.51281
53.22685531582556 6.4878599999999995
53.25175924441303 6.47409
53.27666588664027 6.4839199999999995
53.30176985962693 6.46916
53.3266819565689 6.47692
53.35159677336455 6.40872
53.376514312083096 6.38302
53.40162927507703 6.40766
53.42655228516116 6.36474
53.45147802340193 6.36797
53.47660125628886 6.36129
53.50153247842639 6.30419
53.52646643496923 6.31986
53.55140312799818 6.32367
53.576537409691696 6.27588
53.60147960336152 6.33778
53.626424539786164 6.31825
53.65137222105307 6.25018
53.67651758529126 6.24273
53.70147078399681 6.23305
53.72642673383343 6.20964
53.75138543689533 6.23084
53.776541917524526 6.21776
53.801506154876755 6.14123
53.826473151763246 6.136480000000001
53.851442910284916 6.12024
53.87661054126026 6.1231599999999995
53.9015858509782 6.07325
53.92656392866066 6.11712
53.95154477641532 6.12459
53.976723591801296 6.09389
54.00171000771266 6.04395
54.02669920004598 6.02436
54.051691170915745 6.06626
54.076881204886796 6.0696900000000005
54.101878760928514 6.01861
54.12687910187696 5.969069999999999
54.152077577768296 6.01227
54.1770835166946 5.96021
54.20209224691339 5.94561
54.22710377055121 5.92434
54.25231352511594 5.91787
54.27733066384342 5.87613
54.30235060239643 5.8874699999999995
54.32737334290836 5.8724300000000005
54.35259441062629 5.83453
54.377622783395324 5.77735
54.40265396455061 5.81758
54.42768795623251 5.77969
54.45292037169559 5.75434
54.477960012857906 5.7345
54.50300247099511 5.73577
54.52804774825457 5.6957699999999996
54.55329154616743 5.652819999999999
54.57834249018678 5.596369999999999
54.6033962597977 5.584219999999999
54.6284528571545 5.58138
54.653708072335164 5.5656
54.67877035378786 5.52433
54.70383546947698 5.53984
54.72890342156389 5.51342
54.7541700889442 5.48498
54.77924374251975 5.49717
54.8043202390049 5.47832
54.82959552413022 5.425730000000001
54.8546777351945 5.38512
54.87976279569621 5.36586
54.90485070780914 5.37941
54.930137506558005 5.33371
54.95523115074295 5.3438099999999995
54.98032765308844 5.28598
55.005427015775496 5.289969999999999
55.03072536339621 5.29041
55.05583047570572 5.2369900000000005
55.080938454927676 5.21972
55.10604930325027 5.19524
55.131359235107396 5.17621
55.15647585066083 5.12259
55.181595341907496 5.09617
55.20671771104285 5.05549
55.232039262617704 5.07255
55.25716741665048 5.0317099999999995
55.28229845518636 4.99381
55.30743238042802 4.9506
55.33276558731939 4.96718
55.357905315183636 4.96261
55.383047936390035 4.89677
55.40819345314859 4.8707
55.433538351073295 4.9031199999999995
55.458689688238415 4.87333
55.483843927614096 4.80701
55.509197623043605 4.84739
55.53435769621134 4.75853
55.55952067826466 4.7626
55.5846865714265 4.78545
55.61005202069737 4.732880000000001
55.63522376553902 4.72035
55.66039842818645 4.7251
55.68557601087004 4.6937
55.7109532500271 4.61855
55.73613670233794 4.67289
