TT I
1.2716486653135266 7.028739999999999
1.2939594142134223 6.66627
1.3162702121660406 6.3849
1.3385810600174564 6.942639999999999
1.3608919586137629 6.51651
1.383202908801069 6.807989999999999
1.405513911425503 6.2074300000000004
1.4278249673332093 5.90196
1.4501343378461518 6.40225
1.4724455028545926 5.90094
1.4947567236847858 5.74607
1.517068001182951 5.62626
1.5393793361953272 5.77211
1.5616907295681737 4.92335
1.5840021821477681 4.65676
1.60631369478041 5.2781400000000005
1.6286252683124185 5.175730000000001
1.6509369035901333 5.31409
1.6732468618895553 5.23163
1.695558623192809 5.41239
1.7178704487808514 5.08617
1.7401823395001077 4.8345400000000005
1.7625012545597203 4.88101
1.7848028405262486 4.6988
1.8071218901122095 4.51361
1.8294236121921872 4.64457
1.8517427996910911 4.6111699999999995
1.8740620574440425 5.01981
1.8963639900671978 4.806690000000001
1.9186833908139995 4.53006
1.9409854680117449 4.3095300000000005
1.9633050151394713 4.4059
1.9856246367570705 4.086069999999999
2.0079269371922672 4.41036
2.03024671027244 3.76632
2.0525491637446027 4.929880000000001
2.074869091674931 4.23894
2.097171701569106 5.003480000000001
2.1194917877373847 4.41069
2.141811954326636 5.05981
2.164114805233074 5.25455
2.186435135143035 5.09174
2.208738150935709 5.52756
2.231058647554722 6.45828
2.2533792288321184 6.49815
2.275682498336085 5.44647
2.298003251406138 5.45169
2.3203066942619714 4.75157
2.3426276225136022 5.35159
2.3649486396617507 5.81009
2.387252348930071 6.04362
2.4095735463442893 5.904380000000001
2.4318774374315884 6.09305
2.4541988185014043 6.6801699999999995
2.476502894794693 7.21864
2.498824462909887 6.95362
2.521146125856138 6.806189999999999
2.5434504863470337 6.85876
2.5657723414244717 7.269239999999999
2.588076895590662 8.006039999999999
2.610398946189713 7.99189
2.6327210958598384 8.03653
2.6550259469304716 8.99916
2.6773482972090137 8.86008
2.6996533504259 8.05941
2.7219759047039602 7.7462100000000005
2.744298562293959 8.75703
2.7666039251246595 8.27545
2.7889267918020164 8.42068
2.8112323652516555 8.20602
2.833555444408179 8.680539999999999
2.8558786311183852 8.1862
2.8781845268938557 8.33122
2.9005079311721484 8.82293
2.9228140460410397 8.447280000000001
2.9451376712799635 9.15052
2.967444008632326 9.544310000000001
2.9897678582247247 9.85993
3.0120918213106695 10.2969
3.0343984987899373 10.0491
3.0567226913198637 11.0656
3.079029599759726 11.5961
3.101354025127254 12.1947
3.123678568232338 12.1174
3.145985829517914 12.4892
3.16831061055229 13.1047
3.1906181112775593 13.6489
3.212943133635653 14.6499
3.2352682779763207 14.767000000000001
3.2575761442691227 15.5343
3.2799015350264273 15.332
3.302209649240067 15.5186
3.3245352898092655 16.4897
3.3468436553365257 16.5837
3.369169549113219 17.2969
3.3914955708171384 17.5673
3.413804319727358 18.0491
3.4361305997334863 18.1533
3.4584396084414553 18.8749
3.4807661501462652 19.4711
3.503092824025881 20.0404
3.5254022288463154 20.307000000000002
3.5477291695206588 20.7181
3.5700388426251948 21.5906
3.5923660534916446 21.9039
3.6146934007816114 23.5713
3.637003482731501 28.5264
3.6593311053109985 29.9088
3.681641464033634 26.5835
3.7039693653009733 24.7972
3.726297407241705 24.7807
3.7486081875460804 24.613000000000003
3.7709365132734978 25.0906
3.793247578841633 25.5427
3.8155761917550093 25.9368
3.8378875459837216 26.2159
3.8602164494827234 26.4358
3.882545499606844 27.5451
3.9048572932539183 28.2019
3.9271866390645718 28.4885
3.9494987298666713 28.8998
3.971828374764527 29.9848
3.9941581705403255 30.0557
4.016470713506008 30.3509
4.038800813471445 31.3591
4.061113662089144 31.4976
4.0834440696459176 32.7181
4.105774632334751 32.2825
4.128087945865126 32.9051
4.150418821249301 33.8358
4.172732448931298 35.048
4.195063640413578 35.3616
4.2173775856475215 36.6893
4.239709096631102 39.5758
4.262040768704612 54.6206
4.284355196706267 64.2748
4.306687193387355 55.6368
4.329001947444346 44.4435
4.35133427213731 41.6426
4.373666762177566 42.2807
4.395982011761091 42.6163
4.418314834921175 43.3318
4.44063041906622 45.1219
4.4629635787515625 46.8895
4.4852969080429785 48.1415
4.5076130004776225 49.6749
4.529946671403969 53.7352
4.552263106909177 56.9384
4.574597122877047 54.7877
4.596931312711224 53.3567
4.619248269273446 53.2538
4.6415828092605835 54.3069
4.663900117405352 54.8778
4.686235010953232 56.6827
4.708552674085913 58.0762
4.730887924602802 59.3185
4.753223354952695 61.3087
4.775541557023902 63.8195
4.797877349456786 66.6734
4.820195915032126 67.6104
4.842532072957498 67.4818
4.864868414979744 70.1981
4.88718753227192 74.1883
4.909524244902505 77.1672
4.931843734218147 76.7087
4.954180820867835 78.2169
4.976518095879839 80.957
4.998838149695359 83.1848
5.021175803844231 86.7283
5.043496238205739 89.7201
5.065834274903528 93.7736
5.088172504230693 98.1423
5.1104935158799565 104.056
5.132832132875765 116.39
5.155153533596801 135.94299999999998
5.1774925416746225 174.419
5.199814334878411 380.537
5.2221537374521505 1034.66
5.244493338631803 2859.49
5.266815727034316 8077.58
5.289155727832427 13892.6
5.311478517248165 8498.12
5.333818921080011 2294.36
5.356159527788849 422.15
5.3784829252032536 177.07299999999998
5.400823940070432 143.332
5.423147747031976 125.47
5.445489173474152 116.98200000000001
5.467830807066149 116.456
5.490155234831516 116.39200000000001
5.512497285125229 109.804
5.534822130975162 104.60600000000001
5.557164601388673 101.66799999999999
5.579489868738879 98.5527
5.601832762690846 97.1948
5.6241758697774475 95.7173
5.646501775867269 95.4595
5.668845311622074 94.2505
5.691171647754637 93.7179
5.713515615597765 92.8978
5.735859800852677 92.4155
5.758186788542988 93.4985
5.780531411018185 96.538
5.802858837297399 95.4647
5.825203900414495 95.8678
5.8475491852224 98.1452
5.869877275883075 96.93799999999999
5.892223006467101 94.7934
5.914551544266608 94.0938
5.936897724049891 96.9279
5.959244129804903 104.49600000000001
5.981573344815301 131.92600000000002
6.0039202049061 246.115
6.026249875609095 484.579
6.04859719346037 973.703
6.070927323278297 2278.29
6.093275102315365 4796.91
6.115623113320588 5626.4
6.137953938319995 2904.91
6.160302415650845 752.309
6.182633708324452 178.625
6.2049826554078376 101.446
6.227331838745022 86.8593
6.249663839443684 81.3268
6.27201349767565 77.6539
6.294345974611799 76.0544
6.316696111167083 75.3608
6.339046488263839 73.8847
6.361379686074702 70.9714
6.383730546639482 69.3329
6.406064229255215 68.7951
6.428415576718203 69.4119
6.450749747566656 68.2226
6.47310158535871 66.0592
6.495453669698332 64.211
6.517788579421056 63.3883
6.540141159237969 62.5565
6.562476565766648 62.1035
6.5848296444934045 61.9978
6.607182974060425 61.9615
6.6295191323281015 61.513000000000005
6.651872965955752 60.2606
6.6742096296068985 61.3912
6.6965639707294615 65.7803
6.71891856698715 65.7523
6.741255995248479 61.498000000000005
6.763611104154477 58.8064
6.785949046381137 57.544
6.808304671371482 57.8903
6.8306605557940046 59.0454
6.852999275508618 58.0095
6.875355681171544 56.9977
6.897694923437771 56.3262
6.92005185377892 55.6714
6.9423916220322655 55.0771
6.964749080490181 54.7025
6.987106804399774 54.5672
7.009447368180821 55.2276
7.031805625367033 54.7347
7.054146723727803 54.1071
7.076505517631004 54.102
7.098864581288365 54.1097
7.121206488070854 53.8064
7.143566093607822 54.3447
7.165908543567245 54.70399999999999
7.188268694426048 54.3776
7.2106291193438095 54.1246
7.232972390625943 53.3858
7.255333366030969 53.9132
7.277677189091925 58.3382
7.300038718428332 63.7852
7.322400526130865 61.68899999999999
7.344745183422596 56.4906
7.367107550224791 53.6902
7.389452767901992 53.3565
7.411815697249891 53.3979
7.434161478756298 52.8245
7.456524974096713 52.7071
7.478888753837185 52.89
7.501235387657368 53.6483
7.523599738562711 54.5058
7.545946944825532 56.3015
7.568311870344528 57.055
7.5906770845765665 55.531000000000006
7.613025156078678 54.8109
7.635390950099687 54.7555
7.657739602662809 54.5682
7.680105979923558 55.0951
7.702472650212829 55.9731
7.724822180948224 55.8561
7.747189439655568 55.677
7.769539560075357 55.3058
7.791907410653562 55.9886
7.81425812420825 55.8419
7.836626570110925 55.8694
7.858995315087906 56.6401
7.881346924933401 56.8822
7.903716270417482 57.4147
7.926068482028405 57.9075
7.948438431475253 58.5346
7.9708086843180235 59.128
7.993161805171116 59.8758
8.015532667162402 60.1738
8.037886398416653 61.3366
8.060257873014221 61.983000000000004
8.082629655331942 62.7569
8.104984308787587 63.0797
8.127356708900503 64.7209
8.149711981398308 67.3195
8.172085002766314 69.1522
8.194458336181368 68.2291
8.216814543847752 67.6585
8.23918850371002 68.5617
8.26154533906492 69.6322
8.283919928836452 71.3175
8.306277395339652 72.3603
8.328652618483376 73.6635
8.351028159736202 75.8244
8.373386579575245 78.0279
8.395762759396959 79.7217
8.418121819038275 81.8175
8.440498640894003 86.6105
8.462875785192262 96.2872
8.485235811156207 124.046
8.507613602688501 181.484
8.529974277114228 273.46
8.552352719347912 406.907
8.574731488360351 668.4860000000001
8.59709314210385 1257.16
8.619472567021075 2066.13
8.64183487789147 2375.09
8.664214962183097 1738.39
8.686577933647762 806.862
8.708958680784317 290.73900000000003
8.731339760774953 136.532
8.753703729764451 103.55799999999999
8.77608547780821 96.0341
8.798450116065078 93.3193
8.820832535634787 91.3826
8.843215292401656 91.2858
8.865580941199045 90.9291
8.887964374703538 90.3816
8.910330701447199 89.7465
8.932714815164482 89.4766
8.955099270424924 87.2368
8.977466620733543 85.073
8.999851761421976 84.0937
9.022219798361645 83.5934
9.04460562795561 83.1851
9.066991803441677 83.3738
9.089360876979615 83.925
9.111747746589993 83.8805
9.13411751544971 82.691
9.156505082664324 81.8305
9.178875550323522 81.5996
9.20126381862328 82.1557
9.223652438908596 83.5866
9.246023961427412 85.7451
9.26841328802173 86.5409
9.290785518039224 84.9484
9.313175554425882 84.5509
9.335565947154315 84.8801
9.357939245086508 85.641
9.380330352834827 85.2372
9.40270436697103 84.8508
9.425096193225055 84.334
9.447488380180165 84.5539
9.469863475295412 83.9282
9.492256385987508 83.9627
9.514632206018318 85.0099
9.537025843935714 85.3961
9.559402392368193 86.7932
9.581796761000229 89.0638
9.604191496441521 89.991
9.626569144158516 91.588
9.648964615551032 92.2349
9.671343000390081 91.8909
9.693739211225699 91.9931
9.716135793237463 91.8123
9.738515290448102 92.1782
9.760912617143402 94.031
9.783292860202891 95.6313
9.805690935076182 98.1978
9.828089385495742 98.8891
9.850470754023561 100.338
9.872869957865444 102.134
9.89525208097539 105.63799999999999
9.917652041736662 110.569
9.940052382417589 121.264
9.962435644102392 150.588
9.984836746950979 196.949
10.007220771957746 263.118
10.029622640473708 369.44599999999997
10.052007432299963 552.214
10.074410069984072 853.32
10.096813093716005 1351.58
10.119199042482517 1922.76
10.141602840636468 2031.7
10.163989564971628 1463.95
10.186394141051062 733.9810000000001
10.208799107559706 305.436
10.231187001965623 156.151
10.253592751657669 116.93299999999999
10.275981430388155 108.428
10.298387966769793 105.83
10.320794897965431 104.961
10.343184759907361 104.36399999999999
10.36559248305461 102.848
10.387983138083852 104.447
10.410391656691655 111.682
10.432800574501677 124.12299999999999
10.455192425893369 141.142
10.47760214443012 168.282
10.499994797678786 214.817
10.522405320453982 298.029
10.54479877906917 426.186
10.567210109595656 557.114
10.5896218454736 598.929
10.612016518879773 476.085
10.634429067781074 291.32
10.656824555333241 167.615
10.679237920773568 111.19200000000001
10.701651695961992 93.2247
10.724048411481384 87.7517
10.746463008485165 85.4525
10.768860546937125 83.90700000000001
10.791275969274796 82.3463
10.81369180576079 81.2571
10.836090585366925 80.1528
10.858507252467449 78.5611
10.88090686379991 78.212
10.903324365036394 77.5798
10.925724811614439 76.6753
10.948143150509463 76.8131
10.970561909719066 75.8829
10.992963615930844 75.1358
11.015383218085756 74.17699999999999
11.037785768347074 72.7628
11.06020621697282 72.1698
11.082627090322113 71.1403
11.105030913430326 71.0006
11.12745263854165 69.9045
11.149857314510728 69.2789
11.172279894912576 70.2764
11.194702904450653 69.2857
11.217108866490921 68.4214
11.239532736615194 67.891
11.26193956033512 67.3263
11.284364294577085 66.9059
11.306789462371718 66.3381
11.329197585398376 66.21300000000001
11.351623622610898 66.0102
11.37403261614354 65.2878
11.396459526308487 65.134
11.418869393879497 64.837
11.441297180532617 64.411
11.463725406927658 64.1813
11.486136592353875 63.9368
11.508565700543707 63.3934
11.530977768845315 63.888999999999996
11.553407762368774 63.2239
11.575838200059769 63.1601
11.598251599479612 63.0316
11.620682927815501 62.6728
11.64309721895548 62.4808
11.665529441478206 62.1599
11.687962112597958 61.9687
11.710377748130886 62.1559
11.732811318753434 61.9267
11.755227854859067 62.0662
11.777662328529495 62.0188
11.800079768750786 61.9719
11.822515149015453 61.9096
11.844950984084935 62.4661
11.867369787303163 61.9557
11.889806534289491 62.016000000000005
11.912226250487029 62.6264
11.934663912939751 63.1726
11.9571020346363 63.4408
11.979523127133968 63.7442
12.001962169624331 64.666
12.024384183972964 65.9285
12.046824150809913 69.41
12.069264581333726 73.7199
12.091687985297767 80.0273
12.11412934550045 89.4675
12.136553680195208 105.335
12.158995973632788 129.197
12.181438735204349 159.325
12.20386447284199 196.227
12.226308172985636 208.102
12.24873485024193 192.297
12.271179492516982 149.629
12.293607112949127 108.954
12.316052700916226 82.2288
12.338498763250042 68.7498
12.360927805303868 64.2627
12.383374818673879 63.3045
12.405804812803074 62.8002
12.428252780773262 63.0884
12.45070122756722 63.2583
12.473132656675375 63.405
12.49558206341869 63.7089
12.518014453510101 64.2783
12.540464823770117 64.222
12.562915677315177 64.1168
12.58534951575545 64.1726
12.607801338171472 64.1844
12.630236146511358 64.9614
12.652688941369085 65.9138
12.675124723177234 66.3242
12.697578494048786 66.6448
12.720032754458185 66.6412
12.742470003354093 66.589
12.764925245138771 66.9214
12.787363476431278 67.3282
12.809819703166806 67.6698
12.83227642391173 68.48899999999999
12.854716135692716 69.3481
12.877173846755147 70.6079
12.899614549869717 71.0361
12.9220732548287 71.755
12.94453245827299 72.2748
12.966974655289818 73.2302
12.989434858002571 74.0177
13.011878055298721 74.4987
13.034339260862497 75.6809
13.056800969391883 77.0984
13.079245674017244 80.6415
13.101708390774869 85.1958
13.12415410463411 93.6494
13.146617833206086 103.80799999999999
13.169064559883248 114.87799999999999
13.191529303857127 129.762
13.213994557076367 153.082
13.236442809902437 190.435
13.258909083908291 251.665
13.28135835851934 325.314
13.30382565690295 405.287
13.326293469022952 455.152
13.348744283242008 420.361
13.371213125129904 326.694
13.39366497011003 220.81
13.416134845360597 148.037
13.438605238843131 112.52600000000001
13.46105863690397 104.34299999999999
13.483530069144786 107.141
13.505984506951902 113.13799999999999
13.528456981549432 124.04799999999999
13.550929978879088 140.014
13.573385983253365 164.15400000000002
13.595860028340867 203.593
13.618317081455832 258.483
13.64079217790333 328.601
13.663250283359057 381.009
13.685726434770173 390.805
13.708203115221277 328.51800000000003
13.730662806148091 240.173
13.75314054697177 163.109
13.775601299246777 113.634
13.798080104050406 90.7292
13.820559442405358 82.9899
13.843021793671388 80.3678
13.865502201420897 79.1464
13.887965623051947 78.7048
13.910447103807167 77.6352
13.932929122629764 76.5682
13.955394156785959 76.2797
13.977877254034569 75.0309
14.000343367582113 74.2839
14.022827546871707 73.5393
14.045294743423524 72.8578
14.06778000837062 72.4135
14.090265817715476 72.332
14.112734645763819 72.2579
14.13522154619454 71.7743
14.157691466286913 71.6927
14.180179461423874 71.5493
14.202668005486178 70.9048
14.22513957064374 70.0877
14.247629214846473 69.9613
14.270101881097517 69.6359
14.29259262906496 69.1036
14.315083930490205 69.1413
14.337558255389705 68.8239
14.360050666019726 69.0837
14.382526101071944 68.9816
14.405019624534942 68.4319
14.427513705993134 68.3642
14.449990813291825 68.3203
14.47248601302899 68.1281
14.49496423954951 68.5837
14.517460561197822 68.7833
14.539939910570322 68.1451
14.562437357763558 68.3405
14.58493536931253 68.655
14.607416409993311 68.6158
14.62991555254159 69.0029
14.652397725157423 69.2594
14.674898002342799 69.6467
14.697398848433282 69.9139
14.719882725991326 71.5494
14.74238471217934 73.7565
14.764869730765593 77.3571
14.787372860692983 79.9761
14.809876564079925 84.7864
14.83236330125751 91.3861
14.854868153850365 100.286
14.877356041159485 114.875
14.899862046604186 133.02200000000002
14.922351087688757 160.651
14.944858249632887 195.89700000000002
14.967365991421232 223.072
14.989856770231246 232.243
15.012365673994204 215.362
15.03485761569738 176.213
15.05736768508665 131.875
15.07987833888692 103.35
15.102372032001655 84.713
15.124883856909658 74.1944
15.14737872204565 70.7209
15.169891721717274 69.4671
15.192405310371893 69.1464
15.214901940621196 68.6657
15.237416709527137 68.2916
15.259914520936249 68.06
15.282430473753607 67.3082
15.304947020131227 66.7559
15.327446610371178 66.6231
15.349964346154254 66.2001
15.372465126703139 65.9694
15.394984055556009 65.8093
15.417486030076159 65.8138
15.44000615566487 65.3634
15.462526881230803 65.3068
15.485030653812652 65.3252
15.507552581617434 65.0129
15.530057557334603 65.0543
15.55258069104857 65.4384
15.575104429329837 65.5401
15.597611216864632 65.7422
15.620136166564563 66.1865
15.6426441664095 67.7876
15.665170331202765 70.5773
15.687697105158826 73.5906
15.710206930593545 76.8623
15.732734925158933 81.5439
15.755245972089478 88.1966
15.77777519094324 97.3401
15.800287463046663 110.551
15.822817909869592 130.292
15.84534897229804 153.23
15.867863089299354 180.997
15.890395385222186 198.261
15.912910736597423 196.75099999999998
15.935444269699861 175.109
15.957978423016485 140.38
15.980495633101265 108.42200000000001
16.003031029129367 85.0497
16.02554948280019 70.678
16.048086125229432 64.714
16.070623392487107 62.6361
16.09314371869582 61.9187
16.11568223789321 60.9364
16.13820381691126 60.2098
16.160743591742527 59.8914
16.183283996022084 59.3346
16.205807461423195 58.563
16.228349126881973 58.0594
16.25087385432698 57.9918
16.27341678466365 57.472
16.29594277784926 57.1538
16.31848697676433 56.8305
16.341031811604868 56.2346
16.36355971058487 56.2654
16.3861058195587 56.2136
16.40863499352978 55.5888
16.431182380342005 55.4146
16.453730407713202 55.3247
16.476261501364792 54.9197
16.498810812136167 54.65
16.52134319004079 54.9476
16.54389378792203 54.7462
16.566445031001553 54.6132
16.588979342490088 54.4632
16.61153187824822 54.424
16.634067483263312 54.0403
16.656621315414416 54.0851
16.679175797408888 53.7414
16.701713349928728 53.8343
16.72426913389191 54.0427
16.74680798922351 53.9424
16.76936507887444 54.0347
16.791905240734874 53.883
16.814463639794468 53.8583
16.837022695210294 53.9231
16.859564824093756 54.1363
16.882125194503903 54.2367
16.904668639217885 54.48
16.927230328348003 54.3232
16.949792678493612 54.6107
16.972338104193863 54.6172
16.994901778652235 54.7042
17.017448529496576 55.0582
17.040013531998152 55.6372
17.06257920018044 56.294
17.0851279459922 56.8348
17.107694947817667 57.5468
17.130245028099072 58.4986
17.15281336730298 59.8573
17.17536478578733 61.5354
17.19793446610687 63.6544
17.220504818648422 66.8776
17.243058251703697 70.1924
17.265629950971032 75.3064
17.288184731571736 80.1296
17.310757781306908 83.5064
17.33333150794385 83.0049
17.355888317140174 79.8593
17.37846339986244 73.4389
17.401021565958885 67.775
17.42359800851343 62.8152
17.44617513265564 60.4514
17.468735341390783 59.2568
17.491261035594565 58.6835
17.51396340099364 58.3698
17.536490463869136 58.4097
17.559018209820174 58.299
17.58154663977963 58.4687
17.604251766089718 58.8092
17.626781572227713 59.0111
17.64931206518155 59.1374
17.671843245885103 59.5531
17.69455114821572 59.7553
17.717083712612634 60.1867
17.739616967569667 60.6075
17.762150914021706 61.0383
17.78486160749854 61.4862
17.807396945166804 62.3923
17.829932977143503 63.661
17.85246970436452 65.3071
17.875183204129467 66.825
17.897721330097664 68.7907
17.920260154126645 71.3122
17.942799677153296 74.5483
17.9655159983646 78.3014
17.988056927677544 83.5605
18.010598558807683 91.6359
18.033140892692916 102.044
18.05586005052525 114.721
18.07840379824407 128.082
18.10094825154059 138.628
18.12366954819864 142.942
18.146215420998306 137.631
18.16876200220057 124.719
18.191309292745153 108.931
18.214033452627167 96.0664
18.236582170236648 87.1089
18.259131600016456 84.2891
18.281681742907335 85.6705
18.304408781233683 91.2416
18.32696035875955 97.3575
18.349512652227624 102.51299999999999
18.372065662579683 106.29299999999999
18.394795594587553 105.10799999999999
18.41735004715306 98.4397
18.43990521943684 89.7454
18.46246111238171 80.929
18.485193953325208 72.2411
18.507751296070428 66.8103
18.530309362314178 63.9948
18.552868153000343 62.3023
18.57560391815056 61.323
18.59816416623245 60.9526
18.620725141597372 60.4486
18.643286845190268 59.8819
18.666025549835414 59.6783
18.688588718427933 58.9966
18.711152618092243 58.8975
18.73389353884365 58.605
18.75645890921984 58.5391
18.77902501351406 57.9411
18.801591852673102 58.0683
18.824335739722738 57.4735
18.846904057212626 57.448
18.8694731124168 57.1606
18.89204290628315 57.2113
18.914789774966803 56.8968
18.937361054791623 56.6168
18.959933076131318 56.6025
18.982505839934877 56.3505
19.00525570560582 56.3784
19.027829963004184 56.1454
19.05040496572238 56.2087
19.072980714710468 56.3391
19.095733592739563 56.6246
19.11831084296757 56.6127
19.140888842324735 56.9566
19.16346759176222 57.2173
19.18622349753803 57.9688
19.208803755869358 58.8165
19.231384767143577 60.0859
19.253966532312948 61.7992
19.276725481241822 63.8604
19.29930876296784 66.79899999999999
19.3218928014549 69.7364
19.34465404436217 72.6621
19.36723960516257 75.0372
19.389825925592426 75.4734
19.412413006605938 72.9592
19.43517731967805 68.8363
19.457765930683355 64.3254
19.48035530514408 60.0234
19.50294544401556 56.8503
19.525712842708348 55.1351
19.54830451925909 54.1096
19.570896963095727 53.5105
19.593490175174704 53.1064
19.616260674962184 53.0194
19.638855432416964 52.9058
19.661450960992624 53.0045
19.68404726164677 52.9362
19.706820878021247 52.607
19.729418731756834 52.9674
19.752017360452857 52.9021
19.77461676506804 53.2064
19.797393513540218 53.1313
19.819994478951667 53.4499
19.84259622316767 53.9533
19.8651987471481 54.2962
19.887978643247177 54.4762
19.91058273574792 55.0626
19.933187610901943 55.9922
19.955969879466828 57.0589
19.97857632894404 58.7045
20.00118356396599 60.6093
20.023791585494575 62.9718
20.046577028914875 65.6963
20.069186632506966 68.3873
20.091797025500632 70.107
20.114408208858933 70.1079
20.137196842715273 69.286
20.159809615886765 66.5425
20.18242318232135 63.5063
20.20503754298326 61.6394
20.227829382875154 61.0243
20.250445341109344 61.5385
20.27306209647285 62.8223
20.29567964993108 64.1823
20.31847471147704 65.2363
20.34109387027612 65.6108
20.363713830075454 64.5737
20.386334591841646 62.3214
20.409132890679302 58.9927
20.431755265564437 55.9869
20.454378445325528 53.5967
20.477002430930366 51.8503
20.499803982716553 51.055
20.522429589228004 50.2117
20.54505600449589 49.8499
20.567683229489194 49.9144
20.590488049900088 49.6876
20.61311690359731 49.5447
20.63574656993626 49.4118
20.658553853717297 49.0545
20.681185154618298 49.0274
20.703817271080066 48.8392
20.72645020407368 48.3962
20.749260783967177 48.485
20.771895359337133 48.4774
20.794530754161617 48.5258
20.817166969412938 48.2519
20.83998086114876 48.2927
20.86261872660049 48.0681
20.885257415405402 48.0936
20.90789692853701 48.0955
20.930714147864748 48.0468
20.953355319030678 48.0711
20.97599731745334 48.1623
20.99864014410749 48.1604
21.021460706796564 48.1625
21.044105199328826 48.2548
21.06675052302631 48.4855
21.089396678865015 48.6282
21.112220600704806 48.8621
21.134868430275347 49.2759
21.15751709492456 49.5942
21.180166595629693 49.9744
21.202993892429635 50.4597
21.22564507473034 50.8211
21.24829709602816 51.1032
21.27112693608965 50.9171
21.293780644891275 50.7751
21.316435195634053 49.8653
21.339090589297417 49.1845
21.361923832041875 48.5822
21.384580921090404 48.1804
21.407238856007325 47.7298
21.429897637773326 47.8947
21.45273429906592 48.0338
21.475394784108598 48.0991
21.498056118951983 48.0613
21.520718304578022 48.1168
21.543558400304388 48.3139
21.566222297108816 48.4519
21.58888704765135 48.5986
21.61155265291521 48.8278
21.63439619898156 49.3813
21.657063523335786 49.7583
21.67973170537063 50.0543
21.7024007460706 50.75899999999999
21.72524775840385 51.4093
21.747918526116475 52.4683
21.770590155457388 53.8398
21.79326264741238 55.3973
21.816113141960237 57.2499
21.838787368860547 59.3504
21.861462461341976 61.3959
21.884315579735777 63.6212
21.90699241312273 64.6525
21.92967011506078 64.317
21.95234868653799 63.0764
21.9752053151131 61.117
21.997885635446785 59.0655
22.020566828293532 57.3103
22.04324889464272 55.9987
22.066109049404666 55.5489
22.088792872571794 55.5782
22.111477572219204 55.6812
22.1341631493376 55.6543
22.157026846313123 55.3151
22.179714188221507 54.2494
22.202402410582668 52.8441
22.22509151438863 51.5035
22.24795876962584 50.3603
22.270649646204486 49.4614
22.293341407213727 48.9683
22.316034053646906 48.6204
22.338904883215342 48.3797
22.36159931041458 48.3235
22.38429462602756 48.2955
22.40699083104897 47.9609
22.429865251039757 48.1233
22.452563244831367 48.0734
22.47526213102522 47.9937
22.49813925616515 48.0736
22.520839937143307 47.951
22.543541513520587 48.1965
22.56624398629403 47.9859
22.589124730075895 48.0825
22.611829005656723 48.2555
22.63453418063466 48.1585
22.657240256008077 48.591
22.680124634582935 48.6374
22.70283252079775 48.7703
22.725541310413075 49.2758
22.74825100442868 49.4257
22.771139033969575 49.9949
22.79385054687155 50.1886
22.81656296718292 50.9632
22.83927629590484 51.6643
22.862167992606945 52.6172
22.88488314827121 53.9877
22.907599215359284 55.2662
22.93031619487366 56.3898
22.953211574954405 57.1374
22.975930389478226 57.4571
22.998650119445763 57.1892
23.02137076586092 55.8413
23.044269845560063 54.3047
23.06699233506288 52.613
23.089715744034912 51.1532
23.112617610931565 49.8074
23.135342869061212 48.6868
23.158069049684816 48.2915
23.1807961538087 48.0678
23.20370174880544 48.1597
23.226430710184808 48.3546
23.249160598093425 48.3068
23.271891413539002 48.2591
23.294800752937697 48.3444
23.31753343374794 48.7527
23.340267045128353 48.6911
23.36300158808808 49.0708
23.38591468821339 49.5038
23.408651104658304 49.8986
23.431388455719986 50.489
23.454126742409 51.4071
23.4770436196085 52.45
23.499783787914662 54.012
23.522524894889884 55.0221
23.54526694154616 56.2423
23.56818761219047 57.3286
23.59093154860734 57.5228
23.613676427751283 57.482
23.636422250635754 55.9718
23.659346731118656 54.13399999999999
23.68209445191868 52.0904
23.704843119509587 49.9457
23.72759273490623 48.3034
23.750521041644767 47.0696
23.77327256312355 46.2502
23.796025035462787 45.9131
23.818956224555475 45.5539
23.841710609113413 45.4283
23.86446594758979 45.1727
23.887222241002014 44.792
23.910157285144578 44.7941
23.932915498962537 44.7716
23.955674670778713 44.6484
23.978434801611975 44.4035
24.001373717286125 44.2175
24.024135776723917 44.0745
24.046898798245582 43.9454
24.06966278287146 43.8031
24.092605586582614 43.7278
24.115371508023642 43.4753
24.1381383956401 43.3341
24.16090625045381 43.4012
24.183852958731244 43.3135
24.206622758582608 43.2328
24.229393528706886 42.9368
24.252165270127392 43.2037
24.27511589952438 43.2257
24.297889594216997 42.9796
24.32066426328598 42.8186
24.34343990775613 42.8885
24.36639447485003 42.763000000000005
24.38917208083877 42.5512
24.41195066531332 42.4758
24.43490819850244 42.6398
24.457688750692377 42.4329
24.48047028445616 42.4475
24.503252800821233 42.6702
24.526214300784112 42.6255
24.548998793132213 42.7466
24.57178427117417 42.5137
24.59457073593893 42.4008
24.617536219319863 42.4169
24.64032466834748 42.3886
24.663114107195035 42.3012
24.685904536893013 41.8088
24.708874020360852 41.8654
24.731666442613744 41.8925
24.754459858818787 41.7677
24.777254270007962 41.8837
24.80022777025625 41.7588
24.82302418230472 41.7519
24.845821592443674 41.8971
24.86862000170663 41.7605
24.891597535453727 41.5262
24.914397953892728 41.8844
24.93719937456671 41.7666
24.96000179851076 41.8729
24.98298338249997 42.0281
25.00578782394922 42.2426
25.028593271784167 42.3993
25.05157790644186 42.7367
25.07438537804115 42.8906
25.097193859145293 43.173
25.120003350792075 43.5026
25.142992065061257 43.8597
25.165803588823465 44.1482
25.18861612625217 44.1967
25.211429678386736 44.1031
25.234422489079968 44.1654
25.257238081693636 44.2042
25.280054692141732 44.5791
25.3028723214652 44.5325
25.325869245420463 44.5809
25.348688923599397 44.5566
25.371509623787006 44.3625
25.394331347025812 44.0074
25.41733240110666 43.3298
25.440156181590016 42.5448
25.46298098826268 42.0871
25.48580682216873 41.6122
25.50881202326435 41.0735
25.53163992281684 40.8062
25.55446885274561 40.6028
25.577298814096377 40.3209
25.600308179121807 40.3043
25.623140214533745 40.3786
25.64597328451537 40.1451
25.66898578564376 39.9391
25.691820936010206 40.0627
25.714657124097695 40.0138
25.737494350954734 40.2446
25.760511045684957 39.9874
25.783350361364224 40.0298
25.806190718969255 39.9383
25.82903211955018 40.1012
25.852053024868923 40.0792
25.874896522722523 40.0997
25.897741066713106 40.0391
25.920586657892454 40.2163
25.943611790812668 40.3957
25.966459487728237 40.4308
25.989308234998564 40.5203
26.01215803367705 40.9531
26.03518741123814 41.1433
26.05803932412957 41.2207
26.080892291600094 41.303999999999995
26.10374631470478 41.3147
26.12677995397268 41.3282
26.14963609978026 41.1809
26.172493304397875 40.7089
26.19535156888223 40.4629
26.218389486949604 40.0548
26.241249882640123 39.8875
26.26411134137826 39.653
26.28715248187403 39.7335
26.31001607820869 39.6567
26.3328807407756 39.4427
26.35574647063438 39.6772
26.37879191991473 39.5936
26.401659795896734 39.6183
26.424528742360263 39.7874
26.447398760366614 40.0094
26.470448535598294 40.1008
26.49332070826805 40.3189
26.516193955675355 40.6465
26.53906827888316 40.9108
26.562122397260108 41.0726
26.584998883685063 41.303000000000004
26.607876449110325 41.7379
26.63075509460056 41.8094
26.65381357334404 41.8221
26.67669439061878 41.7279
26.699576291163382 41.4606
26.722459276044212 41.3973
26.745522132402975 40.9571
26.768407297649354 40.8399
26.791293550442003 40.4847
26.814180891848974 40.2087
26.837248143099337 39.9767
26.860137673466657 39.9372
26.88302829566349 39.5669
26.90592001075963 39.5068
26.92899167420566 39.3142
26.951885586870763 38.9696
26.974780595655517 38.9348
26.99785558178161 38.6486
27.020752794605112 38.5742
27.043651106772522 38.5276
27.06655051935668 38.3537
27.089629948036183 38.284
27.112531573292053 38.2657
27.135434302194138 38.3622
27.158338135817015 38.1522
27.181422024430987 38.1342
27.204328079372566 38.1117
27.22723524226965 38.0127
27.250143514198573 38.1603
27.273231880156334 38.103
27.296142382065014 37.9449
27.319053996245536 37.8623
27.341966723775965 37.9116
27.365059584515222 37.9784
27.38797455070062 38.0564
27.410890633481237 37.9966
27.433807833936918 38.0544
27.456905206923906 38.152
27.47982465472398 38.1672
27.502745223449743 38.1229
27.525666914182825 38.1562
27.548768816912457 38.2311
27.571692763693633 38.0862
27.59461783573812 37.9489
27.617723149491244 37.8355
27.640650484125285 37.5891
27.66357894728264 37.7464
27.686508540048052 37.6114
27.709618414237887 37.4928
27.732550278321757 37.4503
27.755483275279115 37.4807
27.778417406196485 37.5305
27.801531858397514 37.4762
27.824468269376716 37.3841
27.847405817586786 37.4344
27.870344504116094 37.4519
27.893463551932008 37.7245
27.916404527281053 37.8929
27.93934664422563 37.9906
27.962289903855886 38.0441
27.98541356491974 38.3898
28.00835912214229 38.51
28.03130582533231 38.6497
28.054253675581805 38.6382
28.077381967556104 38.7002
28.100332124185126 38.548
28.123283431160893 38.494
28.146235889577238 38.3074
28.169368830154156 38.1258
28.192323603752033 37.9922
28.215279532083304 37.6431
28.238415973016764 37.3742
28.261374223145094 37.3063
28.284333631303806 37.1433
28.307294198589954 37.0028
28.330435319167677 36.5799
28.353398217078915 36.3143
28.376362277420153 36.2289
28.39932750129032 36.1247
28.422473319286713 36.0524
28.44544088262495 35.9883
28.468409612800283 35.7583
28.491379510913497 35.5686
28.51453004413313 35.5153
28.53750229057244 35.4443
28.56047570826344 35.3547
28.583450298308804 35.4828
28.606605564586562 35.2911
28.629582511831156 35.292
28.65256063474956 35.2934
28.675539934446338 35.1891
28.698699951647605 35.1619
28.72168161743193 35.0943
28.74466446331978 35.221
28.767648490417624 35.0661
28.790813276438353 34.9514
28.813799678527303 35.0673
28.836787265157085 35.0257
28.859955641890075 35.0685
28.882945610203045 34.9089
28.905936766392035 34.8575
28.928929111566863 34.9301
28.952102288520145 34.7793
28.975097024308607 34.7614
28.998092952423807 34.6162
29.021090073977508 34.4883
29.04426806913204 34.4287
29.067267590245258 34.2284
29.090268308143695 34.1597
29.11327022394099 34.0929
29.13645305530891 34.0522
29.159457379627167 34.1251
29.18246290519685 34.0812
29.20546963313352 33.9088
29.22865731875826 33.9063
29.25166646419296 33.93
29.27467681535305 33.7568
29.29768837335608 33.8589
29.320880931312562 33.9571
29.34389491580634 33.8702
29.366910110507334 33.9042
29.38992651653503 33.9311
29.41312396492981 33.9679
29.436142806456754 33.7576
29.45916286268059 33.6597
29.48236399319994 33.4616
29.50538649169417 33.3748
29.528410208259935 33.2371
29.55143514402014 33.0367
29.574641196749695 32.8538
29.597668583816574 32.8036
29.6206971934585 32.7251
29.64372702680042 32.7378
29.666938019934474 32.6833
29.689970313635285 32.5432
29.713003834422636 32.5561
29.73603858342347 32.5376
29.759254535188578 32.5129
29.78229175361658 32.434
29.80533020365064 32.4328
29.82836988641968 32.4823
29.85159081507472 32.3458
29.874632976355343 32.3451
29.89767637376955 32.4291
29.920721008448314 32.2745
29.9439469322847 32.205
29.96699405457564 32.1624
29.9900424175358 32.2225
30.013092022298157 32.1712
30.03632295963995 32.1018
30.059375061131373 32.1027
30.08242840783577 32.1512
30.105483000888153 32.1168
30.128718970092244 32.049
30.151776069006917 31.9352
30.17483441768648 32.0659
30.198074175317235 32.0115
30.221135036724256 31.9962
30.24419715131772 31.9557
30.267260520236203 31.8341
30.290505341942243 31.8843
30.313571232750228 31.9766
30.336638381310948 31.8828
30.35970678876503 31.8184
30.38295669299435 31.8109
30.40602763151657 31.8032
30.429099832366074 31.8059
30.452173296685572 31.7018
30.47542830191959 31.6235
30.498504306502497 31.6646
30.521581577995562 31.7658
30.544660117543582 31.8206
30.56792024229725 31.8451
30.59100133132069 31.7525
30.614083691845494 31.7956
30.637167325018545 31.8663
30.660432587840603 31.895
30.683518779717886 31.8464
30.70660624769615 31.9273
30.729694992924372 31.7745
30.75296541239743 31.8385
30.77605672557558 31.7423
30.799149319462742 31.6996
30.8224236211637 31.494
30.845518789950724 31.4568
30.868615242910597 31.4346
30.891712981195973 31.3672
30.91499247215866 31.1762
30.938092794619365 31.1635
30.96119440587579 31.101999999999997
30.984297307082752 31.1036
31.00758200598383 30.8548
31.030687500658694 30.8436
31.053794288760695 30.8447
31.076902371446767 30.7104
31.100192296997445 30.7964
31.12330298246119 30.6752
31.14641496599209 30.6124
31.169528248749216 30.6454
31.19282341969534 30.4827
31.215939314557186 30.5306
31.239056512134788 30.6207
31.262175013589378 30.6545
31.28547544871168 30.6184
31.30859657161541 30.5701
31.331719001892175 30.5299
31.35484274070538 30.5977
31.378148458819545 30.648000000000003
31.401274828443725 30.6096
31.424402510106933 30.7292
31.447712205419993 30.6427
31.470842524931633 30.4913
31.493974159989783 30.4911
31.51710711176168 30.4172
31.54042212308802 30.4691
31.563557722100917 30.3396
31.586694641341655 30.2052
31.609832881979628 30.1309
31.63315322823208 30.0758
31.656294125521327 30.0191
31.679436347728515 29.936999999999998
31.70257989602529 29.8619
31.725905596152327 29.8015
31.74905181052835 29.6769
31.772199354521323 29.8156
31.79534822930507 29.7827
31.818679302290967 29.8419
31.84183085259981 29.8081
31.864983737233473 29.8338
31.88813795736804 29.8098
31.911474422233013 29.7256
31.934631327356435 29.7696
31.9577895715215 29.68
31.980949155906522 29.6622
32.004291031706956 29.6423
32.027453310562606 29.4653
32.05061693318573 29.3956
32.07396288236386 29.4394
32.09712920658542 29.4885
32.12029687812702 29.276999999999997
32.14346589817093 29.2136
32.166817291729984 29.1845
32.18998902288583 29.0989
32.21316210610336 29.0464
32.23633654256711 28.9263
32.259693399663725 28.8696
32.282870556771144 28.8827
32.30604907069099 28.7891
32.329228942610065 28.7013
32.35259128243769 28.6372
32.375773884550505 28.5262
32.398957848235646 28.5291
32.422143174682176 28.5209
32.445511016471215 28.3738
32.468699082679954 28.3865
32.49188851523011 28.3335
32.51507931531304 28.2619
32.538452678331 28.3184
32.56164622776311 28.287
32.58484114831493 28.2268
32.60803744118015 28.2022
32.631416344731896 28.1634
32.654615396551876 28.1017
32.67781582427913 28.068
32.701198898634416 27.9811
32.72440209253756 27.9723
32.747606665947124 27.9524
32.77081262006088 27.8075
32.79420126883317 27.8306
32.81740999876112 27.8037
32.840620112999424 27.6721
32.86383161274818 27.6948
32.88722585534586 27.7582
32.91044014056596 27.7793
32.933655814909734 27.6567
32.95687287957963 27.6896
32.98027273544904 27.5314
33.00349259526636 27.518
33.026713849030116 27.5955
33.04993649794511 27.5097
33.073341986570746 27.5028
33.09656744032826 27.4632
33.11979429286444 27.5069
33.14302254538647 27.4354
33.166433686291185 27.4511
33.18966475336992 27.3293
33.212897224069096 27.2201
33.23613109959831 27.3624
33.259547912343415 27.2588
33.2827846121627 27.2325
33.306022720453775 27.2368
33.32926223842861 27.0935
33.352684742614166 27.0815
33.37592709463173 26.9806
33.399170859982064 26.9449
33.422597648419426 26.8112
33.44584425514446 26.7905
33.46909227885668 26.7325
33.4923417207723 26.7123
33.51577423505344 26.7667
33.539026528130385 26.5589
33.56228024307245 26.5502
33.585535381098246 26.4403
33.60897364093058 26.4336
33.63223163992385 26.427
33.6554910656699 26.3157
33.678751919389796 26.3151
33.702195944520106 26.2447
33.72545966903325 26.229
33.74872482519663 26.2336
33.771991414233746 26.2439
33.79544122444841 26.0991
33.81871069412428 26.1009
33.84198160035767 26.1168
33.86525394437455 26.0394
33.88870955949969 26.0315
33.911984794020626 25.9501
33.93526147001624 25.9485
33.958539588715006 25.9477
33.98200102861669 25.8459
34.0052820477047 25.778000000000002
34.02856451319451 25.7391
34.05203033759056 25.7148
34.07531571090147 25.7161
34.09860253431845 25.6485
34.121890809074316 25.593000000000004
34.145362493118924 25.5942
34.16865368561615 25.5764
34.191946333164054 25.5677
34.21524043699793 25.5679
34.23871800066799 25.5559
34.26201503218366 25.3978
34.28531352370466 25.3761
34.30861347646881 25.2762
34.33209693978188 25.17
34.3553998301885 25.1454
34.378704185565205 25.1796
34.402010007152356 25.0994
34.42549939016683 25.053
34.44880815937748 24.9429
34.472118398533134 24.9652
34.49543010887669 24.8812
34.51892543169198 24.79
34.54224009966052 24.7904
34.56555624255917 24.941
34.58887386163339 24.8794
34.61237514439016 24.7095
34.6356957311114 24.6922
34.65901779775809 24.6974
34.68252356662995 24.6659
34.705848608458616 24.6038
34.72917513396849 24.558000000000003
34.75250314440949 24.5816
34.77601490857862 24.4966
34.799345904259795 24.3685
34.82267838863559 24.3658
34.846012362958525 24.3958
34.869530142679984 24.3458
34.89286711232212 24.3043
34.91620557568269 24.3361
34.93954553401677 24.2046
34.9630693495876 24.1743
34.986412313340814 24.147
35.00975677584668 24.1688
35.033102738362956 24.1895
35.05663261012228 24.0886
35.0799815881786 24.0942
35.10333207003229 24.0098
35.12668405694369 24.0214
35.150220005273056 24.0542
35.17357501786656 23.9472
35.19693153931268 23.8241
35.220289570874385 23.8433
35.24383161619786 23.7627
35.267192683604904 23.7661
35.290555264930376 23.7406
35.314101899412165 23.7799
35.33746752422433 23.7327
35.36083466676374 23.741999999999997
35.38420332829803 23.798000000000002
35.407756095629054 23.8174
35.43112781085063 23.6998
35.45450104888391 23.7169
35.477875810999194 23.6428
35.50143473172161 23.5146
35.52481255774625 23.615
35.54819191167777 23.5402
35.57157279478914 23.4694
35.595137889488406 23.5074
35.61852184675279 23.3639
35.641907337029984 23.4057
35.665294361595684 23.3651
35.68886565090076 23.2882
35.7122557598848 23.2311
35.73564740699838 23.184
35.759040593519934 23.2564
35.78261809810353 23.1656
35.80601437933051 23.0575
35.829412203814705 23.0315
35.85281157283719 22.9422
35.876395313415884 22.9684
35.8997977874528 22.9483
35.92320180988546 22.9049
35.946790244133936 22.8682
35.97019737933222 22.8127
35.993606066789866 22.7904
36.01701630779276 22.7791
36.04061101440684 22.7707
36.06402437852291 22.8024
36.08743930005611 22.7674
36.1108557802951 22.6004
36.13445678011326 22.6002
36.15787639383515 22.5527
36.18129757014299 22.6107
36.20472031032821 22.4849
36.22832762423364 22.4392
36.25175350829375 22.4597
36.275180960119776 22.3579
36.298609981005924 22.4039
36.32222362992669 22.4123
36.34565580510207 22.359
36.36908955323448 22.3085
36.39252487562093 22.129
36.416144880530226 22.1731
36.43958336764275 22.1296
36.463023432914625 22.1637
36.486465077645676 22.0872
36.51009145956204 22.1894
36.53353627947859 22.1552
36.55698268276811 22.0982
36.58043067073321 22.0476
36.60406345072071 21.934
36.62751462435344 21.9268
36.65096738658405 21.9724
36.67460498210655 21.9275
36.69806093788647 21.9083
36.72151848619297 21.7826
36.744977628333636 21.8424
36.76862165890998 21.6497
36.79208400512205 21.6963
36.81554794910557 21.6722
36.83901349217101 21.55
36.862663978991606 21.575
36.88613273667352 21.5285
36.90960309738324 21.4354
36.933075062434064 21.4178
36.95673202673572 21.4532
36.98020721697122 21.3673
37.003684015502365 21.3353
37.027162423645365 21.366999999999997
37.050825886711465 21.3391
37.07430753063053 21.214000000000002
37.09779078812467 21.1885
37.121275660513014 21.195
37.144945643673694 21.1566
37.16843376245278 21.2028
37.19192350009803 21.0857
37.215414857931435 21.0836
37.239091382563885 20.9572
37.262585997426164 21.0121
37.28608223645736 20.9961
37.309763684451696 20.9106
37.33326318851098 20.8838
37.356764320726555 20.8298
37.380267082425526 20.9032
37.40395510942588 20.8513
37.42746114683234 20.7662
37.45096881771841 20.7737
37.474478123414166 20.7375
37.49817275092816 20.7472
37.52168534303452 20.685
37.54519957395567 20.5396
37.568715445024665 20.6266
37.592416694607714 20.5468
37.61593586281424 20.5357
37.63945667518264 20.5876
37.66297913304891 20.4016
37.68668702630454 20.4298
37.710212792059274 20.3891
37.733740207334854 20.3749
37.757269273470364 20.3206
37.780983832050374 20.3148
37.80451621684926 20.289
37.82805025654007 20.2452
37.851585952464795 20.1821
37.8753071980695 20.1747
37.89884622345676 20.1439
37.92238690911902 20.1512
37.94611318753442 20.0709
37.969657210779765 20.078
37.99320289834801 20.0787
38.016750251586465 20.0023
38.04048325513017 19.8711
38.06403395679343 19.8719
38.087586328183946 19.8401
38.11114037065203 19.8274
38.13488012115898 19.835
38.1584375229181 19.7307
38.181996599821 19.6955
38.205557353221124 19.7066
38.229303872575656 19.7004
38.2528679961576 19.6903
38.27643380031219 19.6335
38.30000128639589 19.5827
38.32375459653193 19.6346
38.34732546371299 19.5557
38.37089801690786 19.4727
38.39447225747609 19.4753
38.418232380377425 19.4305
38.441810012983396 19.3942
38.46538933705673 19.3692
38.488970353960084 19.3482
38.51273731166058 19.3264
38.536321731567014 19.3171
38.55990784840681 19.2479
38.58367995004091 19.2379
38.60726947812959 19.1188
38.63086070726198 19.0847
38.654453638806274 19.1294
38.678232613930824 19.1256
38.70182896773327 19.0831
38.72542702806741 18.9971
38.7490267963045 18.9315
38.77281266709232 18.9623
38.79641586862214 18.9355
38.8200207821842 18.8889
38.843627409152944 18.8939
38.86742019782782 18.8323
38.891030269149255 18.6863
38.914642058016156 18.8249
38.938255565806124 18.7325
38.96205529464307 18.6728
38.98567225787121 18.6871
39.00929094417078 18.6957
39.03291135492255 18.7184
39.05671804624804 18.7055
39.080341923549106 18.64
39.103967529460334 18.5432
39.127594865365744 18.4898
39.15140854155791 18.4473
39.17503935514948 18.4646
39.19867190290282 18.4651
39.22249083587951 18.3738
39.24612686969409 18.4138
39.269764641845306 18.412
39.293404153722804 18.3225
39.317230110864074 18.2213
39.34087311998506 18.2131
39.36451787301696 18.2687
39.388164371352595 18.1689
39.41199737518003 18.1581
39.43564738196752 18.1601
39.45929913825317 18.1429
39.48295264543308 18.0913
39.506792718520884 18.0365
39.530449745387216 18.0159
39.55410852735203 17.9842
39.57776906581474 18.024
39.60161623079 17.9599
39.625280300200025 17.977
39.64894613032202 17.8492
39.67261372255866 17.8966
39.6964680021016 17.8257
39.72013913657293 17.8187
39.74381203738292 17.7925
39.76748670593756 17.7413
39.79134812278169 17.6987
39.81502634488497 17.6847
39.83870633896685 17.6624
39.862388106436654 17.6247
39.88625668336918 17.6234
39.90994201572829 17.6634
39.933629125719285 17.5555
39.957503091207826 17.4909
39.9811937746168 17.5208
40.00488623990914 17.4862
40.02858048850006 17.4439
40.05246165409549 17.4263
40.076159487492085 17.4073
40.099859108448875 17.372
40.123560518384345 17.2385
40.1474489070226 17.2855
40.171153913178564 17.2393
40.194860712584955 17.2668
40.2185693066637 17.269000000000002
40.242464941335314 17.2389
40.26617714307655 17.1539
40.289891143772046 17.1278
40.3136069448471 17.1626
40.33750984859743 17.0854
40.3612292688043 17.0098
40.3849504936829 17.0127
40.40867352466194 17.0381
40.43258372059144 16.9539
40.45631038219906 16.9684
40.48003885420956 16.9501
40.503769138055105 16.9108
40.52768664931955 16.9145
40.55142057531802 16.8763
40.57515631746428 16.8039
40.599079334038514 16.7467
40.62281872700477 16.7699
40.64655994043941 16.6773
40.67030297578061 16.7194
40.69423334835778 16.6837
40.71798004609188 16.6679
40.74172857006355 16.6246
40.76547892171441 16.5893
40.7894166736039 16.5736
40.813170699248566 16.5424
40.83692655691388 16.5517
40.86068424804498 16.6125
40.884629402612525 16.5092
40.908390779366385 16.4518
40.932153993938 16.3807
40.95591904777605 16.4116
40.979871628443995 16.3898
41.003640379561936 16.3638
41.02741097430883 16.3243
41.05118341413683 16.3286
41.075143444384416 16.3237
41.098919593177826 16.235
41.1226975914255 16.2542
41.14647744058318 16.1764
41.170444943946755 16.168
41.19422851378379 16.1473
41.218013938914645 16.0928
41.24198706625173 16.0774
41.26577622087193 16.0655
41.289567235177785 16.0466
41.31336011063129 15.9251
41.337340752422875 15.8647
41.361137369129835 15.9088
41.38493585138705 16.0059
41.40873620066004 15.9266
41.43272438060107 15.8635
41.45652848292052 15.8049
41.48033445666918 15.7799
41.50414230331616 15.785
41.528138045159764 15.7266
41.551949656675205 15.6646
41.575763145513235 15.662
41.59957851314666 15.6189
41.62358184070442 15.6053
41.64740098505737 15.5373
41.6712220126409 15.5484
41.69504492493139 15.5516
41.71905586207357 15.5509
41.74288256296395 15.5016
41.766711153007456 15.4992
41.79054163368412 15.4752
41.814560204340054 15.5152
41.838394485526365 15.4469
41.86223066180303 15.4101
41.88625497706819 15.4256
41.910094962812 15.3387
41.93393684811168 15.2782
41.95778063445365 15.2635
41.981812625263366 15.2446
42.00566023303407 15.1857
42.029509746323676 15.1655
42.05336116662236 15.1784
42.077400857069705 15.2374
42.10125611078846 15.1648
42.12511327600405 15.0588
42.14897235421036 15.0883
42.173019768448455 15.0471
42.19688269209613 14.9765
42.22074753323349 15.0184
42.24461429335818 14.9867
42.268669455600495 14.9627
42.292540073217886 14.966
42.31641261433284 14.9362
42.34028708044675 14.8679
42.36435001496739 14.8575
42.38822835065557 14.8545
42.41210861586426 14.8686
42.4359908120986 14.7943
42.46006154323262 14.7391
42.48394762115317 14.6965
42.507835634632315 14.7045
42.531912233047436 14.6793
42.55580413732265 14.6522
42.579697981698 14.61
42.60359376768525 14.5767
42.62767820545945 14.5347
42.65157789440821 14.5435
42.67547952952185 14.5056
42.699383112316 14.5635
42.72347541395347 14.5224
42.74738291190531 14.4086
42.771292362102166 14.3625
42.795203766063516 14.3713
42.819303956130405 14.3837
42.843219287476536 14.3559
42.86713657716324 14.3619
42.89105582671383 14.3078
42.91516392983864 14.3092
42.939087119032166 14.2591
42.963012272677304 14.2615
42.98693939230129 14.2188
43.01105543317513 14.1647
43.034986504731386 14.1618
43.05891954686589 14.1161
43.08285456110972 14.1306
43.10697856448665 14.0491
43.130917542983475 14.0271
43.15485849820081 14.0302
43.17880143167367 14.0434
43.20293342237094 14.0187
43.226880332449 13.9285
43.25082922540554 13.9371
43.27496722682525 13.8788
43.29892010567796 13.9123
43.32287497204102 13.8893
43.34683182745632 13.8758
43.370977859791836 13.8514
43.39493871351105 13.8202
43.41890156092628 13.7931
43.44286640358341 13.7462
43.46702049182749 13.7095
43.49098934522816 13.7026
43.51496019852649 13.661
43.5389330532723 13.6423
43.56309522248204 13.6237
43.58707210044314 13.6278
43.61105098451946 13.565
43.63503187626491 13.5702
43.659202151562134 13.5272
43.68318707902681 13.5071
43.70717401884041 13.467
43.731162972560874 13.4495
43.75534137913236 13.4606
43.779334381108384 13.389000000000001
43.803329401683186 13.4232
43.82732644241872 13.4015
43.8515130055166 13.3951
43.87551410707659 13.3173
43.89951723350145 13.3359
43.923709934595614 13.2809
43.94771713129917 13.2738
43.97172635758096 13.2847
43.99573761501002 13.2515
44.0199385169922 13.1761
44.04395385732619 13.1301
44.067971233533086 13.1821
44.09199064718605 13.1082
44.11619977548961 13.118
44.14022328470671 13.1023
44.16424883610785 13.0661
44.18827643127035 13.0475
44.21249381139513 13.0295
44.236525514814076 12.9994
44.26055926674478 12.9781
44.28459506876863 12.9813
44.3088207262813 12.9139
44.33286064928722 12.8507
44.35690262714919 12.9006
44.38094666145278 12.8014
44.4051806219871 12.8831
44.42922879003185 12.8093
44.45327901929361 12.7998
44.477331311362136 12.7645
44.501573600619416 12.7073
44.525630039221795 12.7137
44.54968854541895 12.7413
44.573937102200176 12.7262
44.5979997645541 12.6513
44.622064499300315 12.6424
44.64613130803592 12.6022
44.67038823869318 12.5917
44.69445921643748 12.5888
44.718532272981385 12.5298
44.742607409926194 12.5209
44.76687274034801 12.4446
44.79095205918753 12.4147
44.81503346325094 12.4325
44.839116954143876 12.4211
44.86339071028742 12.4417
44.88747839599524 12.4147
44.91156817336837 12.3656
44.93566004401666 12.3754
44.959942251908146 12.3442
44.984038330325966 12.2569
45.00813650686762 12.2501
45.03223678314731 12.26
45.05652746888232 12.2539
45.08063196592069 12.2196
45.104738567558705 12.22
45.128847275414856 12.2351
45.15314646515866 12.1469
45.17725940679741 12.1107
45.20137445952892 12.105
45.22568004865265 12.092
45.24979934496396 12.0737
45.27392075725247 12.0203
45.29804428714431 12.0525
45.322358426247604 12.072000000000001
45.346486212804315 12.0041
45.370616121861914 11.9638
45.39474815505086 11.9272
45.41907087049246 11.8952
45.4432071734666 11.8916
45.46734560548283 11.917
45.49148616817604 11.8811
45.51581748638564 11.8598
45.5399623320197 11.8165
45.56410931325473 11.8094
45.58825843173002 11.7804
45.61259837920865 11.7227
45.636751793816 11.7687
45.66090735060093 11.7313
45.68506505120716 11.690999999999999
45.7094136545275 11.6484
45.73357566449271 11.644
45.75773982322992 11.6339
45.78190613238733 11.6473
45.806263418194064 11.5538
45.83043404997326 11.5133
45.85460683713677 11.5529
45.87897065658495 11.5051
45.90314777634752 11.5428
45.92732705646868 11.5195
45.9515084986045 11.4619
45.97588104735473 11.4553
46.00006683541565 11.3897
46.02425479047904 11.3875
46.04844491420549 11.435
46.0728262191024 11.3684
46.09702070211635 11.3495
46.12121735879483 11.3426
46.14541619080294 11.3476
46.169806278764455 11.3016
46.194009483459034 11.3204
46.21821486849841 11.2638
46.24242243555223 11.1995
46.266821333570014 11.2127
46.29103328674601 11.1668
46.31524742696538 11.1841
46.33946375590237 11.1327
46.36387149104216 11.1222
46.38809221957392 11.0672
46.41231514186606 11.1298
46.436540259597464 11.0642
46.460956858999374 11.0686
46.48518638983522 11.0476
46.509418121166966 11.0061
46.533652054678114 10.9834
46.55807754555709 10.9513
46.58231590571962 10.9448
46.60655647313217 10.8744
46.630988654873654 10.9098
46.655233659129024 10.8945
46.67948087571551 10.8643
46.70373030632484 10.8263
46.72817142736393 10.8325
46.752425308428684 10.8063
46.77668140861147 10.7764
46.80093972960865 10.7173
46.82538981736788 10.7142
46.849652602470904 10.7117
46.87391761349769 10.703
46.8981848521493 10.7002
46.9226439341274 10.6653
46.946915650573224 10.6005
46.97118959976749 10.6232
46.99546578341598 10.5724
47.019933887188216 10.5707
47.04421456235744 10.5907
47.06849747711879 10.5609
47.09278263318286 10.5293
47.11725978640143 10.4864
47.14154944775105 10.4726
47.165841355555656 10.445
47.1901355115306 10.432
47.214621741924994 10.4195
47.23892041698887 10.4225
47.26322134538975 10.3597
47.28771440635075 10.3848
47.31201986422527 10.357000000000001
47.33632758061436 10.3161
47.360637557241866 10.2893
47.38513974410611 10.2838
47.40945426407847 10.2753
47.43377104948137 10.2552
47.45809010204344 10.1995
47.48260144275502 10.2295
47.506925052572285 10.1677
47.53125093475548 10.1251
47.55557909103813 10.1737
47.58009961361992 10.1508
47.60443234110732 10.1019
47.62876734791564 10.0943
47.65310463578333 10.076
47.6776343683373 10.0684
47.7019762413987 10.0307
47.72632040075572 10.0133
47.75066684815169 10.054
47.77520581885936 9.97611
47.799556865477655 9.961969999999999
47.823910205386 9.92298
47.84826584033272 9.94559
47.87281407745551 9.93153
47.89717432569297 9.90739
47.92153687423484 9.88568
47.94609208429692 9.865730000000001
47.97045925671401 9.84239
47.99482873471275 9.80744
48.01920052005013 9.79643
48.04376504619224 9.786019999999999
48.068141469543484 9.81252
48.09252020552573 9.758610000000001
48.11690125590099 9.729439999999999
48.1414751266064 9.719489999999999
48.16586082917454 9.71918
48.19024885144316 9.697510000000001
48.2146391951793 9.68772
48.239222439012764 9.66853
48.26361744916137 9.61335
48.28801478610016 9.64812
48.31241445160131 9.59352
48.337007097209366 9.5706
48.36141144338331 9.56347
48.38581812345755 9.56587
48.41022713920929 9.552589999999999
48.434829215320704 9.51682
48.45924292604658 9.512139999999999
48.48365897780325 9.479619999999999
48.50807737237308 9.48547
48.532688907799276 9.480410000000001
48.55711201168574 9.46402
48.581537463754074 9.42339
48.60615611725119 9.37795
48.63058628942721 9.40053
48.65501881516546 9.35902
48.6794536962573 9.35924
48.70408185970339 9.29999
48.72852147531801 9.28085
48.75296345168211 9.29
48.77740779059232 9.294080000000001
48.80204549302823 9.29017
48.82649458091802 9.26912
48.85094603676547 9.21045
48.87539986237231 9.21879
48.90004713292306 9.18223
48.92450572200832 9.18336
48.94896668628025 9.14649
48.97343002754588 9.105310000000001
48.99808689542115 9.12098
49.02255501470614 9.11843
49.04702551642794 9.077860000000001
49.0714984023988 9.0835
49.096164896893235 9.02058
49.120642575466796 9.01923
49.145122643748394 8.99623
49.16960510355558 8.98413
49.19428125404938 8.9834
49.2187685210852 8.96976
49.243258185121555 8.97635
49.26794160167084 8.910260000000001
49.2924360839405 8.89232
49.31693296869764 8.87163
49.34143225776915 8.862119999999999
49.36612538195438 8.82587
49.39062950396021 8.84722
49.41513603578346 8.88017
49.4396449792564 8.815660000000001
49.46434784069503 8.78176
49.488861631846454 8.78307
49.513377840166804 8.75245
49.537896467493745 8.72749
49.56260909589029 8.71066
49.587132585683285 8.71924
49.611658500018365 8.66883
49.636186840738596 8.67574
49.66090926588511 8.68838
49.685442483902584 8.66382
49.70997813385706 8.616
49.734516217597076 8.59251
49.75924846937352 8.58817
49.7837914452858 8.56292
49.80833686055187 8.51902
49.83288471702571 8.52835
49.85762682540054 8.5445
49.882179588965734 8.529710000000001
49.9067347993235 8.481110000000001
49.93129245833333 8.47982
49.95604445336378 8.50937
49.98060703442832 8.42757
50.005172069746266 8.441939999999999
50.02993150438364 8.41195
50.05450147301533 8.41615
50.07907390151433 8.37786
50.10364879174981 8.3817
50.12841816587289 8.340860000000001
50.1529980044635 8.3173
50.17758031042124 8.33971
50.20216508562089 8.324019999999999
50.22694442953363 8.28781
50.25153416817468 8.24692
50.27612638170508 8.23891
50.300721072005196 8.21782
50.325510416102105 8.2145
50.350110084975064 8.18421
50.37471223628208 8.14758
50.39931687190919 8.14597
50.424116246675766 8.14428
50.44872587605249 8.12122
50.47333799543065 8.10983
50.49795260670191 8.08601
50.52276204271512 8.08755
50.54738166295838 8.08847
50.57200378079314 8.05402
50.596628398116835 8.038219999999999
50.62144792604559 8.03598
50.646077567609396 8.0435
50.670709714377715 8.032119999999999
50.69553683636198 7.938969999999999
50.72017401885922 7.98758
50.7448137122895 7.97993
50.76945591856022 7.90265
50.79429318636823 7.91142
50.818940443716784 7.91672
50.84359021965163 7.9062600000000005
50.868242516085964 7.877160000000001
50.893089960641895 7.86061
50.917747323549435 7.82442
50.94240721271973 7.8574
50.96706963007175 7.81654
50.99192728239342 7.811789999999999
51.01659478166073 7.82908
51.04126481489051 7.75105
51.06593738400761 7.7718300000000005
51.090805275207074 7.73793
51.11548294172845 7.729030000000001
51.14016314993547 7.71604
51.164845901758845 7.68935
51.18972406304274 7.6635
51.21441192780656 7.63143
51.23910234200271 7.63105
51.2637953075678 7.6304300000000005
51.288683770237945 7.628639999999999
51.31338186432707 7.618110000000001
51.33808251561888 7.6134
51.362978729967345 7.57442
51.387684521509755 7.57457
51.41239287610203 7.57712
51.437103795691165 7.51582
51.46201036644977 7.50863
51.486726441956634 7.4913
51.51144508832545 7.494910000000001
51.536166307509156 7.46673
51.56108326624387 7.4321600000000005
51.58580965706056 7.4088
51.61053862657523 7.4214199999999995
51.635270176746864 7.3958699999999995
51.66019755512065 7.365880000000001
51.68493429268881 7.386139999999999
51.70967361681515 7.37333
51.73441552946465 7.363339999999999
51.759353359237934 7.328010000000001
51.7841004750961 7.3427
51.80885018539685 7.32863
51.833602492111254 7.25995
51.8585508051424 7.24879
51.883308330926425 7.225560000000001
51.90806845906181 7.20447
51.932831191525715 7.2123800000000005
51.95779001977161 7.1666300000000005
51.98255798721516 7.17088
52.00732856494335 7.124510000000001
52.03229530577543 7.127160000000001
52.057071130455945 7.15632
52.081849571391054 7.12245
52.106630630568695 7.11787
52.13160794279417 7.0926800000000005
52.15639426492067 7.07321
52.18118321127822 7.028689999999999
52.205974783860896 7.06835
52.23096269971011 7.03632
52.255759551287994 7.039460000000001
52.280559035098186 7.00485
52.30536115314103 6.97272
52.33035970494467 6.985539999999999
52.35516711807904 6.981960000000001
52.37997717147198 6.96732
52.40478986713005 6.9467
52.42979908731974 6.8958
52.454617094216 6.90433
52.47943774942214 6.8766
52.50426105495102 6.872539999999999
52.529280976059844 6.87022
52.554109609024096 6.86335
52.57894089837482 6.812
52.60377484613117 6.80554
52.62880550079408 6.79656
52.65364479223379 6.787489999999999
52.67848674816189 6.73682
52.70352547971946 6.75806
52.72837279155837 6.7560899999999995
52.753222773982785 6.6882600000000005
52.778075429022984 6.74078
52.80312495150885 6.71703
52.827982978797436 6.699839999999999
52.85284368481815 6.65383
52.87770707160767 6.67501
52.90276741793998 6.64855
52.92763619336701 6.6153699999999995
52.952507655698504 6.622510000000001
52.977381806977576 6.598560000000001
53.00245301017842 6.5846800000000005
53.02733256653592 6.600160000000001
53.052214817996074 6.58132
53.077099766608484 6.54854
53.102181859804446 6.535019999999999
53.127072229988265 6.55267
53.15196530349892 6.54221
53.17686108239249 6.49862
53.20195409881522 6.48021
53.22685531582556 6.48634
53.25175924441303 6.4595199999999995
53.27666588664027 6.4622
53.30176985962693 6.41327
53.3266819565689 6.3875
53.35159677336455 6.40726
53.376514312083096 6.39317
53.40162927507703 6.4106
53.42655228516116 6.33453
53.45147802340193 6.32809
53.47660125628886 6.3125599999999995
53.50153247842639 6.34882
53.52646643496923 6.28204
53.55140312799818 6.2554
53.576537409691696 6.25363
53.60147960336152 6.274
53.626424539786164 6.2634
53.65137222105307 6.21094
53.67651758529126 6.19146
53.70147078399681 6.21817
53.72642673383343 6.18748
53.75138543689533 6.17991
53.776541917524526 6.16558
53.801506154876755 6.12344
53.826473151763246 6.10266
53.851442910284916 6.12665
53.87661054126026 6.11465
53.9015858509782 6.091
53.92656392866066 6.08742
53.95154477641532 6.08477
53.976723591801296 6.11249
54.00171000771266 6.067
54.02669920004598 6.0816099999999995
54.051691170915745 6.03594
54.076881204886796 5.97968
54.101878760928514 5.98999
54.12687910187696 5.958069999999999
54.152077577768296 5.93582
54.1770835166946 5.92936
54.20209224691339 5.93317
54.22710377055121 5.89429
54.25231352511594 5.8924900000000004
54.27733066384342 5.86375
54.30235060239643 5.88328
54.32737334290836 5.878019999999999
54.35259441062629 5.84184
54.377622783395324 5.81642
54.40265396455061 5.834980000000001
54.42768795623251 5.8089900000000005
54.45292037169559 5.74821
54.477960012857906 5.82118
54.50300247099511 5.763999999999999
54.52804774825457 5.7231
54.55329154616743 5.70476
54.57834249018678 5.7045
54.6033962597977 5.65918
54.6284528571545 5.6296
54.653708072335164 5.61724
54.67877035378786 5.5925199999999995
54.70383546947698 5.6
54.72890342156389 5.55431
54.7541700889442 5.55215
54.77924374251975 5.54539
54.8043202390049 5.50117
54.82959552413022 5.49076
54.8546777351945 5.47558
54.87976279569621 5.43388
54.90485070780914 5.4742
54.930137506558005 5.43181
54.95523115074295 5.40949
54.98032765308844 5.37512
55.005427015775496 5.2916099999999995
55.03072536339621 5.34359
55.05583047570572 5.26599
55.080938454927676 5.2663400000000005
55.10604930325027 5.27568
55.131359235107396 5.24872
55.15647585066083 5.20796
55.181595341907496 5.22083
55.20671771104285 5.19855
55.232039262617704 5.190519999999999
55.25716741665048 5.1409400000000005
55.28229845518636 5.1274
55.30743238042802 5.09439
55.33276558731939 5.05773
55.357905315183636 5.04657
55.383047936390035 5.02645
55.40819345314859 5.04765
55.433538351073295 5.03181
55.458689688238415 4.9764
55.483843927614096 4.9631
55.509197623043605 4.982469999999999
55.53435769621134 4.854480000000001
55.55952067826466 4.84816
55.5846865714265 4.84454
55.61005202069737 4.85555
55.63522376553902 4.88775
55.66039842818645 4.77631
55.68557601087004 4.7893099999999995
55.7109532500271 4.76614
55.73613670233794 4.76387
