TT I
1.2716486653135266 6.7236199999999995
1.2939594142134223 6.83432
1.3162702121660406 6.3067400000000005
1.3385810600174564 6.136769999999999
1.3608919586137629 6.12711
1.383202908801069 6.53637
1.405513911425503 6.5477099999999995
1.4278249673332093 5.9152
1.4501343378461518 6.49984
1.4724455028545926 6.12104
1.4947567236847858 5.79326
1.517068001182951 6.2727699999999995
1.5393793361953272 5.82932
1.5616907295681737 5.23297
1.5840021821477681 4.59004
1.60631369478041 4.79378
1.6286252683124185 4.87207
1.6509369035901333 5.609319999999999
1.6732468618895553 5.23524
1.695558623192809 4.5534
1.7178704487808514 5.43423
1.7401823395001077 4.96786
1.7625012545597203 4.55558
1.7848028405262486 4.81075
1.8071218901122095 4.75137
1.8294236121921872 4.25418
1.8517427996910911 4.96438
1.8740620574440425 4.80926
1.8963639900671978 4.71706
1.9186833908139995 4.78376
1.9409854680117449 4.89363
1.9633050151394713 4.16119
1.9856246367570705 4.70625
2.0079269371922672 4.65785
2.03024671027244 4.69959
2.0525491637446027 4.65444
2.074869091674931 4.42742
2.097171701569106 4.583080000000001
2.1194917877373847 4.86891
2.141811954326636 4.91959
2.164114805233074 5.44966
2.186435135143035 5.67852
2.208738150935709 16.0157
2.231058647554722 34.6785
2.2533792288321184 27.0426
2.275682498336085 12.2671
2.298003251406138 6.67243
2.3203066942619714 6.22197
2.3426276225136022 5.64669
2.3649486396617507 5.94372
2.387252348930071 6.110180000000001
2.4095735463442893 5.76336
2.4318774374315884 6.12711
2.4541988185014043 6.3035
2.476502894794693 6.9295100000000005
2.498824462909887 6.75375
2.521146125856138 7.04103
2.5434504863470337 7.251060000000001
2.5657723414244717 7.1950199999999995
2.588076895590662 8.34643
2.610398946189713 8.35741
2.6327210958598384 8.14114
2.6550259469304716 8.55989
2.6773482972090137 8.57034
2.6996533504259 8.77467
2.7219759047039602 9.39996
2.744298562293959 8.83457
2.7666039251246595 8.05938
2.7889267918020164 7.946619999999999
2.8112323652516555 8.06093
2.833555444408179 8.65616
2.8558786311183852 7.7039
2.8781845268938557 9.01191
2.9005079311721484 9.4377
2.9228140460410397 9.21317
2.9451376712799635 9.2811
2.967444008632326 9.694189999999999
2.9897678582247247 9.86801
3.0120918213106695 10.5632
3.0343984987899373 10.7923
3.0567226913198637 10.9084
3.079029599759726 11.786
3.101354025127254 12.6498
3.123678568232338 13.3171
3.145985829517914 13.0091
3.16831061055229 13.5071
3.1906181112775593 14.0797
3.212943133635653 14.4843
3.2352682779763207 15.071
3.2575761442691227 15.949000000000002
3.2799015350264273 16.1535
3.302209649240067 16.4574
3.3245352898092655 16.6465
3.3468436553365257 17.4175
3.369169549113219 17.7745
3.3914955708171384 18.7863
3.413804319727358 19.0732
3.4361305997334863 18.7793
3.4584396084414553 19.246
3.4807661501462652 20.6227
3.503092824025881 20.7347
3.5254022288463154 21.2157
3.5477291695206588 21.7255
3.5700388426251948 22.5252
3.5923660534916446 24.2771
3.6146934007816114 41.8036
3.637003482731501 105.713
3.6593311053109985 120.214
3.681641464033634 67.4478
3.7039693653009733 32.7665
3.726297407241705 26.6701
3.7486081875460804 25.8947
3.7709365132734978 26.2607
3.793247578841633 26.5698
3.8155761917550093 26.6818
3.8378875459837216 27.0445
3.8602164494827234 27.6752
3.882545499606844 28.5627
3.9048572932539183 28.7101
3.9271866390645718 29.1427
3.9494987298666713 29.2903
3.971828374764527 30.2662
3.9941581705403255 30.592
4.016470713506008 31.4823
4.038800813471445 32.543
4.061113662089144 33.0037
4.0834440696459176 33.746
4.105774632334751 34.2746
4.128087945865126 34.7634
4.150418821249301 35.9329
4.172732448931298 36.7672
4.195063640413578 39.2131
4.2173775856475215 43.5989
4.239709096631102 80.0356
4.262040768704612 281.481
4.284355196706267 400.147
4.306687193387355 258.309
4.329001947444346 94.0509
4.35133427213731 49.7673
4.373666762177566 44.81
4.395982011761091 44.1499
4.418314834921175 45.7384
4.44063041906622 54.9588
4.4629635787515625 69.2636
4.4852969080429785 69.3534
4.5076130004776225 55.8354
4.529946671403969 49.92
4.552263106909177 49.7036
4.574597122877047 50.8809
4.596931312711224 51.5167
4.619248269273446 52.8732
4.6415828092605835 54.0719
4.663900117405352 54.7647
4.686235010953232 56.0336
4.708552674085913 57.6159
4.730887924602802 59.4242
4.753223354952695 60.2787
4.775541557023902 61.7208
4.797877349456786 63.0233
4.820195915032126 64.6719
4.842532072957498 66.3236
4.864868414979744 68.3178
4.88718753227192 70.3225
4.909524244902505 72.4698
4.931843734218147 73.6701
4.954180820867835 76.4433
4.976518095879839 79.4755
4.998838149695359 82.0827
5.021175803844231 84.9864
5.043496238205739 87.8051
5.065834274903528 92.137
5.088172504230693 96.6341
5.1104935158799565 102.89399999999999
5.132832132875765 124.904
5.155153533596801 175.547
5.1774925416746225 207.644
5.199814334878411 301.66
5.2221537374521505 827.2189999999999
5.244493338631803 2440.32
5.266815727034316 7247.9
5.289155727832427 12945.5
5.311478517248165 9372.13
5.333818921080011 3047.7
5.356159527788849 584.6469999999999
5.3784829252032536 188.88
5.400823940070432 144.04
5.423147747031976 127.697
5.445489173474152 117.946
5.467830807066149 111.934
5.490155234831516 108.429
5.512497285125229 104.83200000000001
5.534822130975162 103.20100000000001
5.557164601388673 100.83
5.579489868738879 97.94
5.601832762690846 97.4173
5.6241758697774475 96.538
5.646501775867269 96.0802
5.668845311622074 93.9906
5.691171647754637 92.7566
5.713515615597765 91.3445
5.735859800852677 90.4227
5.758186788542988 89.4729
5.780531411018185 89.9525
5.802858837297399 89.9167
5.825203900414495 89.3851
5.8475491852224 89.0273
5.869877275883075 89.8779
5.892223006467101 90.8526
5.914551544266608 91.7509
5.936897724049891 93.3645
5.959244129804903 97.5531
5.981573344815301 110.69
6.0039202049061 177.303
6.026249875609095 381.202
6.04859719346037 830.9010000000001
6.070927323278297 1983.36
6.093275102315365 4309.04
6.115623113320588 5211.59
6.137953938319995 3269.36
6.160302415650845 1043.92
6.182633708324452 246.761
6.2049826554078376 114.02799999999999
6.227331838745022 92.3673
6.249663839443684 85.0479
6.27201349767565 82.5552
6.294345974611799 90.4208
6.316696111167083 106.693
6.339046488263839 100.962
6.361379686074702 82.2772
6.383730546639482 72.3244
6.406064229255215 69.057
6.428415576718203 68.2256
6.450749747566656 67.048
6.47310158535871 65.82
6.495453669698332 64.8581
6.517788579421056 64.5768
6.540141159237969 63.585
6.562476565766648 62.699
6.5848296444934045 62.468999999999994
6.607182974060425 62.4539
6.6295191323281015 62.6536
6.651872965955752 66.5667
6.6742096296068985 98.1471
6.6965639707294615 157.76
6.71891856698715 161.113
6.741255995248479 105.285
6.763611104154477 70.942
6.785949046381137 61.0781
6.808304671371482 58.4658
6.8306605557940046 57.9147
6.852999275508618 57.38
6.875355681171544 57.082
6.897694923437771 56.8112
6.92005185377892 56.461000000000006
6.9423916220322655 56.2399
6.964749080490181 55.5409
6.987106804399774 55.4515
7.009447368180821 55.9465
7.031805625367033 55.7653
7.054146723727803 55.485
7.076505517631004 55.1031
7.098864581288365 55.3143
7.121206488070854 55.2335
7.143566093607822 54.9237
7.165908543567245 55.1061
7.188268694426048 55.4197
7.2106291193438095 55.5237
7.232972390625943 57.3456
7.255333366030969 72.6421
7.277677189091925 140.361
7.300038718428332 204.856
7.322400526130865 172.72299999999998
7.344745183422596 100.632
7.367107550224791 64.7394
7.389452767901992 57.2285
7.411815697249891 55.772
7.434161478756298 54.6506
7.456524974096713 54.407
7.478888753837185 54.0577
7.501235387657368 54.6973
7.523599738562711 54.683
7.545946944825532 54.7042
7.568311870344528 55.298
7.5906770845765665 55.3556
7.613025156078678 57.0588
7.635390950099687 58.2545
7.657739602662809 57.8406
7.680105979923558 56.446999999999996
7.702472650212829 55.8061
7.724822180948224 55.5966
7.747189439655568 55.659
7.769539560075357 55.9252
7.791907410653562 56.5452
7.81425812420825 55.9707
7.836626570110925 56.5015
7.858995315087906 57.1305
7.881346924933401 56.992
7.903716270417482 57.9626
7.926068482028405 58.1161
7.948438431475253 58.6552
7.9708086843180235 59.1892
7.993161805171116 59.9683
8.015532667162402 60.3482
8.037886398416653 61.1738
8.060257873014221 61.4442
8.082629655331942 62.2437
8.104984308787587 63.2476
8.127356708900503 67.1827
8.149711981398308 73.7607
8.172085002766314 77.0611
8.194458336181368 73.4479
8.216814543847752 69.3978
8.23918850371002 68.6472
8.26154533906492 69.5874
8.283919928836452 70.9276
8.306277395339652 71.8659
8.328652618483376 73.3737
8.351028159736202 74.9902
8.373386579575245 77.33
8.395762759396959 79.2301
8.418121819038275 84.3882
8.440498640894003 99.5618
8.462875785192262 116.493
8.485235811156207 123.499
8.507613602688501 149.275
8.529974277114228 219.76
8.552352719347912 344.425
8.574731488360351 584.319
8.59709314210385 1094.72
8.619472567021075 1779.45
8.64183487789147 2175.53
8.664214962183097 1868.21
8.686577933647762 1057.69
8.708958680784317 396.587
8.731339760774953 169.188
8.753703729764451 112.126
8.77608547780821 98.7295
8.798450116065078 94.4359
8.820832535634787 91.771
8.843215292401656 89.9589
8.865580941199045 88.4002
8.887964374703538 87.9065
8.910330701447199 89.5645
8.932714815164482 92.6728
8.955099270424924 91.9804
8.977466620733543 88.1496
8.999851761421976 84.9279
9.022219798361645 82.8784
9.04460562795561 82.7639
9.066991803441677 82.1755
9.089360876979615 81.824
9.111747746589993 81.3676
9.13411751544971 81.0509
9.156505082664324 81.3622
9.178875550323522 81.4655
9.20126381862328 81.7663
9.223652438908596 82.0286
9.246023961427412 81.8841
9.26841328802173 81.0872
9.290785518039224 80.8349
9.313175554425882 81.6266
9.335565947154315 81.2058
9.357939245086508 81.3837
9.380330352834827 81.8581
9.40270436697103 81.9473
9.425096193225055 81.9343
9.447488380180165 82.8968
9.469863475295412 83.2005
9.492256385987508 83.7367
9.514632206018318 84.215
9.537025843935714 84.6863
9.559402392368193 85.3156
9.581796761000229 86.2512
9.604191496441521 87.6161
9.626569144158516 91.5572
9.648964615551032 97.3894
9.671343000390081 99.0562
9.693739211225699 96.6736
9.716135793237463 93.2552
9.738515290448102 91.9752
9.760912617143402 92.7912
9.783292860202891 93.63
9.805690935076182 95.2431
9.828089385495742 96.4359
9.850470754023561 98.6722
9.872869957865444 107.01299999999999
9.89525208097539 125.73299999999999
9.917652041736662 141.189
9.940052382417589 138.545
9.962435644102392 135.214
9.984836746950979 158.842
10.007220771957746 211.97400000000002
10.029622640473708 302.028
10.052007432299963 469.337
10.074410069984072 747.0360000000001
10.096813093716005 1208.73
10.119199042482517 1742.83
10.141602840636468 2011.7
10.163989564971628 1627.79
10.186394141051062 926.3969999999999
10.208799107559706 409.551
10.231187001965623 192.68900000000002
10.253592751657669 127.266
10.275981430388155 113.10600000000001
10.298387966769793 113.249
10.320794897965431 116.712
10.343184759907361 116.306
10.36559248305461 109.46799999999999
10.387983138083852 103.749
10.410391656691655 103.896
10.432800574501677 112.32
10.455192425893369 126.89399999999999
10.47760214443012 149.196
10.499994797678786 191.00400000000002
10.522405320453982 266.78
10.54479877906917 387.63599999999997
10.567210109595656 510.57199999999995
10.5896218454736 590.058
10.612016518879773 516.911
10.634429067781074 365.73400000000004
10.656824555333241 211.774
10.679237920773568 127.694
10.701651695961992 96.7423
10.724048411481384 88.4766
10.746463008485165 85.8073
10.768860546937125 84.3263
10.791275969274796 82.4526
10.81369180576079 81.3437
10.836090585366925 80.5831
10.858507252467449 79.4099
10.88090686379991 78.0715
10.903324365036394 77.7509
10.925724811614439 77.9562
10.948143150509463 79.6567
10.970561909719066 79.1237
10.992963615930844 76.8575
11.015383218085756 74.6017
11.037785768347074 72.9475
11.06020621697282 72.3899
11.082627090322113 72.0725
11.105030913430326 71.5782
11.12745263854165 72.2932
11.149857314510728 76.5847
11.172279894912576 84.1856
11.194702904450653 85.9769
11.217108866490921 81.0625
11.239532736615194 75.5387
11.26193956033512 72.435
11.284364294577085 70.1598
11.306789462371718 68.3232
11.329197585398376 66.82
11.351623622610898 66.5976
11.37403261614354 65.4847
11.396459526308487 65.4853
11.418869393879497 65.0288
11.441297180532617 64.6682
11.463725406927658 64.0828
11.486136592353875 64.0115
11.508565700543707 65.0803
11.530977768845315 67.2701
11.553407762368774 68.8642
11.575838200059769 68.19
11.598251599479612 65.4775
11.620682927815501 63.7711
11.64309721895548 63.1689
11.665529441478206 62.8515
11.687962112597958 62.3416
11.710377748130886 62.5261
11.732811318753434 62.528
11.755227854859067 62.3328
11.777662328529495 62.1981
11.800079768750786 61.9591
11.822515149015453 62.0266
11.844950984084935 62.2511
11.867369787303163 61.8074
11.889806534289491 61.9397
11.912226250487029 62.1263
11.934663912939751 62.2329
11.9571020346363 62.2602
11.979523127133968 62.3123
12.001962169624331 62.8347
12.024384183972964 63.6532
12.046824150809913 65.9107
12.069264581333726 70.2188
12.091687985297767 75.9043
12.11412934550045 84.1945
12.136553680195208 98.2506
12.158995973632788 121.749
12.181438735204349 147.411
12.20386447284199 183.22799999999998
12.226308172985636 210.484
12.24873485024193 207.761
12.271179492516982 174.12900000000002
12.293607112949127 131.625
12.316052700916226 101.15
12.338498763250042 81.6998
12.360927805303868 71.3538
12.383374818673879 66.8711
12.405804812803074 64.5863
12.428252780773262 64.1342
12.45070122756722 63.9973
12.473132656675375 63.7994
12.49558206341869 63.8619
12.518014453510101 63.8432
12.540464823770117 63.9369
12.562915677315177 64.2887
12.58534951575545 64.9796
12.607801338171472 67.4179
12.630236146511358 73.8103
12.652688941369085 80.0357
12.675124723177234 80.9256
12.697578494048786 76.1921
12.720032754458185 70.4831
12.742470003354093 67.9205
12.764925245138771 67.2041
12.787363476431278 67.3923
12.809819703166806 68.0667
12.83227642391173 68.4308
12.854716135692716 69.1557
12.877173846755147 70.0382
12.899614549869717 70.1543
12.9220732548287 70.8851
12.94453245827299 71.3532
12.966974655289818 72.3044
12.989434858002571 72.9735
13.011878055298721 73.6711
13.034339260862497 74.5281
13.056800969391883 75.7576
13.079245674017244 77.6713
13.101708390774869 79.0149
13.12415410463411 84.5369
13.146617833206086 94.7893
13.169064559883248 105.92399999999999
13.191529303857127 119.125
13.213994557076367 139.454
13.236442809902437 173.93200000000002
13.258909083908291 226.03900000000002
13.28135835851934 292.073
13.30382565690295 366.582
13.326293469022952 422.78
13.348744283242008 431.023
13.371213125129904 370.015
13.39366497011003 272.921
13.416134845360597 183.398
13.438605238843131 127.54700000000001
13.46105863690397 105.073
13.483530069144786 102.12700000000001
13.505984506951902 105.93799999999999
13.528456981549432 114.178
13.550929978879088 127.073
13.573385983253365 149.278
13.595860028340867 186.011
13.618317081455832 237.13099999999997
13.64079217790333 297.952
13.663250283359057 346.20300000000003
13.685726434770173 376.084
13.708203115221277 345.615
13.730662806148091 270.256
13.75314054697177 191.99900000000002
13.775601299246777 132.249
13.798080104050406 98.7501
13.820559442405358 84.9821
13.843021793671388 81.1403
13.865502201420897 79.3541
13.887965623051947 78.7108
13.910447103807167 77.801
13.932929122629764 76.5541
13.955394156785959 75.9748
13.977877254034569 75.1169
14.000343367582113 74.2396
14.022827546871707 73.7807
14.045294743423524 72.7723
14.06778000837062 72.3235
14.090265817715476 72.2026
14.112734645763819 71.7782
14.13522154619454 71.7933
14.157691466286913 71.9366
14.180179461423874 71.5775
14.202668005486178 70.8531
14.22513957064374 70.1251
14.247629214846473 69.7743
14.270101881097517 69.4571
14.29259262906496 69.9617
14.315083930490205 70.785
14.337558255389705 71.652
14.360050666019726 71.0064
14.382526101071944 69.8447
14.405019624534942 68.7734
14.427513705993134 68.0786
14.449990813291825 68.1947
14.47248601302899 68.1407
14.49496423954951 68.0554
14.517460561197822 68.0647
14.539939910570322 67.8486
14.562437357763558 68.3487
14.58493536931253 69.5504
14.607416409993311 70.6044
14.62991555254159 71.7007
14.652397725157423 71.431
14.674898002342799 70.2894
14.697398848433282 69.5701
14.719882725991326 69.9674
14.74238471217934 70.48899999999999
14.764869730765593 72.9015
14.787372860692983 75.9677
14.809876564079925 79.9661
14.83236330125751 85.1481
14.854868153850365 92.9497
14.877356041159485 105.34899999999999
14.899862046604186 122.56299999999999
14.922351087688757 147.362
14.944858249632887 175.484
14.967365991421232 204.43900000000002
14.989856770231246 223.155
15.012365673994204 224.667
15.03485761569738 194.267
15.05736768508665 152.434
15.07987833888692 118.794
15.102372032001655 92.2173
15.124883856909658 77.3165
15.14737872204565 72.0169
15.169891721717274 70.1061
15.192405310371893 69.7673
15.214901940621196 70.4181
15.237416709527137 70.9889
15.259914520936249 71.4127
15.282430473753607 70.2547
15.304947020131227 68.8086
15.327446610371178 67.7454
15.349964346154254 66.8147
15.372465126703139 66.2379
15.394984055556009 65.8249
15.417486030076159 65.491
15.44000615566487 65.1834
15.462526881230803 65.3334
15.485030653812652 65.7658
15.507552581617434 65.9449
15.530057557334603 65.8893
15.55258069104857 65.8426
15.575104429329837 65.6283
15.597611216864632 65.1734
15.620136166564563 65.0397
15.6426441664095 65.5711
15.665170331202765 67.3883
15.687697105158826 70.0104
15.710206930593545 73.1382
15.732734925158933 76.6382
15.755245972089478 82.2667
15.77777519094324 90.573
15.800287463046663 102.81299999999999
15.822817909869592 121.056
15.84534897229804 142.667
15.867863089299354 166.15599999999998
15.890395385222186 185.665
15.912910736597423 193.83900000000003
15.935444269699861 185.201
15.957978423016485 158.209
15.980495633101265 127.156
16.003031029129367 99.2759
16.02554948280019 78.2711
16.048086125229432 68.7834
16.070623392487107 65.6163
16.09314371869582 64.7648
16.11568223789321 64.002
16.13820381691126 62.7545
16.160743591742527 61.5739
16.183283996022084 60.4701
16.205807461423195 59.2462
16.228349126881973 58.6107
16.25087385432698 58.5428
16.27341678466365 57.9498
16.29594277784926 58.1206
16.31848697676433 58.5608
16.341031811604868 58.9825
16.36355971058487 59.6199
16.3861058195587 59.2521
16.40863499352978 57.8856
16.431182380342005 56.4847
16.453730407713202 55.8759
16.476261501364792 55.4903
16.498810812136167 54.9791
16.52134319004079 55.0652
16.54389378792203 54.9868
16.566445031001553 54.8943
16.588979342490088 54.6663
16.61153187824822 54.6876
16.634067483263312 54.479
16.656621315414416 54.415
16.679175797408888 54.0709
16.701713349928728 54.093999999999994
16.72426913389191 54.4666
16.74680798922351 54.6157
16.76936507887444 54.5132
16.791905240734874 54.5975
16.814463639794468 54.4294
16.837022695210294 54.3706
16.859564824093756 54.7232
16.882125194503903 55.5344
16.904668639217885 56.7009
16.927230328348003 56.9531
16.949792678493612 56.8446
16.972338104193863 56.0472
16.994901778652235 55.25
17.017448529496576 55.0199
17.040013531998152 55.17100000000001
17.06257920018044 55.6087
17.0851279459922 56.2958
17.107694947817667 57.1982
17.130245028099072 57.7297
17.15281336730298 59.0694
17.17536478578733 60.5528
17.19793446610687 62.7841
17.220504818648422 65.6129
17.243058251703697 68.5576
17.265629950971032 73.1688
17.288184731571736 78.5647
17.310757781306908 82.8806
17.33333150794385 83.9852
17.355888317140174 82.9046
17.37846339986244 77.8099
17.401021565958885 71.2869
17.42359800851343 65.5736
17.44617513265564 61.8685
17.468735341390783 59.5656
17.491261035594565 58.5533
17.51396340099364 58.4348
17.536490463869136 58.6409
17.559018209820174 58.5077
17.58154663977963 58.7999
17.604251766089718 58.7587
17.626781572227713 59.0198
17.64931206518155 59.1456
17.671843245885103 59.6821
17.69455114821572 60.1524
17.717083712612634 60.4567
17.739616967569667 60.4804
17.762150914021706 60.5295
17.78486160749854 60.1923
17.807396945166804 60.8924
17.829932977143503 61.5022
17.85246970436452 62.8846
17.875183204129467 64.4904
17.897721330097664 66.6489
17.920260154126645 68.7628
17.942799677153296 71.6765
17.9655159983646 74.892
17.988056927677544 79.8383
18.010598558807683 86.7453
18.033140892692916 96.2594
18.05586005052525 107.165
18.07840379824407 118.945
18.10094825154059 129.61
18.12366954819864 138.286
18.146215420998306 138.838
18.16876200220057 131.101
18.191309292745153 117.781
18.214033452627167 103.588
18.236582170236648 91.3309
18.259131600016456 85.4994
18.281681742907335 84.9567
18.304408781233683 88.7731
18.32696035875955 94.1531
18.349512652227624 99.0894
18.372065662579683 103.777
18.394795594587553 106.05
18.41735004715306 102.916
18.43990521943684 96.741
18.46246111238171 87.95200000000001
18.485193953325208 78.0152
18.507751296070428 70.3869
18.530309362314178 65.90899999999999
18.552868153000343 63.4354
18.57560391815056 61.9095
18.59816416623245 61.3062
18.620725141597372 60.7285
18.643286845190268 60.3745
18.666025549835414 59.8448
18.688588718427933 59.3528
18.711152618092243 59.3507
18.73389353884365 58.8717
18.75645890921984 58.6415
18.77902501351406 58.2092
18.801591852673102 58.2095
18.824335739722738 57.6266
18.846904057212626 57.5257
18.8694731124168 57.2575
18.89204290628315 57.2996
18.914789774966803 56.9341
18.937361054791623 56.7686
18.959933076131318 56.57899999999999
18.982505839934877 56.5103
19.00525570560582 56.4811
19.027829963004184 56.5738
19.05040496572238 56.4597
19.072980714710468 56.4321
19.095733592739563 56.5773
19.11831084296757 56.9774
19.140888842324735 57.3674
19.16346759176222 57.7025
19.18622349753803 58.0862
19.208803755869358 58.6151
19.231384767143577 59.6574
19.253966532312948 61.223
19.276725481241822 63.0844
19.29930876296784 65.4338
19.3218928014549 68.5195
19.34465404436217 72.1247
19.36723960516257 75.2928
19.389825925592426 76.6212
19.412413006605938 75.5634
19.43517731967805 72.5369
19.457765930683355 67.8769
19.48035530514408 63.2101
19.50294544401556 59.3725
19.525712842708348 56.4476
19.54830451925909 54.9134
19.570896963095727 53.7945
19.593490175174704 53.3496
19.616260674962184 53.3709
19.638855432416964 53.1332
19.661450960992624 53.2368
19.68404726164677 53.0587
19.706820878021247 52.8241
19.729418731756834 52.8821
19.752017360452857 52.7938
19.77461676506804 52.8577
19.797393513540218 52.8341
19.819994478951667 53.1141
19.84259622316767 53.8298
19.8651987471481 54.1407
19.887978643247177 54.4069
19.91058273574792 54.6907
19.933187610901943 55.4027
19.955969879466828 56.4042
19.97857632894404 57.7524
20.00118356396599 59.4212
20.023791585494575 61.3324
20.046577028914875 64.2358
20.069186632506966 66.1897
20.091797025500632 68.054
20.114408208858933 69.0668
20.137196842715273 69.0022
20.159809615886765 67.8336
20.18242318232135 65.1732
20.20503754298326 62.9227
20.227829382875154 61.6618
20.250445341109344 61.4644
20.27306209647285 62.021
20.29567964993108 63.3443
20.31847471147704 64.5949
20.34109387027612 65.4275
20.363713830075454 65.7298
20.386334591841646 64.089
20.409132890679302 61.5627
20.431755265564437 58.3446
20.454378445325528 55.4016
20.477002430930366 53.3935
20.499803982716553 52.4017
20.522429589228004 51.4543
20.54505600449589 50.9335
20.567683229489194 50.7728
20.590488049900088 50.3736
20.61311690359731 49.9562
20.63574656993626 49.5615
20.658553853717297 49.3009
20.681185154618298 49.3089
20.703817271080066 49.0888
20.72645020407368 48.6919
20.749260783967177 48.6695
20.771895359337133 48.6373
20.794530754161617 48.7016
20.817166969412938 48.4811
20.83998086114876 48.4598
20.86261872660049 48.3327
20.885257415405402 48.3518
20.90789692853701 48.1626
20.930714147864748 48.1291
20.953355319030678 48.1577
20.97599731745334 48.2464
20.99864014410749 48.0193
21.021460706796564 48.1563
21.044105199328826 48.3258
21.06675052302631 48.6277
21.089396678865015 48.6556
21.112220600704806 49.0319
21.134868430275347 49.1046
21.15751709492456 49.6338
21.180166595629693 49.9223
21.202993892429635 50.3664
21.22564507473034 50.7512
21.24829709602816 50.9755
21.27112693608965 51.0499
21.293780644891275 50.973
21.316435195634053 50.372
21.339090589297417 49.6939
21.361923832041875 49.2349
21.384580921090404 48.588
21.407238856007325 48.1828
21.429897637773326 47.992
21.45273429906592 47.9429
21.475394784108598 47.8834
21.498056118951983 47.8496
21.520718304578022 47.9763
21.543558400304388 48.2406
21.566222297108816 48.3536
21.58888704765135 48.2842
21.61155265291521 48.5491
21.63439619898156 48.8981
21.657063523335786 49.1583
21.67973170537063 49.6524
21.7024007460706 49.9608
21.72524775840385 50.6249
21.747918526116475 51.7346
21.770590155457388 52.9243
21.79326264741238 54.5472
21.816113141960237 56.2738
21.838787368860547 58.2197
21.861462461341976 60.0076
21.884315579735777 61.9843
21.90699241312273 63.2229
21.92967011506078 64.2545
21.95234868653799 64.0471
21.9752053151131 63.117
21.997885635446785 61.2284
22.020566828293532 59.31100000000001
22.04324889464272 57.6411
22.066109049404666 56.2439
22.088792872571794 55.6511
22.111477572219204 55.4994
22.1341631493376 55.6053
22.157026846313123 55.6645
22.179714188221507 55.0166
22.202402410582668 54.0776
22.22509151438863 52.5024
22.24795876962584 51.2708
22.270649646204486 50.3717
22.293341407213727 49.5616
22.316034053646906 49.2559
22.338904883215342 48.6893
22.36159931041458 48.8439
22.38429462602756 48.6191
22.40699083104897 48.5198
22.429865251039757 48.7564
22.452563244831367 48.6318
22.47526213102522 48.6429
22.49813925616515 48.4451
22.520839937143307 48.3444
22.543541513520587 48.2492
22.56624398629403 47.9628
22.589124730075895 47.8954
22.611829005656723 48.215
22.63453418063466 48.2283
22.657240256008077 48.3256
22.680124634582935 48.4114
22.70283252079775 48.5628
22.725541310413075 48.8303
22.74825100442868 49.0268
22.771139033969575 49.6834
22.79385054687155 49.917
22.81656296718292 50.4255
22.83927629590484 51.2509
22.862167992606945 52.2454
22.88488314827121 53.3684
22.907599215359284 54.356
22.93031619487366 55.4556
22.953211574954405 56.4942
22.975930389478226 57.3717
22.998650119445763 57.6047
23.02137076586092 57.1128
23.044269845560063 55.8509
23.06699233506288 54.5336
23.089715744034912 52.6949
23.112617610931565 51.0784
23.135342869061212 49.7257
23.158069049684816 48.9555
23.1807961538087 48.619
23.20370174880544 48.4888
23.226430710184808 48.4316
23.249160598093425 48.4728
23.271891413539002 48.3357
23.294800752937697 48.3039
23.31753343374794 48.4715
23.340267045128353 48.6492
23.36300158808808 48.8652
23.38591468821339 49.0797
23.408651104658304 49.4428
23.431388455719986 49.9943
23.454126742409 50.7137
23.4770436196085 51.7598
23.499783787914662 53.0741
23.522524894889884 54.1913
23.54526694154616 55.3851
23.56818761219047 56.5602
23.59093154860734 57.2716
23.613676427751283 57.7517
23.636422250635754 57.0876
23.659346731118656 55.6706
23.68209445191868 53.6357
23.704843119509587 51.4886
23.72759273490623 49.4272
23.750521041644767 48.1705
23.77327256312355 47.033
23.796025035462787 46.3262
23.818956224555475 45.8423
23.841710609113413 45.771
23.86446594758979 45.4865
23.887222241002014 45.0423
23.910157285144578 44.8617
23.932915498962537 44.7072
23.955674670778713 44.7196
23.978434801611975 44.5717
24.001373717286125 44.4682
24.024135776723917 44.2646
24.046898798245582 44.1843
24.06966278287146 43.9967
24.092605586582614 43.893
24.115371508023642 43.8286
24.1381383956401 43.6399
24.16090625045381 43.6255
24.183852958731244 43.6784
24.206622758582608 43.5703
24.229393528706886 43.3024
24.252165270127392 43.3807
24.27511589952438 43.2067
24.297889594216997 43.0803
24.32066426328598 43.07899999999999
24.34343990775613 43.1544
24.36639447485003 42.7327
24.38917208083877 42.8565
24.41195066531332 42.8658
24.43490819850244 42.7562
24.457688750692377 42.5556
24.48047028445616 42.498000000000005
24.503252800821233 42.6243
24.526214300784112 42.7637
24.548998793132213 42.5087
24.57178427117417 42.6023
24.59457073593893 42.6517
24.617536219319863 42.5656
24.64032466834748 42.5583
24.663114107195035 42.5396
24.685904536893013 42.3561
24.708874020360852 42.2573
24.731666442613744 42.2346
24.754459858818787 42.0366
24.777254270007962 42.0017
24.80022777025625 41.8238
24.82302418230472 41.7569
24.845821592443674 41.8778
24.86862000170663 41.8205
24.891597535453727 41.6478
24.914397953892728 41.9094
24.93719937456671 41.6959
24.96000179851076 41.8106
24.98298338249997 42.0962
25.00578782394922 42.2728
25.028593271784167 42.3563
25.05157790644186 42.7999
25.07438537804115 42.9618
25.097193859145293 43.1655
25.120003350792075 43.2456
25.142992065061257 43.6489
25.165803588823465 43.9121
25.18861612625217 44.1619
25.211429678386736 44.1854
25.234422489079968 44.417
25.257238081693636 44.4438
25.280054692141732 44.6073
25.3028723214652 44.5696
25.325869245420463 44.6487
25.348688923599397 44.5493
25.371509623787006 44.5268
25.394331347025812 44.4163
25.41733240110666 43.9678
25.440156181590016 43.3171
25.46298098826268 42.7248
25.48580682216873 42.208999999999996
25.50881202326435 41.7504
25.53163992281684 41.278999999999996
25.55446885274561 40.9379
25.577298814096377 40.6044
25.600308179121807 40.5893
25.623140214533745 40.5629
25.64597328451537 40.4607
25.66898578564376 40.2297
25.691820936010206 40.2233
25.714657124097695 40.0857
25.737494350954734 40.2857
25.760511045684957 40.1192
25.783350361364224 40.1008
25.806190718969255 40.1082
25.82903211955018 40.235
25.852053024868923 40.3335
25.874896522722523 40.2254
25.897741066713106 40.2649
25.920586657892454 40.4175
25.943611790812668 40.5361
25.966459487728237 40.6241
25.989308234998564 40.4162
26.01215803367705 40.9022
26.03518741123814 41.0804
26.05803932412957 41.1621
26.080892291600094 41.1784
26.10374631470478 41.1804
26.12677995397268 41.3475
26.14963609978026 41.3156
26.172493304397875 41.0449
26.19535156888223 40.9739
26.218389486949604 40.4869
26.241249882640123 40.0412
26.26411134137826 39.8732
26.28715248187403 39.8834
26.31001607820869 39.6993
26.3328807407756 39.6023
26.35574647063438 39.8313
26.37879191991473 39.6735
26.401659795896734 39.7983
26.424528742360263 39.9125
26.447398760366614 39.9517
26.470448535598294 40.1691
26.49332070826805 40.3646
26.516193955675355 40.7634
26.53906827888316 40.9435
26.562122397260108 41.068999999999996
26.584998883685063 41.341
26.607876449110325 41.4984
26.63075509460056 41.6948
26.65381357334404 41.9021
26.67669439061878 41.9111
26.699576291163382 41.7433
26.722459276044212 41.6648
26.745522132402975 41.4224
26.768407297649354 41.1236
26.791293550442003 40.8254
26.814180891848974 40.5173
26.837248143099337 40.24
26.860137673466657 40.1714
26.88302829566349 40.0095
26.90592001075963 39.749
26.92899167420566 39.6029
26.951885586870763 39.1938
26.974780595655517 38.9616
26.99785558178161 39.0009
27.020752794605112 38.716
27.043651106772522 38.5705
27.06655051935668 38.5181
27.089629948036183 38.3768
27.112531573292053 38.3259
27.135434302194138 38.3577
27.158338135817015 38.2369
27.181422024430987 38.2429
27.204328079372566 38.1453
27.22723524226965 38.2907
27.250143514198573 38.328
27.273231880156334 38.2238
27.296142382065014 37.9756
27.319053996245536 38.0391
27.341966723775965 37.9865
27.365059584515222 38.1511
27.38797455070062 38.1809
27.410890633481237 38.0726
27.433807833936918 38.1151
27.456905206923906 38.1499
27.47982465472398 38.0717
27.502745223449743 38.1664
27.525666914182825 38.2884
27.548768816912457 38.2861
27.571692763693633 38.0959
27.59461783573812 38.1808
27.617723149491244 38.0168
27.640650484125285 37.849000000000004
27.66357894728264 37.828
27.686508540048052 37.7923
27.709618414237887 37.6665
27.732550278321757 37.6171
27.755483275279115 37.4919
27.778417406196485 37.437
27.801531858397514 37.4631
27.824468269376716 37.5018
27.847405817586786 37.5162
27.870344504116094 37.5789
27.893463551932008 37.8305
27.916404527281053 37.8886
27.93934664422563 37.9783
27.962289903855886 38.0225
27.98541356491974 38.1021
28.00835912214229 38.3662
28.03130582533231 38.6863
28.054253675581805 38.7718
28.077381967556104 38.7584
28.100332124185126 38.7003
28.123283431160893 38.5553
28.146235889577238 38.6088
28.169368830154156 38.4285
28.192323603752033 38.2723
28.215279532083304 37.8732
28.238415973016764 37.5897
28.261374223145094 37.6623
28.284333631303806 37.3681
28.307294198589954 37.3675
28.330435319167677 36.9823
28.353398217078915 36.7087
28.376362277420153 36.5038
28.39932750129032 36.3493
28.422473319286713 36.1567
28.44544088262495 36.2283
28.468409612800283 36.153
28.491379510913497 35.834
28.51453004413313 35.7395
28.53750229057244 35.6993
28.56047570826344 35.5786
28.583450298308804 35.5351
28.606605564586562 35.4157
28.629582511831156 35.5417
28.65256063474956 35.3437
28.675539934446338 35.4338
28.698699951647605 35.3499
28.72168161743193 35.1667
28.74466446331978 35.2834
28.767648490417624 35.2362
28.790813276438353 35.1499
28.813799678527303 35.2947
28.836787265157085 35.2271
28.859955641890075 35.3124
28.882945610203045 35.2842
28.905936766392035 34.9928
28.928929111566863 35.1381
28.952102288520145 34.9999
28.975097024308607 35.0085
28.998092952423807 34.8365
29.021090073977508 34.6725
29.04426806913204 34.5111
29.067267590245258 34.4241
29.090268308143695 34.3954
29.11327022394099 34.3643
29.13645305530891 34.2815
29.159457379627167 34.1778
29.18246290519685 34.1035
29.20546963313352 34.0165
29.22865731875826 34.1796
29.25166646419296 34.1086
29.27467681535305 33.9243
29.29768837335608 34.0226
29.320880931312562 34.0182
29.34389491580634 34.0544
29.366910110507334 33.9162
29.38992651653503 33.9177
29.41312396492981 34.0573
29.436142806456754 33.8611
29.45916286268059 33.8588
29.48236399319994 33.7378
29.50538649169417 33.5502
29.528410208259935 33.5275
29.55143514402014 33.287
29.574641196749695 33.211
29.597668583816574 33.1949
29.6206971934585 32.9239
29.64372702680042 33.0421
29.666938019934474 32.9209
29.689970313635285 32.7316
29.713003834422636 32.6688
29.73603858342347 32.6403
29.759254535188578 32.5357
29.78229175361658 32.5929
29.80533020365064 32.6621
29.82836988641968 32.6622
29.85159081507472 32.4997
29.874632976355343 32.4472
29.89767637376955 32.5929
29.920721008448314 32.4691
29.9439469322847 32.4904
29.96699405457564 32.3676
29.9900424175358 32.3921
30.013092022298157 32.2944
30.03632295963995 32.226
30.059375061131373 32.2679
30.08242840783577 32.229
30.105483000888153 32.2443
30.128718970092244 32.0772
30.151776069006917 32.1328
30.17483441768648 32.2467
30.198074175317235 32.2246
30.221135036724256 32.2365
30.24419715131772 32.0693
30.267260520236203 32.0826
30.290505341942243 32.1867
30.313571232750228 32.1523
30.336638381310948 32.2257
30.35970678876503 32.0111
30.38295669299435 31.886
30.40602763151657 31.8591
30.429099832366074 31.9462
30.452173296685572 31.8016
30.47542830191959 31.8079
30.498504306502497 31.7881
30.521581577995562 31.825
30.544660117543582 31.9394
30.56792024229725 31.9255
30.59100133132069 31.8167
30.614083691845494 31.8942
30.637167325018545 31.9637
30.660432587840603 32.0561
30.683518779717886 31.8705
30.70660624769615 31.9094
30.729694992924372 32.0329
30.75296541239743 31.9695
30.77605672557558 31.956999999999997
30.799149319462742 31.9535
30.8224236211637 31.8159
30.845518789950724 31.6554
30.868615242910597 31.5213
30.891712981195973 31.5011
30.91499247215866 31.4335
30.938092794619365 31.4537
30.96119440587579 31.2958
30.984297307082752 31.2071
31.00758200598383 31.1197
31.030687500658694 30.9805
31.053794288760695 31.039
31.076902371446767 30.8343
31.100192296997445 30.9341
31.12330298246119 30.8769
31.14641496599209 30.7435
31.169528248749216 30.8417
31.19282341969534 30.703000000000003
31.215939314557186 30.7315
31.239056512134788 30.7021
31.262175013589378 30.6326
31.28547544871168 30.6026
31.30859657161541 30.6359
31.331719001892175 30.7109
31.35484274070538 30.723000000000003
31.378148458819545 30.7698
31.401274828443725 30.6428
31.424402510106933 30.691
31.447712205419993 30.7384
31.470842524931633 30.5774
31.493974159989783 30.6739
31.51710711176168 30.5664
31.54042212308802 30.5661
31.563557722100917 30.6234
31.586694641341655 30.5192
31.609832881979628 30.4015
31.63315322823208 30.114
31.656294125521327 30.1218
31.679436347728515 30.0823
31.70257989602529 30.034000000000002
31.725905596152327 30.0651
31.74905181052835 29.8772
31.772199354521323 29.9779
31.79534822930507 29.9398
31.818679302290967 29.9505
31.84183085259981 29.9555
31.864983737233473 29.873
31.88813795736804 29.9327
31.911474422233013 29.785
31.934631327356435 29.9414
31.9577895715215 29.9352
31.980949155906522 29.7825
32.004291031706956 29.8153
32.027453310562606 29.6805
32.05061693318573 29.5153
32.07396288236386 29.5997
32.09712920658542 29.5661
32.12029687812702 29.4173
32.14346589817093 29.2865
32.166817291729984 29.331999999999997
32.18998902288583 29.1912
32.21316210610336 29.1868
32.23633654256711 29.1363
32.259693399663725 29.0543
32.282870556771144 28.9322
32.30604907069099 28.9433
32.329228942610065 28.7925
32.35259128243769 28.7912
32.375773884550505 28.7686
32.398957848235646 28.7074
32.422143174682176 28.7284
32.445511016471215 28.5789
32.468699082679954 28.5074
32.49188851523011 28.5802
32.51507931531304 28.3742
32.538452678331 28.4343
32.56164622776311 28.3083
32.58484114831493 28.2743
32.60803744118015 28.1774
32.631416344731896 28.3013
32.654615396551876 28.1529
32.67781582427913 28.2362
32.701198898634416 28.2155
32.72440209253756 28.1089
32.747606665947124 28.0893
32.77081262006088 27.965999999999998
32.79420126883317 27.9505
32.81740999876112 27.9796
32.840620112999424 27.7952
32.86383161274818 27.8251
32.88722585534586 27.7731
32.91044014056596 27.9012
32.933655814909734 27.7606
32.95687287957963 27.7941
32.98027273544904 27.7481
33.00349259526636 27.7366
33.026713849030116 27.8109
33.04993649794511 27.7341
33.073341986570746 27.5268
33.09656744032826 27.5287
33.11979429286444 27.5794
33.14302254538647 27.5625
33.166433686291185 27.58
33.18966475336992 27.6031
33.212897224069096 27.5007
33.23613109959831 27.4784
33.259547912343415 27.4061
33.2827846121627 27.3988
33.306022720453775 27.3521
33.32926223842861 27.1933
33.352684742614166 27.1987
33.37592709463173 27.1492
33.399170859982064 27.1206
33.422597648419426 27.0456
33.44584425514446 26.9439
33.46909227885668 26.9267
33.4923417207723 26.8237
33.51577423505344 26.7961
33.539026528130385 26.7653
33.56228024307245 26.7007
33.585535381098246 26.609
33.60897364093058 26.5607
33.63223163992385 26.5616
33.6554910656699 26.5106
33.678751919389796 26.5434
33.702195944520106 26.4465
33.72545966903325 26.3753
33.74872482519663 26.278000000000002
33.771991414233746 26.3796
33.79544122444841 26.3252
33.81871069412428 26.2069
33.84198160035767 26.2159
33.86525394437455 26.1891
33.88870955949969 26.1464
33.911984794020626 26.1163
33.93526147001624 26.0891
33.958539588715006 25.9406
33.98200102861669 26.0482
34.0052820477047 25.9649
34.02856451319451 25.9477
34.05203033759056 25.8358
34.07531571090147 25.8566
34.09860253431845 25.7669
34.121890809074316 25.7401
34.145362493118924 25.7249
34.16865368561615 25.6435
34.191946333164054 25.5129
34.21524043699793 25.6196
34.23871800066799 25.5585
34.26201503218366 25.5652
34.28531352370466 25.4763
34.30861347646881 25.362
34.33209693978188 25.3944
34.3553998301885 25.3444
34.378704185565205 25.2284
34.402010007152356 25.2166
34.42549939016683 25.3049
34.44880815937748 25.1654
34.472118398533134 25.0451
34.49543010887669 25.0405
34.51892543169198 24.933000000000003
34.54224009966052 24.976999999999997
34.56555624255917 24.9601
34.58887386163339 24.9088
34.61237514439016 24.8338
34.6356957311114 24.7251
34.65901779775809 24.691
34.68252356662995 24.7439
34.705848608458616 24.7087
34.72917513396849 24.6925
34.75250314440949 24.6216
34.77601490857862 24.5821
34.799345904259795 24.5663
34.82267838863559 24.4876
34.846012362958525 24.5065
34.869530142679984 24.4853
34.89286711232212 24.4104
34.91620557568269 24.2983
34.93954553401677 24.3053
34.9630693495876 24.2921
34.986412313340814 24.32
35.00975677584668 24.2669
35.033102738362956 24.2942
35.05663261012228 24.1571
35.0799815881786 24.1989
35.10333207003229 24.1684
35.12668405694369 24.1992
35.150220005273056 24.1304
35.17357501786656 24.1242
35.19693153931268 23.9812
35.220289570874385 23.9789
35.24383161619786 23.9941
35.267192683604904 23.904
35.290555264930376 23.8561
35.314101899412165 23.9356
35.33746752422433 23.8729
35.36083466676374 23.8648
35.38420332829803 23.8078
35.407756095629054 23.8507
35.43112781085063 23.8433
35.45450104888391 23.7245
35.477875810999194 23.7741
35.50143473172161 23.6988
35.52481255774625 23.6844
35.54819191167777 23.6592
35.57157279478914 23.5736
35.595137889488406 23.6134
35.61852184675279 23.5659
35.641907337029984 23.4731
35.665294361595684 23.4097
35.68886565090076 23.4372
35.7122557598848 23.4311
35.73564740699838 23.3573
35.759040593519934 23.3406
35.78261809810353 23.3034
35.80601437933051 23.1797
35.829412203814705 23.1977
35.85281157283719 23.1226
35.876395313415884 23.1686
35.8997977874528 23.0108
35.92320180988546 23.017
35.946790244133936 22.9588
35.97019737933222 23.0041
35.993606066789866 22.9385
36.01701630779276 22.9157
36.04061101440684 22.809
36.06402437852291 22.8495
36.08743930005611 22.8698
36.1108557802951 22.7046
36.13445678011326 22.7445
36.15787639383515 22.6322
36.18129757014299 22.6632
36.20472031032821 22.6693
36.22832762423364 22.5482
36.25175350829375 22.5653
36.275180960119776 22.5306
36.298609981005924 22.5244
36.32222362992669 22.4656
36.34565580510207 22.4457
36.36908955323448 22.455
36.39252487562093 22.3266
36.416144880530226 22.1724
36.43958336764275 22.2738
36.463023432914625 22.335
36.486465077645676 22.229
36.51009145956204 22.2416
36.53353627947859 22.1747
36.55698268276811 22.1833
36.58043067073321 22.0943
36.60406345072071 22.0325
36.62751462435344 21.9535
36.65096738658405 21.9726
36.67460498210655 21.9726
36.69806093788647 21.8813
36.72151848619297 21.8447
36.744977628333636 21.9423
36.76862165890998 21.8969
36.79208400512205 21.8514
36.81554794910557 21.8233
36.83901349217101 21.7755
36.862663978991606 21.6502
36.88613273667352 21.634
36.90960309738324 21.6522
36.933075062434064 21.6881
36.95673202673572 21.6118
36.98020721697122 21.5651
37.003684015502365 21.4903
37.027162423645365 21.3523
37.050825886711465 21.3661
37.07430753063053 21.3997
37.09779078812467 21.396
37.121275660513014 21.3406
37.144945643673694 21.2809
37.16843376245278 21.2883
37.19192350009803 21.2721
37.215414857931435 21.1906
37.239091382563885 21.1549
37.262585997426164 21.1507
37.28608223645736 21.149
37.309763684451696 21.0689
37.33326318851098 21.0423
37.356764320726555 20.9366
37.380267082425526 20.9125
37.40395510942588 20.9675
37.42746114683234 20.8559
37.45096881771841 20.8523
37.474478123414166 20.8883
37.49817275092816 20.9039
37.52168534303452 20.829
37.54519957395567 20.6754
37.568715445024665 20.7038
37.592416694607714 20.7342
37.61593586281424 20.7367
37.63945667518264 20.6882
37.66297913304891 20.5873
37.68668702630454 20.5889
37.710212792059274 20.5055
37.733740207334854 20.4543
37.757269273470364 20.4439
37.780983832050374 20.3793
37.80451621684926 20.4226
37.82805025654007 20.3719
37.851585952464795 20.2268
37.8753071980695 20.1655
37.89884622345676 20.1818
37.92238690911902 20.1817
37.94611318753442 20.1118
37.969657210779765 20.1806
37.99320289834801 20.1206
38.016750251586465 20.102
38.04048325513017 20.1216
38.06403395679343 19.9707
38.087586328183946 19.9761
38.11114037065203 19.9671
38.13488012115898 19.9654
38.1584375229181 19.892
38.181996599821 19.7963
38.205557353221124 19.7826
38.229303872575656 19.7418
38.2528679961576 19.794
38.27643380031219 19.7124
38.30000128639589 19.7347
38.32375459653193 19.7208
38.34732546371299 19.6786
38.37089801690786 19.6253
38.39447225747609 19.5363
38.418232380377425 19.5108
38.441810012983396 19.4869
38.46538933705673 19.4408
38.488970353960084 19.4353
38.51273731166058 19.397000000000002
38.536321731567014 19.3221
38.55990784840681 19.3954
38.58367995004091 19.3307
38.60726947812959 19.292
38.63086070726198 19.2855
38.654453638806274 19.3356
38.678232613930824 19.2371
38.70182896773327 19.1309
38.72542702806741 19.1547
38.7490267963045 19.1582
38.77281266709232 19.0434
38.79641586862214 19.0501
38.8200207821842 19.0379
38.843627409152944 19.041
38.86742019782782 18.9739
38.891030269149255 18.9635
38.914642058016156 18.9338
38.938255565806124 18.9159
38.96205529464307 18.928
38.98567225787121 18.8619
39.00929094417078 18.8254
39.03291135492255 18.8415
39.05671804624804 18.7573
39.080341923549106 18.7404
39.103967529460334 18.6537
39.127594865365744 18.5661
39.15140854155791 18.5676
39.17503935514948 18.6507
39.19867190290282 18.5633
39.22249083587951 18.535
39.24612686969409 18.5302
39.269764641845306 18.4837
39.293404153722804 18.4024
39.317230110864074 18.363
39.34087311998506 18.3342
39.36451787301696 18.351
39.388164371352595 18.3006
39.41199737518003 18.3065
39.43564738196752 18.2241
39.45929913825317 18.2369
39.48295264543308 18.2358
39.506792718520884 18.1633
39.530449745387216 18.1327
39.55410852735203 18.0813
39.57776906581474 18.0844
39.60161623079 18.0431
39.625280300200025 18.029
39.64894613032202 17.9524
39.67261372255866 18.0035
39.6964680021016 17.9028
39.72013913657293 17.9659
39.74381203738292 17.9461
39.76748670593756 17.8789
39.79134812278169 17.8357
39.81502634488497 17.8338
39.83870633896685 17.833
39.862388106436654 17.7675
39.88625668336918 17.7572
39.90994201572829 17.725
39.933629125719285 17.6489
39.957503091207826 17.6536
39.9811937746168 17.6741
40.00488623990914 17.6049
40.02858048850006 17.5232
40.05246165409549 17.5674
40.076159487492085 17.4256
40.099859108448875 17.5054
40.123560518384345 17.4603
40.1474489070226 17.5171
40.171153913178564 17.3843
40.194860712584955 17.3345
40.2185693066637 17.3319
40.242464941335314 17.2738
40.26617714307655 17.2563
40.289891143772046 17.25
40.3136069448471 17.2758
40.33750984859743 17.2265
40.3612292688043 17.1391
40.3849504936829 17.1179
40.40867352466194 17.1686
40.43258372059144 17.0708
40.45631038219906 17.0792
40.48003885420956 17.0478
40.503769138055105 17.0282
40.52768664931955 17.0018
40.55142057531802 17.0264
40.57515631746428 16.9074
40.599079334038514 16.9261
40.62281872700477 16.8644
40.64655994043941 16.7749
40.67030297578061 16.7955
40.69423334835778 16.7933
40.71798004609188 16.7775
40.74172857006355 16.7155
40.76547892171441 16.6992
40.7894166736039 16.6442
40.813170699248566 16.6003
40.83692655691388 16.5856
40.86068424804498 16.6635
40.884629402612525 16.6147
40.908390779366385 16.5591
40.932153993938 16.5545
40.95591904777605 16.5068
40.979871628443995 16.4529
41.003640379561936 16.4328
41.02741097430883 16.386
41.05118341413683 16.4256
41.075143444384416 16.4367
41.098919593177826 16.3289
41.1226975914255 16.3532
41.14647744058318 16.2469
41.170444943946755 16.281
41.19422851378379 16.2607
41.218013938914645 16.2373
41.24198706625173 16.1831
41.26577622087193 16.1376
41.289567235177785 16.1158
41.31336011063129 16.1425
41.337340752422875 16.0734
41.361137369129835 16.0928
41.38493585138705 16.0028
41.40873620066004 15.985
41.43272438060107 15.9718
41.45652848292052 15.9795
41.48033445666918 15.9009
41.50414230331616 15.8828
41.528138045159764 15.8242
41.551949656675205 15.8212
41.575763145513235 15.7703
41.59957851314666 15.8169
41.62358184070442 15.7565
41.64740098505737 15.6772
41.6712220126409 15.6976
41.69504492493139 15.6864
41.71905586207357 15.645999999999999
41.74288256296395 15.5666
41.766711153007456 15.5923
41.79054163368412 15.5425
41.814560204340054 15.5761
41.838394485526365 15.5678
41.86223066180303 15.4928
41.88625497706819 15.4654
41.910094962812 15.4853
41.93393684811168 15.4581
41.95778063445365 15.3342
41.981812625263366 15.3713
42.00566023303407 15.3478
42.029509746323676 15.2709
42.05336116662236 15.3022
42.077400857069705 15.2656
42.10125611078846 15.225999999999999
42.12511327600405 15.23
42.14897235421036 15.0974
42.173019768448455 15.133
42.19688269209613 15.1393
42.22074753323349 15.1009
42.24461429335818 15.0876
42.268669455600495 15.0735
42.292540073217886 15.0098
42.31641261433284 14.9795
42.34028708044675 15.0191
42.36435001496739 14.9577
42.38822835065557 14.9179
42.41210861586426 14.9285
42.4359908120986 14.8726
42.46006154323262 14.8444
42.48394762115317 14.8416
42.507835634632315 14.8034
42.531912233047436 14.74
42.55580413732265 14.7564
42.579697981698 14.7327
42.60359376768525 14.6903
42.62767820545945 14.6386
42.65157789440821 14.6362
42.67547952952185 14.6163
42.699383112316 14.6032
42.72347541395347 14.5657
42.74738291190531 14.5569
42.771292362102166 14.5514
42.795203766063516 14.4981
42.819303956130405 14.4724
42.843219287476536 14.4277
42.86713657716324 14.359000000000002
42.89105582671383 14.450999999999999
42.91516392983864 14.4259
42.939087119032166 14.409
42.963012272677304 14.3595
42.98693939230129 14.2938
43.01105543317513 14.2494
43.034986504731386 14.2572
43.05891954686589 14.2595
43.08285456110972 14.2074
43.10697856448665 14.1643
43.130917542983475 14.0887
43.15485849820081 14.1521
43.17880143167367 14.0828
43.20293342237094 14.1006
43.226880332449 14.0509
43.25082922540554 14.0483
43.27496722682525 13.9873
43.29892010567796 14.0299
43.32287497204102 13.9942
43.34683182745632 13.9456
43.370977859791836 13.8604
43.39493871351105 13.8775
43.41890156092628 13.8743
43.44286640358341 13.8354
43.46702049182749 13.8876
43.49098934522816 13.8089
43.51496019852649 13.7782
43.5389330532723 13.7626
43.56309522248204 13.7211
43.58707210044314 13.7454
43.61105098451946 13.665
43.63503187626491 13.6475
43.659202151562134 13.6525
43.68318707902681 13.6443
43.70717401884041 13.6361
43.731162972560874 13.5937
43.75534137913236 13.534
43.779334381108384 13.5274
43.803329401683186 13.5195
43.82732644241872 13.51
43.8515130055166 13.4307
43.87551410707659 13.4002
43.89951723350145 13.4281
43.923709934595614 13.3336
43.94771713129917 13.380999999999998
43.97172635758096 13.3366
43.99573761501002 13.3311
44.0199385169922 13.2451
44.04395385732619 13.2325
44.067971233533086 13.2618
44.09199064718605 13.244000000000002
44.11619977548961 13.2049
44.14022328470671 13.1515
44.16424883610785 13.1861
44.18827643127035 13.1518
44.21249381139513 13.1125
44.236525514814076 13.1013
44.26055926674478 13.087
44.28459506876863 13.0659
44.3088207262813 12.9989
44.33286064928722 12.9161
44.35690262714919 12.9434
44.38094666145278 12.9196
44.4051806219871 12.9458
44.42922879003185 12.9482
44.45327901929361 12.8993
44.477331311362136 12.863
44.501573600619416 12.8376
44.525630039221795 12.8191
44.54968854541895 12.8201
44.573937102200176 12.7929
44.5979997645541 12.793
44.622064499300315 12.7804
44.64613130803592 12.7196
44.67038823869318 12.7048
44.69445921643748 12.7324
44.718532272981385 12.6435
44.742607409926194 12.6164
44.76687274034801 12.5851
44.79095205918753 12.5549
44.81503346325094 12.524000000000001
44.839116954143876 12.5124
44.86339071028742 12.5251
44.88747839599524 12.4624
44.91156817336837 12.4913
44.93566004401666 12.454
44.959942251908146 12.4666
44.984038330325966 12.4128
45.00813650686762 12.3556
45.03223678314731 12.369000000000002
45.05652746888232 12.3311
45.08063196592069 12.297
45.104738567558705 12.2518
45.128847275414856 12.2958
45.15314646515866 12.203
45.17725940679741 12.2501
45.20137445952892 12.1911
45.22568004865265 12.1164
45.24979934496396 12.1305
45.27392075725247 12.1182
45.29804428714431 12.1209
45.322358426247604 12.0978
45.346486212804315 12.0668
45.370616121861914 12.0917
45.39474815505086 11.9973
45.41907087049246 11.9765
45.4432071734666 11.9755
45.46734560548283 11.9502
45.49148616817604 11.9911
45.51581748638564 11.979000000000001
45.5399623320197 11.9213
45.56410931325473 11.8722
45.58825843173002 11.8518
45.61259837920865 11.8753
45.636751793816 11.8749
45.66090735060093 11.8246
45.68506505120716 11.8065
45.7094136545275 11.7419
45.73357566449271 11.6867
45.75773982322992 11.7483
45.78190613238733 11.7192
45.806263418194064 11.6618
45.83043404997326 11.6547
45.85460683713677 11.6359
45.87897065658495 11.6536
45.90314777634752 11.5852
45.92732705646868 11.5722
45.9515084986045 11.5815
45.97588104735473 11.5392
46.00006683541565 11.4805
46.02425479047904 11.4941
46.04844491420549 11.4517
46.0728262191024 11.4557
46.09702070211635 11.4594
46.12121735879483 11.4423
46.14541619080294 11.4151
46.169806278764455 11.3899
46.194009483459034 11.3495
46.21821486849841 11.3392
46.24242243555223 11.307
46.266821333570014 11.2767
46.29103328674601 11.2255
46.31524742696538 11.2393
46.33946375590237 11.1954
46.36387149104216 11.190999999999999
46.38809221957392 11.177999999999999
46.41231514186606 11.1384
46.436540259597464 11.1725
46.460956858999374 11.1245
46.48518638983522 11.1169
46.509418121166966 11.0634
46.533652054678114 11.0203
46.55807754555709 10.9719
46.58231590571962 10.9838
46.60655647313217 10.9656
46.630988654873654 10.9557
46.655233659129024 10.9235
46.67948087571551 10.9153
46.70373030632484 10.8834
46.72817142736393 10.8948
46.752425308428684 10.914000000000001
46.77668140861147 10.8581
46.80093972960865 10.8011
46.82538981736788 10.8181
46.849652602470904 10.7853
46.87391761349769 10.7828
46.8981848521493 10.745
46.9226439341274 10.7043
46.946915650573224 10.6844
46.97118959976749 10.6764
46.99546578341598 10.6894
47.019933887188216 10.667
47.04421456235744 10.6508
47.06849747711879 10.6439
47.09278263318286 10.6061
47.11725978640143 10.5761
47.14154944775105 10.4944
47.165841355555656 10.5131
47.1901355115306 10.522
47.214621741924994 10.5209
47.23892041698887 10.4947
47.26322134538975 10.4227
47.28771440635075 10.4471
47.31201986422527 10.4328
47.33632758061436 10.397
47.360637557241866 10.4267
47.38513974410611 10.3747
47.40945426407847 10.3508
47.43377104948137 10.3359
47.45809010204344 10.315
47.48260144275502 10.2854
47.506925052572285 10.2606
47.53125093475548 10.2541
47.55557909103813 10.2404
47.58009961361992 10.1914
47.60443234110732 10.2102
47.62876734791564 10.1737
47.65310463578333 10.1644
47.6776343683373 10.173
47.7019762413987 10.1032
47.72632040075572 10.1122
47.75066684815169 10.1156
47.77520581885936 10.0915
47.799556865477655 10.0461
47.823910205386 10.0026
47.84826584033272 10.0193
47.87281407745551 9.96596
47.89717432569297 9.99272
47.92153687423484 9.98051
47.94609208429692 9.9387
47.97045925671401 9.89922
47.99482873471275 9.913730000000001
48.01920052005013 9.88762
48.04376504619224 9.836839999999999
48.068141469543484 9.896289999999999
48.09252020552573 9.89369
48.11690125590099 9.835239999999999
48.1414751266064 9.8071
48.16586082917454 9.794360000000001
48.19024885144316 9.749880000000001
48.2146391951793 9.7762
48.239222439012764 9.76088
48.26361744916137 9.741
48.28801478610016 9.71749
48.31241445160131 9.69915
48.337007097209366 9.627460000000001
48.36141144338331 9.64021
48.38581812345755 9.605030000000001
48.41022713920929 9.6379
48.434829215320704 9.58131
48.45924292604658 9.579189999999999
48.48365897780325 9.58034
48.50807737237308 9.51607
48.532688907799276 9.50169
48.55711201168574 9.50515
48.581537463754074 9.45459
48.60615611725119 9.534930000000001
48.63058628942721 9.48656
48.65501881516546 9.44395
48.6794536962573 9.44862
48.70408185970339 9.41817
48.72852147531801 9.37118
48.75296345168211 9.34039
48.77740779059232 9.33671
48.80204549302823 9.35393
48.82649458091802 9.329369999999999
48.85094603676547 9.28326
48.87539986237231 9.28369
48.90004713292306 9.28599
48.92450572200832 9.24832
48.94896668628025 9.23263
48.97343002754588 9.234760000000001
48.99808689542115 9.21009
49.02255501470614 9.1626
49.04702551642794 9.12369
49.0714984023988 9.12631
49.096164896893235 9.11506
49.120642575466796 9.06228
49.145122643748394 9.07815
49.16960510355558 9.03152
49.19428125404938 9.06123
49.2187685210852 9.05596
49.243258185121555 9.00981
49.26794160167084 8.99625
49.2924360839405 8.96154
49.31693296869764 8.9625
49.34143225776915 8.95144
49.36612538195438 8.90904
49.39062950396021 8.920639999999999
49.41513603578346 8.86871
49.4396449792564 8.85902
49.46434784069503 8.849089999999999
49.488861631846454 8.836030000000001
49.513377840166804 8.80291
49.537896467493745 8.78401
49.56260909589029 8.77777
49.587132585683285 8.74563
49.611658500018365 8.74363
49.636186840738596 8.74156
49.66090926588511 8.696
49.685442483902584 8.67303
49.70997813385706 8.66739
49.734516217597076 8.6741
49.75924846937352 8.655339999999999
49.7837914452858 8.62974
49.80833686055187 8.6045
49.83288471702571 8.61819
49.85762682540054 8.59211
49.882179588965734 8.57894
49.9067347993235 8.51159
49.93129245833333 8.55534
49.95604445336378 8.54567
49.98060703442832 8.4936
50.005172069746266 8.49691
50.02993150438364 8.48211
50.05450147301533 8.46381
50.07907390151433 8.45077
50.10364879174981 8.435039999999999
50.12841816587289 8.4366
50.1529980044635 8.391630000000001
50.17758031042124 8.43036
50.20216508562089 8.37392
50.22694442953363 8.33542
50.25153416817468 8.327210000000001
50.27612638170508 8.33415
50.300721072005196 8.292110000000001
50.325510416102105 8.29033
50.350110084975064 8.26463
50.37471223628208 8.2424
50.39931687190919 8.27621
50.424116246675766 8.20485
50.44872587605249 8.170810000000001
50.47333799543065 8.170739999999999
50.49795260670191 8.162189999999999
50.52276204271512 8.11743
50.54738166295838 8.107330000000001
50.57200378079314 8.0969
50.596628398116835 8.10647
50.62144792604559 8.12975
50.646077567609396 8.06557
50.670709714377715 8.07811
50.69553683636198 8.033339999999999
50.72017401885922 8.02824
50.7448137122895 8.01993
50.76945591856022 7.98652
50.79429318636823 7.97368
50.818940443716784 7.981489999999999
50.84359021965163 7.9745800000000004
50.868242516085964 7.94568
50.893089960641895 7.90395
50.917747323549435 7.884339999999999
50.94240721271973 7.88191
50.96706963007175 7.88762
50.99192728239342 7.87472
51.01659478166073 7.871739999999999
51.04126481489051 7.8507
51.06593738400761 7.8059199999999995
51.090805275207074 7.79732
51.11548294172845 7.7842899999999995
51.14016314993547 7.7820100000000005
51.164845901758845 7.779739999999999
51.18972406304274 7.74442
51.21441192780656 7.720160000000001
51.23910234200271 7.6926
51.2637953075678 7.69787
51.288683770237945 7.66861
51.31338186432707 7.65297
51.33808251561888 7.628360000000001
51.362978729967345 7.63173
51.387684521509755 7.6074
51.41239287610203 7.5860199999999995
51.437103795691165 7.55508
51.46201036644977 7.56215
51.486726441956634 7.54902
51.51144508832545 7.56053
51.536166307509156 7.4974300000000005
51.56108326624387 7.498489999999999
51.58580965706056 7.4958
51.61053862657523 7.47715
51.635270176746864 7.417860000000001
51.66019755512065 7.419
51.68493429268881 7.40685
51.70967361681515 7.43072
51.73441552946465 7.38485
51.759353359237934 7.4111899999999995
51.7841004750961 7.37369
51.80885018539685 7.343
51.833602492111254 7.33427
51.8585508051424 7.28905
51.883308330926425 7.304760000000001
51.90806845906181 7.29623
51.932831191525715 7.27543
51.95779001977161 7.279789999999999
51.98255798721516 7.231910000000001
52.00732856494335 7.2343399999999995
52.03229530577543 7.1763
52.057071130455945 7.223
52.081849571391054 7.20592
52.106630630568695 7.17695
52.13160794279417 7.1022300000000005
52.15639426492067 7.116060000000001
52.18118321127822 7.12833
52.205974783860896 7.107810000000001
52.23096269971011 7.07797
52.255759551287994 7.05502
52.280559035098186 7.06773
52.30536115314103 7.01836
52.33035970494467 7.0738199999999996
52.35516711807904 7.03977
52.37997717147198 6.9803
52.40478986713005 6.98843
52.42979908731974 6.941039999999999
52.454617094216 6.95868
52.47943774942214 6.92599
52.50426105495102 6.91287
52.529280976059844 6.95172
52.554109609024096 6.91201
52.57894089837482 6.874689999999999
52.60377484613117 6.85377
52.62880550079408 6.8735800000000005
52.65364479223379 6.85398
52.67848674816189 6.823239999999999
52.70352547971946 6.81336
52.72837279155837 6.830439999999999
52.753222773982785 6.80535
52.778075429022984 6.77347
52.80312495150885 6.7368
52.827982978797436 6.76505
52.85284368481815 6.7175899999999995
52.87770707160767 6.6911
52.90276741793998 6.6971300000000005
52.92763619336701 6.689489999999999
52.952507655698504 6.6886
52.977381806977576 6.684419999999999
53.00245301017842 6.66213
53.02733256653592 6.6446
53.052214817996074 6.6137
53.077099766608484 6.63868
53.102181859804446 6.56999
53.127072229988265 6.59628
53.15196530349892 6.55457
53.17686108239249 6.53356
53.20195409881522 6.54422
53.22685531582556 6.51265
53.25175924441303 6.483219999999999
53.27666588664027 6.5031099999999995
53.30176985962693 6.496580000000001
53.3266819565689 6.43714
53.35159677336455 6.45038
53.376514312083096 6.43328
53.40162927507703 6.44846
53.42655228516116 6.38601
53.45147802340193 6.381530000000001
53.47660125628886 6.37849
53.50153247842639 6.3404
53.52646643496923 6.36669
53.55140312799818 6.34551
53.576537409691696 6.30831
53.60147960336152 6.32402
53.626424539786164 6.31099
53.65137222105307 6.26702
53.67651758529126 6.2723
53.70147078399681 6.28371
53.72642673383343 6.24221
53.75138543689533 6.2453199999999995
53.776541917524526 6.2426900000000005
53.801506154876755 6.21015
53.826473151763246 6.19158
53.851442910284916 6.18403
53.87661054126026 6.18991
53.9015858509782 6.16626
53.92656392866066 6.1424900000000004
53.95154477641532 6.12643
53.976723591801296 6.11453
54.00171000771266 6.10124
54.02669920004598 6.1532
54.051691170915745 6.106269999999999
54.076881204886796 6.08251
54.101878760928514 6.0687
54.12687910187696 6.02795
54.152077577768296 5.96738
54.1770835166946 5.92603
54.20209224691339 5.9743900000000005
54.22710377055121 5.94839
54.25231352511594 5.96729
54.27733066384342 5.9480699999999995
54.30235060239643 5.937869999999999
54.32737334290836 5.9118699999999995
54.35259441062629 5.83395
54.377622783395324 5.85845
54.40265396455061 5.86407
54.42768795623251 5.85254
54.45292037169559 5.80875
54.477960012857906 5.86175
54.50300247099511 5.82875
54.52804774825457 5.79577
54.55329154616743 5.7668099999999995
54.57834249018678 5.69088
54.6033962597977 5.7075
54.6284528571545 5.71327
54.653708072335164 5.71099
54.67877035378786 5.6729199999999995
54.70383546947698 5.64714
54.72890342156389 5.6365
54.7541700889442 5.64695
54.77924374251975 5.59039
54.8043202390049 5.55197
54.82959552413022 5.51841
54.8546777351945 5.492999999999999
54.87976279569621 5.4897599999999995
54.90485070780914 5.52315
54.930137506558005 5.47117
54.95523115074295 5.44233
54.98032765308844 5.36054
55.005427015775496 5.39648
55.03072536339621 5.37242
55.05583047570572 5.31762
55.080938454927676 5.36051
55.10604930325027 5.30751
55.131359235107396 5.323919999999999
55.15647585066083 5.2945
55.181595341907496 5.27918
55.20671771104285 5.23189
55.232039262617704 5.1597
55.25716741665048 5.23745
55.28229845518636 5.23342
55.30743238042802 5.17894
55.33276558731939 5.10934
55.357905315183636 5.097980000000001
55.383047936390035 5.00989
55.40819345314859 5.0174900000000004
55.433538351073295 5.05818
55.458689688238415 5.01971
55.483843927614096 4.97808
55.509197623043605 4.97478
55.53435769621134 4.989
55.55952067826466 4.92886
55.5846865714265 4.88352
55.61005202069737 4.88265
55.63522376553902 4.8669400000000005
55.66039842818645 4.7872900000000005
55.68557601087004 4.79403
55.7109532500271 4.75157
55.73613670233794 4.7605
