TT I
1.2716486653135266 7.844180000000001
1.2939594142134223 7.1424199999999995
1.3162702121660406 7.1566600000000005
1.3385810600174564 6.83237
1.3608919586137629 6.80515
1.383202908801069 6.33821
1.405513911425503 6.31825
1.4278249673332093 6.09998
1.4501343378461518 6.96012
1.4724455028545926 6.581239999999999
1.4947567236847858 6.47282
1.517068001182951 6.31074
1.5393793361953272 5.7480199999999995
1.5616907295681737 6.1725900000000005
1.5840021821477681 5.36865
1.60631369478041 5.907030000000001
1.6286252683124185 5.20662
1.6509369035901333 5.15034
1.6732468618895553 5.7401599999999995
1.695558623192809 5.18055
1.7178704487808514 5.3895599999999995
1.7401823395001077 5.58971
1.7625012545597203 5.13931
1.7848028405262486 5.272480000000001
1.8071218901122095 5.5435099999999995
1.8294236121921872 5.30769
1.8517427996910911 5.12211
1.8740620574440425 5.319380000000001
1.8963639900671978 5.25839
1.9186833908139995 4.992290000000001
1.9409854680117449 4.897069999999999
1.9633050151394713 4.64766
1.9856246367570705 4.424180000000001
2.0079269371922672 5.44463
2.03024671027244 4.881
2.0525491637446027 5.20129
2.074869091674931 4.58148
2.097171701569106 4.32471
2.1194917877373847 4.975630000000001
2.141811954326636 5.26832
2.164114805233074 4.61069
2.186435135143035 5.60629
2.208738150935709 14.944
2.231058647554722 32.3748
2.2533792288321184 26.0304
2.275682498336085 11.1446
2.298003251406138 6.3650199999999995
2.3203066942619714 5.2565599999999995
2.3426276225136022 5.07838
2.3649486396617507 3.85952
2.387252348930071 4.3854
2.4095735463442893 4.4631099999999995
2.4318774374315884 4.89005
2.4541988185014043 5.00076
2.476502894794693 5.92963
2.498824462909887 5.276730000000001
2.521146125856138 4.67856
2.5434504863470337 5.525980000000001
2.5657723414244717 6.1071800000000005
2.588076895590662 6.17744
2.610398946189713 6.1786900000000005
2.6327210958598384 6.27289
2.6550259469304716 6.67592
2.6773482972090137 6.490530000000001
2.6996533504259 6.957089999999999
2.7219759047039602 7.1499
2.744298562293959 7.35727
2.7666039251246595 7.2386800000000004
2.7889267918020164 7.23648
2.8112323652516555 7.145289999999999
2.833555444408179 8.104989999999999
2.8558786311183852 7.9359399999999996
2.8781845268938557 8.25188
2.9005079311721484 8.91763
2.9228140460410397 8.66643
2.9451376712799635 9.34177
2.967444008632326 9.539489999999999
2.9897678582247247 9.86985
3.0120918213106695 10.155
3.0343984987899373 11.0377
3.0567226913198637 10.8825
3.079029599759726 11.9249
3.101354025127254 12.177
3.123678568232338 13.2625
3.145985829517914 13.091
3.16831061055229 13.3442
3.1906181112775593 14.0949
3.212943133635653 14.2234
3.2352682779763207 15.2668
3.2575761442691227 15.5014
3.2799015350264273 15.8179
3.302209649240067 16.8383
3.3245352898092655 17.2698
3.3468436553365257 17.6582
3.369169549113219 17.6715
3.3914955708171384 18.8106
3.413804319727358 19.4429
3.4361305997334863 19.474
3.4584396084414553 20.0636
3.4807661501462652 20.6982
3.503092824025881 21.9193
3.5254022288463154 21.506999999999998
3.5477291695206588 22.1791
3.5700388426251948 22.8588
3.5923660534916446 24.9647
3.6146934007816114 41.5036
3.637003482731501 102.92200000000001
3.6593311053109985 115.82700000000001
3.681641464033634 65.4294
3.7039693653009733 32.6329
3.726297407241705 27.1164
3.7486081875460804 26.8014
3.7709365132734978 27.4951
3.793247578841633 27.2594
3.8155761917550093 27.5009
3.8378875459837216 27.7325
3.8602164494827234 28.1697
3.882545499606844 28.655
3.9048572932539183 29.6782
3.9271866390645718 29.6546
3.9494987298666713 30.6545
3.971828374764527 31.2039
3.9941581705403255 31.8084
4.016470713506008 32.2859
4.038800813471445 32.6482
4.061113662089144 33.5634
4.0834440696459176 35.0688
4.105774632334751 34.7917
4.128087945865126 35.8864
4.150418821249301 37.0907
4.172732448931298 38.1818
4.195063640413578 40.4504
4.2173775856475215 45.6583
4.239709096631102 81.4
4.262040768704612 276.193
4.284355196706267 383.37199999999996
4.306687193387355 250.072
4.329001947444346 93.6173
4.35133427213731 51.3208
4.373666762177566 46.4942
4.395982011761091 46.1689
4.418314834921175 47.3928
4.44063041906622 55.8916
4.4629635787515625 69.8856
4.4852969080429785 69.5047
4.5076130004776225 57.0919
4.529946671403969 53.5537
4.552263106909177 53.2486
4.574597122877047 53.309
4.596931312711224 53.92
4.619248269273446 55.2278
4.6415828092605835 56.1282
4.663900117405352 57.7174
4.686235010953232 59.158
4.708552674085913 59.9552
4.730887924602802 61.218999999999994
4.753223354952695 62.8779
4.775541557023902 64.9883
4.797877349456786 66.3288
4.820195915032126 68.3672
4.842532072957498 69.1131
4.864868414979744 71.7681
4.88718753227192 74.9972
4.909524244902505 76.5434
4.931843734218147 77.7913
4.954180820867835 80.4508
4.976518095879839 84.3965
4.998838149695359 87.2419
5.021175803844231 91.4155
5.043496238205739 95.8682
5.065834274903528 100.339
5.088172504230693 106.59200000000001
5.1104935158799565 115.48200000000001
5.132832132875765 144.975
5.155153533596801 201.99200000000002
5.1774925416746225 256.34
5.199814334878411 510.212
5.2221537374521505 1419.26
5.244493338631803 3233.49
5.266815727034316 6644.31
5.289155727832427 10956.2
5.311478517248165 9603.9
5.333818921080011 4187.46
5.356159527788849 961.461
5.3784829252032536 261.45
5.400823940070432 175.56599999999997
5.423147747031976 148.077
5.445489173474152 132.618
5.467830807066149 124.926
5.490155234831516 119.875
5.512497285125229 114.26
5.534822130975162 111.18799999999999
5.557164601388673 108.125
5.579489868738879 104.749
5.601832762690846 104.337
5.6241758697774475 103.431
5.646501775867269 101.89200000000001
5.668845311622074 100.51
5.691171647754637 98.7947
5.713515615597765 97.9617
5.735859800852677 96.9866
5.758186788542988 97.2745
5.780531411018185 97.7908
5.802858837297399 97.13
5.825203900414495 97.5651
5.8475491852224 98.3878
5.869877275883075 98.7737
5.892223006467101 99.8092
5.914551544266608 101.265
5.936897724049891 105.73100000000001
5.959244129804903 114.01700000000001
5.981573344815301 141.137
6.0039202049061 264.315
6.026249875609095 579.6619999999999
6.04859719346037 1108.13
6.070927323278297 2039.63
6.093275102315365 3685.06
6.115623113320588 4944.8
6.137953938319995 3709.21
6.160302415650845 1434.3
6.182633708324452 386.51199999999994
6.2049826554078376 149.71200000000002
6.227331838745022 107.25399999999999
6.249663839443684 95.1876
6.27201349767565 90.7602
6.294345974611799 96.1511
6.316696111167083 110.719
6.339046488263839 104.656
6.361379686074702 86.0661
6.383730546639482 76.0434
6.406064229255215 72.7951
6.428415576718203 72.0217
6.450749747566656 70.5991
6.47310158535871 69.3093
6.495453669698332 68.0919
6.517788579421056 67.5992
6.540141159237969 66.4498
6.562476565766648 66.3594
6.5848296444934045 65.8884
6.607182974060425 65.1719
6.6295191323281015 65.3928
6.651872965955752 69.2214
6.6742096296068985 99.3331
6.6965639707294615 157.842
6.71891856698715 160.372
6.741255995248479 106.82
6.763611104154477 73.2045
6.785949046381137 63.2438
6.808304671371482 61.0277
6.8306605557940046 60.7244
6.852999275508618 59.7105
6.875355681171544 59.7751
6.897694923437771 59.6221
6.92005185377892 58.7395
6.9423916220322655 58.818000000000005
6.964749080490181 58.0335
6.987106804399774 58.3568
7.009447368180821 57.9761
7.031805625367033 57.7711
7.054146723727803 57.6397
7.076505517631004 57.0715
7.098864581288365 57.4751
7.121206488070854 57.5994
7.143566093607822 57.1673
7.165908543567245 57.3299
7.188268694426048 57.6708
7.2106291193438095 58.0963
7.232972390625943 59.7967
7.255333366030969 73.8556
7.277677189091925 137.556
7.300038718428332 201.335
7.322400526130865 170.90599999999998
7.344745183422596 101.385
7.367107550224791 66.3748
7.389452767901992 59.0315
7.411815697249891 57.7378
7.434161478756298 56.9216
7.456524974096713 56.9136
7.478888753837185 56.3035
7.501235387657368 56.6532
7.523599738562711 56.6966
7.545946944825532 56.8403
7.568311870344528 57.5474
7.5906770845765665 57.7358
7.613025156078678 59.3218
7.635390950099687 60.9999
7.657739602662809 60.0547
7.680105979923558 58.4576
7.702472650212829 58.3485
7.724822180948224 57.9312
7.747189439655568 58.4562
7.769539560075357 58.6014
7.791907410653562 58.9017
7.81425812420825 59.0666
7.836626570110925 59.4481
7.858995315087906 59.855
7.881346924933401 59.7397
7.903716270417482 60.6543
7.926068482028405 61.0256
7.948438431475253 61.6128
7.9708086843180235 62.1252
7.993161805171116 62.6877
8.015532667162402 63.1483
8.037886398416653 64.1751
8.060257873014221 64.5677
8.082629655331942 65.3819
8.104984308787587 66.4616
8.127356708900503 70.0966
8.149711981398308 77.4407
8.172085002766314 80.7849
8.194458336181368 76.0355
8.216814543847752 72.4656
8.23918850371002 72.2618
8.26154533906492 73.0622
8.283919928836452 75.0238
8.306277395339652 75.9335
8.328652618483376 77.3443
8.351028159736202 79.1181
8.373386579575245 81.7862
8.395762759396959 83.9866
8.418121819038275 89.7386
8.440498640894003 106.012
8.462875785192262 123.925
8.485235811156207 141.164
8.507613602688501 192.745
8.529974277114228 304.574
8.552352719347912 456.8
8.574731488360351 664.076
8.59709314210385 1038.27
8.619472567021075 1551.91
8.64183487789147 2066.19
8.664214962183097 2020.82
8.686577933647762 1306.58
8.708958680784317 581.688
8.731339760774953 238.21900000000002
8.753703729764451 132.39700000000002
8.77608547780821 109.21600000000001
8.798450116065078 102.561
8.820832535634787 98.4075
8.843215292401656 96.2548
8.865580941199045 94.8835
8.887964374703538 93.6402
8.910330701447199 94.3953
8.932714815164482 97.2044
8.955099270424924 96.3495
8.977466620733543 92.64399999999999
8.999851761421976 88.96799999999999
9.022219798361645 86.9379
9.04460562795561 86.7514
9.066991803441677 86.3988
9.089360876979615 86.3863
9.111747746589993 85.7757
9.13411751544971 85.2147
9.156505082664324 84.6322
9.178875550323522 84.8986
9.20126381862328 85.6462
9.223652438908596 85.9833
9.246023961427412 85.7492
9.26841328802173 85.3148
9.290785518039224 85.346
9.313175554425882 86.2584
9.335565947154315 86.1675
9.357939245086508 86.2772
9.380330352834827 86.4907
9.40270436697103 86.4719
9.425096193225055 85.8814
9.447488380180165 86.9673
9.469863475295412 87.1
9.492256385987508 87.9671
9.514632206018318 88.1866
9.537025843935714 88.9352
9.559402392368193 89.6618
9.581796761000229 91.355
9.604191496441521 92.2751
9.626569144158516 96.3119
9.648964615551032 102.141
9.671343000390081 103.91799999999999
9.693739211225699 101.281
9.716135793237463 97.5793
9.738515290448102 97.0054
9.760912617143402 97.9749
9.783292860202891 99.48700000000001
9.805690935076182 100.946
9.828089385495742 101.789
9.850470754023561 104.62
9.872869957865444 112.91
9.89525208097539 131.24200000000002
9.917652041736662 147.782
9.940052382417589 148.497
9.962435644102392 157.149
9.984836746950979 201.71900000000002
10.007220771957746 285.567
10.029622640473708 401.80400000000003
10.052007432299963 547.274
10.074410069984072 739.561
10.096813093716005 1060.49
10.119199042482517 1491.93
10.141602840636468 1826.23
10.163989564971628 1765.53
10.186394141051062 1234.35
10.208799107559706 599.028
10.231187001965623 266.393
10.253592751657669 151.86700000000002
10.275981430388155 124.34899999999999
10.298387966769793 121.238
10.320794897965431 124.31
10.343184759907361 122.831
10.36559248305461 115.93
10.387983138083852 110.944
10.410391656691655 113.73899999999999
10.432800574501677 127.584
10.455192425893369 149.929
10.47760214443012 177.572
10.499994797678786 211.46099999999998
10.522405320453982 262.04200000000003
10.54479877906917 349.87699999999995
10.567210109595656 452.876
10.5896218454736 536.4780000000001
10.612016518879773 548.964
10.634429067781074 424.05800000000005
10.656824555333241 264.596
10.679237920773568 156.561
10.701651695961992 108.04700000000001
10.724048411481384 95.0292
10.746463008485165 91.2594
10.768860546937125 88.9535
10.791275969274796 87.26
10.81369180576079 85.8842
10.836090585366925 84.751
10.858507252467449 83.4059
10.88090686379991 82.2181
10.903324365036394 81.9113
10.925724811614439 81.9458
10.948143150509463 83.5708
10.970561909719066 83.1417
10.992963615930844 80.7175
11.015383218085756 78.1573
11.037785768347074 76.1647
11.06020621697282 75.6636
11.082627090322113 75.2177
11.105030913430326 74.8179
11.12745263854165 75.5468
11.149857314510728 79.4085
11.172279894912576 87.2116
11.194702904450653 88.9447
11.217108866490921 83.8437
11.239532736615194 78.4454
11.26193956033512 75.6896
11.284364294577085 73.639
11.306789462371718 71.4628
11.329197585398376 70.218
11.351623622610898 69.8313
11.37403261614354 68.9299
11.396459526308487 68.5926
11.418869393879497 68.2495
11.441297180532617 67.6819
11.463725406927658 67.4313
11.486136592353875 67.441
11.508565700543707 68.1245
11.530977768845315 70.6406
11.553407762368774 71.5675
11.575838200059769 71.0901
11.598251599479612 68.87
11.620682927815501 66.7043
11.64309721895548 66.2251
11.665529441478206 65.5288
11.687962112597958 65.2566
11.710377748130886 65.5428
11.732811318753434 65.6392
11.755227854859067 65.5404
11.777662328529495 65.3374
11.800079768750786 64.9832
11.822515149015453 64.83
11.844950984084935 65.0058
11.867369787303163 64.9545
11.889806534289491 64.6399
11.912226250487029 65.2158
11.934663912939751 65.5773
11.9571020346363 65.3049
11.979523127133968 65.4489
12.001962169624331 66.1368
12.024384183972964 67.4061
12.046824150809913 71.4168
12.069264581333726 77.6762
12.091687985297767 85.4818
12.11412934550045 93.4136
12.136553680195208 104.287
12.158995973632788 118.537
12.181438735204349 139.94
12.20386447284199 167.998
12.226308172985636 198.053
12.24873485024193 213.685
12.271179492516982 191.926
12.293607112949127 151.884
12.316052700916226 113.671
12.338498763250042 89.3095
12.360927805303868 76.0677
12.383374818673879 70.3888
12.405804812803074 67.8801
12.428252780773262 67.3004
12.45070122756722 67.1656
12.473132656675375 66.9049
12.49558206341869 67.2648
12.518014453510101 67.1829
12.540464823770117 67.1895
12.562915677315177 67.3861
12.58534951575545 68.0903
12.607801338171472 70.3548
12.630236146511358 76.5845
12.652688941369085 82.8612
12.675124723177234 83.8885
12.697578494048786 79.1594
12.720032754458185 73.8101
12.742470003354093 71.0547
12.764925245138771 70.5291
12.787363476431278 70.8658
12.809819703166806 71.0837
12.83227642391173 72.1093
12.854716135692716 72.5273
12.877173846755147 73.5978
12.899614549869717 73.9898
12.9220732548287 74.6644
12.94453245827299 74.9942
12.966974655289818 75.9295
12.989434858002571 76.9748
13.011878055298721 77.6798
13.034339260862497 78.6159
13.056800969391883 80.1617
13.079245674017244 82.1563
13.101708390774869 85.104
13.12415410463411 93.5588
13.146617833206086 107.58
13.169064559883248 122.889
13.191529303857127 139.981
13.213994557076367 158.06
13.236442809902437 181.24200000000002
13.258909083908291 218.23
13.28135835851934 265.61400000000003
13.30382565690295 326.839
13.326293469022952 394.204
13.348744283242008 432.32199999999995
13.371213125129904 401.923
13.39366497011003 321.274
13.416134845360597 221.732
13.438605238843131 151.711
13.46105863690397 120.17299999999999
13.483530069144786 115.53
13.505984506951902 121.37700000000001
13.528456981549432 133.105
13.550929978879088 145.281
13.573385983253365 160.515
13.595860028340867 184.87599999999998
13.618317081455832 221.303
13.64079217790333 267.045
13.663250283359057 317.007
13.685726434770173 364.165
13.708203115221277 366.63699999999994
13.730662806148091 317.123
13.75314054697177 237.808
13.775601299246777 161.584
13.798080104050406 113.446
13.820559442405358 92.76299999999999
13.843021793671388 86.5125
13.865502201420897 84.1184
13.887965623051947 83.1647
13.910447103807167 81.927
13.932929122629764 80.5999
13.955394156785959 80.0448
13.977877254034569 78.551
14.000343367582113 77.8579
14.022827546871707 77.3926
14.045294743423524 76.6838
14.06778000837062 76.0883
14.090265817715476 75.7166
14.112734645763819 75.4575
14.13522154619454 75.4492
14.157691466286913 75.3929
14.180179461423874 75.1661
14.202668005486178 74.5453
14.22513957064374 73.6667
14.247629214846473 73.2603
14.270101881097517 73.0655
14.29259262906496 73.5632
14.315083930490205 74.3584
14.337558255389705 74.7067
14.360050666019726 74.5341
14.382526101071944 73.26899999999999
14.405019624534942 72.3824
14.427513705993134 71.7198
14.449990813291825 71.5043
14.47248601302899 71.3323
14.49496423954951 71.5047
14.517460561197822 71.5837
14.539939910570322 71.5258
14.562437357763558 71.7407
14.58493536931253 73.2597
14.607416409993311 74.1338
14.62991555254159 75.0579
14.652397725157423 74.8299
14.674898002342799 73.9366
14.697398848433282 73.3753
14.719882725991326 74.092
14.74238471217934 75.083
14.764869730765593 78.8479
14.787372860692983 83.506
14.809876564079925 89.6563
14.83236330125751 95.883
14.854868153850365 103.206
14.877356041159485 111.92200000000001
14.899862046604186 123.74799999999999
14.922351087688757 140.812
14.944858249632887 163.53799999999998
14.967365991421232 189.13299999999998
14.989856770231246 211.99200000000002
15.012365673994204 222.55700000000002
15.03485761569738 209.382
15.05736768508665 174.99599999999998
15.07987833888692 137.158
15.102372032001655 106.19
15.124883856909658 85.0028
15.14737872204565 77.3198
15.169891721717274 74.3418
15.192405310371893 73.9079
15.214901940621196 74.2296
15.237416709527137 74.4156
15.259914520936249 74.7268
15.282430473753607 73.5233
15.304947020131227 72.1454
15.327446610371178 71.061
15.349964346154254 70.1823
15.372465126703139 69.7209
15.394984055556009 69.2459
15.417486030076159 68.9862
15.44000615566487 68.6381
15.462526881230803 68.7401
15.485030653812652 69.1077
15.507552581617434 69.1091
15.530057557334603 69.1625
15.55258069104857 68.7951
15.575104429329837 68.8969
15.597611216864632 68.4835
15.620136166564563 68.8262
15.6426441664095 69.9297
15.665170331202765 72.7115
15.687697105158826 76.7601
15.710206930593545 81.191
15.732734925158933 86.1088
15.755245972089478 91.1842
15.77777519094324 97.105
15.800287463046663 105.62700000000001
15.822817909869592 118.12299999999999
15.84534897229804 134.05
15.867863089299354 154.608
15.890395385222186 174.747
15.912910736597423 190.738
15.935444269699861 194.46900000000002
15.957978423016485 176.149
15.980495633101265 147.275
16.003031029129367 117.071
16.02554948280019 89.5544
16.048086125229432 74.6887
16.070623392487107 69.7406
16.09314371869582 68.2145
16.11568223789321 67.1449
16.13820381691126 65.8025
16.160743591742527 64.744
16.183283996022084 63.4061
16.205807461423195 62.2292
16.228349126881973 61.6265
16.25087385432698 61.678999999999995
16.27341678466365 60.7509
16.29594277784926 60.7988
16.31848697676433 61.1914
16.341031811604868 61.5163
16.36355971058487 62.0978
16.3861058195587 61.843999999999994
16.40863499352978 60.6753
16.431182380342005 59.501000000000005
16.453730407713202 58.7471
16.476261501364792 58.2208
16.498810812136167 57.7267
16.52134319004079 57.7943
16.54389378792203 57.6603
16.566445031001553 57.5127
16.588979342490088 57.4004
16.61153187824822 57.3742
16.634067483263312 57.0663
16.656621315414416 57.1173
16.679175797408888 56.6671
16.701713349928728 57.0384
16.72426913389191 57.1953
16.74680798922351 57.3095
16.76936507887444 57.1795
16.791905240734874 57.3068
16.814463639794468 57.1061
16.837022695210294 57.1356
16.859564824093756 57.5935
16.882125194503903 58.3111
16.904668639217885 59.0702
16.927230328348003 59.5847
16.949792678493612 59.7127
16.972338104193863 58.6816
16.994901778652235 58.1467
17.017448529496576 57.8775
17.040013531998152 58.0589
17.06257920018044 58.5939
17.0851279459922 59.5748
17.107694947817667 60.5743
17.130245028099072 61.5904
17.15281336730298 63.0341
17.17536478578733 64.4821
17.19793446610687 65.8286
17.220504818648422 67.6169
17.243058251703697 69.7544
17.265629950971032 73.2973
17.288184731571736 77.4201
17.310757781306908 81.8513
17.33333150794385 85.1295
17.355888317140174 85.9604
17.37846339986244 83.1173
17.401021565958885 77.8811
17.42359800851343 71.79
17.44617513265564 66.6933
17.468735341390783 63.7575
17.491261035594565 61.9157
17.51396340099364 61.3554
17.536490463869136 61.431999999999995
17.559018209820174 61.5947
17.58154663977963 61.641999999999996
17.604251766089718 61.7207
17.626781572227713 61.8733
17.64931206518155 62.1961
17.671843245885103 62.7907
17.69455114821572 63.025
17.717083712612634 63.4378
17.739616967569667 63.5331
17.762150914021706 63.7061
17.78486160749854 63.7767
17.807396945166804 64.4028
17.829932977143503 65.3025
17.85246970436452 66.9596
17.875183204129467 69.3208
17.897721330097664 72.3034
17.920260154126645 75.3355
17.942799677153296 78.524
17.9655159983646 80.8906
17.988056927677544 84.3675
18.010598558807683 89.3395
18.033140892692916 96.2811
18.05586005052525 104.314
18.07840379824407 114.28200000000001
18.10094825154059 126.18700000000001
18.12366954819864 137.378
18.146215420998306 143.94
18.16876200220057 142.72899999999998
18.191309292745153 132.542
18.214033452627167 117.911
18.236582170236648 103.637
18.259131600016456 93.0769
18.281681742907335 88.7519
18.304408781233683 89.618
18.32696035875955 92.9556
18.349512652227624 97.8998
18.372065662579683 104.012
18.394795594587553 108.34200000000001
18.41735004715306 108.40899999999999
18.43990521943684 104.665
18.46246111238171 96.3093
18.485193953325208 85.7801
18.507751296070428 76.6922
18.530309362314178 70.8472
18.552868153000343 67.1507
18.57560391815056 65.2534
18.59816416623245 64.5922
18.620725141597372 64.1016
18.643286845190268 63.3219
18.666025549835414 63.095
18.688588718427933 62.3287
18.711152618092243 62.2589
18.73389353884365 61.8311
18.75645890921984 61.4344
18.77902501351406 61.1709
18.801591852673102 60.9258
18.824335739722738 60.373000000000005
18.846904057212626 60.4306
18.8694731124168 60.0108
18.89204290628315 60.0521
18.914789774966803 59.8726
18.937361054791623 59.6087
18.959933076131318 59.4933
18.982505839934877 59.3507
19.00525570560582 59.4127
19.027829963004184 59.3028
19.05040496572238 59.3906
19.072980714710468 59.2888
19.095733592739563 59.6615
19.11831084296757 60.1622
19.140888842324735 60.8039
19.16346759176222 61.0374
19.18622349753803 61.6982
19.208803755869358 62.315
19.231384767143577 62.8568
19.253966532312948 63.6356
19.276725481241822 64.7692
19.29930876296784 66.5734
19.3218928014549 69.3145
19.34465404436217 72.4831
19.36723960516257 75.5026
19.389825925592426 77.898
19.412413006605938 78.8468
19.43517731967805 77.4026
19.457765930683355 73.5644
19.48035530514408 68.9847
19.50294544401556 64.4607
19.525712842708348 60.8418
19.54830451925909 58.5053
19.570896963095727 56.8622
19.593490175174704 56.2698
19.616260674962184 55.8751
19.638855432416964 55.666000000000004
19.661450960992624 56.0256
19.68404726164677 55.7254
19.706820878021247 55.4451
19.729418731756834 55.7484
19.752017360452857 55.6786
19.77461676506804 55.5976
19.797393513540218 55.8391
19.819994478951667 56.0599
19.84259622316767 56.8615
19.8651987471481 57.4691
19.887978643247177 57.669
19.91058273574792 58.0079
19.933187610901943 58.5806
19.955969879466828 59.3783
19.97857632894404 60.2103
20.00118356396599 61.4089
20.023791585494575 63.1072
20.046577028914875 65.3168
20.069186632506966 67.4187
20.091797025500632 69.8524
20.114408208858933 71.7185
20.137196842715273 72.8733
20.159809615886765 72.3887
20.18242318232135 70.1475
20.20503754298326 67.5012
20.227829382875154 65.289
20.250445341109344 64.1072
20.27306209647285 63.6298
20.29567964993108 64.3676
20.31847471147704 65.4588
20.34109387027612 67.11399999999999
20.363713830075454 67.7559
20.386334591841646 67.6582
20.409132890679302 65.8962
20.431755265564437 62.7078
20.454378445325528 59.7885
20.477002430930366 57.0693
20.499803982716553 55.5153
20.522429589228004 54.3379
20.54505600449589 53.6887
20.567683229489194 53.2862
20.590488049900088 52.8522
20.61311690359731 52.4248
20.63574656993626 52.2344
20.658553853717297 51.7876
20.681185154618298 51.7084
20.703817271080066 51.6969
20.72645020407368 51.2745
20.749260783967177 51.1218
20.771895359337133 51.0179
20.794530754161617 51.1344
20.817166969412938 50.9952
20.83998086114876 50.8879
20.86261872660049 50.7078
20.885257415405402 50.6516
20.90789692853701 50.7341
20.930714147864748 50.7439
20.953355319030678 50.4542
20.97599731745334 50.7959
20.99864014410749 50.6399
21.021460706796564 50.7262
21.044105199328826 50.7335
21.06675052302631 51.0457
21.089396678865015 51.1196
21.112220600704806 51.2944
21.134868430275347 51.7129
21.15751709492456 51.8501
21.180166595629693 52.0843
21.202993892429635 52.3949
21.22564507473034 52.7828
21.24829709602816 53.3095
21.27112693608965 53.5588
21.293780644891275 53.6572
21.316435195634053 53.2268
21.339090589297417 52.4179
21.361923832041875 51.8855
21.384580921090404 51.4471
21.407238856007325 50.7416
21.429897637773326 50.6085
21.45273429906592 50.4281
21.475394784108598 50.3916
21.498056118951983 50.3094
21.520718304578022 50.4772
21.543558400304388 50.5125
21.566222297108816 50.8062
21.58888704765135 50.9533
21.61155265291521 51.3123
21.63439619898156 51.852
21.657063523335786 52.0719
21.67973170537063 52.6961
21.7024007460706 53.1616
21.72524775840385 53.8151
21.747918526116475 54.5859
21.770590155457388 55.2786
21.79326264741238 56.2371
21.816113141960237 57.6452
21.838787368860547 59.2711
21.861462461341976 61.0452
21.884315579735777 63.0423
21.90699241312273 65.0247
21.92967011506078 66.5908
21.95234868653799 67.5853
21.9752053151131 66.9724
21.997885635446785 65.7387
22.020566828293532 63.4563
22.04324889464272 61.0458
22.066109049404666 59.1342
22.088792872571794 58.0362
22.111477572219204 57.833999999999996
22.1341631493376 57.9817
22.157026846313123 57.8875
22.179714188221507 57.9403
22.202402410582668 57.0224
22.22509151438863 55.9262
22.24795876962584 54.4612
22.270649646204486 53.2827
22.293341407213727 52.6263
22.316034053646906 51.7246
22.338904883215342 51.2855
22.36159931041458 51.1282
22.38429462602756 51.0381
22.40699083104897 51.0553
22.429865251039757 50.9918
22.452563244831367 51.0484
22.47526213102522 50.7611
22.49813925616515 50.8756
22.520839937143307 50.7389
22.543541513520587 50.7405
22.56624398629403 50.5233
22.589124730075895 50.335
22.611829005656723 50.5661
22.63453418063466 50.5429
22.657240256008077 50.8287
22.680124634582935 51.1033
22.70283252079775 51.3853
22.725541310413075 51.7498
22.74825100442868 51.8521
22.771139033969575 52.2337
22.79385054687155 52.1896
22.81656296718292 52.9658
22.83927629590484 53.555
22.862167992606945 54.1341
22.88488314827121 55.0022
22.907599215359284 55.816
22.93031619487366 56.9463
22.953211574954405 57.9388
22.975930389478226 59.0526
22.998650119445763 59.9918
23.02137076586092 60.0283
23.044269845560063 59.3545
23.06699233506288 57.9731
23.089715744034912 56.1002
23.112617610931565 54.383
23.135342869061212 52.842
23.158069049684816 51.818999999999996
23.1807961538087 50.9562
23.20370174880544 50.8345
23.226430710184808 50.9125
23.249160598093425 50.9728
23.271891413539002 51.0564
23.294800752937697 51.0361
23.31753343374794 51.2688
23.340267045128353 51.3064
23.36300158808808 51.547
23.38591468821339 51.7013
23.408651104658304 52.0683
23.431388455719986 52.3543
23.454126742409 52.9009
23.4770436196085 53.5381
23.499783787914662 54.4665
23.522524894889884 55.271
23.54526694154616 56.3013
23.56818761219047 57.707
23.59093154860734 58.5899
23.613676427751283 59.6832
23.636422250635754 59.8754
23.659346731118656 59.0244
23.68209445191868 57.5023
23.704843119509587 55.2234
23.72759273490623 53.1109
23.750521041644767 51.2744
23.77327256312355 49.6655
23.796025035462787 48.9025
23.818956224555475 48.3538
23.841710609113413 47.9469
23.86446594758979 47.7763
23.887222241002014 47.3781
23.910157285144578 46.9804
23.932915498962537 47.0769
23.955674670778713 46.8635
23.978434801611975 46.8495
24.001373717286125 46.6442
24.024135776723917 46.513000000000005
24.046898798245582 46.5746
24.06966278287146 46.3184
24.092605586582614 46.0348
24.115371508023642 46.0509
24.1381383956401 45.9289
24.16090625045381 45.9006
24.183852958731244 45.9189
24.206622758582608 45.6283
24.229393528706886 45.4296
24.252165270127392 45.4927
24.27511589952438 45.4701
24.297889594216997 45.1488
24.32066426328598 45.1215
24.34343990775613 45.1721
24.36639447485003 45.0474
24.38917208083877 44.9155
24.41195066531332 44.8298
24.43490819850244 44.8571
24.457688750692377 44.5967
24.48047028445616 44.6319
24.503252800821233 44.7234
24.526214300784112 44.7137
24.548998793132213 44.6291
24.57178427117417 44.4614
24.59457073593893 44.6755
24.617536219319863 44.6352
24.64032466834748 44.6725
24.663114107195035 44.4751
24.685904536893013 44.4203
24.708874020360852 44.2977
24.731666442613744 44.2608
24.754459858818787 44.26
24.777254270007962 44.0099
24.80022777025625 44.0951
24.82302418230472 43.9577
24.845821592443674 44.1177
24.86862000170663 43.8388
24.891597535453727 43.93899999999999
24.914397953892728 44.0886
24.93719937456671 43.8425
24.96000179851076 44.0417
24.98298338249997 44.2371
25.00578782394922 44.4655
25.028593271784167 44.5469
25.05157790644186 44.769
25.07438537804115 44.8522
25.097193859145293 45.0166
25.120003350792075 45.2127
25.142992065061257 45.5783
25.165803588823465 45.8057
25.18861612625217 46.108999999999995
25.211429678386736 46.202
25.234422489079968 46.3356
25.257238081693636 46.2875
25.280054692141732 46.4491
25.3028723214652 46.3761
25.325869245420463 46.4727
25.348688923599397 46.4888
25.371509623787006 46.5576
25.394331347025812 46.4497
25.41733240110666 46.2246
25.440156181590016 45.7007
25.46298098826268 45.4548
25.48580682216873 44.7673
25.50881202326435 44.0057
25.53163992281684 43.4965
25.55446885274561 43.0458
25.577298814096377 42.6685
25.600308179121807 42.5409
25.623140214533745 42.6732
25.64597328451537 42.5075
25.66898578564376 42.1065
25.691820936010206 42.2204
25.714657124097695 42.3249
25.737494350954734 42.2846
25.760511045684957 42.0674
25.783350361364224 42.2897
25.806190718969255 42.2073
25.82903211955018 42.1891
25.852053024868923 42.2669
25.874896522722523 42.2883
25.897741066713106 42.0979
25.920586657892454 42.34
25.943611790812668 42.3853
25.966459487728237 42.5206
25.989308234998564 42.4053
26.01215803367705 42.7044
26.03518741123814 42.7591
26.05803932412957 42.8476
26.080892291600094 42.993
26.10374631470478 43.076
26.12677995397268 43.2323
26.14963609978026 43.4407
26.172493304397875 43.2233
26.19535156888223 43.2134
26.218389486949604 42.6227
26.241249882640123 42.4502
26.26411134137826 42.1153
26.28715248187403 42.035
26.31001607820869 41.8184
26.3328807407756 41.6604
26.35574647063438 41.7591
26.37879191991473 41.8544
26.401659795896734 41.7608
26.424528742360263 41.8921
26.447398760366614 42.0348
26.470448535598294 41.9961
26.49332070826805 42.2589
26.516193955675355 42.5316
26.53906827888316 42.5652
26.562122397260108 42.6813
26.584998883685063 42.9761
26.607876449110325 43.292
26.63075509460056 43.3162
26.65381357334404 43.4644
26.67669439061878 43.6002
26.699576291163382 43.6241
26.722459276044212 43.6417
26.745522132402975 43.43600000000001
26.768407297649354 43.1782
26.791293550442003 42.9015
26.814180891848974 42.6551
26.837248143099337 42.2893
26.860137673466657 42.1581
26.88302829566349 41.8958
26.90592001075963 41.7781
26.92899167420566 41.5624
26.951885586870763 41.3136
26.974780595655517 41.0491
26.99785558178161 40.9028
27.020752794605112 40.5596
27.043651106772522 40.4059
27.06655051935668 40.4436
27.089629948036183 40.3517
27.112531573292053 40.4329
27.135434302194138 40.4291
27.158338135817015 40.095
27.181422024430987 40.0958
27.204328079372566 40.0693
27.22723524226965 40.1397
27.250143514198573 40.1517
27.273231880156334 40.0039
27.296142382065014 39.9785
27.319053996245536 39.9172
27.341966723775965 39.8809
27.365059584515222 39.9825
27.38797455070062 39.8668
27.410890633481237 39.8715
27.433807833936918 40.0005
27.456905206923906 39.9094
27.47982465472398 39.8418
27.502745223449743 39.9617
27.525666914182825 40.0726
27.548768816912457 40.1611
27.571692763693633 40.043
27.59461783573812 40.06
27.617723149491244 39.8612
27.640650484125285 39.8718
27.66357894728264 39.6183
27.686508540048052 39.5642
27.709618414237887 39.6239
27.732550278321757 39.3728
27.755483275279115 39.38
27.778417406196485 39.3676
27.801531858397514 39.291
27.824468269376716 39.2836
27.847405817586786 39.2473
27.870344504116094 39.4138
27.893463551932008 39.5526
27.916404527281053 39.7237
27.93934664422563 39.6712
27.962289903855886 39.6815
27.98541356491974 39.8567
28.00835912214229 39.9757
28.03130582533231 40.1677
28.054253675581805 40.3794
28.077381967556104 40.4773
28.100332124185126 40.5885
28.123283431160893 40.5511
28.146235889577238 40.5199
28.169368830154156 40.4105
28.192323603752033 40.0919
28.215279532083304 39.8404
28.238415973016764 39.6243
28.261374223145094 39.4908
28.284333631303806 39.3021
28.307294198589954 39.0372
28.330435319167677 38.677
28.353398217078915 38.5309
28.376362277420153 38.3781
28.39932750129032 38.1128
28.422473319286713 37.9324
28.44544088262495 37.9142
28.468409612800283 37.7969
28.491379510913497 37.4575
28.51453004413313 37.3897
28.53750229057244 37.439
28.56047570826344 37.2985
28.583450298308804 37.3036
28.606605564586562 36.9876
28.629582511831156 37.1307
28.65256063474956 37.0765
28.675539934446338 37.0103
28.698699951647605 37.0534
28.72168161743193 36.874
28.74466446331978 36.8684
28.767648490417624 36.8507
28.790813276438353 36.898
28.813799678527303 36.8826
28.836787265157085 36.7958
28.859955641890075 36.8851
28.882945610203045 36.8629
28.905936766392035 36.727
28.928929111566863 36.6187
28.952102288520145 36.6948
28.975097024308607 36.535
28.998092952423807 36.4942
29.021090073977508 36.3971
29.04426806913204 36.2549
29.067267590245258 36.1524
29.090268308143695 35.9988
29.11327022394099 36.0001
29.13645305530891 35.8673
29.159457379627167 35.7441
29.18246290519685 35.6338
29.20546963313352 35.6603
29.22865731875826 35.6461
29.25166646419296 35.6157
29.27467681535305 35.6337
29.29768837335608 35.650999999999996
29.320880931312562 35.6708
29.34389491580634 35.5787
29.366910110507334 35.4799
29.38992651653503 35.5035
29.41312396492981 35.5527
29.436142806456754 35.5182
29.45916286268059 35.3039
29.48236399319994 35.376999999999995
29.50538649169417 35.2684
29.528410208259935 35.2264
29.55143514402014 34.9432
29.574641196749695 34.8324
29.597668583816574 34.7385
29.6206971934585 34.5083
29.64372702680042 34.4789
29.666938019934474 34.3307
29.689970313635285 34.375
29.713003834422636 34.3098
29.73603858342347 34.2905
29.759254535188578 34.2611
29.78229175361658 34.1321
29.80533020365064 34.2628
29.82836988641968 34.1798
29.85159081507472 34.0631
29.874632976355343 34.0049
29.89767637376955 34.0823
29.920721008448314 33.852
29.9439469322847 33.9519
29.96699405457564 33.9799
29.9900424175358 33.785
30.013092022298157 33.6899
30.03632295963995 33.6665
30.059375061131373 33.7501
30.08242840783577 33.7582
30.105483000888153 33.7324
30.128718970092244 33.7523
30.151776069006917 33.7495
30.17483441768648 33.7335
30.198074175317235 33.6601
30.221135036724256 33.696999999999996
30.24419715131772 33.7157
30.267260520236203 33.5858
30.290505341942243 33.6077
30.313571232750228 33.7452
30.336638381310948 33.7286
30.35970678876503 33.5634
30.38295669299435 33.5386
30.40602763151657 33.5324
30.429099832366074 33.3857
30.452173296685572 33.384
30.47542830191959 33.3946
30.498504306502497 33.4051
30.521581577995562 33.4084
30.544660117543582 33.4582
30.56792024229725 33.3431
30.59100133132069 33.3285
30.614083691845494 33.4051
30.637167325018545 33.477
30.660432587840603 33.466
30.683518779717886 33.3794
30.70660624769615 33.46
30.729694992924372 33.4175
30.75296541239743 33.4055
30.77605672557558 33.5214
30.799149319462742 33.4884
30.8224236211637 33.3247
30.845518789950724 33.1769
30.868615242910597 33.073
30.891712981195973 32.9701
30.91499247215866 32.8974
30.938092794619365 32.9417
30.96119440587579 32.9466
30.984297307082752 32.7019
31.00758200598383 32.5815
31.030687500658694 32.5188
31.053794288760695 32.4331
31.076902371446767 32.3085
31.100192296997445 32.3942
31.12330298246119 32.3905
31.14641496599209 32.1754
31.169528248749216 32.2419
31.19282341969534 32.1343
31.215939314557186 32.2352
31.239056512134788 32.1238
31.262175013589378 32.1095
31.28547544871168 32.0445
31.30859657161541 31.9703
31.331719001892175 32.0507
31.35484274070538 32.0881
31.378148458819545 32.0886
31.401274828443725 32.0493
31.424402510106933 32.122
31.447712205419993 32.1107
31.470842524931633 31.9978
31.493974159989783 32.092
31.51710711176168 31.9905
31.54042212308802 32.0966
31.563557722100917 32.1428
31.586694641341655 31.9177
31.609832881979628 31.7773
31.63315322823208 31.8121
31.656294125521327 31.6409
31.679436347728515 31.5859
31.70257989602529 31.4347
31.725905596152327 31.3427
31.74905181052835 31.3607
31.772199354521323 31.3966
31.79534822930507 31.3704
31.818679302290967 31.3932
31.84183085259981 31.3292
31.864983737233473 31.2672
31.88813795736804 31.3123
31.911474422233013 31.2396
31.934631327356435 31.3771
31.9577895715215 31.331999999999997
31.980949155906522 31.2667
32.004291031706956 31.256999999999998
32.027453310562606 31.0703
32.05061693318573 31.1317
32.07396288236386 31.0405
32.09712920658542 31.0247
32.12029687812702 30.8465
32.14346589817093 30.8291
32.166817291729984 30.6916
32.18998902288583 30.6243
32.21316210610336 30.59
32.23633654256711 30.549
32.259693399663725 30.4088
32.282870556771144 30.3366
32.30604907069099 30.3178
32.329228942610065 30.2502
32.35259128243769 30.1611
32.375773884550505 30.1753
32.398957848235646 30.1356
32.422143174682176 30.0815
32.445511016471215 29.988000000000003
32.468699082679954 29.9049
32.49188851523011 29.8618
32.51507931531304 29.814
32.538452678331 29.8094
32.56164622776311 29.7435
32.58484114831493 29.5503
32.60803744118015 29.6252
32.631416344731896 29.6915
32.654615396551876 29.6363
32.67781582427913 29.5809
32.701198898634416 29.462
32.72440209253756 29.3969
32.747606665947124 29.3594
32.77081262006088 29.247
32.79420126883317 29.3594
32.81740999876112 29.2805
32.840620112999424 29.2724
32.86383161274818 29.1218
32.88722585534586 29.15
32.91044014056596 29.1887
32.933655814909734 29.0526
32.95687287957963 29.1673
32.98027273544904 29.0459
33.00349259526636 28.9676
33.026713849030116 29.0021
33.04993649794511 28.9359
33.073341986570746 28.889
33.09656744032826 28.9155
33.11979429286444 28.8232
33.14302254538647 28.8779
33.166433686291185 28.7585
33.18966475336992 28.7203
33.212897224069096 28.6333
33.23613109959831 28.6815
33.259547912343415 28.5809
33.2827846121627 28.7854
33.306022720453775 28.5871
33.32926223842861 28.5236
33.352684742614166 28.5529
33.37592709463173 28.5338
33.399170859982064 28.4171
33.422597648419426 28.4129
33.44584425514446 28.2703
33.46909227885668 28.2642
33.4923417207723 28.0505
33.51577423505344 28.1705
33.539026528130385 28.0586
33.56228024307245 27.9897
33.585535381098246 27.7918
33.60897364093058 27.7891
33.63223163992385 27.8668
33.6554910656699 27.7646
33.678751919389796 27.7705
33.702195944520106 27.5903
33.72545966903325 27.6743
33.74872482519663 27.5566
33.771991414233746 27.6429
33.79544122444841 27.4902
33.81871069412428 27.4765
33.84198160035767 27.4498
33.86525394437455 27.4587
33.88870955949969 27.3306
33.911984794020626 27.2905
33.93526147001624 27.3344
33.958539588715006 27.2715
33.98200102861669 27.2522
34.0052820477047 27.2096
34.02856451319451 27.1324
34.05203033759056 27.0462
34.07531571090147 27.0551
34.09860253431845 26.9843
34.121890809074316 26.936999999999998
34.145362493118924 26.891
34.16865368561615 26.844
34.191946333164054 26.7612
34.21524043699793 26.8318
34.23871800066799 26.8645
34.26201503218366 26.6979
34.28531352370466 26.7405
34.30861347646881 26.5733
34.33209693978188 26.546
34.3553998301885 26.5667
34.378704185565205 26.4325
34.402010007152356 26.4868
34.42549939016683 26.4481
34.44880815937748 26.3329
34.472118398533134 26.353
34.49543010887669 26.3003
34.51892543169198 26.174
34.54224009966052 26.1681
34.56555624255917 26.1692
34.58887386163339 26.0985
34.61237514439016 26.0221
34.6356957311114 26.034000000000002
34.65901779775809 25.9724
34.68252356662995 25.9515
34.705848608458616 25.9665
34.72917513396849 25.8343
34.75250314440949 25.7907
34.77601490857862 25.7075
34.799345904259795 25.6549
34.82267838863559 25.6983
34.846012362958525 25.6514
34.869530142679984 25.6229
34.89286711232212 25.609
34.91620557568269 25.5563
34.93954553401677 25.5443
34.9630693495876 25.4574
34.986412313340814 25.5308
35.00975677584668 25.4532
35.033102738362956 25.3831
35.05663261012228 25.3941
35.0799815881786 25.4204
35.10333207003229 25.2959
35.12668405694369 25.3042
35.150220005273056 25.1836
35.17357501786656 25.1483
35.19693153931268 25.1166
35.220289570874385 25.0746
35.24383161619786 25.1113
35.267192683604904 25.0906
35.290555264930376 25.0909
35.314101899412165 25.0986
35.33746752422433 25.0013
35.36083466676374 24.9874
35.38420332829803 24.9185
35.407756095629054 24.9586
35.43112781085063 24.9388
35.45450104888391 24.8745
35.477875810999194 24.8288
35.50143473172161 24.7661
35.52481255774625 24.8551
35.54819191167777 24.6978
35.57157279478914 24.706999999999997
35.595137889488406 24.7086
35.61852184675279 24.683000000000003
35.641907337029984 24.6141
35.665294361595684 24.6165
35.68886565090076 24.5867
35.7122557598848 24.5048
35.73564740699838 24.5399
35.759040593519934 24.4794
35.78261809810353 24.391
35.80601437933051 24.2333
35.829412203814705 24.2978
35.85281157283719 24.2286
35.876395313415884 24.2005
35.8997977874528 24.1364
35.92320180988546 24.1236
35.946790244133936 23.9841
35.97019737933222 23.9733
35.993606066789866 23.9828
36.01701630779276 24.0134
36.04061101440684 23.9078
36.06402437852291 23.9141
36.08743930005611 23.8724
36.1108557802951 23.8224
36.13445678011326 23.8643
36.15787639383515 23.796999999999997
36.18129757014299 23.6999
36.20472031032821 23.7451
36.22832762423364 23.5425
36.25175350829375 23.5766
36.275180960119776 23.566999999999997
36.298609981005924 23.5994
36.32222362992669 23.6277
36.34565580510207 23.5854
36.36908955323448 23.5413
36.39252487562093 23.4042
36.416144880530226 23.3495
36.43958336764275 23.44
36.463023432914625 23.3527
36.486465077645676 23.232
36.51009145956204 23.2966
36.53353627947859 23.2899
36.55698268276811 23.2449
36.58043067073321 23.1331
36.60406345072071 22.9983
36.62751462435344 23.0472
36.65096738658405 23.0656
36.67460498210655 23.0649
36.69806093788647 23.0221
36.72151848619297 22.9197
36.744977628333636 22.9536
36.76862165890998 22.8448
36.79208400512205 22.8825
36.81554794910557 22.7951
36.83901349217101 22.7334
36.862663978991606 22.7018
36.88613273667352 22.6896
36.90960309738324 22.6387
36.933075062434064 22.6095
36.95673202673572 22.6339
36.98020721697122 22.5441
37.003684015502365 22.4998
37.027162423645365 22.4913
37.050825886711465 22.5136
37.07430753063053 22.3538
37.09779078812467 22.323
37.121275660513014 22.3428
37.144945643673694 22.2753
37.16843376245278 22.224
37.19192350009803 22.2518
37.215414857931435 22.1595
37.239091382563885 22.1344
37.262585997426164 22.1362
37.28608223645736 22.0778
37.309763684451696 21.9854
37.33326318851098 22.022
37.356764320726555 21.9451
37.380267082425526 22.0029
37.40395510942588 21.9343
37.42746114683234 21.8578
37.45096881771841 21.8625
37.474478123414166 21.828000000000003
37.49817275092816 21.789
37.52168534303452 21.7827
37.54519957395567 21.6361
37.568715445024665 21.753
37.592416694607714 21.6559
37.61593586281424 21.6799
37.63945667518264 21.7696
37.66297913304891 21.5856
37.68668702630454 21.4986
37.710212792059274 21.4302
37.733740207334854 21.4216
37.757269273470364 21.3656
37.780983832050374 21.4174
37.80451621684926 21.3992
37.82805025654007 21.3467
37.851585952464795 21.2343
37.8753071980695 21.2617
37.89884622345676 21.1856
37.92238690911902 21.156
37.94611318753442 21.0735
37.969657210779765 21.0735
37.99320289834801 21.1235
38.016750251586465 21.0091
38.04048325513017 20.9814
38.06403395679343 20.9553
38.087586328183946 20.9828
38.11114037065203 20.9265
38.13488012115898 20.8956
38.1584375229181 20.8424
38.181996599821 20.8067
38.205557353221124 20.8283
38.229303872575656 20.7875
38.2528679961576 20.703000000000003
38.27643380031219 20.6222
38.30000128639589 20.5788
38.32375459653193 20.6092
38.34732546371299 20.6648
38.37089801690786 20.5652
38.39447225747609 20.4737
38.418232380377425 20.447
38.441810012983396 20.4331
38.46538933705673 20.3799
38.488970353960084 20.3832
38.51273731166058 20.3699
38.536321731567014 20.2956
38.55990784840681 20.2931
38.58367995004091 20.2035
38.60726947812959 20.1554
38.63086070726198 20.1904
38.654453638806274 20.2046
38.678232613930824 20.18
38.70182896773327 20.1306
38.72542702806741 20.025
38.7490267963045 20.02
38.77281266709232 19.9798
38.79641586862214 19.9836
38.8200207821842 19.8962
38.843627409152944 19.9106
38.86742019782782 19.8849
38.891030269149255 19.8848
38.914642058016156 19.8049
38.938255565806124 19.7512
38.96205529464307 19.7059
38.98567225787121 19.7341
39.00929094417078 19.7409
39.03291135492255 19.6234
39.05671804624804 19.6594
39.080341923549106 19.6068
39.103967529460334 19.5241
39.127594865365744 19.4888
39.15140854155791 19.5114
39.17503935514948 19.4238
39.19867190290282 19.3896
39.22249083587951 19.4051
39.24612686969409 19.4435
39.269764641845306 19.3855
39.293404153722804 19.3724
39.317230110864074 19.2389
39.34087311998506 19.204
39.36451787301696 19.2468
39.388164371352595 19.1543
39.41199737518003 19.1086
39.43564738196752 19.0981
39.45929913825317 19.0505
39.48295264543308 19.0458
39.506792718520884 19.022000000000002
39.530449745387216 18.9516
39.55410852735203 18.9372
39.57776906581474 19.0243
39.60161623079 18.9513
39.625280300200025 18.8699
39.64894613032202 18.8143
39.67261372255866 18.8262
39.6964680021016 18.7761
39.72013913657293 18.7995
39.74381203738292 18.7675
39.76748670593756 18.7559
39.79134812278169 18.7182
39.81502634488497 18.6356
39.83870633896685 18.6037
39.862388106436654 18.5763
39.88625668336918 18.5962
39.90994201572829 18.5362
39.933629125719285 18.4235
39.957503091207826 18.4272
39.9811937746168 18.476
40.00488623990914 18.4241
40.02858048850006 18.3907
40.05246165409549 18.3547
40.076159487492085 18.3268
40.099859108448875 18.3144
40.123560518384345 18.2811
40.1474489070226 18.2224
40.171153913178564 18.2043
40.194860712584955 18.1301
40.2185693066637 18.1913
40.242464941335314 18.0907
40.26617714307655 18.0666
40.289891143772046 18.0637
40.3136069448471 18.0439
40.33750984859743 18.0016
40.3612292688043 17.9736
40.3849504936829 17.9518
40.40867352466194 17.9344
40.43258372059144 17.9245
40.45631038219906 17.8657
40.48003885420956 17.9138
40.503769138055105 17.822
40.52768664931955 17.7941
40.55142057531802 17.7726
40.57515631746428 17.7098
40.599079334038514 17.7165
40.62281872700477 17.6288
40.64655994043941 17.6091
40.67030297578061 17.5835
40.69423334835778 17.5891
40.71798004609188 17.5063
40.74172857006355 17.5128
40.76547892171441 17.5326
40.7894166736039 17.5073
40.813170699248566 17.3938
40.83692655691388 17.4251
40.86068424804498 17.3765
40.884629402612525 17.3734
40.908390779366385 17.3652
40.932153993938 17.2899
40.95591904777605 17.2436
40.979871628443995 17.2791
41.003640379561936 17.2476
41.02741097430883 17.2542
41.05118341413683 17.1917
41.075143444384416 17.1691
41.098919593177826 17.1072
41.1226975914255 17.1176
41.14647744058318 16.9906
41.170444943946755 17.027
41.19422851378379 17.0423
41.218013938914645 16.9585
41.24198706625173 16.9947
41.26577622087193 16.9322
41.289567235177785 16.8855
41.31336011063129 16.8044
41.337340752422875 16.7821
41.361137369129835 16.7862
41.38493585138705 16.772000000000002
41.40873620066004 16.7016
41.43272438060107 16.6833
41.45652848292052 16.6586
41.48033445666918 16.6721
41.50414230331616 16.6457
41.528138045159764 16.6178
41.551949656675205 16.5689
41.575763145513235 16.5929
41.59957851314666 16.4969
41.62358184070442 16.4888
41.64740098505737 16.4677
41.6712220126409 16.4698
41.69504492493139 16.3873
41.71905586207357 16.3534
41.74288256296395 16.3353
41.766711153007456 16.3022
41.79054163368412 16.3095
41.814560204340054 16.2566
41.838394485526365 16.2597
41.86223066180303 16.2406
41.88625497706819 16.1556
41.910094962812 16.2025
41.93393684811168 16.1706
41.95778063445365 16.1042
41.981812625263366 16.0444
42.00566023303407 16.0398
42.029509746323676 16.0325
42.05336116662236 15.963
42.077400857069705 16.0358
42.10125611078846 15.9813
42.12511327600405 15.8811
42.14897235421036 15.9096
42.173019768448455 15.8742
42.19688269209613 15.7981
42.22074753323349 15.7951
42.24461429335818 15.7856
42.268669455600495 15.7675
42.292540073217886 15.7394
42.31641261433284 15.7196
42.34028708044675 15.665999999999999
42.36435001496739 15.6737
42.38822835065557 15.6752
42.41210861586426 15.5901
42.4359908120986 15.6658
42.46006154323262 15.6134
42.48394762115317 15.5457
42.507835634632315 15.5641
42.531912233047436 15.5507
42.55580413732265 15.4816
42.579697981698 15.4343
42.60359376768525 15.3928
42.62767820545945 15.3676
42.65157789440821 15.3735
42.67547952952185 15.3069
42.699383112316 15.2699
42.72347541395347 15.2146
42.74738291190531 15.2508
42.771292362102166 15.2721
42.795203766063516 15.1816
42.819303956130405 15.1853
42.843219287476536 15.1052
42.86713657716324 15.1067
42.89105582671383 15.0597
42.91516392983864 15.0376
42.939087119032166 15.0123
42.963012272677304 15.0097
42.98693939230129 14.9756
43.01105543317513 14.9038
43.034986504731386 14.9135
43.05891954686589 14.9004
43.08285456110972 14.9218
43.10697856448665 14.8883
43.130917542983475 14.8305
43.15485849820081 14.7966
43.17880143167367 14.745
43.20293342237094 14.7114
43.226880332449 14.6916
43.25082922540554 14.7342
43.27496722682525 14.6407
43.29892010567796 14.617
43.32287497204102 14.6497
43.34683182745632 14.5557
43.370977859791836 14.5882
43.39493871351105 14.57
43.41890156092628 14.5558
43.44286640358341 14.4739
43.46702049182749 14.4464
43.49098934522816 14.4763
43.51496019852649 14.4255
43.5389330532723 14.3863
43.56309522248204 14.3441
43.58707210044314 14.3376
43.61105098451946 14.3202
43.63503187626491 14.3222
43.659202151562134 14.2877
43.68318707902681 14.2546
43.70717401884041 14.2233
43.731162972560874 14.2203
43.75534137913236 14.1718
43.779334381108384 14.1695
43.803329401683186 14.1505
43.82732644241872 14.1012
43.8515130055166 14.095999999999998
43.87551410707659 14.0122
43.89951723350145 14.0473
43.923709934595614 14.037
43.94771713129917 13.9996
43.97172635758096 13.952
43.99573761501002 13.9504
44.0199385169922 13.8963
44.04395385732619 13.8573
44.067971233533086 13.8682
44.09199064718605 13.7977
44.11619977548961 13.7426
44.14022328470671 13.7904
44.16424883610785 13.828
44.18827643127035 13.7938
44.21249381139513 13.7176
44.236525514814076 13.6745
44.26055926674478 13.713
44.28459506876863 13.7105
44.3088207262813 13.6289
44.33286064928722 13.6407
44.35690262714919 13.6156
44.38094666145278 13.5567
44.4051806219871 13.5733
44.42922879003185 13.4873
44.45327901929361 13.4925
44.477331311362136 13.427999999999999
44.501573600619416 13.3982
44.525630039221795 13.3564
44.54968854541895 13.395
44.573937102200176 13.3541
44.5979997645541 13.3604
44.622064499300315 13.395
44.64613130803592 13.3531
44.67038823869318 13.3262
44.69445921643748 13.2402
44.718532272981385 13.1746
44.742607409926194 13.1841
44.76687274034801 13.1965
44.79095205918753 13.1442
44.81503346325094 13.1078
44.839116954143876 13.093
44.86339071028742 13.1123
44.88747839599524 13.0622
44.91156817336837 13.0459
44.93566004401666 12.9902
44.959942251908146 13.0034
44.984038330325966 12.9763
45.00813650686762 12.9023
45.03223678314731 12.9084
45.05652746888232 12.8726
45.08063196592069 12.8928
45.104738567558705 12.856
45.128847275414856 12.835999999999999
45.15314646515866 12.7703
45.17725940679741 12.8125
45.20137445952892 12.7605
45.22568004865265 12.7181
45.24979934496396 12.7006
45.27392075725247 12.6832
45.29804428714431 12.6758
45.322358426247604 12.6482
45.346486212804315 12.6117
45.370616121861914 12.6273
45.39474815505086 12.6025
45.41907087049246 12.548
45.4432071734666 12.5016
45.46734560548283 12.4952
45.49148616817604 12.4881
45.51581748638564 12.4501
45.5399623320197 12.4239
45.56410931325473 12.4105
45.58825843173002 12.4569
45.61259837920865 12.3876
45.636751793816 12.3802
45.66090735060093 12.3202
45.68506505120716 12.2724
45.7094136545275 12.2969
45.73357566449271 12.2355
45.75773982322992 12.2614
45.78190613238733 12.1881
45.806263418194064 12.1574
45.83043404997326 12.1813
45.85460683713677 12.1332
45.87897065658495 12.1482
45.90314777634752 12.0849
45.92732705646868 12.0553
45.9515084986045 12.0829
45.97588104735473 12.0726
46.00006683541565 11.968
46.02425479047904 12.0059
46.04844491420549 11.9471
46.0728262191024 11.987
46.09702070211635 11.9658
46.12121735879483 11.9162
46.14541619080294 11.9134
46.169806278764455 11.8806
46.194009483459034 11.8593
46.21821486849841 11.8282
46.24242243555223 11.7865
46.266821333570014 11.7612
46.29103328674601 11.7634
46.31524742696538 11.7248
46.33946375590237 11.699000000000002
46.36387149104216 11.6555
46.38809221957392 11.6247
46.41231514186606 11.6784
46.436540259597464 11.6723
46.460956858999374 11.6151
46.48518638983522 11.6051
46.509418121166966 11.5829
46.533652054678114 11.5595
46.55807754555709 11.5045
46.58231590571962 11.4907
46.60655647313217 11.4987
46.630988654873654 11.4772
46.655233659129024 11.4371
46.67948087571551 11.4241
46.70373030632484 11.4132
46.72817142736393 11.3925
46.752425308428684 11.3696
46.77668140861147 11.3462
46.80093972960865 11.2916
46.82538981736788 11.2609
46.849652602470904 11.2996
46.87391761349769 11.2221
46.8981848521493 11.2274
46.9226439341274 11.2302
46.946915650573224 11.1963
46.97118959976749 11.1579
46.99546578341598 11.1527
47.019933887188216 11.1304
47.04421456235744 11.1476
47.06849747711879 11.1855
47.09278263318286 11.0531
47.11725978640143 11.0367
47.14154944775105 11.015999999999998
47.165841355555656 11.0443
47.1901355115306 10.9637
47.214621741924994 10.9426
47.23892041698887 10.9708
47.26322134538975 10.898
47.28771440635075 10.8999
47.31201986422527 10.9015
47.33632758061436 10.8438
47.360637557241866 10.8432
47.38513974410611 10.8317
47.40945426407847 10.7986
47.43377104948137 10.7458
47.45809010204344 10.7777
47.48260144275502 10.7634
47.506925052572285 10.7274
47.53125093475548 10.6796
47.55557909103813 10.6872
47.58009961361992 10.6638
47.60443234110732 10.6273
47.62876734791564 10.6033
47.65310463578333 10.5725
47.6776343683373 10.5707
47.7019762413987 10.5504
47.72632040075572 10.5493
47.75066684815169 10.5418
47.77520581885936 10.5331
47.799556865477655 10.4958
47.823910205386 10.4616
47.84826584033272 10.4754
47.87281407745551 10.4184
47.89717432569297 10.4154
47.92153687423484 10.3829
47.94609208429692 10.3638
47.97045925671401 10.3485
47.99482873471275 10.2901
48.01920052005013 10.3007
48.04376504619224 10.2771
48.068141469543484 10.3014
48.09252020552573 10.2778
48.11690125590099 10.2582
48.1414751266064 10.1855
48.16586082917454 10.2053
48.19024885144316 10.1629
48.2146391951793 10.1635
48.239222439012764 10.1721
48.26361744916137 10.1554
48.28801478610016 10.1204
48.31241445160131 10.1235
48.337007097209366 10.0662
48.36141144338331 10.0565
48.38581812345755 10.0548
48.41022713920929 10.0759
48.434829215320704 10.0193
48.45924292604658 10.0136
48.48365897780325 9.96457
48.50807737237308 9.94166
48.532688907799276 9.93024
48.55711201168574 9.93107
48.581537463754074 9.90441
48.60615611725119 9.87354
48.63058628942721 9.87691
48.65501881516546 9.814810000000001
48.6794536962573 9.86133
48.70408185970339 9.83497
48.72852147531801 9.79154
48.75296345168211 9.77984
48.77740779059232 9.776769999999999
48.80204549302823 9.74347
48.82649458091802 9.72902
48.85094603676547 9.66634
48.87539986237231 9.67034
48.90004713292306 9.64637
48.92450572200832 9.65535
48.94896668628025 9.641910000000001
48.97343002754588 9.611080000000001
48.99808689542115 9.63663
49.02255501470614 9.61921
49.04702551642794 9.571660000000001
49.0714984023988 9.53876
49.096164896893235 9.55343
49.120642575466796 9.51345
49.145122643748394 9.45697
49.16960510355558 9.479230000000001
49.19428125404938 9.43647
49.2187685210852 9.416310000000001
49.243258185121555 9.42336
49.26794160167084 9.4216
49.2924360839405 9.3929
49.31693296869764 9.36607
49.34143225776915 9.36673
49.36612538195438 9.33183
49.39062950396021 9.31033
49.41513603578346 9.31763
49.4396449792564 9.27159
49.46434784069503 9.26194
49.488861631846454 9.205689999999999
49.513377840166804 9.21694
49.537896467493745 9.1815
49.56260909589029 9.15157
49.587132585683285 9.1858
49.611658500018365 9.17043
49.636186840738596 9.11144
49.66090926588511 9.13977
49.685442483902584 9.11738
49.70997813385706 9.08798
49.734516217597076 9.04715
49.75924846937352 9.04317
49.7837914452858 9.0011
49.80833686055187 8.99197
49.83288471702571 9.01643
49.85762682540054 9.005560000000001
49.882179588965734 8.97584
49.9067347993235 8.94921
49.93129245833333 8.93028
49.95604445336378 8.94838
49.98060703442832 8.8999
50.005172069746266 8.88805
50.02993150438364 8.828330000000001
50.05450147301533 8.82633
50.07907390151433 8.83889
50.10364879174981 8.821069999999999
50.12841816587289 8.768460000000001
50.1529980044635 8.74635
50.17758031042124 8.769260000000001
50.20216508562089 8.73961
50.22694442953363 8.71761
50.25153416817468 8.70115
50.27612638170508 8.66392
50.300721072005196 8.66121
50.325510416102105 8.61877
50.350110084975064 8.60338
50.37471223628208 8.62279
50.39931687190919 8.606760000000001
50.424116246675766 8.57943
50.44872587605249 8.56254
50.47333799543065 8.51942
50.49795260670191 8.56824
50.52276204271512 8.50922
50.54738166295838 8.48806
50.57200378079314 8.466339999999999
50.596628398116835 8.43929
50.62144792604559 8.43785
50.646077567609396 8.445780000000001
50.670709714377715 8.44259
50.69553683636198 8.418439999999999
50.72017401885922 8.40178
50.7448137122895 8.409360000000001
50.76945591856022 8.36438
50.79429318636823 8.356689999999999
50.818940443716784 8.351230000000001
50.84359021965163 8.29827
50.868242516085964 8.295689999999999
50.893089960641895 8.26168
50.917747323549435 8.26704
50.94240721271973 8.26642
50.96706963007175 8.22488
50.99192728239342 8.25337
51.01659478166073 8.24605
51.04126481489051 8.20163
51.06593738400761 8.20465
51.090805275207074 8.17187
51.11548294172845 8.12143
51.14016314993547 8.10753
51.164845901758845 8.11572
51.18972406304274 8.0648
51.21441192780656 8.05033
51.23910234200271 8.05947
51.2637953075678 8.0368
51.288683770237945 8.02979
51.31338186432707 7.98883
51.33808251561888 7.96691
51.362978729967345 7.9544
51.387684521509755 7.95115
51.41239287610203 7.93352
51.437103795691165 7.9264600000000005
51.46201036644977 7.89848
51.486726441956634 7.84886
51.51144508832545 7.86345
51.536166307509156 7.879519999999999
51.56108326624387 7.85522
51.58580965706056 7.822539999999999
51.61053862657523 7.8098600000000005
51.635270176746864 7.756460000000001
51.66019755512065 7.7818
51.68493429268881 7.743580000000001
51.70967361681515 7.7480199999999995
51.73441552946465 7.72748
51.759353359237934 7.70132
51.7841004750961 7.69561
51.80885018539685 7.716139999999999
51.833602492111254 7.682510000000001
51.8585508051424 7.6287899999999995
51.883308330926425 7.65382
51.90806845906181 7.589689999999999
51.932831191525715 7.5457600000000005
51.95779001977161 7.56465
51.98255798721516 7.53573
52.00732856494335 7.52802
52.03229530577543 7.51363
52.057071130455945 7.503889999999999
52.081849571391054 7.52053
52.106630630568695 7.5094899999999996
52.13160794279417 7.49235
52.15639426492067 7.482710000000001
52.18118321127822 7.436939999999999
52.205974783860896 7.388310000000001
52.23096269971011 7.4046199999999995
52.255759551287994 7.4163
52.280559035098186 7.3688199999999995
52.30536115314103 7.36942
52.33035970494467 7.33893
52.35516711807904 7.323119999999999
52.37997717147198 7.2998
52.40478986713005 7.325260000000001
52.42979908731974 7.26433
52.454617094216 7.270639999999999
52.47943774942214 7.262010000000001
52.50426105495102 7.24585
52.529280976059844 7.256689999999999
52.554109609024096 7.19285
52.57894089837482 7.18653
52.60377484613117 7.1892
52.62880550079408 7.1570800000000006
52.65364479223379 7.15172
52.67848674816189 7.11895
52.70352547971946 7.104019999999999
52.72837279155837 7.133939999999999
52.753222773982785 7.11684
52.778075429022984 7.10831
52.80312495150885 7.08104
52.827982978797436 7.05894
52.85284368481815 7.02275
52.87770707160767 7.010260000000001
52.90276741793998 6.977530000000001
52.92763619336701 6.994619999999999
52.952507655698504 6.96231
52.977381806977576 6.978389999999999
53.00245301017842 6.938160000000001
53.02733256653592 6.92707
53.052214817996074 6.9188600000000005
53.077099766608484 6.90061
53.102181859804446 6.908189999999999
53.127072229988265 6.88474
53.15196530349892 6.88207
53.17686108239249 6.840380000000001
53.20195409881522 6.81601
53.22685531582556 6.837619999999999
53.25175924441303 6.80979
53.27666588664027 6.783860000000001
53.30176985962693 6.79196
53.3266819565689 6.75375
53.35159677336455 6.77025
53.376514312083096 6.71502
53.40162927507703 6.7093300000000005
53.42655228516116 6.69832
53.45147802340193 6.663239999999999
53.47660125628886 6.658710000000001
53.50153247842639 6.6513
53.52646643496923 6.62482
53.55140312799818 6.61786
53.576537409691696 6.63927
53.60147960336152 6.6307
53.626424539786164 6.5811
53.65137222105307 6.55425
53.67651758529126 6.53519
53.70147078399681 6.54246
53.72642673383343 6.50206
53.75138543689533 6.52801
53.776541917524526 6.49598
53.801506154876755 6.49949
53.826473151763246 6.45646
53.851442910284916 6.40995
53.87661054126026 6.41691
53.9015858509782 6.418740000000001
53.92656392866066 6.38783
53.95154477641532 6.38436
53.976723591801296 6.37047
54.00171000771266 6.317769999999999
54.02669920004598 6.36555
54.051691170915745 6.319369999999999
54.076881204886796 6.36625
54.101878760928514 6.3227199999999995
54.12687910187696 6.275580000000001
54.152077577768296 6.29964
54.1770835166946 6.28503
54.20209224691339 6.27321
54.22710377055121 6.24835
54.25231352511594 6.21175
54.27733066384342 6.183269999999999
54.30235060239643 6.18624
54.32737334290836 6.16296
54.35259441062629 6.12841
54.377622783395324 6.1277800000000004
54.40265396455061 6.15094
54.42768795623251 6.07945
54.45292037169559 6.09641
54.477960012857906 6.06015
54.50300247099511 6.07342
54.52804774825457 6.00079
54.55329154616743 5.98895
54.57834249018678 5.99935
54.6033962597977 5.984030000000001
54.6284528571545 5.92382
54.653708072335164 5.8648
54.67877035378786 5.88595
54.70383546947698 5.86465
54.72890342156389 5.83817
54.7541700889442 5.8025
54.77924374251975 5.802630000000001
54.8043202390049 5.77339
54.82959552413022 5.77764
54.8546777351945 5.69422
54.87976279569621 5.72976
54.90485070780914 5.80105
54.930137506558005 5.738919999999999
54.95523115074295 5.71339
54.98032765308844 5.69091
55.005427015775496 5.60016
55.03072536339621 5.6378
55.05583047570572 5.60652
55.080938454927676 5.60875
55.10604930325027 5.6105
55.131359235107396 5.51962
55.15647585066083 5.50603
55.181595341907496 5.4971
55.20671771104285 5.43577
55.232039262617704 5.43743
55.25716741665048 5.3514800000000005
55.28229845518636 5.382680000000001
55.30743238042802 5.30481
55.33276558731939 5.36797
55.357905315183636 5.306
55.383047936390035 5.24465
55.40819345314859 5.25662
55.433538351073295 5.27135
55.458689688238415 5.26483
55.483843927614096 5.2622
55.509197623043605 5.19897
55.53435769621134 5.16795
55.55952067826466 5.138319999999999
55.5846865714265 5.11185
55.61005202069737 5.10538
55.63522376553902 5.1174599999999995
55.66039842818645 5.06712
55.68557601087004 5.02002
55.7109532500271 4.99708
55.73613670233794 5.0018199999999995
