TT I
1.2716486653135266 9.2696
1.2939594142134223 8.68473
1.3162702121660406 8.2545
1.3385810600174564 8.19984
1.3608919586137629 8.79502
1.383202908801069 7.79133
1.405513911425503 7.6177600000000005
1.4278249673332093 7.65207
1.4501343378461518 7.60835
1.4724455028545926 6.91905
1.4947567236847858 6.995769999999999
1.517068001182951 7.192889999999999
1.5393793361953272 7.12857
1.5616907295681737 6.630089999999999
1.5840021821477681 6.66887
1.60631369478041 6.57218
1.6286252683124185 6.60815
1.6509369035901333 6.31499
1.6732468618895553 6.45328
1.695558623192809 6.08932
1.7178704487808514 5.68495
1.7401823395001077 5.9345
1.7625012545597203 6.4589099999999995
1.7848028405262486 5.64998
1.8071218901122095 5.744669999999999
1.8294236121921872 5.87746
1.8517427996910911 6.26549
1.8740620574440425 5.2836
1.8963639900671978 5.55154
1.9186833908139995 6.18781
1.9409854680117449 5.703790000000001
1.9633050151394713 6.36964
1.9856246367570705 5.56931
2.0079269371922672 5.59441
2.03024671027244 5.57525
2.0525491637446027 5.32715
2.074869091674931 5.83097
2.097171701569106 5.73488
2.1194917877373847 6.06175
2.141811954326636 5.39522
2.164114805233074 5.4083
2.186435135143035 5.28418
2.208738150935709 4.7843599999999995
2.231058647554722 4.80776
2.2533792288321184 5.00301
2.275682498336085 4.64147
2.298003251406138 4.48493
2.3203066942619714 4.46906
2.3426276225136022 4.38239
2.3649486396617507 4.1247
2.387252348930071 4.6108199999999995
2.4095735463442893 3.27871
2.4318774374315884 4.16172
2.4541988185014043 3.73947
2.476502894794693 3.76706
2.498824462909887 3.16249
2.521146125856138 3.17141
2.5434504863470337 3.40633
2.5657723414244717 3.992
2.588076895590662 4.33667
2.610398946189713 4.71786
2.6327210958598384 4.62345
2.6550259469304716 4.3785
2.6773482972090137 4.9347
2.6996533504259 5.5944199999999995
2.7219759047039602 5.36722
2.744298562293959 5.7644
2.7666039251246595 5.684130000000001
2.7889267918020164 5.95735
2.8112323652516555 6.25657
2.833555444408179 6.34641
2.8558786311183852 6.5686100000000005
2.8781845268938557 7.81773
2.9005079311721484 7.68836
2.9228140460410397 8.36369
2.9451376712799635 8.894680000000001
2.967444008632326 9.09168
2.9897678582247247 9.1774
3.0120918213106695 10.3631
3.0343984987899373 10.6051
3.0567226913198637 11.2162
3.079029599759726 11.9304
3.101354025127254 12.085
3.123678568232338 12.3663
3.145985829517914 12.8323
3.16831061055229 13.2756
3.1906181112775593 13.8257
3.212943133635653 14.2917
3.2352682779763207 14.5497
3.2575761442691227 14.843
3.2799015350264273 14.9926
3.302209649240067 16.0812
3.3245352898092655 16.3414
3.3468436553365257 17.1367
3.369169549113219 17.3049
3.3914955708171384 18.2637
3.413804319727358 18.4696
3.4361305997334863 19.0534
3.4584396084414553 19.3313
3.4807661501462652 19.5443
3.503092824025881 20.3138
3.5254022288463154 20.2181
3.5477291695206588 20.3647
3.5700388426251948 20.7337
3.5923660534916446 21.4099
3.6146934007816114 21.9344
3.637003482731501 22.2297
3.6593311053109985 22.5569
3.681641464033634 22.9889
3.7039693653009733 23.1832
3.726297407241705 23.5854
3.7486081875460804 23.738000000000003
3.7709365132734978 24.7801
3.793247578841633 25.3455
3.8155761917550093 25.2553
3.8378875459837216 25.8897
3.8602164494827234 25.956999999999997
3.882545499606844 26.7283
3.9048572932539183 27.4091
3.9271866390645718 27.5439
3.9494987298666713 28.346999999999998
3.971828374764527 28.77
3.9941581705403255 29.0383
4.016470713506008 29.4405
4.038800813471445 29.9925
4.061113662089144 30.863000000000003
4.0834440696459176 31.6746
4.105774632334751 31.908
4.128087945865126 32.5108
4.150418821249301 32.6167
4.172732448931298 33.4145
4.195063640413578 34.4508
4.2173775856475215 35.2418
4.239709096631102 36.265
4.262040768704612 35.9395
4.284355196706267 36.4845
4.306687193387355 37.5365
4.329001947444346 38.3032
4.35133427213731 38.8665
4.373666762177566 39.9462
4.395982011761091 40.6455
4.418314834921175 41.3428
4.44063041906622 42.3405
4.4629635787515625 43.0445
4.4852969080429785 44.1905
4.5076130004776225 45.9469
4.529946671403969 46.5622
4.552263106909177 47.4044
4.574597122877047 48.7962
4.596931312711224 50.2857
4.619248269273446 51.023999999999994
4.6415828092605835 52.1456
4.663900117405352 53.3682
4.686235010953232 55.3258
4.708552674085913 56.3687
4.730887924602802 57.8968
4.753223354952695 59.0125
4.775541557023902 60.9217
4.797877349456786 62.1851
4.820195915032126 64.4986
4.842532072957498 66.27
4.864868414979744 68.6223
4.88718753227192 71.2128
4.909524244902505 73.9008
4.931843734218147 76.7022
4.954180820867835 81.1106
4.976518095879839 85.904
4.998838149695359 89.8039
5.021175803844231 96.67299999999999
5.043496238205739 102.619
5.065834274903528 109.818
5.088172504230693 119.23
5.1104935158799565 131.283
5.132832132875765 152.036
5.155153533596801 185.718
5.1774925416746225 270.672
5.199814334878411 736.497
5.2221537374521505 2303.07
5.244493338631803 3728.73
5.266815727034316 4085.32
5.289155727832427 5691.62
5.311478517248165 8679.58
5.333818921080011 7742.88
5.356159527788849 3307.78
5.3784829252032536 909.378
5.400823940070432 342.815
5.423147747031976 217.338
5.445489173474152 170.88400000000001
5.467830807066149 148.739
5.490155234831516 135.836
5.512497285125229 126.09299999999999
5.534822130975162 121.07
5.557164601388673 116.23100000000001
5.579489868738879 111.439
5.601832762690846 108.524
5.6241758697774475 106.22399999999999
5.646501775867269 104.86399999999999
5.668845311622074 103.39
5.691171647754637 102.354
5.713515615597765 101.455
5.735859800852677 100.772
5.758186788542988 100.079
5.780531411018185 100.069
5.802858837297399 100.37
5.825203900414495 102.035
5.8475491852224 103.743
5.869877275883075 106.805
5.892223006467101 111.15700000000001
5.914551544266608 117.445
5.936897724049891 127.59100000000001
5.959244129804903 146.32399999999998
5.981573344815301 194.166
6.0039202049061 369.596
6.026249875609095 882.2439999999999
6.04859719346037 1439.33
6.070927323278297 1625.37
6.093275102315365 1832.01
6.115623113320588 2698.03
6.137953938319995 3703.54
6.160302415650845 2762.74
6.182633708324452 1130.56
6.2049826554078376 372.782
6.227331838745022 171.954
6.249663839443684 122.488
6.27201349767565 102.626
6.294345974611799 92.4914
6.316696111167083 84.6439
6.339046488263839 79.9066
6.361379686074702 75.9275
6.383730546639482 73.0888
6.406064229255215 70.3886
6.428415576718203 69.3198
6.450749747566656 67.5376
6.47310158535871 65.7139
6.495453669698332 64.2328
6.517788579421056 63.4337
6.540141159237969 62.1943
6.562476565766648 61.5898
6.5848296444934045 60.7297
6.607182974060425 59.886
6.6295191323281015 59.5345
6.651872965955752 58.688
6.6742096296068985 58.0129
6.6965639707294615 57.8136
6.71891856698715 56.9793
6.741255995248479 56.45399999999999
6.763611104154477 55.861000000000004
6.785949046381137 55.4289
6.808304671371482 54.6831
6.8306605557940046 54.641000000000005
6.852999275508618 54.3606
6.875355681171544 54.1126
6.897694923437771 53.9344
6.92005185377892 53.74
6.9423916220322655 53.553999999999995
6.964749080490181 52.6946
6.987106804399774 52.6741
7.009447368180821 52.9114
7.031805625367033 52.2795
7.054146723727803 52.119
7.076505517631004 51.8591
7.098864581288365 51.7781
7.121206488070854 51.5641
7.143566093607822 51.4998
7.165908543567245 51.9452
7.188268694426048 51.4275
7.2106291193438095 51.1518
7.232972390625943 51.3456
7.255333366030969 51.123999999999995
7.277677189091925 51.0234
7.300038718428332 51.0544
7.322400526130865 50.971000000000004
7.344745183422596 51.2841
7.367107550224791 51.1813
7.389452767901992 51.4705
7.411815697249891 51.5125
7.434161478756298 51.0032
7.456524974096713 51.324
7.478888753837185 51.9779
7.501235387657368 54.0178
7.523599738562711 63.5181
7.545946944825532 83.2259
7.568311870344528 93.6035
7.5906770845765665 82.32600000000001
7.613025156078678 64.4155
7.635390950099687 56.1711
7.657739602662809 53.553000000000004
7.680105979923558 53.0496
7.702472650212829 53.5182
7.724822180948224 53.2205
7.747189439655568 53.5021
7.769539560075357 53.4727
7.791907410653562 54.1155
7.81425812420825 53.9723
7.836626570110925 54.1284
7.858995315087906 54.9443
7.881346924933401 55.3171
7.903716270417482 55.6371
7.926068482028405 56.1016
7.948438431475253 56.7783
7.9708086843180235 57.1721
7.993161805171116 57.7389
8.015532667162402 58.1511
8.037886398416653 59.3867
8.060257873014221 59.7564
8.082629655331942 60.3806
8.104984308787587 61.0228
8.127356708900503 61.7991
8.149711981398308 62.8515
8.172085002766314 63.4446
8.194458336181368 64.3714
8.216814543847752 65.6141
8.23918850371002 67.0372
8.26154533906492 68.5243
8.283919928836452 70.1239
8.306277395339652 71.4145
8.328652618483376 73.1814
8.351028159736202 75.2966
8.373386579575245 78.6346
8.395762759396959 81.0711
8.418121819038275 85.2668
8.440498640894003 91.1698
8.462875785192262 100.946
8.485235811156207 121.788
8.507613602688501 200.21400000000003
8.529974277114228 422.319
8.552352719347912 665.3739999999999
8.574731488360351 760.302
8.59709314210385 680.7919999999999
8.619472567021075 689.191
8.64183487789147 953.688
8.664214962183097 1513.15
8.686577933647762 1788.62
8.708958680784317 1337.03
8.731339760774953 673.2
8.753703729764451 264.934
8.77608547780821 141.961
8.798450116065078 115.096
8.820832535634787 103.465
8.843215292401656 97.6382
8.865580941199045 93.7632
8.887964374703538 90.7975
8.910330701447199 88.8029
8.932714815164482 87.4264
8.955099270424924 85.7901
8.977466620733543 84.9164
8.999851761421976 84.022
9.022219798361645 83.257
9.04460562795561 82.7791
9.066991803441677 82.2391
9.089360876979615 81.4664
9.111747746589993 81.7929
9.13411751544971 81.3427
9.156505082664324 81.6291
9.178875550323522 82.56200000000001
9.20126381862328 85.3129
9.223652438908596 100.118
9.246023961427412 130.392
9.26841328802173 146.976
9.290785518039224 134.547
9.313175554425882 108.572
9.335565947154315 89.4392
9.357939245086508 83.8081
9.380330352834827 82.5876
9.40270436697103 81.7733
9.425096193225055 81.4952
9.447488380180165 82.14200000000001
9.469863475295412 82.4762
9.492256385987508 82.6989
9.514632206018318 83.5387
9.537025843935714 83.3114
9.559402392368193 84.2269
9.581796761000229 84.9139
9.604191496441521 85.1637
9.626569144158516 85.8078
9.648964615551032 86.3497
9.671343000390081 87.3857
9.693739211225699 88.4707
9.716135793237463 89.4746
9.738515290448102 90.5152
9.760912617143402 91.6986
9.783292860202891 93.3525
9.805690935076182 94.7429
9.828089385495742 96.0059
9.850470754023561 98.2732
9.872869957865444 101.21700000000001
9.89525208097539 104.927
9.917652041736662 109.84899999999999
9.940052382417589 118.40799999999999
9.962435644102392 141.335
9.984836746950979 209.94
10.007220771957746 389.55800000000005
10.029622640473708 607.2230000000001
10.052007432299963 690.68
10.074410069984072 629.168
10.096813093716005 565.9159999999999
10.119199042482517 622.763
10.141602840636468 887.997
10.163989564971628 1337.14
10.186394141051062 1650.32
10.208799107559706 1349.85
10.231187001965623 769.9580000000001
10.253592751657669 334.32300000000004
10.275981430388155 168.155
10.298387966769793 127.835
10.320794897965431 117.58200000000001
10.343184759907361 112.08
10.36559248305461 108.087
10.387983138083852 106.787
10.410391656691655 110.09
10.432800574501677 127.19200000000001
10.455192425893369 176.797
10.47760214443012 233.19
10.499994797678786 255.67700000000002
10.522405320453982 234.06799999999998
10.54479877906917 212.924
10.567210109595656 222.75099999999998
10.5896218454736 276.505
10.612016518879773 390.88300000000004
10.634429067781074 494.92800000000005
10.656824555333241 463.792
10.679237920773568 327.74300000000005
10.701651695961992 188.236
10.724048411481384 123.95299999999999
10.746463008485165 101.509
10.768860546937125 90.66799999999999
10.791275969274796 84.9285
10.81369180576079 82.3406
10.836090585366925 80.3047
10.858507252467449 78.3697
10.88090686379991 77.0855
10.903324365036394 75.8497
10.925724811614439 74.7137
10.948143150509463 74.4253
10.970561909719066 73.3637
10.992963615930844 72.1681
11.015383218085756 71.7888
11.037785768347074 70.683
11.06020621697282 70.2184
11.082627090322113 69.5429
11.105030913430326 68.9373
11.12745263854165 68.1029
11.149857314510728 67.617
11.172279894912576 67.5814
11.194702904450653 66.4826
11.217108866490921 65.3289
11.239532736615194 65.2004
11.26193956033512 65.1959
11.284364294577085 64.7822
11.306789462371718 64.348
11.329197585398376 64.2069
11.351623622610898 64.0618
11.37403261614354 63.2253
11.396459526308487 63.2641
11.418869393879497 62.9029
11.441297180532617 62.5183
11.463725406927658 62.137
11.486136592353875 61.8535
11.508565700543707 61.659
11.530977768845315 61.36
11.553407762368774 60.8235
11.575838200059769 61.0769
11.598251599479612 60.733999999999995
11.620682927815501 60.9103
11.64309721895548 61.0888
11.665529441478206 60.5202
11.687962112597958 60.2894
11.710377748130886 60.497
11.732811318753434 60.1584
11.755227854859067 60.223
11.777662328529495 60.1355
11.800079768750786 59.7887
11.822515149015453 60.0841
11.844950984084935 60.6585
11.867369787303163 60.6168
11.889806534289491 60.9271
11.912226250487029 63.3011
11.934663912939751 69.1594
11.9571020346363 75.2051
11.979523127133968 77.3215
12.001962169624331 75.202
12.024384183972964 71.2133
12.046824150809913 71.1023
12.069264581333726 80.6221
12.091687985297767 94.493
12.11412934550045 104.43
12.136553680195208 105.57600000000001
12.158995973632788 100.38799999999999
12.181438735204349 96.4054
12.20386447284199 98.9231
12.226308172985636 110.444
12.24873485024193 136.986
12.271179492516982 170.87099999999998
12.293607112949127 188.356
12.316052700916226 167.524
12.338498763250042 124.179
12.360927805303868 87.3727
12.383374818673879 70.7615
12.405804812803074 65.1678
12.428252780773262 63.1808
12.45070122756722 62.5342
12.473132656675375 62.2791
12.49558206341869 62.2074
12.518014453510101 62.004
12.540464823770117 62.0953
12.562915677315177 62.0519
12.58534951575545 62.3091
12.607801338171472 62.0957
12.630236146511358 62.4555
12.652688941369085 62.9384
12.675124723177234 63.0856
12.697578494048786 63.4826
12.720032754458185 63.6662
12.742470003354093 64.1653
12.764925245138771 64.6084
12.787363476431278 65.1723
12.809819703166806 65.4973
12.83227642391173 66.2942
12.854716135692716 66.6342
12.877173846755147 67.9149
12.899614549869717 68.0738
12.9220732548287 69.2182
12.94453245827299 69.5907
12.966974655289818 70.7031
12.989434858002571 71.3172
13.011878055298721 72.5508
13.034339260862497 73.7591
13.056800969391883 75.8185
13.079245674017244 79.1875
13.101708390774869 82.7448
13.12415410463411 90.0438
13.146617833206086 108.499
13.169064559883248 142.695
13.191529303857127 176.482
13.213994557076367 195.825
13.236442809902437 189.727
13.258909083908291 172.78400000000002
13.28135835851934 163.93599999999998
13.30382565690295 170.738
13.326293469022952 196.96400000000003
13.348744283242008 250.736
13.371213125129904 332.028
13.39366497011003 390.843
13.416134845360597 374.278
13.438605238843131 287.101
13.46105863690397 190.862
13.483530069144786 141.651
13.505984506951902 142.555
13.528456981549432 167.465
13.550929978879088 184.192
13.573385983253365 183.265
13.595860028340867 167.84
13.618317081455832 154.559
13.64079217790333 153.205
13.663250283359057 164.58700000000002
13.685726434770173 194.482
13.708203115221277 256.468
13.730662806148091 323.704
13.75314054697177 344.95099999999996
13.775601299246777 299.406
13.798080104050406 208.958
13.820559442405358 131.805
13.843021793671388 97.1078
13.865502201420897 84.6598
13.887965623051947 80.8267
13.910447103807167 78.8054
13.932929122629764 76.899
13.955394156785959 76.1356
13.977877254034569 75.3356
14.000343367582113 74.1803
14.022827546871707 73.6245
14.045294743423524 72.9665
14.06778000837062 72.3156
14.090265817715476 72.3269
14.112734645763819 73.6366
14.13522154619454 77.1087
14.157691466286913 81.2098
14.180179461423874 81.7406
14.202668005486178 79.5491
14.22513957064374 75.4081
14.247629214846473 72.1071
14.270101881097517 69.8557
14.29259262906496 68.7819
14.315083930490205 68.3103
14.337558255389705 67.8281
14.360050666019726 67.8118
14.382526101071944 67.5573
14.405019624534942 67.1204
14.427513705993134 66.8341
14.449990813291825 66.8549
14.47248601302899 66.8051
14.49496423954951 66.9652
14.517460561197822 67.1281
14.539939910570322 66.6397
14.562437357763558 66.7314
14.58493536931253 67.0248
14.607416409993311 67.3386
14.62991555254159 67.475
14.652397725157423 67.8444
14.674898002342799 68.1342
14.697398848433282 68.4296
14.719882725991326 69.686
14.74238471217934 70.3763
14.764869730765593 73.8668
14.787372860692983 81.9238
14.809876564079925 96.5793
14.83236330125751 111.825
14.854868153850365 119.999
14.877356041159485 119.071
14.899862046604186 112.45100000000001
14.922351087688757 106.583
14.944858249632887 105.27600000000001
14.967365991421232 110.361
14.989856770231246 121.831
15.012365673994204 145.841
15.03485761569738 180.817
15.05736768508665 206.69099999999997
15.07987833888692 205.791
15.102372032001655 175.859
15.124883856909658 127.68799999999999
15.14737872204565 94.8108
15.169891721717274 78.4595
15.192405310371893 72.7719
15.214901940621196 70.2536
15.237416709527137 68.6281
15.259914520936249 68.0325
15.282430473753607 66.9971
15.304947020131227 66.0376
15.327446610371178 65.8359
15.349964346154254 65.439
15.372465126703139 65.2202
15.394984055556009 65.10600000000001
15.417486030076159 65.0234
15.44000615566487 64.7827
15.462526881230803 64.4474
15.485030653812652 64.0479
15.507552581617434 64.2286
15.530057557334603 63.988
15.55258069104857 64.0835
15.575104429329837 64.6404
15.597611216864632 64.4585
15.620136166564563 65.0069
15.6426441664095 65.8518
15.665170331202765 68.1534
15.687697105158826 74.5174
15.710206930593545 86.2648
15.732734925158933 99.146
15.755245972089478 106.604
15.77777519094324 107.78299999999999
15.800287463046663 102.691
15.822817909869592 96.3386
15.84534897229804 93.1086
15.867863089299354 95.459
15.890395385222186 101.05
15.912910736597423 113.428
15.935444269699861 137.423
15.957978423016485 167.368
15.980495633101265 184.81
16.003031029129367 179.21099999999998
16.02554948280019 149.237
16.048086125229432 111.979
16.070623392487107 86.0133
16.09314371869582 72.8633
16.11568223789321 66.6588
16.13820381691126 63.583
16.160743591742527 61.6127
16.183283996022084 60.1538
16.205807461423195 58.7259
16.228349126881973 58.1681
16.25087385432698 58.0639
16.27341678466365 57.1603
16.29594277784926 56.9889
16.31848697676433 56.5082
16.341031811604868 55.6706
16.36355971058487 55.6139
16.3861058195587 55.2471
16.40863499352978 54.8234
16.431182380342005 54.7069
16.453730407713202 54.6872
16.476261501364792 54.3443
16.498810812136167 54.0171
16.52134319004079 54.2024
16.54389378792203 53.6993
16.566445031001553 53.7325
16.588979342490088 53.4307
16.61153187824822 53.4037
16.634067483263312 53.4781
16.656621315414416 53.067
16.679175797408888 52.8441
16.701713349928728 52.9989
16.72426913389191 53.0673
16.74680798922351 52.9069
16.76936507887444 52.9374
16.791905240734874 53.0747
16.814463639794468 52.9056
16.837022695210294 53.0118
16.859564824093756 53.2107
16.882125194503903 53.4854
16.904668639217885 54.0487
16.927230328348003 54.4776
16.949792678493612 55.1068
16.972338104193863 55.1276
16.994901778652235 54.67
17.017448529496576 54.6473
17.040013531998152 54.4934
17.06257920018044 54.786
17.0851279459922 56.1468
17.107694947817667 58.21
17.130245028099072 60.8499
17.15281336730298 62.9826
17.17536478578733 63.7354
17.19793446610687 63.2542
17.220504818648422 62.2228
17.243058251703697 61.2941
17.265629950971032 61.1221
17.288184731571736 61.6586
17.310757781306908 63.5696
17.33333150794385 66.1903
17.355888317140174 70.2767
17.37846339986244 76.3563
17.401021565958885 80.9778
17.42359800851343 81.3415
17.44617513265564 76.8134
17.468735341390783 70.0003
17.491261035594565 63.6063
17.51396340099364 59.8228
17.536490463869136 58.2416
17.559018209820174 57.8508
17.58154663977963 57.6978
17.604251766089718 57.687
17.626781572227713 57.8479
17.64931206518155 58.0406
17.671843245885103 58.3831
17.69455114821572 58.6403
17.717083712612634 58.9947
17.739616967569667 59.5306
17.762150914021706 60.5017
17.78486160749854 61.0892
17.807396945166804 61.8461
17.829932977143503 62.4117
17.85246970436452 63.2792
17.875183204129467 66.2387
17.897721330097664 72.2679
17.920260154126645 79.7377
17.942799677153296 85.531
17.9655159983646 87.9559
17.988056927677544 86.9626
18.010598558807683 83.7628
18.033140892692916 81.1421
18.05586005052525 80.1901
18.07840379824407 81.2463
18.10094825154059 84.7347
18.12366954819864 91.5675
18.146215420998306 103.615
18.16876200220057 121.84
18.191309292745153 141.33700000000002
18.214033452627167 151.77700000000002
18.236582170236648 146.195
18.259131600016456 128.347
18.281681742907335 105.814
18.304408781233683 88.8617
18.32696035875955 80.2234
18.349512652227624 77.1952
18.372065662579683 78.0449
18.394795594587553 81.2076
18.41735004715306 87.2809
18.43990521943684 94.9789
18.46246111238171 101.852
18.485193953325208 102.509
18.507751296070428 95.8544
18.530309362314178 85.3736
18.552868153000343 74.9605
18.57560391815056 67.7731
18.59816416623245 64.134
18.620725141597372 62.147
18.643286845190268 61.1494
18.666025549835414 60.3444
18.688588718427933 59.1783
18.711152618092243 59.0137
18.73389353884365 58.6459
18.75645890921984 58.0907
18.77902501351406 57.8432
18.801591852673102 57.558
18.824335739722738 56.9406
18.846904057212626 56.9464
18.8694731124168 56.5977
18.89204290628315 56.6577
18.914789774966803 56.5457
18.937361054791623 56.2307
18.959933076131318 55.8801
18.982505839934877 56.0063
19.00525570560582 55.8605
19.027829963004184 55.7097
19.05040496572238 55.6991
19.072980714710468 55.6597
19.095733592739563 55.883
19.11831084296757 56.471000000000004
19.140888842324735 57.8688
19.16346759176222 59.2191
19.18622349753803 60.5127
19.208803755869358 61.4396
19.231384767143577 61.1929
19.253966532312948 60.7471
19.276725481241822 60.0115
19.29930876296784 59.7386
19.3218928014549 60.2774
19.34465404436217 61.0185
19.36723960516257 61.9464
19.389825925592426 63.0272
19.412413006605938 64.9334
19.43517731967805 68.4506
19.457765930683355 72.0537
19.48035530514408 73.691
19.50294544401556 72.7793
19.525712842708348 68.5038
19.54830451925909 63.5109
19.570896963095727 58.1553
19.593490175174704 55.11600000000001
19.616260674962184 53.7157
19.638855432416964 52.9489
19.661450960992624 52.9924
19.68404726164677 52.8165
19.706820878021247 52.4108
19.729418731756834 52.6643
19.752017360452857 52.3121
19.77461676506804 52.3904
19.797393513540218 52.2417
19.819994478951667 52.7568
19.84259622316767 53.8944
19.8651987471481 55.1887
19.887978643247177 56.2863
19.91058273574792 57.0264
19.933187610901943 57.4915
19.955969879466828 57.2557
19.97857632894404 56.5734
20.00118356396599 55.8694
20.023791585494575 55.5061
20.046577028914875 56.211000000000006
20.069186632506966 57.3333
20.091797025500632 59.1375
20.114408208858933 61.3057
20.137196842715273 64.3979
20.159809615886765 67.9446
20.18242318232135 70.1271
20.20503754298326 71.1545
20.227829382875154 70.1004
20.250445341109344 67.0577
20.27306209647285 62.6821
20.29567964993108 58.9067
20.31847471147704 57.0633
20.34109387027612 56.7395
20.363713830075454 57.4062
20.386334591841646 59.6601
20.409132890679302 62.3697
20.431755265564437 64.3566
20.454378445325528 64.527
20.477002430930366 62.2334
20.499803982716553 58.8874
20.522429589228004 55.0362
20.54505600449589 51.9778
20.567683229489194 50.7385
20.590488049900088 49.8151
20.61311690359731 49.4573
20.63574656993626 49.0507
20.658553853717297 48.7032
20.681185154618298 48.8716
20.703817271080066 48.6073
20.72645020407368 48.308
20.749260783967177 48.6518
20.771895359337133 48.856
20.794530754161617 48.7193
20.817166969412938 48.7462
20.83998086114876 48.5662
20.86261872660049 48.3551
20.885257415405402 48.119
20.90789692853701 47.7889
20.930714147864748 47.5885
20.953355319030678 47.6514
20.97599731745334 47.8958
20.99864014410749 47.8621
21.021460706796564 48.1951
21.044105199328826 48.4608
21.06675052302631 48.4749
21.089396678865015 48.4228
21.112220600704806 48.2874
21.134868430275347 48.2017
21.15751709492456 48.013000000000005
21.180166595629693 47.8985
21.202993892429635 47.864
21.22564507473034 48.1117
21.24829709602816 48.2688
21.27112693608965 48.6119
21.293780644891275 49.1794
21.316435195634053 49.6575
21.339090589297417 50.1529
21.361923832041875 50.6833
21.384580921090404 50.2369
21.407238856007325 49.7736
21.429897637773326 49.0676
21.45273429906592 48.3661
21.475394784108598 48.093999999999994
21.498056118951983 47.6519
21.520718304578022 47.7386
21.543558400304388 47.83
21.566222297108816 47.9216
21.58888704765135 48.0774
21.61155265291521 48.5482
21.63439619898156 49.5505
21.657063523335786 50.5999
21.67973170537063 51.9785
21.7024007460706 52.5258
21.72524775840385 53.068000000000005
21.747918526116475 53.1323
21.770590155457388 52.3966
21.79326264741238 52.0661
21.816113141960237 51.8854
21.838787368860547 52.1654
21.861462461341976 52.902
21.884315579735777 54.0034
21.90699241312273 55.1433
21.92967011506078 56.4198
21.95234868653799 58.5012
21.9752053151131 60.9212
21.997885635446785 63.5323
22.020566828293532 65.2628
22.04324889464272 64.8772
22.066109049404666 62.6322
22.088792872571794 59.4513
22.111477572219204 56.2877
22.1341631493376 54.2468
22.157026846313123 53.3042
22.179714188221507 53.7187
22.202402410582668 54.6471
22.22509151438863 55.3568
22.24795876962584 55.446000000000005
22.270649646204486 54.928000000000004
22.293341407213727 53.3958
22.316034053646906 51.6458
22.338904883215342 50.078
22.36159931041458 49.2361
22.38429462602756 48.4938
22.40699083104897 48.0092
22.429865251039757 47.8578
22.452563244831367 47.8055
22.47526213102522 48.0
22.49813925616515 47.7583
22.520839937143307 47.602
22.543541513520587 47.9103
22.56624398629403 47.8672
22.589124730075895 47.6158
22.611829005656723 47.9663
22.63453418063466 47.9141
22.657240256008077 47.9938
22.680124634582935 48.6079
22.70283252079775 49.5185
22.725541310413075 50.3842
22.74825100442868 50.8548
22.771139033969575 51.251999999999995
22.79385054687155 51.1258
22.81656296718292 50.7429
22.83927629590484 50.4923
22.862167992606945 50.2194
22.88488314827121 50.1007
22.907599215359284 50.0735
22.93031619487366 50.1253
22.953211574954405 50.4075
22.975930389478226 51.1732
22.998650119445763 52.0329
23.02137076586092 52.9449
23.044269845560063 54.7762
23.06699233506288 56.7445
23.089715744034912 57.7229
23.112617610931565 57.5237
23.135342869061212 56.1563
23.158069049684816 54.0688
23.1807961538087 51.7784
23.20370174880544 50.0331
23.226430710184808 49.1084
23.249160598093425 48.7589
23.271891413539002 48.6175
23.294800752937697 48.8843
23.31753343374794 49.7685
23.340267045128353 50.5617
23.36300158808808 51.0854
23.38591468821339 51.3871
23.408651104658304 51.2292
23.431388455719986 50.7223
23.454126742409 50.0658
23.4770436196085 49.7422
23.499783787914662 49.7633
23.522524894889884 49.3367
23.54526694154616 49.5532
23.56818761219047 49.7962
23.59093154860734 50.1455
23.613676427751283 51.217
23.636422250635754 52.3667
23.659346731118656 54.1605
23.68209445191868 56.0635
23.704843119509587 57.1953
23.72759273490623 57.2625
23.750521041644767 55.9363
23.77327256312355 53.3213
23.796025035462787 50.5848
23.818956224555475 48.1578
23.841710609113413 46.86600000000001
23.86446594758979 45.8477
23.887222241002014 45.3385
23.910157285144578 44.8779
23.932915498962537 44.9118
23.955674670778713 44.7855
23.978434801611975 44.5465
24.001373717286125 44.4248
24.024135776723917 44.3041
24.046898798245582 44.1357
24.06966278287146 43.951
24.092605586582614 43.6832
24.115371508023642 43.5433
24.1381383956401 43.4008
24.16090625045381 43.3855
24.183852958731244 43.2719
24.206622758582608 43.1091
24.229393528706886 42.8169
24.252165270127392 43.0738
24.27511589952438 43.0212
24.297889594216997 42.7415
24.32066426328598 42.6678
24.34343990775613 42.7067
24.36639447485003 42.5942
24.38917208083877 42.5688
24.41195066531332 42.3347
24.43490819850244 42.438
24.457688750692377 42.1192
24.48047028445616 42.0898
24.503252800821233 42.2116
24.526214300784112 42.2158
24.548998793132213 42.0783
24.57178427117417 41.985
24.59457073593893 41.9952
24.617536219319863 42.1062
24.64032466834748 42.2978
24.663114107195035 42.3489
24.685904536893013 42.2886
24.708874020360852 42.1768
24.731666442613744 42.2251
24.754459858818787 42.0321
24.777254270007962 41.9494
24.80022777025625 41.6462
24.82302418230472 41.7884
24.845821592443674 41.8218
24.86862000170663 41.6173
24.891597535453727 41.7368
24.914397953892728 41.9515
24.93719937456671 41.8917
24.96000179851076 42.023999999999994
24.98298338249997 42.0503
25.00578782394922 41.8917
25.028593271784167 42.1089
25.05157790644186 42.365
25.07438537804115 42.4262
25.097193859145293 42.583999999999996
25.120003350792075 42.5691
25.142992065061257 42.8494
25.165803588823465 42.8428
25.18861612625217 42.8625
25.211429678386736 42.7391
25.234422489079968 43.1364
25.257238081693636 43.3714
25.280054692141732 43.7056
25.3028723214652 43.7596
25.325869245420463 43.5937
25.348688923599397 43.4881
25.371509623787006 43.1781
25.394331347025812 43.0742
25.41733240110666 43.3384
25.440156181590016 43.711999999999996
25.46298098826268 44.1654
25.48580682216873 44.2962
25.50881202326435 44.1203
25.53163992281684 43.4811
25.55446885274561 42.651
25.577298814096377 41.6496
25.600308179121807 41.028
25.623140214533745 40.7252
25.64597328451537 40.5023
25.66898578564376 40.1969
25.691820936010206 40.019
25.714657124097695 40.0811
25.737494350954734 40.0315
25.760511045684957 39.9816
25.783350361364224 40.1652
25.806190718969255 40.2923
25.82903211955018 40.4062
25.852053024868923 40.3998
25.874896522722523 40.3599
25.897741066713106 40.2352
25.920586657892454 40.1875
25.943611790812668 40.0037
25.966459487728237 39.9949
25.989308234998564 39.9526
26.01215803367705 39.9858
26.03518741123814 39.9005
26.05803932412957 39.847
26.080892291600094 39.8488
26.10374631470478 39.9439
26.12677995397268 40.1835
26.14963609978026 40.4447
26.172493304397875 40.709
26.19535156888223 41.1646
26.218389486949604 41.4284
26.241249882640123 41.4091
26.26411134137826 41.2501
26.28715248187403 41.0043
26.31001607820869 40.654
26.3328807407756 40.3282
26.35574647063438 40.3778
26.37879191991473 40.1297
26.401659795896734 40.0812
26.424528742360263 40.2118
26.447398760366614 40.083
26.470448535598294 39.8607
26.49332070826805 40.0025
26.516193955675355 40.1031
26.53906827888316 40.0813
26.562122397260108 39.9766
26.584998883685063 40.0719
26.607876449110325 40.2541
26.63075509460056 40.2531
26.65381357334404 40.3099
26.67669439061878 40.3535
26.699576291163382 40.4331
26.722459276044212 41.0046
26.745522132402975 41.5515
26.768407297649354 41.8264
26.791293550442003 41.7709
26.814180891848974 41.5352
26.837248143099337 41.2867
26.860137673466657 40.7972
26.88302829566349 40.4078
26.90592001075963 40.1105
26.92899167420566 40.1645
26.951885586870763 39.8702
26.974780595655517 39.7934
26.99785558178161 39.6621
27.020752794605112 39.5309
27.043651106772522 39.022
27.06655051935668 38.6747
27.089629948036183 38.4682
27.112531573292053 38.315
27.135434302194138 38.4129
27.158338135817015 38.1422
27.181422024430987 38.2859
27.204328079372566 37.9985
27.22723524226965 38.2268
27.250143514198573 38.361
27.273231880156334 38.3305
27.296142382065014 37.9681
27.319053996245536 37.9735
27.341966723775965 38.0002
27.365059584515222 37.8962
27.38797455070062 37.8512
27.410890633481237 37.7467
27.433807833936918 37.7415
27.456905206923906 37.763000000000005
27.47982465472398 37.6712
27.502745223449743 37.6508
27.525666914182825 37.8847
27.548768816912457 37.6717
27.571692763693633 37.6714
27.59461783573812 37.6895
27.617723149491244 37.778
27.640650484125285 37.9597
27.66357894728264 38.1178
27.686508540048052 38.0604
27.709618414237887 38.0359
27.732550278321757 38.1903
27.755483275279115 38.1887
27.778417406196485 37.9914
27.801531858397514 37.8435
27.824468269376716 37.6747
27.847405817586786 37.4666
27.870344504116094 37.5783
27.893463551932008 37.579
27.916404527281053 37.5742
27.93934664422563 37.5574
27.962289903855886 37.4979
27.98541356491974 37.6898
28.00835912214229 37.6285
28.03130582533231 37.7447
28.054253675581805 37.6496
28.077381967556104 37.5649
28.100332124185126 37.6404
28.123283431160893 37.8158
28.146235889577238 38.0735
28.169368830154156 38.3497
28.192323603752033 38.5398
28.215279532083304 38.4478
28.238415973016764 38.3325
28.261374223145094 38.1282
28.284333631303806 37.8017
28.307294198589954 37.5951
28.330435319167677 37.4484
28.353398217078915 37.2559
28.376362277420153 37.0943
28.39932750129032 36.9923
28.422473319286713 36.7281
28.44544088262495 36.6772
28.468409612800283 36.29
28.491379510913497 35.911
28.51453004413313 35.6938
28.53750229057244 35.5846
28.56047570826344 35.6017
28.583450298308804 35.6342
28.606605564586562 35.2992
28.629582511831156 35.4444
28.65256063474956 35.4011
28.675539934446338 35.3995
28.698699951647605 35.2368
28.72168161743193 35.0567
28.74466446331978 34.9541
28.767648490417624 34.8223
28.790813276438353 34.7988
28.813799678527303 34.8043
28.836787265157085 34.7162
28.859955641890075 34.7774
28.882945610203045 34.6744
28.905936766392035 34.5456
28.928929111566863 34.6065
28.952102288520145 34.5837
28.975097024308607 34.5487
28.998092952423807 34.5057
29.021090073977508 34.684
29.04426806913204 34.7294
29.067267590245258 34.5173
29.090268308143695 34.5311
29.11327022394099 34.4444
29.13645305530891 34.3348
29.159457379627167 34.1274
29.18246290519685 34.0017
29.20546963313352 33.8673
29.22865731875826 33.9551
29.25166646419296 33.8191
29.27467681535305 33.5816
29.29768837335608 33.7092
29.320880931312562 33.5631
29.34389491580634 33.591
29.366910110507334 33.4787
29.38992651653503 33.3703
29.41312396492981 33.3399
29.436142806456754 33.3534
29.45916286268059 33.4159
29.48236399319994 33.4897
29.50538649169417 33.4235
29.528410208259935 33.3999
29.55143514402014 33.431
29.574641196749695 33.3441
29.597668583816574 33.2739
29.6206971934585 33.0865
29.64372702680042 33.0546
29.666938019934474 32.7594
29.689970313635285 32.6101
29.713003834422636 32.4403
29.73603858342347 32.4783
29.759254535188578 32.3273
29.78229175361658 32.3357
29.80533020365064 32.3815
29.82836988641968 32.3959
29.85159081507472 32.4355
29.874632976355343 32.283
29.89767637376955 32.3237
29.920721008448314 32.1048
29.9439469322847 32.1602
29.96699405457564 32.0708
29.9900424175358 32.0917
30.013092022298157 32.1139
30.03632295963995 32.0931
30.059375061131373 31.9319
30.08242840783577 31.9679
30.105483000888153 31.9287
30.128718970092244 31.8548
30.151776069006917 31.8308
30.17483441768648 31.879
30.198074175317235 31.8566
30.221135036724256 31.7622
30.24419715131772 31.7365
30.267260520236203 31.5945
30.290505341942243 31.6764
30.313571232750228 31.9525
30.336638381310948 31.9378
30.35970678876503 32.0027
30.38295669299435 31.901
30.40602763151657 31.9458
30.429099832366074 31.8722
30.452173296685572 31.7976
30.47542830191959 31.7485
30.498504306502497 31.6031
30.521581577995562 31.7068
30.544660117543582 31.6068
30.56792024229725 31.6244
30.59100133132069 31.4121
30.614083691845494 31.4008
30.637167325018545 31.4525
30.660432587840603 31.5599
30.683518779717886 31.4066
30.70660624769615 31.4459
30.729694992924372 31.4675
30.75296541239743 31.4503
30.77605672557558 31.421999999999997
30.799149319462742 31.6087
30.8224236211637 31.6114
30.845518789950724 31.6829
30.868615242910597 31.761999999999997
30.891712981195973 31.5632
30.91499247215866 31.5402
30.938092794619365 31.5335
30.96119440587579 31.3146
30.984297307082752 31.1832
31.00758200598383 31.0501
31.030687500658694 31.1115
31.053794288760695 31.038
31.076902371446767 30.9499
31.100192296997445 30.8724
31.12330298246119 30.8324
31.14641496599209 30.6554
31.169528248749216 30.5506
31.19282341969534 30.4918
31.215939314557186 30.4393
31.239056512134788 30.5562
31.262175013589378 30.421
31.28547544871168 30.4889
31.30859657161541 30.4216
31.331719001892175 30.3324
31.35484274070538 30.4283
31.378148458819545 30.3254
31.401274828443725 30.2759
31.424402510106933 30.2081
31.447712205419993 30.2672
31.470842524931633 30.1652
31.493974159989783 30.2872
31.51710711176168 30.232
31.54042212308802 30.1385
31.563557722100917 30.2972
31.586694641341655 30.2254
31.609832881979628 30.3012
31.63315322823208 30.4273
31.656294125521327 30.3222
31.679436347728515 30.2864
31.70257989602529 30.1414
31.725905596152327 30.0416
31.74905181052835 29.8533
31.772199354521323 29.8308
31.79534822930507 29.6734
31.818679302290967 29.7023
31.84183085259981 29.693
31.864983737233473 29.6847
31.88813795736804 29.6703
31.911474422233013 29.5038
31.934631327356435 29.5868
31.9577895715215 29.4027
31.980949155906522 29.4322
32.004291031706956 29.4651
32.027453310562606 29.3375
32.05061693318573 29.3315
32.07396288236386 29.4303
32.09712920658542 29.4035
32.12029687812702 29.3815
32.14346589817093 29.3869
32.166817291729984 29.3065
32.18998902288583 29.1796
32.21316210610336 29.1179
32.23633654256711 29.0323
32.259693399663725 28.9287
32.282870556771144 28.8978
32.30604907069099 28.9387
32.329228942610065 28.8422
32.35259128243769 28.5367
32.375773884550505 28.5706
32.398957848235646 28.5413
32.422143174682176 28.5157
32.445511016471215 28.4266
32.468699082679954 28.3421
32.49188851523011 28.3292
32.51507931531304 28.281
32.538452678331 28.287
32.56164622776311 28.0803
32.58484114831493 28.0919
32.60803744118015 28.134
32.631416344731896 28.0816
32.654615396551876 28.0402
32.67781582427913 27.9922
32.701198898634416 27.9508
32.72440209253756 27.8503
32.747606665947124 27.8061
32.77081262006088 27.7353
32.79420126883317 27.8036
32.81740999876112 27.7817
32.840620112999424 27.7009
32.86383161274818 27.6703
32.88722585534586 27.6152
32.91044014056596 27.7321
32.933655814909734 27.6053
32.95687287957963 27.5847
32.98027273544904 27.4522
33.00349259526636 27.4145
33.026713849030116 27.4711
33.04993649794511 27.5045
33.073341986570746 27.3261
33.09656744032826 27.2363
33.11979429286444 27.2877
33.14302254538647 27.2479
33.166433686291185 27.219
33.18966475336992 27.1712
33.212897224069096 27.0769
33.23613109959831 27.0755
33.259547912343415 26.9917
33.2827846121627 27.0903
33.306022720453775 27.0741
33.32926223842861 26.9941
33.352684742614166 26.9903
33.37592709463173 26.9899
33.399170859982064 26.9497
33.422597648419426 26.8974
33.44584425514446 26.8555
33.46909227885668 26.8268
33.4923417207723 26.7851
33.51577423505344 26.8278
33.539026528130385 26.7289
33.56228024307245 26.6092
33.585535381098246 26.5026
33.60897364093058 26.4811
33.63223163992385 26.4671
33.6554910656699 26.3382
33.678751919389796 26.2866
33.702195944520106 26.1209
33.72545966903325 26.1414
33.74872482519663 26.0738
33.771991414233746 26.0949
33.79544122444841 25.9973
33.81871069412428 25.9797
33.84198160035767 25.9869
33.86525394437455 25.9666
33.88870955949969 25.9545
33.911984794020626 25.8863
33.93526147001624 25.7969
33.958539588715006 25.8076
33.98200102861669 25.7313
34.0052820477047 25.7346
34.02856451319451 25.7127
34.05203033759056 25.5804
34.07531571090147 25.6731
34.09860253431845 25.6214
34.121890809074316 25.5044
34.145362493118924 25.4861
34.16865368561615 25.3902
34.191946333164054 25.4027
34.21524043699793 25.3319
34.23871800066799 25.3042
34.26201503218366 25.1971
34.28531352370466 25.1867
34.30861347646881 25.1372
34.33209693978188 25.169
34.3553998301885 25.1189
34.378704185565205 25.0938
34.402010007152356 24.9718
34.42549939016683 24.9518
34.44880815937748 24.8441
34.472118398533134 24.9041
34.49543010887669 24.9603
34.51892543169198 24.7989
34.54224009966052 24.7855
34.56555624255917 24.8519
34.58887386163339 24.6723
34.61237514439016 24.5451
34.6356957311114 24.5309
34.65901779775809 24.6415
34.68252356662995 24.5242
34.705848608458616 24.4998
34.72917513396849 24.4208
34.75250314440949 24.3928
34.77601490857862 24.2786
34.799345904259795 24.2487
34.82267838863559 24.316999999999997
34.846012362958525 24.2453
34.869530142679984 24.1964
34.89286711232212 24.1823
34.91620557568269 24.1236
34.93954553401677 24.0966
34.9630693495876 24.1021
34.986412313340814 24.0638
35.00975677584668 24.0714
35.033102738362956 24.0578
35.05663261012228 23.9954
35.0799815881786 24.0052
35.10333207003229 23.9042
35.12668405694369 23.9
35.150220005273056 23.8578
35.17357501786656 23.8924
35.19693153931268 23.8022
35.220289570874385 23.7528
35.24383161619786 23.7016
35.267192683604904 23.7638
35.290555264930376 23.6455
35.314101899412165 23.6384
35.33746752422433 23.6537
35.36083466676374 23.6044
35.38420332829803 23.5209
35.407756095629054 23.5875
35.43112781085063 23.5376
35.45450104888391 23.482
35.477875810999194 23.5306
35.50143473172161 23.3911
35.52481255774625 23.461
35.54819191167777 23.41
35.57157279478914 23.3992
35.595137889488406 23.43
35.61852184675279 23.3582
35.641907337029984 23.2945
35.665294361595684 23.3079
35.68886565090076 23.2975
35.7122557598848 23.2752
35.73564740699838 23.2305
35.759040593519934 23.1561
35.78261809810353 23.0651
35.80601437933051 23.0764
35.829412203814705 23.0736
35.85281157283719 22.9882
35.876395313415884 22.8861
35.8997977874528 22.9005
35.92320180988546 22.8439
35.946790244133936 22.6964
35.97019737933222 22.811999999999998
35.993606066789866 22.6997
36.01701630779276 22.6175
36.04061101440684 22.6338
36.06402437852291 22.6084
36.08743930005611 22.6109
36.1108557802951 22.5294
36.13445678011326 22.5542
36.15787639383515 22.4693
36.18129757014299 22.5143
36.20472031032821 22.4233
36.22832762423364 22.3222
36.25175350829375 22.3629
36.275180960119776 22.3209
36.298609981005924 22.3239
36.32222362992669 22.2876
36.34565580510207 22.2525
36.36908955323448 22.2074
36.39252487562093 22.0937
36.416144880530226 22.1153
36.43958336764275 22.0164
36.463023432914625 22.0626
36.486465077645676 22.0004
36.51009145956204 22.0699
36.53353627947859 22.0502
36.55698268276811 21.9408
36.58043067073321 21.8546
36.60406345072071 21.8267
36.62751462435344 21.7885
36.65096738658405 21.7861
36.67460498210655 21.7778
36.69806093788647 21.7959
36.72151848619297 21.6885
36.744977628333636 21.7313
36.76862165890998 21.57
36.79208400512205 21.6691
36.81554794910557 21.6453
36.83901349217101 21.5449
36.862663978991606 21.493000000000002
36.88613273667352 21.4468
36.90960309738324 21.4471
36.933075062434064 21.3642
36.95673202673572 21.3794
36.98020721697122 21.3293
37.003684015502365 21.2633
37.027162423645365 21.1968
37.050825886711465 21.1886
37.07430753063053 21.1759
37.09779078812467 21.1075
37.121275660513014 21.0923
37.144945643673694 21.0943
37.16843376245278 21.0815
37.19192350009803 21.0204
37.215414857931435 20.8962
37.239091382563885 20.8811
37.262585997426164 20.8535
37.28608223645736 20.9206
37.309763684451696 20.8842
37.33326318851098 20.7723
37.356764320726555 20.8725
37.380267082425526 20.8468
37.40395510942588 20.8373
37.42746114683234 20.7074
37.45096881771841 20.6793
37.474478123414166 20.7148
37.49817275092816 20.6406
37.52168534303452 20.5912
37.54519957395567 20.5745
37.568715445024665 20.4774
37.592416694607714 20.4416
37.61593586281424 20.4869
37.63945667518264 20.5209
37.66297913304891 20.3816
37.68668702630454 20.3565
37.710212792059274 20.2965
37.733740207334854 20.2794
37.757269273470364 20.2432
37.780983832050374 20.2543
37.80451621684926 20.1589
37.82805025654007 20.1875
37.851585952464795 20.1099
37.8753071980695 20.1104
37.89884622345676 20.0597
37.92238690911902 20.0266
37.94611318753442 20.0328
37.969657210779765 19.9192
37.99320289834801 19.9456
38.016750251586465 19.9098
38.04048325513017 19.855
38.06403395679343 19.8068
38.087586328183946 19.7431
38.11114037065203 19.8021
38.13488012115898 19.7867
38.1584375229181 19.7238
38.181996599821 19.6412
38.205557353221124 19.5968
38.229303872575656 19.5561
38.2528679961576 19.5722
38.27643380031219 19.596
38.30000128639589 19.4409
38.32375459653193 19.4279
38.34732546371299 19.4855
38.37089801690786 19.4112
38.39447225747609 19.3675
38.418232380377425 19.3496
38.441810012983396 19.4141
38.46538933705673 19.3272
38.488970353960084 19.2833
38.51273731166058 19.2863
38.536321731567014 19.2439
38.55990784840681 19.1617
38.58367995004091 19.1337
38.60726947812959 19.0346
38.63086070726198 19.0762
38.654453638806274 19.0752
38.678232613930824 19.0307
38.70182896773327 18.9992
38.72542702806741 18.947
38.7490267963045 18.914
38.77281266709232 18.9058
38.79641586862214 18.8592
38.8200207821842 18.7884
38.843627409152944 18.8648
38.86742019782782 18.7648
38.891030269149255 18.7603
38.914642058016156 18.772000000000002
38.938255565806124 18.6841
38.96205529464307 18.6426
38.98567225787121 18.7021
39.00929094417078 18.6315
39.03291135492255 18.6754
39.05671804624804 18.5639
39.080341923549106 18.5915
39.103967529460334 18.561
39.127594865365744 18.4499
39.15140854155791 18.4229
39.17503935514948 18.4378
39.19867190290282 18.3973
39.22249083587951 18.3346
39.24612686969409 18.3263
39.269764641845306 18.3438
39.293404153722804 18.2434
39.317230110864074 18.2182
39.34087311998506 18.1993
39.36451787301696 18.1946
39.388164371352595 18.1075
39.41199737518003 18.1104
39.43564738196752 18.0897
39.45929913825317 18.055
39.48295264543308 18.0027
39.506792718520884 17.9938
39.530449745387216 17.944000000000003
39.55410852735203 17.9115
39.57776906581474 17.9793
39.60161623079 17.9155
39.625280300200025 17.94
39.64894613032202 17.8466
39.67261372255866 17.8362
39.6964680021016 17.7305
39.72013913657293 17.775
39.74381203738292 17.7378
39.76748670593756 17.7257
39.79134812278169 17.6356
39.81502634488497 17.6295
39.83870633896685 17.6184
39.862388106436654 17.5373
39.88625668336918 17.5472
39.90994201572829 17.5663
39.933629125719285 17.4909
39.957503091207826 17.4793
39.9811937746168 17.4704
40.00488623990914 17.4039
40.02858048850006 17.407
40.05246165409549 17.3712
40.076159487492085 17.2852
40.099859108448875 17.2934
40.123560518384345 17.3152
40.1474489070226 17.3037
40.171153913178564 17.1697
40.194860712584955 17.1805
40.2185693066637 17.2168
40.242464941335314 17.1472
40.26617714307655 17.1051
40.289891143772046 17.1629
40.3136069448471 17.0452
40.33750984859743 16.9996
40.3612292688043 17.007
40.3849504936829 17.0167
40.40867352466194 17.033
40.43258372059144 16.9681
40.45631038219906 16.9108
40.48003885420956 16.8441
40.503769138055105 16.8309
40.52768664931955 16.8327
40.55142057531802 16.7954
40.57515631746428 16.7537
40.599079334038514 16.7506
40.62281872700477 16.7021
40.64655994043941 16.6882
40.67030297578061 16.6726
40.69423334835778 16.6257
40.71798004609188 16.6277
40.74172857006355 16.5822
40.76547892171441 16.5594
40.7894166736039 16.5159
40.813170699248566 16.5329
40.83692655691388 16.5235
40.86068424804498 16.4532
40.884629402612525 16.4519
40.908390779366385 16.4381
40.932153993938 16.4053
40.95591904777605 16.3645
40.979871628443995 16.3088
41.003640379561936 16.3087
41.02741097430883 16.2883
41.05118341413683 16.2579
41.075143444384416 16.2596
41.098919593177826 16.2434
41.1226975914255 16.1885
41.14647744058318 16.1589
41.170444943946755 16.1603
41.19422851378379 16.1664
41.218013938914645 16.0969
41.24198706625173 15.9728
41.26577622087193 15.9933
41.289567235177785 16.0122
41.31336011063129 15.9813
41.337340752422875 15.879000000000001
41.361137369129835 15.9077
41.38493585138705 15.904000000000002
41.40873620066004 15.8546
41.43272438060107 15.8109
41.45652848292052 15.7644
41.48033445666918 15.8557
41.50414230331616 15.7507
41.528138045159764 15.7449
41.551949656675205 15.6472
41.575763145513235 15.6469
41.59957851314666 15.6831
41.62358184070442 15.6413
41.64740098505737 15.5769
41.6712220126409 15.5591
41.69504492493139 15.5074
41.71905586207357 15.5221
41.74288256296395 15.4792
41.766711153007456 15.491
41.79054163368412 15.4492
41.814560204340054 15.4292
41.838394485526365 15.4228
41.86223066180303 15.3389
41.88625497706819 15.3171
41.910094962812 15.3137
41.93393684811168 15.2954
41.95778063445365 15.2012
41.981812625263366 15.1845
42.00566023303407 15.1893
42.029509746323676 15.1763
42.05336116662236 15.1387
42.077400857069705 15.0983
42.10125611078846 15.1411
42.12511327600405 15.1183
42.14897235421036 15.0472
42.173019768448455 15.0186
42.19688269209613 14.9556
42.22074753323349 14.9598
42.24461429335818 14.9552
42.268669455600495 14.9223
42.292540073217886 14.8648
42.31641261433284 14.8406
42.34028708044675 14.8551
42.36435001496739 14.866
42.38822835065557 14.8415
42.41210861586426 14.7929
42.4359908120986 14.8052
42.46006154323262 14.7182
42.48394762115317 14.6638
42.507835634632315 14.7204
42.531912233047436 14.6309
42.55580413732265 14.6401
42.579697981698 14.6231
42.60359376768525 14.548
42.62767820545945 14.5523
42.65157789440821 14.5387
42.67547952952185 14.4851
42.699383112316 14.5272
42.72347541395347 14.4724
42.74738291190531 14.4303
42.771292362102166 14.4051
42.795203766063516 14.394
42.819303956130405 14.4235
42.843219287476536 14.3125
42.86713657716324 14.2701
42.89105582671383 14.3049
42.91516392983864 14.2716
42.939087119032166 14.1855
42.963012272677304 14.2185
42.98693939230129 14.1561
43.01105543317513 14.1504
43.034986504731386 14.1662
43.05891954686589 14.1592
43.08285456110972 14.1072
43.10697856448665 14.0466
43.130917542983475 14.0464
43.15485849820081 14.0015
43.17880143167367 13.9547
43.20293342237094 13.9218
43.226880332449 13.9155
43.25082922540554 13.9447
43.27496722682525 13.9232
43.29892010567796 13.869000000000002
43.32287497204102 13.8057
43.34683182745632 13.8027
43.370977859791836 13.7744
43.39493871351105 13.8518
43.41890156092628 13.8041
43.44286640358341 13.734000000000002
43.46702049182749 13.7697
43.49098934522816 13.6799
43.51496019852649 13.6349
43.5389330532723 13.6438
43.56309522248204 13.6171
43.58707210044314 13.6534
43.61105098451946 13.5832
43.63503187626491 13.5816
43.659202151562134 13.485
43.68318707902681 13.4933
43.70717401884041 13.4854
43.731162972560874 13.4164
43.75534137913236 13.3877
43.779334381108384 13.3705
43.803329401683186 13.3717
43.82732644241872 13.3763
43.8515130055166 13.3559
43.87551410707659 13.2623
43.89951723350145 13.2629
43.923709934595614 13.2864
43.94771713129917 13.2362
43.97172635758096 13.2432
43.99573761501002 13.2822
44.0199385169922 13.2107
44.04395385732619 13.1632
44.067971233533086 13.1272
44.09199064718605 13.1209
44.11619977548961 13.0455
44.14022328470671 13.0448
44.16424883610785 13.0488
44.18827643127035 13.0033
44.21249381139513 12.974
44.236525514814076 12.9647
44.26055926674478 12.9564
44.28459506876863 12.9233
44.3088207262813 12.8619
44.33286064928722 12.8404
44.35690262714919 12.8458
44.38094666145278 12.8142
44.4051806219871 12.8283
44.42922879003185 12.8193
44.45327901929361 12.7822
44.477331311362136 12.7494
44.501573600619416 12.7186
44.525630039221795 12.6432
44.54968854541895 12.674000000000001
44.573937102200176 12.652999999999999
44.5979997645541 12.6835
44.622064499300315 12.6391
44.64613130803592 12.6131
44.67038823869318 12.5698
44.69445921643748 12.5345
44.718532272981385 12.504000000000001
44.742607409926194 12.5332
44.76687274034801 12.4423
44.79095205918753 12.4637
44.81503346325094 12.4628
44.839116954143876 12.412
44.86339071028742 12.4256
44.88747839599524 12.388
44.91156817336837 12.3327
44.93566004401666 12.3422
44.959942251908146 12.3068
44.984038330325966 12.2739
45.00813650686762 12.2406
45.03223678314731 12.1996
45.05652746888232 12.1843
45.08063196592069 12.1778
45.104738567558705 12.1726
45.128847275414856 12.1668
45.15314646515866 12.0953
45.17725940679741 12.0707
45.20137445952892 12.0849
45.22568004865265 12.0955
45.24979934496396 12.0493
45.27392075725247 12.0587
45.29804428714431 11.9766
45.322358426247604 11.97
45.346486212804315 11.9553
45.370616121861914 11.9329
45.39474815505086 11.9229
45.41907087049246 11.8946
45.4432071734666 11.8396
45.46734560548283 11.845
45.49148616817604 11.85
45.51581748638564 11.8361
45.5399623320197 11.7962
45.56410931325473 11.7494
45.58825843173002 11.7707
45.61259837920865 11.751
45.636751793816 11.7248
45.66090735060093 11.6604
45.68506505120716 11.6164
45.7094136545275 11.6253
45.73357566449271 11.5841
45.75773982322992 11.6326
45.78190613238733 11.5967
45.806263418194064 11.5122
45.83043404997326 11.5566
45.85460683713677 11.5707
45.87897065658495 11.5106
45.90314777634752 11.4782
45.92732705646868 11.4827
45.9515084986045 11.4378
45.97588104735473 11.4561
46.00006683541565 11.3867
46.02425479047904 11.3841
46.04844491420549 11.384
46.0728262191024 11.3434
46.09702070211635 11.3268
46.12121735879483 11.3527
46.14541619080294 11.3382
46.169806278764455 11.2672
46.194009483459034 11.2147
46.21821486849841 11.2343
46.24242243555223 11.2036
46.266821333570014 11.217
46.29103328674601 11.1548
46.31524742696538 11.1682
46.33946375590237 11.1334
46.36387149104216 11.1192
46.38809221957392 11.0526
46.41231514186606 11.0513
46.436540259597464 11.034
46.460956858999374 11.0104
46.48518638983522 10.9925
46.509418121166966 10.9957
46.533652054678114 10.9416
46.55807754555709 10.9369
46.58231590571962 10.921
46.60655647313217 10.8763
46.630988654873654 10.8678
46.655233659129024 10.8416
46.67948087571551 10.8673
46.70373030632484 10.8115
46.72817142736393 10.8324
46.752425308428684 10.8369
46.77668140861147 10.7542
46.80093972960865 10.7438
46.82538981736788 10.6996
46.849652602470904 10.6924
46.87391761349769 10.7006
46.8981848521493 10.7083
46.9226439341274 10.6566
46.946915650573224 10.5916
46.97118959976749 10.575
46.99546578341598 10.5418
47.019933887188216 10.5586
47.04421456235744 10.5302
47.06849747711879 10.5144
47.09278263318286 10.4786
47.11725978640143 10.4573
47.14154944775105 10.4368
47.165841355555656 10.4642
47.1901355115306 10.4262
47.214621741924994 10.4267
47.23892041698887 10.3913
47.26322134538975 10.3345
47.28771440635075 10.3196
47.31201986422527 10.3331
47.33632758061436 10.2751
47.360637557241866 10.2839
47.38513974410611 10.2762
47.40945426407847 10.2719
47.43377104948137 10.2505
47.45809010204344 10.2081
47.48260144275502 10.1689
47.506925052572285 10.1558
47.53125093475548 10.1388
47.55557909103813 10.1207
47.58009961361992 10.1398
47.60443234110732 10.1181
47.62876734791564 10.0512
47.65310463578333 10.0434
47.6776343683373 10.0266
47.7019762413987 9.98348
47.72632040075572 10.0068
47.75066684815169 10.0095
47.77520581885936 9.96129
47.799556865477655 9.9785
47.823910205386 9.945
47.84826584033272 9.92123
47.87281407745551 9.85997
47.89717432569297 9.894630000000001
47.92153687423484 9.85922
47.94609208429692 9.83582
47.97045925671401 9.84234
47.99482873471275 9.7806
48.01920052005013 9.76393
48.04376504619224 9.76155
48.068141469543484 9.7815
48.09252020552573 9.77585
48.11690125590099 9.76335
48.1414751266064 9.717189999999999
48.16586082917454 9.7003
48.19024885144316 9.65819
48.2146391951793 9.62348
48.239222439012764 9.63355
48.26361744916137 9.59732
48.28801478610016 9.62772
48.31241445160131 9.602039999999999
48.337007097209366 9.53994
48.36141144338331 9.53675
48.38581812345755 9.498619999999999
48.41022713920929 9.55432
48.434829215320704 9.51365
48.45924292604658 9.49075
48.48365897780325 9.4701
48.50807737237308 9.46529
48.532688907799276 9.45994
48.55711201168574 9.42234
48.581537463754074 9.418339999999999
48.60615611725119 9.38782
48.63058628942721 9.35604
48.65501881516546 9.34428
48.6794536962573 9.35326
48.70408185970339 9.30669
48.72852147531801 9.28963
48.75296345168211 9.26196
48.77740779059232 9.24508
48.80204549302823 9.287510000000001
48.82649458091802 9.22661
48.85094603676547 9.20616
48.87539986237231 9.18328
48.90004713292306 9.14587
48.92450572200832 9.17928
48.94896668628025 9.159410000000001
48.97343002754588 9.128810000000001
48.99808689542115 9.11767
49.02255501470614 9.08356
49.04702551642794 9.08358
49.0714984023988 9.04233
49.096164896893235 9.045160000000001
49.120642575466796 9.02262
49.145122643748394 9.01432
49.16960510355558 9.01557
49.19428125404938 8.988339999999999
49.2187685210852 8.97401
49.243258185121555 8.97902
49.26794160167084 8.93625
49.2924360839405 8.91664
49.31693296869764 8.869110000000001
49.34143225776915 8.866719999999999
49.36612538195438 8.85683
49.39062950396021 8.852260000000001
49.41513603578346 8.7891
49.4396449792564 8.793569999999999
49.46434784069503 8.78876
49.488861631846454 8.76261
49.513377840166804 8.73433
49.537896467493745 8.714830000000001
49.56260909589029 8.702
49.587132585683285 8.7272
49.611658500018365 8.70932
49.636186840738596 8.66088
49.66090926588511 8.68223
49.685442483902584 8.64905
49.70997813385706 8.602910000000001
49.734516217597076 8.60723
49.75924846937352 8.58886
49.7837914452858 8.56678
49.80833686055187 8.556569999999999
49.83288471702571 8.53089
49.85762682540054 8.55003
49.882179588965734 8.51516
49.9067347993235 8.46369
49.93129245833333 8.4955
49.95604445336378 8.45606
49.98060703442832 8.415510000000001
50.005172069746266 8.40851
50.02993150438364 8.42721
50.05450147301533 8.41784
50.07907390151433 8.38285
50.10364879174981 8.35705
50.12841816587289 8.36696
50.1529980044635 8.38015
50.17758031042124 8.3107
50.20216508562089 8.29157
50.22694442953363 8.279689999999999
50.25153416817468 8.25607
50.27612638170508 8.24121
50.300721072005196 8.231160000000001
50.325510416102105 8.1889
50.350110084975064 8.16282
50.37471223628208 8.18127
50.39931687190919 8.15284
50.424116246675766 8.17896
50.44872587605249 8.15661
50.47333799543065 8.12629
50.49795260670191 8.11172
50.52276204271512 8.09191
50.54738166295838 8.08071
50.57200378079314 8.02824
50.596628398116835 8.0236
50.62144792604559 8.03629
50.646077567609396 8.02324
50.670709714377715 8.03458
50.69553683636198 8.00427
50.72017401885922 7.97725
50.7448137122895 7.96948
50.76945591856022 7.96278
50.79429318636823 7.946560000000001
50.818940443716784 7.94763
50.84359021965163 7.881989999999999
50.868242516085964 7.92157
50.893089960641895 7.87458
50.917747323549435 7.825419999999999
50.94240721271973 7.80421
50.96706963007175 7.8193600000000005
50.99192728239342 7.80208
51.01659478166073 7.81785
51.04126481489051 7.79467
51.06593738400761 7.767919999999999
51.090805275207074 7.767289999999999
51.11548294172845 7.7510699999999995
51.14016314993547 7.711
51.164845901758845 7.6516399999999996
51.18972406304274 7.67674
51.21441192780656 7.6811300000000005
51.23910234200271 7.6821399999999995
51.2637953075678 7.634360000000001
51.288683770237945 7.626519999999999
51.31338186432707 7.584060000000001
51.33808251561888 7.56491
51.362978729967345 7.579739999999999
51.387684521509755 7.56573
51.41239287610203 7.5239899999999995
51.437103795691165 7.52798
51.46201036644977 7.50908
51.486726441956634 7.47232
51.51144508832545 7.4575
51.536166307509156 7.487439999999999
51.56108326624387 7.452089999999999
51.58580965706056 7.431589999999999
51.61053862657523 7.4302
51.635270176746864 7.38311
51.66019755512065 7.37742
51.68493429268881 7.40234
51.70967361681515 7.36884
51.73441552946465 7.37909
51.759353359237934 7.33098
51.7841004750961 7.30967
51.80885018539685 7.2845699999999995
51.833602492111254 7.266789999999999
51.8585508051424 7.250939999999999
51.883308330926425 7.26543
51.90806845906181 7.21236
51.932831191525715 7.22248
51.95779001977161 7.201910000000001
51.98255798721516 7.16419
52.00732856494335 7.1587
52.03229530577543 7.168480000000001
52.057071130455945 7.1496699999999995
52.081849571391054 7.15262
52.106630630568695 7.16441
52.13160794279417 7.1269100000000005
52.15639426492067 7.1157699999999995
52.18118321127822 7.09555
52.205974783860896 7.03424
52.23096269971011 7.034660000000001
52.255759551287994 7.0381
52.280559035098186 6.97122
52.30536115314103 6.9807
52.33035970494467 6.976310000000001
52.35516711807904 6.978560000000001
52.37997717147198 6.94695
52.40478986713005 6.9359399999999996
52.42979908731974 6.9130199999999995
52.454617094216 6.9158
52.47943774942214 6.89681
52.50426105495102 6.891430000000001
52.529280976059844 6.87662
52.554109609024096 6.86545
52.57894089837482 6.86746
52.60377484613117 6.803030000000001
52.62880550079408 6.8194
52.65364479223379 6.78782
52.67848674816189 6.793769999999999
52.70352547971946 6.753369999999999
52.72837279155837 6.74666
52.753222773982785 6.74118
52.778075429022984 6.700810000000001
52.80312495150885 6.733810000000001
52.827982978797436 6.70017
52.85284368481815 6.69959
52.87770707160767 6.67528
52.90276741793998 6.66833
52.92763619336701 6.64191
52.952507655698504 6.6521
52.977381806977576 6.623069999999999
53.00245301017842 6.614389999999999
53.02733256653592 6.6112899999999994
53.052214817996074 6.625489999999999
53.077099766608484 6.565339999999999
53.102181859804446 6.56747
53.127072229988265 6.4968900000000005
53.15196530349892 6.5122800000000005
53.17686108239249 6.50547
53.20195409881522 6.48766
53.22685531582556 6.49925
53.25175924441303 6.4714599999999995
53.27666588664027 6.449269999999999
53.30176985962693 6.42036
53.3266819565689 6.432230000000001
53.35159677336455 6.35574
53.376514312083096 6.37656
53.40162927507703 6.43321
53.42655228516116 6.38376
53.45147802340193 6.342980000000001
53.47660125628886 6.33059
53.50153247842639 6.3002400000000005
53.52646643496923 6.29809
53.55140312799818 6.31511
53.576537409691696 6.29274
53.60147960336152 6.26773
53.626424539786164 6.24591
53.65137222105307 6.22569
53.67651758529126 6.2246
53.70147078399681 6.20979
53.72642673383343 6.23402
53.75138543689533 6.201219999999999
53.776541917524526 6.1996
53.801506154876755 6.18452
53.826473151763246 6.151619999999999
53.851442910284916 6.06616
53.87661054126026 6.104509999999999
53.9015858509782 6.118530000000001
53.92656392866066 6.09431
53.95154477641532 6.09576
53.976723591801296 6.0951900000000006
54.00171000771266 6.04707
54.02669920004598 6.01957
54.051691170915745 6.00561
54.076881204886796 5.98634
54.101878760928514 5.97832
54.12687910187696 5.9675
54.152077577768296 5.9556
54.1770835166946 5.907719999999999
54.20209224691339 5.87691
54.22710377055121 5.8823099999999995
54.25231352511594 5.8739099999999995
54.27733066384342 5.85036
54.30235060239643 5.82235
54.32737334290836 5.81527
54.35259441062629 5.77948
54.377622783395324 5.76196
54.40265396455061 5.78
54.42768795623251 5.7705400000000004
54.45292037169559 5.69104
54.477960012857906 5.6885699999999995
54.50300247099511 5.65164
54.52804774825457 5.64168
54.55329154616743 5.61388
54.57834249018678 5.60749
54.6033962597977 5.586040000000001
54.6284528571545 5.59187
54.653708072335164 5.53736
54.67877035378786 5.5294
54.70383546947698 5.50195
54.72890342156389 5.43982
54.7541700889442 5.4449
54.77924374251975 5.44899
54.8043202390049 5.42237
54.82959552413022 5.42531
54.8546777351945 5.39101
54.87976279569621 5.33524
54.90485070780914 5.370080000000001
54.930137506558005 5.324380000000001
54.95523115074295 5.333880000000001
54.98032765308844 5.29938
55.005427015775496 5.23984
55.03072536339621 5.2423
55.05583047570572 5.203469999999999
55.080938454927676 5.19259
55.10604930325027 5.21811
55.131359235107396 5.179130000000001
55.15647585066083 5.14003
55.181595341907496 5.09921
55.20671771104285 5.08681
55.232039262617704 5.0551
55.25716741665048 5.0610800000000005
55.28229845518636 5.01921
55.30743238042802 4.97791
55.33276558731939 4.94002
55.357905315183636 4.94731
55.383047936390035 4.8718
55.40819345314859 4.86934
55.433538351073295 4.83349
55.458689688238415 4.843369999999999
55.483843927614096 4.8155
55.509197623043605 4.77841
55.53435769621134 4.75732
55.55952067826466 4.72577
55.5846865714265 4.72691
55.61005202069737 4.70958
55.63522376553902 4.69107
55.66039842818645 4.6809400000000005
55.68557601087004 4.66004
55.7109532500271 4.6033
55.73613670233794 4.644830000000001
