TT I
1.2716486653135266 7.64838
1.2939594142134223 7.36717
1.3162702121660406 7.0216
1.3385810600174564 6.832999999999999
1.3608919586137629 7.097569999999999
1.383202908801069 6.12922
1.405513911425503 6.1874199999999995
1.4278249673332093 6.49063
1.4501343378461518 6.23154
1.4724455028545926 5.64487
1.4947567236847858 5.77768
1.517068001182951 6.16774
1.5393793361953272 5.70524
1.5616907295681737 5.772880000000001
1.5840021821477681 5.4837
1.60631369478041 5.05424
1.6286252683124185 5.6502
1.6509369035901333 5.08085
1.6732468618895553 5.14913
1.695558623192809 4.78127
1.7178704487808514 5.12456
1.7401823395001077 4.84715
1.7625012545597203 4.932259999999999
1.7848028405262486 5.40245
1.8071218901122095 4.71657
1.8294236121921872 4.29631
1.8517427996910911 4.82366
1.8740620574440425 5.1025599999999995
1.8963639900671978 5.219609999999999
1.9186833908139995 4.78345
1.9409854680117449 4.448980000000001
1.9633050151394713 4.46968
1.9856246367570705 4.86676
2.0079269371922672 4.40408
2.03024671027244 4.64164
2.0525491637446027 4.08047
2.074869091674931 4.36247
2.097171701569106 4.7947
2.1194917877373847 5.61049
2.141811954326636 5.32599
2.164114805233074 5.050330000000001
2.186435135143035 5.18485
2.208738150935709 8.775889999999999
2.231058647554722 14.8414
2.2533792288321184 11.5009
2.275682498336085 7.52613
2.298003251406138 5.294969999999999
2.3203066942619714 4.98994
2.3426276225136022 5.39891
2.3649486396617507 5.47175
2.387252348930071 5.91242
2.4095735463442893 5.46534
2.4318774374315884 6.19019
2.4541988185014043 6.925210000000001
2.476502894794693 7.29177
2.498824462909887 6.576789999999999
2.521146125856138 6.96318
2.5434504863470337 7.40315
2.5657723414244717 7.34802
2.588076895590662 7.67283
2.610398946189713 8.547189999999999
2.6327210958598384 8.06022
2.6550259469304716 7.90706
2.6773482972090137 8.230139999999999
2.6996533504259 8.22898
2.7219759047039602 8.496830000000001
2.744298562293959 8.31283
2.7666039251246595 8.20507
2.7889267918020164 8.18169
2.8112323652516555 8.36365
2.833555444408179 8.59742
2.8558786311183852 7.86492
2.8781845268938557 8.75833
2.9005079311721484 8.86474
2.9228140460410397 9.08446
2.9451376712799635 9.3112
2.967444008632326 9.56212
2.9897678582247247 10.3881
3.0120918213106695 10.3964
3.0343984987899373 11.1104
3.0567226913198637 11.2808
3.079029599759726 11.8315
3.101354025127254 12.5597
3.123678568232338 12.6469
3.145985829517914 13.1919
3.16831061055229 13.9357
3.1906181112775593 14.7401
3.212943133635653 14.8072
3.2352682779763207 14.8633
3.2575761442691227 15.4263
3.2799015350264273 15.3361
3.302209649240067 15.6257
3.3245352898092655 16.494
3.3468436553365257 17.0987
3.369169549113219 17.6985
3.3914955708171384 18.3633
3.413804319727358 18.9227
3.4361305997334863 18.4979
3.4584396084414553 19.4795
3.4807661501462652 19.9598
3.503092824025881 20.4148
3.5254022288463154 20.4663
3.5477291695206588 21.3832
3.5700388426251948 21.9807
3.5923660534916446 23.0093
3.6146934007816114 30.0707
3.637003482731501 51.2342
3.6593311053109985 54.4245
3.681641464033634 37.2833
3.7039693653009733 26.9279
3.726297407241705 25.4968
3.7486081875460804 25.1622
3.7709365132734978 25.9823
3.793247578841633 26.1378
3.8155761917550093 26.0948
3.8378875459837216 26.4501
3.8602164494827234 27.2499
3.882545499606844 27.9612
3.9048572932539183 29.065
3.9271866390645718 29.4145
3.9494987298666713 29.3133
3.971828374764527 30.019000000000002
3.9941581705403255 30.7457
4.016470713506008 31.0979
4.038800813471445 31.1062
4.061113662089144 31.6917
4.0834440696459176 32.8594
4.105774632334751 33.4304
4.128087945865126 34.1401
4.150418821249301 34.7225
4.172732448931298 35.6807
4.195063640413578 37.2365
4.2173775856475215 39.286
4.239709096631102 54.6476
4.262040768704612 124.512
4.284355196706267 156.22899999999998
4.306687193387355 109.285
4.329001947444346 58.1177
4.35133427213731 44.2084
4.373666762177566 42.7377
4.395982011761091 43.1395
4.418314834921175 44.3174
4.44063041906622 48.263000000000005
4.4629635787515625 53.9046
4.4852969080429785 54.3764
4.5076130004776225 52.9079
4.529946671403969 56.2332
4.552263106909177 59.8858
4.574597122877047 56.7879
4.596931312711224 53.6906
4.619248269273446 53.6109
4.6415828092605835 54.0671
4.663900117405352 55.2603
4.686235010953232 56.5141
4.708552674085913 57.7886
4.730887924602802 59.2578
4.753223354952695 61.3001
4.775541557023902 64.9298
4.797877349456786 67.8426
4.820195915032126 68.3556
4.842532072957498 67.9952
4.864868414979744 70.8434
4.88718753227192 74.5979
4.909524244902505 76.41
4.931843734218147 76.4098
4.954180820867835 78.0116
4.976518095879839 80.6856
4.998838149695359 83.7936
5.021175803844231 87.0119
5.043496238205739 90.353
5.065834274903528 94.4535
5.088172504230693 98.9921
5.1104935158799565 105.70299999999999
5.132832132875765 124.537
5.155153533596801 156.305
5.1774925416746225 197.171
5.199814334878411 399.033
5.2221537374521505 1026.19
5.244493338631803 2858.82
5.266815727034316 7968.6
5.289155727832427 12321.9
5.311478517248165 8132.73
5.333818921080011 2467.25
5.356159527788849 477.911
5.3784829252032536 189.585
5.400823940070432 150.809
5.423147747031976 129.404
5.445489173474152 119.97200000000001
5.467830807066149 118.235
5.490155234831516 117.867
5.512497285125229 111.163
5.534822130975162 105.307
5.557164601388673 101.64399999999999
5.579489868738879 98.734
5.601832762690846 97.6029
5.6241758697774475 96.6522
5.646501775867269 95.6723
5.668845311622074 94.2781
5.691171647754637 93.62700000000001
5.713515615597765 92.4758
5.735859800852677 92.5343
5.758186788542988 93.8239
5.780531411018185 97.3436
5.802858837297399 97.64399999999999
5.825203900414495 97.4473
5.8475491852224 100.45700000000001
5.869877275883075 99.6964
5.892223006467101 96.3816
5.914551544266608 94.7874
5.936897724049891 97.3917
5.959244129804903 104.184
5.981573344815301 131.588
6.0039202049061 240.215
6.026249875609095 479.32800000000003
6.04859719346037 971.095
6.070927323278297 2285.71
6.093275102315365 4567.84
6.115623113320588 5172.31
6.137953938319995 2996.55
6.160302415650845 853.64
6.182633708324452 203.30599999999998
6.2049826554078376 106.34
6.227331838745022 89.448
6.249663839443684 82.9397
6.27201349767565 79.7107
6.294345974611799 81.3224
6.316696111167083 85.3738
6.339046488263839 81.7054
6.361379686074702 74.2693
6.383730546639482 70.0624
6.406064229255215 69.4006
6.428415576718203 70.6301
6.450749747566656 69.2876
6.47310158535871 66.7582
6.495453669698332 65.064
6.517788579421056 64.1799
6.540141159237969 62.7107
6.562476565766648 62.3759
6.5848296444934045 62.2608
6.607182974060425 62.3585
6.6295191323281015 62.5351
6.651872965955752 63.3326
6.6742096296068985 74.256
6.6965639707294615 92.6493
6.71891856698715 91.2855
6.741255995248479 73.1406
6.763611104154477 61.9651
6.785949046381137 58.9871
6.808304671371482 58.8525
6.8306605557940046 60.4011
6.852999275508618 59.428999999999995
6.875355681171544 57.3734
6.897694923437771 56.4892
6.92005185377892 55.7518
6.9423916220322655 55.7749
6.964749080490181 54.9208
6.987106804399774 55.0873
7.009447368180821 55.8727
7.031805625367033 55.4167
7.054146723727803 54.992
7.076505517631004 54.5167
7.098864581288365 54.5635
7.121206488070854 54.7316
7.143566093607822 54.5176
7.165908543567245 55.7609
7.188268694426048 56.0142
7.2106291193438095 55.2328
7.232972390625943 54.9017
7.255333366030969 60.9256
7.277677189091925 83.2182
7.300038718428332 103.367
7.322400526130865 93.5632
7.344745183422596 68.1682
7.367107550224791 56.7368
7.389452767901992 54.674
7.411815697249891 54.1276
7.434161478756298 53.4773
7.456524974096713 53.151
7.478888753837185 53.1613
7.501235387657368 53.8142
7.523599738562711 53.9657
7.545946944825532 54.192
7.568311870344528 54.4995
7.5906770845765665 54.4152
7.613025156078678 55.0545
7.635390950099687 56.2692
7.657739602662809 55.8964
7.680105979923558 56.0519
7.702472650212829 56.7324
7.724822180948224 56.2838
7.747189439655568 55.9012
7.769539560075357 55.8248
7.791907410653562 55.8986
7.81425812420825 56.0484
7.836626570110925 56.1208
7.858995315087906 57.1364
7.881346924933401 57.5066
7.903716270417482 57.8795
7.926068482028405 58.0719
7.948438431475253 58.6905
7.9708086843180235 59.2548
7.993161805171116 60.1331
8.015532667162402 60.7521
8.037886398416653 61.8305
8.060257873014221 62.2137
8.082629655331942 62.7702
8.104984308787587 63.7826
8.127356708900503 66.3
8.149711981398308 70.6053
8.172085002766314 72.7328
8.194458336181368 70.3522
8.216814543847752 68.8189
8.23918850371002 68.9556
8.26154533906492 69.8133
8.283919928836452 71.4588
8.306277395339652 72.3593
8.328652618483376 73.8501
8.351028159736202 75.9517
8.373386579575245 77.8862
8.395762759396959 79.5951
8.418121819038275 83.5934
8.440498640894003 91.5143
8.462875785192262 102.927
8.485235811156207 126.865
8.507613602688501 177.815
8.529974277114228 259.953
8.552352719347912 385.046
8.574731488360351 665.221
8.59709314210385 1220.6
8.619472567021075 1936.03
8.64183487789147 2163.26
8.664214962183097 1709.37
8.686577933647762 836.7080000000001
8.708958680784317 310.659
8.731339760774953 145.75
8.753703729764451 106.24
8.77608547780821 96.8958
8.798450116065078 93.9867
8.820832535634787 91.8936
8.843215292401656 91.7783
8.865580941199045 91.9201
8.887964374703538 91.3619
8.910330701447199 91.4705
8.932714815164482 90.9998
8.955099270424924 89.0342
8.977466620733543 86.5777
8.999851761421976 84.9837
9.022219798361645 83.8755
9.04460562795561 83.6876
9.066991803441677 83.4821
9.089360876979615 83.5554
9.111747746589993 83.6045
9.13411751544971 82.5642
9.156505082664324 81.738
9.178875550323522 81.7279
9.20126381862328 81.759
9.223652438908596 81.9527
9.246023961427412 82.1516
9.26841328802173 81.8105
9.290785518039224 82.2309
9.313175554425882 84.1316
9.335565947154315 85.9381
9.357939245086508 85.7325
9.380330352834827 85.3657
9.40270436697103 85.5071
9.425096193225055 84.9001
9.447488380180165 84.8568
9.469863475295412 84.3628
9.492256385987508 84.3717
9.514632206018318 85.0904
9.537025843935714 85.6312
9.559402392368193 86.5856
9.581796761000229 88.7402
9.604191496441521 91.0381
9.626569144158516 94.2048
9.648964615551032 95.5849
9.671343000390081 95.3883
9.693739211225699 93.6239
9.716135793237463 92.1953
9.738515290448102 92.8039
9.760912617143402 94.7099
9.783292860202891 96.6863
9.805690935076182 98.9118
9.828089385495742 99.5358
9.850470754023561 100.93700000000001
9.872869957865444 104.945
9.89525208097539 112.094
9.917652041736662 119.588
9.940052382417589 127.40100000000001
9.962435644102392 150.827
9.984836746950979 190.362
10.007220771957746 246.87400000000002
10.029622640473708 345.673
10.052007432299963 523.774
10.074410069984072 839.9639999999999
10.096813093716005 1315.96
10.119199042482517 1813.84
10.141602840636468 1973.92
10.163989564971628 1497.05
10.186394141051062 807.5889999999999
10.208799107559706 347.14300000000003
10.231187001965623 168.82299999999998
10.253592751657669 119.941
10.275981430388155 110.439
10.298387966769793 108.755
10.320794897965431 108.625
10.343184759907361 107.993
10.36559248305461 105.13
10.387983138083852 104.89
10.410391656691655 110.869
10.432800574501677 121.709
10.455192425893369 136.938
10.47760214443012 161.871
10.499994797678786 208.854
10.522405320453982 295.014
10.54479877906917 428.08099999999996
10.567210109595656 538.2769999999999
10.5896218454736 576.927
10.612016518879773 483.64099999999996
10.634429067781074 316.83
10.656824555333241 181.94799999999998
10.679237920773568 114.965
10.701651695961992 93.604
10.724048411481384 88.0149
10.746463008485165 85.5567
10.768860546937125 84.1275
10.791275969274796 82.4896
10.81369180576079 81.6652
10.836090585366925 80.2459
10.858507252467449 79.1792
10.88090686379991 78.1688
10.903324365036394 78.1175
10.925724811614439 77.4704
10.948143150509463 78.187
10.970561909719066 77.7687
10.992963615930844 76.509
11.015383218085756 74.7161
11.037785768347074 73.2736
11.06020621697282 72.2918
11.082627090322113 71.6397
11.105030913430326 70.9574
11.12745263854165 70.8444
11.149857314510728 71.6544
11.172279894912576 74.0933
11.194702904450653 73.9821
11.217108866490921 72.1057
11.239532736615194 69.8972
11.26193956033512 69.04
11.284364294577085 68.1424
11.306789462371718 66.8871
11.329197585398376 66.7902
11.351623622610898 66.6433
11.37403261614354 65.6001
11.396459526308487 65.6924
11.418869393879497 64.8987
11.441297180532617 64.7324
11.463725406927658 64.4211
11.486136592353875 64.1023
11.508565700543707 64.0617
11.530977768845315 65.1047
11.553407762368774 65.2018
11.575838200059769 64.4197
11.598251599479612 63.6262
11.620682927815501 62.8873
11.64309721895548 62.7762
11.665529441478206 62.6215
11.687962112597958 62.1937
11.710377748130886 62.2972
11.732811318753434 62.5373
11.755227854859067 62.2601
11.777662328529495 62.3253
11.800079768750786 62.2797
11.822515149015453 62.353
11.844950984084935 62.595
11.867369787303163 62.0038
11.889806534289491 62.0613
11.912226250487029 62.3793
11.934663912939751 62.3908
11.9571020346363 62.5032
11.979523127133968 62.8919
12.001962169624331 64.2471
12.024384183972964 65.6266
12.046824150809913 68.457
12.069264581333726 73.0732
12.091687985297767 78.3232
12.11412934550045 87.4518
12.136553680195208 103.265
12.158995973632788 128.566
12.181438735204349 159.32399999999998
12.20386447284199 192.86
12.226308172985636 217.165
12.24873485024193 202.32
12.271179492516982 164.195
12.293607112949127 117.006
12.316052700916226 86.8877
12.338498763250042 72.1416
12.360927805303868 66.2061
12.383374818673879 64.6226
12.405804812803074 63.7772
12.428252780773262 63.5615
12.45070122756722 63.6231
12.473132656675375 63.5322
12.49558206341869 64.0825
12.518014453510101 64.2961
12.540464823770117 64.6878
12.562915677315177 64.4883
12.58534951575545 64.9392
12.607801338171472 65.6292
12.630236146511358 67.8748
12.652688941369085 70.3168
12.675124723177234 70.8355
12.697578494048786 69.2783
12.720032754458185 67.5816
12.742470003354093 67.1018
12.764925245138771 67.08800000000001
12.787363476431278 67.2517
12.809819703166806 67.9156
12.83227642391173 68.6335
12.854716135692716 69.3407
12.877173846755147 70.4187
12.899614549869717 70.8954
12.9220732548287 71.4373
12.94453245827299 72.3906
12.966974655289818 73.5083
12.989434858002571 74.1415
13.011878055298721 74.4943
13.034339260862497 75.5269
13.056800969391883 76.9176
13.079245674017244 80.0371
13.101708390774869 83.7796
13.12415410463411 92.087
13.146617833206086 101.54299999999999
13.169064559883248 111.32799999999999
13.191529303857127 126.15799999999999
13.213994557076367 149.844
13.236442809902437 189.808
13.258909083908291 250.718
13.28135835851934 317.501
13.30382565690295 391.45099999999996
13.326293469022952 430.65
13.348744283242008 413.485
13.371213125129904 332.968
13.39366497011003 234.673
13.416134845360597 156.518
13.438605238843131 117.49600000000001
13.46105863690397 105.428
13.483530069144786 105.82600000000001
13.505984506951902 110.389
13.528456981549432 120.32
13.550929978879088 135.161
13.573385983253365 161.377
13.595860028340867 202.335
13.618317081455832 259.05
13.64079217790333 318.04
13.663250283359057 367.62300000000005
13.685726434770173 374.67800000000005
13.708203115221277 326.67
13.730662806148091 243.748
13.75314054697177 167.232
13.775601299246777 116.90299999999999
13.798080104050406 92.7398
13.820559442405358 83.8777
13.843021793671388 80.8883
13.865502201420897 79.318
13.887965623051947 78.8702
13.910447103807167 77.6699
13.932929122629764 76.6299
13.955394156785959 76.2065
13.977877254034569 75.2414
14.000343367582113 74.4677
14.022827546871707 73.6808
14.045294743423524 73.2281
14.06778000837062 72.4921
14.090265817715476 72.1593
14.112734645763819 71.7549
14.13522154619454 71.3498
14.157691466286913 71.4636
14.180179461423874 71.2919
14.202668005486178 70.6704
14.22513957064374 70.0298
14.247629214846473 69.6312
14.270101881097517 69.7616
14.29259262906496 69.3345
14.315083930490205 69.7322
14.337558255389705 69.8075
14.360050666019726 69.5774
14.382526101071944 69.1199
14.405019624534942 68.6833
14.427513705993134 68.3815
14.449990813291825 68.3192
14.47248601302899 68.1203
14.49496423954951 68.1523
14.517460561197822 68.0376
14.539939910570322 68.0869
14.562437357763558 68.4569
14.58493536931253 69.1407
14.607416409993311 69.5323
14.62991555254159 69.9643
14.652397725157423 70.0924
14.674898002342799 70.0826
14.697398848433282 70.1591
14.719882725991326 71.4125
14.74238471217934 73.398
14.764869730765593 76.6225
14.787372860692983 79.1512
14.809876564079925 83.1442
14.83236330125751 88.6816
14.854868153850365 97.6656
14.877356041159485 112.195
14.899862046604186 132.579
14.922351087688757 160.44
14.944858249632887 190.91
14.967365991421232 219.22400000000002
14.989856770231246 227.403
15.012365673994204 218.72799999999998
15.03485761569738 186.054
15.05736768508665 138.656
15.07987833888692 106.31299999999999
15.102372032001655 85.2436
15.124883856909658 74.4142
15.14737872204565 71.0583
15.169891721717274 69.7033
15.192405310371893 69.6146
15.214901940621196 69.5915
15.237416709527137 68.9501
15.259914520936249 68.8883
15.282430473753607 68.2708
15.304947020131227 67.5424
15.327446610371178 66.9726
15.349964346154254 66.3275
15.372465126703139 66.3361
15.394984055556009 65.9685
15.417486030076159 65.7245
15.44000615566487 65.5976
15.462526881230803 65.3943
15.485030653812652 65.4066
15.507552581617434 65.2919
15.530057557334603 65.374
15.55258069104857 65.3414
15.575104429329837 65.5973
15.597611216864632 65.2349
15.620136166564563 66.218
15.6426441664095 67.8705
15.665170331202765 69.8364
15.687697105158826 72.7119
15.710206930593545 75.6416
15.732734925158933 79.434
15.755245972089478 85.8724
15.77777519094324 95.32600000000001
15.800287463046663 110.02600000000001
15.822817909869592 130.775
15.84534897229804 153.374
15.867863089299354 179.49200000000002
15.890395385222186 195.28
15.912910736597423 196.609
15.935444269699861 178.47099999999998
15.957978423016485 145.40200000000002
15.980495633101265 112.195
16.003031029129367 87.9089
16.02554948280019 72.1306
16.048086125229432 65.4696
16.070623392487107 63.3537
16.09314371869582 62.3026
16.11568223789321 61.4731
16.13820381691126 61.0213
16.160743591742527 60.1732
16.183283996022084 59.4896
16.205807461423195 58.7689
16.228349126881973 58.3101
16.25087385432698 58.2767
16.27341678466365 57.61
16.29594277784926 57.3719
16.31848697676433 57.288000000000004
16.341031811604868 57.0815
16.36355971058487 57.2304
16.3861058195587 56.9232
16.40863499352978 56.2816
16.431182380342005 55.9101
16.453730407713202 55.4685
16.476261501364792 55.2816
16.498810812136167 54.8748
16.52134319004079 54.986000000000004
16.54389378792203 54.922
16.566445031001553 54.7723
16.588979342490088 54.7212
16.61153187824822 54.3919
16.634067483263312 54.5455
16.656621315414416 54.4742
16.679175797408888 54.0435
16.701713349928728 53.9344
16.72426913389191 54.159
16.74680798922351 54.2002
16.76936507887444 54.2521
16.791905240734874 54.1181
16.814463639794468 54.1056
16.837022695210294 54.3569
16.859564824093756 54.4751
16.882125194503903 54.6033
16.904668639217885 55.1255
16.927230328348003 55.1891
16.949792678493612 55.3697
16.972338104193863 55.0295
16.994901778652235 54.9133
17.017448529496576 55.2887
17.040013531998152 55.6583
17.06257920018044 56.1376
17.0851279459922 56.6768
17.107694947817667 57.5849
17.130245028099072 58.3552
17.15281336730298 59.4774
17.17536478578733 61.4032
17.19793446610687 63.6971
17.220504818648422 66.9024
17.243058251703697 70.5181
17.265629950971032 75.3249
17.288184731571736 80.2687
17.310757781306908 83.2712
17.33333150794385 83.3722
17.355888317140174 80.4767
17.37846339986244 74.8126
17.401021565958885 68.3006
17.42359800851343 63.5259
17.44617513265564 60.4742
17.468735341390783 59.394
17.491261035594565 58.8347
17.51396340099364 58.4744
17.536490463869136 58.6412
17.559018209820174 58.5768
17.58154663977963 58.8086
17.604251766089718 58.9629
17.626781572227713 59.2398
17.64931206518155 59.3082
17.671843245885103 59.7132
17.69455114821572 59.8087
17.717083712612634 60.2709
17.739616967569667 60.477
17.762150914021706 60.8493
17.78486160749854 61.1363
17.807396945166804 62.1182
17.829932977143503 63.313
17.85246970436452 64.8477
17.875183204129467 66.305
17.897721330097664 67.90899999999999
17.920260154126645 70.0884
17.942799677153296 73.1904
17.9655159983646 77.1581
17.988056927677544 83.0063
18.010598558807683 91.3112
18.033140892692916 101.81299999999999
18.05586005052525 113.696
18.07840379824407 125.65700000000001
18.10094825154059 135.96
18.12366954819864 141.54399999999998
18.146215420998306 137.722
18.16876200220057 126.662
18.191309292745153 111.49700000000001
18.214033452627167 98.5688
18.236582170236648 88.5719
18.259131600016456 84.8997
18.281681742907335 86.1757
18.304408781233683 91.2378
18.32696035875955 97.2396
18.349512652227624 101.912
18.372065662579683 105.803
18.394795594587553 104.779
18.41735004715306 100.00200000000001
18.43990521943684 91.7127
18.46246111238171 82.3434
18.485193953325208 73.9021
18.507751296070428 67.7795
18.530309362314178 64.6224
18.552868153000343 62.7348
18.57560391815056 61.2741
18.59816416623245 61.0352
18.620725141597372 60.681000000000004
18.643286845190268 60.0845
18.666025549835414 59.77
18.688588718427933 59.2235
18.711152618092243 59.2035
18.73389353884365 58.7726
18.75645890921984 58.3433
18.77902501351406 58.1048
18.801591852673102 58.0525
18.824335739722738 57.5017
18.846904057212626 57.4599
18.8694731124168 57.0987
18.89204290628315 57.0536
18.914789774966803 56.9684
18.937361054791623 56.8362
18.959933076131318 56.6018
18.982505839934877 56.5031
19.00525570560582 56.5634
19.027829963004184 56.4171
19.05040496572238 56.4399
19.072980714710468 56.544
19.095733592739563 56.6846
19.11831084296757 56.7239
19.140888842324735 57.0628
19.16346759176222 57.3412
19.18622349753803 57.699
19.208803755869358 58.6838
19.231384767143577 60.1057
19.253966532312948 61.9076
19.276725481241822 63.9865
19.29930876296784 66.6111
19.3218928014549 69.6593
19.34465404436217 72.4096
19.36723960516257 75.0086
19.389825925592426 75.5203
19.412413006605938 73.7362
19.43517731967805 69.71600000000001
19.457765930683355 65.2708
19.48035530514408 60.9557
19.50294544401556 57.607
19.525712842708348 55.4816
19.54830451925909 54.2636
19.570896963095727 53.5904
19.593490175174704 53.2494
19.616260674962184 53.244
19.638855432416964 53.1791
19.661450960992624 53.3885
19.68404726164677 53.1039
19.706820878021247 53.0173
19.729418731756834 53.1088
19.752017360452857 52.7362
19.77461676506804 53.0533
19.797393513540218 53.1719
19.819994478951667 53.4055
19.84259622316767 53.8392
19.8651987471481 54.1056
19.887978643247177 54.3864
19.91058273574792 55.0313
19.933187610901943 55.9547
19.955969879466828 57.2267
19.97857632894404 58.56399999999999
20.00118356396599 60.6388
20.023791585494575 62.8878
20.046577028914875 65.5841
20.069186632506966 67.8567
20.091797025500632 69.5257
20.114408208858933 69.735
20.137196842715273 68.9103
20.159809615886765 66.9385
20.18242318232135 64.1577
20.20503754298326 62.2139
20.227829382875154 61.4683
20.250445341109344 61.7036
20.27306209647285 62.9517
20.29567964993108 64.2204
20.31847471147704 64.9221
20.34109387027612 65.3299
20.363713830075454 64.569
20.386334591841646 62.7041
20.409132890679302 59.7635
20.431755265564437 56.5511
20.454378445325528 54.0278
20.477002430930366 52.367
20.499803982716553 51.4299
20.522429589228004 50.5685
20.54505600449589 50.2634
20.567683229489194 50.2417
20.590488049900088 49.861000000000004
20.61311690359731 49.6258
20.63574656993626 49.4955
20.658553853717297 48.9487
20.681185154618298 49.2434
20.703817271080066 49.0034
20.72645020407368 48.7176
20.749260783967177 48.6059
20.771895359337133 48.4221
20.794530754161617 48.4397
20.817166969412938 48.4791
20.83998086114876 48.3894
20.86261872660049 48.2451
20.885257415405402 48.3103
20.90789692853701 48.2497
20.930714147864748 48.1424
20.953355319030678 48.1214
20.97599731745334 48.2615
20.99864014410749 47.982
21.021460706796564 47.9723
21.044105199328826 48.177
21.06675052302631 48.5612
21.089396678865015 48.7184
21.112220600704806 48.9736
21.134868430275347 49.3532
21.15751709492456 49.6347
21.180166595629693 49.9854
21.202993892429635 50.4567
21.22564507473034 50.9338
21.24829709602816 51.1699
21.27112693608965 51.077
21.293780644891275 50.8023
21.316435195634053 50.0049
21.339090589297417 49.2232
21.361923832041875 48.8209
21.384580921090404 48.2077
21.407238856007325 47.9292
21.429897637773326 48.0308
21.45273429906592 48.0
21.475394784108598 47.981
21.498056118951983 48.0004
21.520718304578022 48.1301
21.543558400304388 48.3005
21.566222297108816 48.4764
21.58888704765135 48.7397
21.61155265291521 48.8258
21.63439619898156 49.2286
21.657063523335786 49.542
21.67973170537063 49.8483
21.7024007460706 50.4271
21.72524775840385 51.2186
21.747918526116475 52.4603
21.770590155457388 53.6282
21.79326264741238 55.4844
21.816113141960237 57.253
21.838787368860547 58.9673
21.861462461341976 60.8795
21.884315579735777 62.8519
21.90699241312273 63.8077
21.92967011506078 64.0393
21.95234868653799 63.2781
21.9752053151131 61.773
21.997885635446785 59.5591
22.020566828293532 57.8288
22.04324889464272 56.648
22.066109049404666 55.8027
22.088792872571794 55.6097
22.111477572219204 55.6898
22.1341631493376 55.6496
22.157026846313123 55.158
22.179714188221507 54.2216
22.202402410582668 53.2205
22.22509151438863 51.8238
22.24795876962584 50.4913
22.270649646204486 49.7631
22.293341407213727 49.1726
22.316034053646906 48.6763
22.338904883215342 48.45
22.36159931041458 48.4104
22.38429462602756 48.3206
22.40699083104897 48.1608
22.429865251039757 48.1691
22.452563244831367 48.3155
22.47526213102522 48.0616
22.49813925616515 48.1794
22.520839937143307 48.1612
22.543541513520587 48.2233
22.56624398629403 48.0119
22.589124730075895 47.9468
22.611829005656723 48.3554
22.63453418063466 48.3222
22.657240256008077 48.411
22.680124634582935 48.5484
22.70283252079775 48.754
22.725541310413075 49.0844
22.74825100442868 49.3987
22.771139033969575 49.6539
22.79385054687155 50.0069
22.81656296718292 50.8615
22.83927629590484 51.6506
22.862167992606945 52.8589
22.88488314827121 54.0729
22.907599215359284 55.1849
22.93031619487366 56.1622
22.953211574954405 56.9857
22.975930389478226 57.3926
22.998650119445763 57.3634
23.02137076586092 56.318000000000005
23.044269845560063 54.8693
23.06699233506288 53.2912
23.089715744034912 51.6543
23.112617610931565 50.0158
23.135342869061212 49.1541
23.158069049684816 48.6681
23.1807961538087 48.3286
23.20370174880544 48.3568
23.226430710184808 48.3858
23.249160598093425 48.4247
23.271891413539002 48.5778
23.294800752937697 48.3812
23.31753343374794 48.6229
23.340267045128353 48.6725
23.36300158808808 49.0125
23.38591468821339 49.4072
23.408651104658304 49.735
23.431388455719986 50.5739
23.454126742409 51.44
23.4770436196085 52.4617
23.499783787914662 53.8804
23.522524894889884 54.832
23.54526694154616 55.9915
23.56818761219047 57.0147
23.59093154860734 57.3346
23.613676427751283 57.5086
23.636422250635754 56.17100000000001
23.659346731118656 54.3827
23.68209445191868 52.3037
23.704843119509587 50.3224
23.72759273490623 48.5667
23.750521041644767 47.303999999999995
23.77327256312355 46.5418
23.796025035462787 46.033
23.818956224555475 45.5074
23.841710609113413 45.5084
23.86446594758979 45.2082
23.887222241002014 44.9336
23.910157285144578 44.6784
23.932915498962537 44.7605
23.955674670778713 44.5601
23.978434801611975 44.4499
24.001373717286125 44.1556
24.024135776723917 43.992
24.046898798245582 43.7918
24.06966278287146 44.0194
24.092605586582614 43.8183
24.115371508023642 43.6653
24.1381383956401 43.5989
24.16090625045381 43.65
24.183852958731244 43.3684
24.206622758582608 43.2369
24.229393528706886 43.1011
24.252165270127392 43.17
24.27511589952438 43.0894
24.297889594216997 42.9178
24.32066426328598 42.8554
24.34343990775613 42.7468
24.36639447485003 42.8275
24.38917208083877 42.7181
24.41195066531332 42.7318
24.43490819850244 42.6246
24.457688750692377 42.4958
24.48047028445616 42.4891
24.503252800821233 42.6338
24.526214300784112 42.7312
24.548998793132213 42.6807
24.57178427117417 42.4773
24.59457073593893 42.5045
24.617536219319863 42.4072
24.64032466834748 42.3972
24.663114107195035 42.3427
24.685904536893013 41.9482
24.708874020360852 42.0127
24.731666442613744 42.1427
24.754459858818787 41.9337
24.777254270007962 41.9309
24.80022777025625 41.8462
24.82302418230472 41.8452
24.845821592443674 41.9338
24.86862000170663 41.8203
24.891597535453727 41.56399999999999
24.914397953892728 41.8353
24.93719937456671 41.8799
24.96000179851076 42.0432
24.98298338249997 42.193999999999996
25.00578782394922 42.3864
25.028593271784167 42.6302
25.05157790644186 42.7949
25.07438537804115 42.9883
25.097193859145293 43.1715
25.120003350792075 43.501999999999995
25.142992065061257 43.9396
25.165803588823465 44.1701
25.18861612625217 44.2745
25.211429678386736 44.361000000000004
25.234422489079968 44.2153
25.257238081693636 44.3304
25.280054692141732 44.5244
25.3028723214652 44.5128
25.325869245420463 44.5994
25.348688923599397 44.4564
25.371509623787006 44.4856
25.394331347025812 44.2358
25.41733240110666 43.5587
25.440156181590016 42.7698
25.46298098826268 42.2705
25.48580682216873 41.7709
25.50881202326435 41.2628
25.53163992281684 40.9558
25.55446885274561 40.6252
25.577298814096377 40.5122
25.600308179121807 40.4993
25.623140214533745 40.5127
25.64597328451537 40.3848
25.66898578564376 40.1118
25.691820936010206 40.2003
25.714657124097695 39.9869
25.737494350954734 40.0358
25.760511045684957 40.0591
25.783350361364224 40.0723
25.806190718969255 40.0061
25.82903211955018 40.0639
25.852053024868923 40.1784
25.874896522722523 40.1201
25.897741066713106 40.3703
25.920586657892454 40.4169
25.943611790812668 40.5151
25.966459487728237 40.5699
25.989308234998564 40.5619
26.01215803367705 40.9744
26.03518741123814 41.1573
26.05803932412957 41.3887
26.080892291600094 41.1706
26.10374631470478 41.2644
26.12677995397268 41.3073
26.14963609978026 41.2456
26.172493304397875 40.8575
26.19535156888223 40.7173
26.218389486949604 40.3917
26.241249882640123 40.0657
26.26411134137826 39.8425
26.28715248187403 39.7736
26.31001607820869 39.6613
26.3328807407756 39.4893
26.35574647063438 39.6598
26.37879191991473 39.7111
26.401659795896734 39.8279
26.424528742360263 39.9263
26.447398760366614 40.0854
26.470448535598294 40.0844
26.49332070826805 40.3551
26.516193955675355 40.77
26.53906827888316 40.9053
26.562122397260108 41.1604
26.584998883685063 41.4528
26.607876449110325 41.6907
26.63075509460056 41.8565
26.65381357334404 41.8178
26.67669439061878 41.7198
26.699576291163382 41.6432
26.722459276044212 41.4932
26.745522132402975 41.1979
26.768407297649354 40.9075
26.791293550442003 40.5987
26.814180891848974 40.3776
26.837248143099337 40.0507
26.860137673466657 39.9624
26.88302829566349 39.7154
26.90592001075963 39.6115
26.92899167420566 39.3926
26.951885586870763 38.964
26.974780595655517 38.9647
26.99785558178161 38.8254
27.020752794605112 38.6038
27.043651106772522 38.4375
27.06655051935668 38.4484
27.089629948036183 38.1864
27.112531573292053 38.4532
27.135434302194138 38.3782
27.158338135817015 38.2302
27.181422024430987 38.2602
27.204328079372566 38.1574
27.22723524226965 38.1541
27.250143514198573 38.1479
27.273231880156334 38.1341
27.296142382065014 37.9884
27.319053996245536 37.8937
27.341966723775965 38.0829
27.365059584515222 38.0719
27.38797455070062 38.0726
27.410890633481237 38.0944
27.433807833936918 38.2283
27.456905206923906 38.1798
27.47982465472398 38.1707
27.502745223449743 38.2292
27.525666914182825 38.3066
27.548768816912457 38.2827
27.571692763693633 38.1161
27.59461783573812 38.0017
27.617723149491244 37.7641
27.640650484125285 37.7777
27.66357894728264 37.63
27.686508540048052 37.6897
27.709618414237887 37.5993
27.732550278321757 37.5223
27.755483275279115 37.5311
27.778417406196485 37.6242
27.801531858397514 37.4795
27.824468269376716 37.5189
27.847405817586786 37.5398
27.870344504116094 37.7357
27.893463551932008 37.7603
27.916404527281053 37.9652
27.93934664422563 38.0244
27.962289903855886 38.1148
27.98541356491974 38.3699
28.00835912214229 38.4251
28.03130582533231 38.6511
28.054253675581805 38.8288
28.077381967556104 38.8
28.100332124185126 38.6592
28.123283431160893 38.625
28.146235889577238 38.5234
28.169368830154156 38.2738
28.192323603752033 38.0119
28.215279532083304 37.8241
28.238415973016764 37.5035
28.261374223145094 37.3463
28.284333631303806 37.1071
28.307294198589954 36.911
28.330435319167677 36.679
28.353398217078915 36.413000000000004
28.376362277420153 36.2614
28.39932750129032 36.1243
28.422473319286713 35.9562
28.44544088262495 35.8791
28.468409612800283 35.9126
28.491379510913497 35.7187
28.51453004413313 35.6137
28.53750229057244 35.580999999999996
28.56047570826344 35.486999999999995
28.583450298308804 35.5161
28.606605564586562 35.2417
28.629582511831156 35.3516
28.65256063474956 35.2294
28.675539934446338 35.3016
28.698699951647605 35.2747
28.72168161743193 35.075
28.74466446331978 35.0842
28.767648490417624 35.1059
28.790813276438353 35.0491
28.813799678527303 35.1338
28.836787265157085 35.1607
28.859955641890075 35.1308
28.882945610203045 35.0129
28.905936766392035 35.0077
28.928929111566863 35.0499
28.952102288520145 34.973
28.975097024308607 34.7259
28.998092952423807 34.5663
29.021090073977508 34.6041
29.04426806913204 34.4818
29.067267590245258 34.216
29.090268308143695 34.2179
29.11327022394099 34.1336
29.13645305530891 34.166
29.159457379627167 34.0722
29.18246290519685 33.9914
29.20546963313352 34.0062
29.22865731875826 33.9976
29.25166646419296 33.8634
29.27467681535305 33.8526
29.29768837335608 33.8811
29.320880931312562 33.9862
29.34389491580634 33.9327
29.366910110507334 33.8922
29.38992651653503 33.8607
29.41312396492981 33.8556
29.436142806456754 33.7046
29.45916286268059 33.6319
29.48236399319994 33.6106
29.50538649169417 33.400999999999996
29.528410208259935 33.2594
29.55143514402014 33.1556
29.574641196749695 33.1269
29.597668583816574 32.9379
29.6206971934585 32.8642
29.64372702680042 32.9198
29.666938019934474 32.7719
29.689970313635285 32.6887
29.713003834422636 32.6219
29.73603858342347 32.6348
29.759254535188578 32.5197
29.78229175361658 32.4812
29.80533020365064 32.5963
29.82836988641968 32.4432
29.85159081507472 32.3413
29.874632976355343 32.3149
29.89767637376955 32.4469
29.920721008448314 32.2211
29.9439469322847 32.3565
29.96699405457564 32.2111
29.9900424175358 32.27
30.013092022298157 32.2388
30.03632295963995 32.0895
30.059375061131373 32.0925
30.08242840783577 32.1625
30.105483000888153 32.1632
30.128718970092244 32.1263
30.151776069006917 32.0843
30.17483441768648 32.1747
30.198074175317235 32.1074
30.221135036724256 32.0468
30.24419715131772 32.1002
30.267260520236203 31.9091
30.290505341942243 31.9283
30.313571232750228 31.9822
30.336638381310948 32.0727
30.35970678876503 31.9364
30.38295669299435 31.7874
30.40602763151657 31.7943
30.429099832366074 31.8
30.452173296685572 31.7714
30.47542830191959 31.6931
30.498504306502497 31.7117
30.521581577995562 31.7997
30.544660117543582 31.8571
30.56792024229725 31.9795
30.59100133132069 31.840999999999998
30.614083691845494 31.7695
30.637167325018545 31.8544
30.660432587840603 31.9793
30.683518779717886 31.8767
30.70660624769615 32.0855
30.729694992924372 31.9423
30.75296541239743 31.8357
30.77605672557558 31.8409
30.799149319462742 31.7429
30.8224236211637 31.6522
30.845518789950724 31.5675
30.868615242910597 31.5389
30.891712981195973 31.3052
30.91499247215866 31.2111
30.938092794619365 31.2909
30.96119440587579 31.2464
30.984297307082752 31.0667
31.00758200598383 30.9446
31.030687500658694 30.9254
31.053794288760695 30.9049
31.076902371446767 30.7544
31.100192296997445 30.8735
31.12330298246119 30.6473
31.14641496599209 30.5072
31.169528248749216 30.6928
31.19282341969534 30.5494
31.215939314557186 30.6109
31.239056512134788 30.6763
31.262175013589378 30.6459
31.28547544871168 30.581999999999997
31.30859657161541 30.519000000000002
31.331719001892175 30.5977
31.35484274070538 30.6946
31.378148458819545 30.6617
31.401274828443725 30.6573
31.424402510106933 30.6055
31.447712205419993 30.7176
31.470842524931633 30.4857
31.493974159989783 30.5413
31.51710711176168 30.4602
31.54042212308802 30.4033
31.563557722100917 30.351999999999997
31.586694641341655 30.3568
31.609832881979628 30.198
31.63315322823208 30.0524
31.656294125521327 30.0577
31.679436347728515 30.0486
31.70257989602529 29.9838
31.725905596152327 29.8947
31.74905181052835 29.9167
31.772199354521323 29.9299
31.79534822930507 29.8292
31.818679302290967 29.9242
31.84183085259981 29.9336
31.864983737233473 29.8971
31.88813795736804 29.9128
31.911474422233013 29.7638
31.934631327356435 29.7354
31.9577895715215 29.7442
31.980949155906522 29.7128
32.004291031706956 29.6469
32.027453310562606 29.6209
32.05061693318573 29.4433
32.07396288236386 29.5185
32.09712920658542 29.4514
32.12029687812702 29.3147
32.14346589817093 29.2633
32.166817291729984 29.2524
32.18998902288583 29.0432
32.21316210610336 29.0357
32.23633654256711 28.9311
32.259693399663725 28.9049
32.282870556771144 28.8928
32.30604907069099 28.9494
32.329228942610065 28.8491
32.35259128243769 28.6834
32.375773884550505 28.590999999999998
32.398957848235646 28.6115
32.422143174682176 28.5407
32.445511016471215 28.441999999999997
32.468699082679954 28.4966
32.49188851523011 28.3613
32.51507931531304 28.2581
32.538452678331 28.2869
32.56164622776311 28.3091
32.58484114831493 28.2706
32.60803744118015 28.2333
32.631416344731896 28.2631
32.654615396551876 28.1763
32.67781582427913 28.1823
32.701198898634416 28.0643
32.72440209253756 28.0284
32.747606665947124 27.9991
32.77081262006088 27.825
32.79420126883317 27.9487
32.81740999876112 27.913
32.840620112999424 27.7644
32.86383161274818 27.7133
32.88722585534586 27.7907
32.91044014056596 27.8802
32.933655814909734 27.748
32.95687287957963 27.8082
32.98027273544904 27.6962
33.00349259526636 27.601
33.026713849030116 27.6687
33.04993649794511 27.5981
33.073341986570746 27.5581
33.09656744032826 27.4843
33.11979429286444 27.5272
33.14302254538647 27.55
33.166433686291185 27.4915
33.18966475336992 27.3622
33.212897224069096 27.2576
33.23613109959831 27.2748
33.259547912343415 27.2311
33.2827846121627 27.2882
33.306022720453775 27.1642
33.32926223842861 27.1159
33.352684742614166 27.1363
33.37592709463173 27.0576
33.399170859982064 27.0374
33.422597648419426 27.0164
33.44584425514446 26.9057
33.46909227885668 26.8349
33.4923417207723 26.6656
33.51577423505344 26.7382
33.539026528130385 26.6341
33.56228024307245 26.6238
33.585535381098246 26.5112
33.60897364093058 26.4699
33.63223163992385 26.4476
33.6554910656699 26.451
33.678751919389796 26.4333
33.702195944520106 26.2745
33.72545966903325 26.3966
33.74872482519663 26.3598
33.771991414233746 26.2591
33.79544122444841 26.2393
33.81871069412428 26.1272
33.84198160035767 26.0705
33.86525394437455 26.0854
33.88870955949969 26.0279
33.911984794020626 25.9893
33.93526147001624 25.9516
33.958539588715006 25.9491
33.98200102861669 25.8729
34.0052820477047 25.7916
34.02856451319451 25.7805
34.05203033759056 25.6921
34.07531571090147 25.6745
34.09860253431845 25.6973
34.121890809074316 25.5801
34.145362493118924 25.6424
34.16865368561615 25.5612
34.191946333164054 25.5266
34.21524043699793 25.4497
34.23871800066799 25.5116
34.26201503218366 25.3518
34.28531352370466 25.3719
34.30861347646881 25.2485
34.33209693978188 25.2734
34.3553998301885 25.2845
34.378704185565205 25.1915
34.402010007152356 25.1067
34.42549939016683 25.124000000000002
34.44880815937748 25.0223
34.472118398533134 24.9923
34.49543010887669 24.8752
34.51892543169198 24.8451
34.54224009966052 24.9342
34.56555624255917 24.8644
34.58887386163339 24.8414
34.61237514439016 24.785999999999998
34.6356957311114 24.8012
34.65901779775809 24.7227
34.68252356662995 24.6961
34.705848608458616 24.6578
34.72917513396849 24.6183
34.75250314440949 24.5489
34.77601490857862 24.4434
34.799345904259795 24.4538
34.82267838863559 24.44
34.846012362958525 24.4189
34.869530142679984 24.4175
34.89286711232212 24.3459
34.91620557568269 24.3358
34.93954553401677 24.3679
34.9630693495876 24.2267
34.986412313340814 24.2309
35.00975677584668 24.3083
35.033102738362956 24.143
35.05663261012228 24.1245
35.0799815881786 24.1073
35.10333207003229 24.1544
35.12668405694369 24.0657
35.150220005273056 24.1084
35.17357501786656 23.9879
35.19693153931268 23.9347
35.220289570874385 23.8915
35.24383161619786 23.9084
35.267192683604904 23.8609
35.290555264930376 23.7935
35.314101899412165 23.8299
35.33746752422433 23.8257
35.36083466676374 23.7844
35.38420332829803 23.7524
35.407756095629054 23.7818
35.43112781085063 23.7424
35.45450104888391 23.7459
35.477875810999194 23.704
35.50143473172161 23.5596
35.52481255774625 23.6134
35.54819191167777 23.5848
35.57157279478914 23.4323
35.595137889488406 23.5279
35.61852184675279 23.4657
35.641907337029984 23.4122
35.665294361595684 23.3483
35.68886565090076 23.3095
35.7122557598848 23.2505
35.73564740699838 23.2831
35.759040593519934 23.2217
35.78261809810353 23.2097
35.80601437933051 23.1514
35.829412203814705 23.0378
35.85281157283719 22.8963
35.876395313415884 22.9903
35.8997977874528 22.9535
35.92320180988546 22.9367
35.946790244133936 22.894000000000002
35.97019737933222 22.9668
35.993606066789866 22.8719
36.01701630779276 22.7312
36.04061101440684 22.7622
36.06402437852291 22.8274
36.08743930005611 22.756
36.1108557802951 22.6695
36.13445678011326 22.6731
36.15787639383515 22.5959
36.18129757014299 22.6731
36.20472031032821 22.5587
36.22832762423364 22.5157
36.25175350829375 22.4801
36.275180960119776 22.3799
36.298609981005924 22.4765
36.32222362992669 22.3563
36.34565580510207 22.322
36.36908955323448 22.3365
36.39252487562093 22.2294
36.416144880530226 22.18
36.43958336764275 22.1252
36.463023432914625 22.2052
36.486465077645676 22.1076
36.51009145956204 22.2207
36.53353627947859 22.1673
36.55698268276811 22.1249
36.58043067073321 22.107
36.60406345072071 21.9986
36.62751462435344 21.9448
36.65096738658405 21.9354
36.67460498210655 21.84
36.69806093788647 21.9032
36.72151848619297 21.7494
36.744977628333636 21.7959
36.76862165890998 21.729
36.79208400512205 21.7636
36.81554794910557 21.7914
36.83901349217101 21.6312
36.862663978991606 21.6383
36.88613273667352 21.5966
36.90960309738324 21.5708
36.933075062434064 21.5122
36.95673202673572 21.4445
36.98020721697122 21.4263
37.003684015502365 21.362
37.027162423645365 21.3515
37.050825886711465 21.4217
37.07430753063053 21.3194
37.09779078812467 21.3137
37.121275660513014 21.2459
37.144945643673694 21.1203
37.16843376245278 21.2319
37.19192350009803 21.2202
37.215414857931435 21.1032
37.239091382563885 21.0699
37.262585997426164 21.0202
37.28608223645736 21.0528
37.309763684451696 20.9772
37.33326318851098 21.0025
37.356764320726555 20.9507
37.380267082425526 20.9396
37.40395510942588 20.8832
37.42746114683234 20.8218
37.45096881771841 20.7477
37.474478123414166 20.7817
37.49817275092816 20.7452
37.52168534303452 20.7225
37.54519957395567 20.5768
37.568715445024665 20.5774
37.592416694607714 20.5159
37.61593586281424 20.6524
37.63945667518264 20.6124
37.66297913304891 20.4741
37.68668702630454 20.4822
37.710212792059274 20.4169
37.733740207334854 20.3882
37.757269273470364 20.3922
37.780983832050374 20.3085
37.80451621684926 20.2888
37.82805025654007 20.2982
37.851585952464795 20.2855
37.8753071980695 20.0849
37.89884622345676 20.0603
37.92238690911902 20.1354
37.94611318753442 20.0739
37.969657210779765 20.0228
37.99320289834801 20.0246
38.016750251586465 20.0555
38.04048325513017 19.9585
38.06403395679343 19.8644
38.087586328183946 19.8734
38.11114037065203 19.9302
38.13488012115898 19.8901
38.1584375229181 19.8425
38.181996599821 19.7595
38.205557353221124 19.7489
38.229303872575656 19.7328
38.2528679961576 19.6798
38.27643380031219 19.6713
38.30000128639589 19.6771
38.32375459653193 19.6324
38.34732546371299 19.6434
38.37089801690786 19.5788
38.39447225747609 19.4483
38.418232380377425 19.4191
38.441810012983396 19.4562
38.46538933705673 19.4261
38.488970353960084 19.464000000000002
38.51273731166058 19.4468
38.536321731567014 19.3764
38.55990784840681 19.3536
38.58367995004091 19.2012
38.60726947812959 19.2104
38.63086070726198 19.2302
38.654453638806274 19.1972
38.678232613930824 19.1409
38.70182896773327 19.0537
38.72542702806741 18.9999
38.7490267963045 19.0404
38.77281266709232 19.0082
38.79641586862214 19.0659
38.8200207821842 18.942999999999998
38.843627409152944 18.9414
38.86742019782782 18.8948
38.891030269149255 18.8588
38.914642058016156 18.8227
38.938255565806124 18.8172
38.96205529464307 18.7508
38.98567225787121 18.7966
39.00929094417078 18.7332
39.03291135492255 18.7074
39.05671804624804 18.6957
39.080341923549106 18.6172
39.103967529460334 18.6181
39.127594865365744 18.5328
39.15140854155791 18.5022
39.17503935514948 18.5089
39.19867190290282 18.5106
39.22249083587951 18.3887
39.24612686969409 18.3788
39.269764641845306 18.4273
39.293404153722804 18.4211
39.317230110864074 18.2865
39.34087311998506 18.2818
39.36451787301696 18.2725
39.388164371352595 18.1643
39.41199737518003 18.1656
39.43564738196752 18.1751
39.45929913825317 18.137999999999998
39.48295264543308 18.0801
39.506792718520884 18.0794
39.530449745387216 18.0939
39.55410852735203 18.0549
39.57776906581474 18.089000000000002
39.60161623079 18.0857
39.625280300200025 17.9038
39.64894613032202 17.8322
39.67261372255866 17.9015
39.6964680021016 17.9316
39.72013913657293 17.8369
39.74381203738292 17.8371
39.76748670593756 17.7983
39.79134812278169 17.8102
39.81502634488497 17.727999999999998
39.83870633896685 17.6857
39.862388106436654 17.7089
39.88625668336918 17.6428
39.90994201572829 17.7013
39.933629125719285 17.635
39.957503091207826 17.5542
39.9811937746168 17.528
40.00488623990914 17.4253
40.02858048850006 17.474
40.05246165409549 17.3851
40.076159487492085 17.3679
40.099859108448875 17.4029
40.123560518384345 17.2818
40.1474489070226 17.3611
40.171153913178564 17.3203
40.194860712584955 17.2508
40.2185693066637 17.2583
40.242464941335314 17.2284
40.26617714307655 17.1501
40.289891143772046 17.1958
40.3136069448471 17.1391
40.33750984859743 17.1274
40.3612292688043 17.1003
40.3849504936829 17.004
40.40867352466194 16.9656
40.43258372059144 17.0425
40.45631038219906 17.0179
40.48003885420956 16.9546
40.503769138055105 16.9077
40.52768664931955 16.9035
40.55142057531802 16.9387
40.57515631746428 16.846
40.599079334038514 16.7941
40.62281872700477 16.7601
40.64655994043941 16.7496
40.67030297578061 16.7199
40.69423334835778 16.7122
40.71798004609188 16.729
40.74172857006355 16.6563
40.76547892171441 16.6602
40.7894166736039 16.6517
40.813170699248566 16.5769
40.83692655691388 16.5089
40.86068424804498 16.5591
40.884629402612525 16.5293
40.908390779366385 16.5037
40.932153993938 16.4507
40.95591904777605 16.4582
40.979871628443995 16.4247
41.003640379561936 16.4377
41.02741097430883 16.3607
41.05118341413683 16.3857
41.075143444384416 16.3264
41.098919593177826 16.3003
41.1226975914255 16.285999999999998
41.14647744058318 16.2374
41.170444943946755 16.1783
41.19422851378379 16.1641
41.218013938914645 16.1359
41.24198706625173 16.0377
41.26577622087193 16.009
41.289567235177785 16.0532
41.31336011063129 16.0329
41.337340752422875 15.9986
41.361137369129835 16.0073
41.38493585138705 15.9598
41.40873620066004 15.9524
41.43272438060107 15.9283
41.45652848292052 15.8861
41.48033445666918 15.7808
41.50414230331616 15.7959
41.528138045159764 15.8359
41.551949656675205 15.7457
41.575763145513235 15.7353
41.59957851314666 15.6613
41.62358184070442 15.6214
41.64740098505737 15.6676
41.6712220126409 15.6732
41.69504492493139 15.6103
41.71905586207357 15.5703
41.74288256296395 15.5555
41.766711153007456 15.4701
41.79054163368412 15.4601
41.814560204340054 15.4868
41.838394485526365 15.4554
41.86223066180303 15.4167
41.88625497706819 15.3642
41.910094962812 15.3805
41.93393684811168 15.3545
41.95778063445365 15.2415
41.981812625263366 15.3623
42.00566023303407 15.2709
42.029509746323676 15.2183
42.05336116662236 15.1862
42.077400857069705 15.2332
42.10125611078846 15.1963
42.12511327600405 15.1577
42.14897235421036 15.1038
42.173019768448455 15.0784
42.19688269209613 15.0914
42.22074753323349 15.0513
42.24461429335818 14.9907
42.268669455600495 14.985999999999999
42.292540073217886 14.968
42.31641261433284 14.9794
42.34028708044675 14.9021
42.36435001496739 14.9115
42.38822835065557 14.9031
42.41210861586426 14.8409
42.4359908120986 14.8432
42.46006154323262 14.7657
42.48394762115317 14.7253
42.507835634632315 14.7724
42.531912233047436 14.7324
42.55580413732265 14.727
42.579697981698 14.6714
42.60359376768525 14.6763
42.62767820545945 14.618
42.65157789440821 14.5437
42.67547952952185 14.5741
42.699383112316 14.5255
42.72347541395347 14.5113
42.74738291190531 14.505999999999998
42.771292362102166 14.4755
42.795203766063516 14.4245
42.819303956130405 14.4262
42.843219287476536 14.3663
42.86713657716324 14.3802
42.89105582671383 14.3537
42.91516392983864 14.3387
42.939087119032166 14.2942
42.963012272677304 14.2895
42.98693939230129 14.2496
43.01105543317513 14.241
43.034986504731386 14.1963
43.05891954686589 14.1598
43.08285456110972 14.1993
43.10697856448665 14.0904
43.130917542983475 14.0444
43.15485849820081 14.091
43.17880143167367 14.0829
43.20293342237094 14.0119
43.226880332449 13.9848
43.25082922540554 14.0123
43.27496722682525 13.9701
43.29892010567796 13.8594
43.32287497204102 13.8509
43.34683182745632 13.8711
43.370977859791836 13.8851
43.39493871351105 13.8428
43.41890156092628 13.8253
43.44286640358341 13.8264
43.46702049182749 13.7852
43.49098934522816 13.7344
43.51496019852649 13.7057
43.5389330532723 13.6794
43.56309522248204 13.639000000000001
43.58707210044314 13.6411
43.61105098451946 13.6011
43.63503187626491 13.6419
43.659202151562134 13.571
43.68318707902681 13.5402
43.70717401884041 13.5283
43.731162972560874 13.5008
43.75534137913236 13.4703
43.779334381108384 13.4513
43.803329401683186 13.4349
43.82732644241872 13.4322
43.8515130055166 13.4301
43.87551410707659 13.3527
43.89951723350145 13.3714
43.923709934595614 13.3298
43.94771713129917 13.2952
43.97172635758096 13.2742
43.99573761501002 13.2376
44.0199385169922 13.2714
44.04395385732619 13.2383
44.067971233533086 13.2206
44.09199064718605 13.1706
44.11619977548961 13.0979
44.14022328470671 13.1137
44.16424883610785 13.1425
44.18827643127035 13.1136
44.21249381139513 13.0771
44.236525514814076 13.0109
44.26055926674478 12.9836
44.28459506876863 12.9931
44.3088207262813 12.9052
44.33286064928722 12.9294
44.35690262714919 12.9036
44.38094666145278 12.8431
44.4051806219871 12.8418
44.42922879003185 12.8504
44.45327901929361 12.792
44.477331311362136 12.79
44.501573600619416 12.7205
44.525630039221795 12.724
44.54968854541895 12.7302
44.573937102200176 12.715
44.5979997645541 12.6704
44.622064499300315 12.6791
44.64613130803592 12.6493
44.67038823869318 12.6336
44.69445921643748 12.549000000000001
44.718532272981385 12.5485
44.742607409926194 12.5495
44.76687274034801 12.5713
44.79095205918753 12.540999999999999
44.81503346325094 12.4626
44.839116954143876 12.4676
44.86339071028742 12.4712
44.88747839599524 12.4304
44.91156817336837 12.3779
44.93566004401666 12.3509
44.959942251908146 12.3627
44.984038330325966 12.3442
45.00813650686762 12.2988
45.03223678314731 12.308
45.05652746888232 12.235999999999999
45.08063196592069 12.2492
45.104738567558705 12.1925
45.128847275414856 12.1829
45.15314646515866 12.1407
45.17725940679741 12.1752
45.20137445952892 12.1059
45.22568004865265 12.1011
45.24979934496396 12.0817
45.27392075725247 12.0556
45.29804428714431 12.0462
45.322358426247604 12.0574
45.346486212804315 11.9945
45.370616121861914 11.9728
45.39474815505086 11.9886
45.41907087049246 11.9124
45.4432071734666 11.9103
45.46734560548283 11.9178
45.49148616817604 11.8807
45.51581748638564 11.8252
45.5399623320197 11.8795
45.56410931325473 11.8207
45.58825843173002 11.7698
45.61259837920865 11.7726
45.636751793816 11.7941
45.66090735060093 11.7156
45.68506505120716 11.7363
45.7094136545275 11.6408
45.73357566449271 11.6167
45.75773982322992 11.6338
45.78190613238733 11.6372
45.806263418194064 11.5699
45.83043404997326 11.6024
45.85460683713677 11.5987
45.87897065658495 11.5276
45.90314777634752 11.4674
45.92732705646868 11.5135
45.9515084986045 11.5048
45.97588104735473 11.4722
46.00006683541565 11.4328
46.02425479047904 11.4046
46.04844491420549 11.4146
46.0728262191024 11.3924
46.09702070211635 11.3683
46.12121735879483 11.3725
46.14541619080294 11.3062
46.169806278764455 11.3214
46.194009483459034 11.3088
46.21821486849841 11.2716
46.24242243555223 11.2537
46.266821333570014 11.1951
46.29103328674601 11.1819
46.31524742696538 11.2121
46.33946375590237 11.1558
46.36387149104216 11.1112
46.38809221957392 11.0692
46.41231514186606 11.0634
46.436540259597464 11.1143
46.460956858999374 11.0843
46.48518638983522 11.0715
46.509418121166966 11.0002
46.533652054678114 10.9613
46.55807754555709 10.9771
46.58231590571962 10.9928
46.60655647313217 10.9392
46.630988654873654 10.8986
46.655233659129024 10.8514
46.67948087571551 10.8853
46.70373030632484 10.8652
46.72817142736393 10.8049
46.752425308428684 10.8081
46.77668140861147 10.8044
46.80093972960865 10.73
46.82538981736788 10.7756
46.849652602470904 10.7028
46.87391761349769 10.7366
46.8981848521493 10.6564
46.9226439341274 10.6566
46.946915650573224 10.6493
46.97118959976749 10.6167
46.99546578341598 10.5841
47.019933887188216 10.5823
47.04421456235744 10.5604
47.06849747711879 10.5787
47.09278263318286 10.5165
47.11725978640143 10.4965
47.14154944775105 10.5069
47.165841355555656 10.5053
47.1901355115306 10.4617
47.214621741924994 10.4566
47.23892041698887 10.437999999999999
47.26322134538975 10.3837
47.28771440635075 10.3824
47.31201986422527 10.3777
47.33632758061436 10.3463
47.360637557241866 10.3333
47.38513974410611 10.3067
47.40945426407847 10.2668
47.43377104948137 10.2818
47.45809010204344 10.2674
47.48260144275502 10.2506
47.506925052572285 10.2319
47.53125093475548 10.1961
47.55557909103813 10.1369
47.58009961361992 10.1382
47.60443234110732 10.1262
47.62876734791564 10.0978
47.65310463578333 10.074
47.6776343683373 10.107999999999999
47.7019762413987 10.0374
47.72632040075572 10.0139
47.75066684815169 10.0114
47.77520581885936 9.96691
47.799556865477655 9.97488
47.823910205386 9.98005
47.84826584033272 9.98247
47.87281407745551 9.91628
47.89717432569297 9.91038
47.92153687423484 9.880939999999999
47.94609208429692 9.85646
47.97045925671401 9.84278
47.99482873471275 9.853760000000001
48.01920052005013 9.7978
48.04376504619224 9.78148
48.068141469543484 9.779869999999999
48.09252020552573 9.78422
48.11690125590099 9.76897
48.1414751266064 9.70844
48.16586082917454 9.724739999999999
48.19024885144316 9.69576
48.2146391951793 9.68314
48.239222439012764 9.65824
48.26361744916137 9.60181
48.28801478610016 9.6153
48.31241445160131 9.64563
48.337007097209366 9.62252
48.36141144338331 9.59472
48.38581812345755 9.55451
48.41022713920929 9.55591
48.434829215320704 9.55231
48.45924292604658 9.5396
48.48365897780325 9.54155
48.50807737237308 9.48299
48.532688907799276 9.49577
48.55711201168574 9.42278
48.581537463754074 9.40241
48.60615611725119 9.39583
48.63058628942721 9.37465
48.65501881516546 9.37004
48.6794536962573 9.393410000000001
48.70408185970339 9.34545
48.72852147531801 9.32899
48.75296345168211 9.303980000000001
48.77740779059232 9.29963
48.80204549302823 9.27171
48.82649458091802 9.26891
48.85094603676547 9.239469999999999
48.87539986237231 9.18856
48.90004713292306 9.20009
48.92450572200832 9.20402
48.94896668628025 9.16005
48.97343002754588 9.16452
48.99808689542115 9.1383
49.02255501470614 9.150739999999999
49.04702551642794 9.12144
49.0714984023988 9.11909
49.096164896893235 9.097539999999999
49.120642575466796 9.04538
49.145122643748394 9.05312
49.16960510355558 9.01163
49.19428125404938 8.969389999999999
49.2187685210852 8.99794
49.243258185121555 8.94471
49.26794160167084 8.942219999999999
49.2924360839405 8.92049
49.31693296869764 8.887939999999999
49.34143225776915 8.8382
49.36612538195438 8.90222
49.39062950396021 8.87233
49.41513603578346 8.837760000000001
49.4396449792564 8.81525
49.46434784069503 8.80543
49.488861631846454 8.775830000000001
49.513377840166804 8.763110000000001
49.537896467493745 8.74167
49.56260909589029 8.68159
49.587132585683285 8.72449
49.611658500018365 8.6826
49.636186840738596 8.67142
49.66090926588511 8.656889999999999
49.685442483902584 8.6366
49.70997813385706 8.62509
49.734516217597076 8.61524
49.75924846937352 8.60336
49.7837914452858 8.56048
49.80833686055187 8.54316
49.83288471702571 8.5584
49.85762682540054 8.555819999999999
49.882179588965734 8.53769
49.9067347993235 8.47804
49.93129245833333 8.49446
49.95604445336378 8.476230000000001
49.98060703442832 8.45239
50.005172069746266 8.4547
50.02993150438364 8.433069999999999
50.05450147301533 8.3936
50.07907390151433 8.376719999999999
50.10364879174981 8.364510000000001
50.12841816587289 8.35997
50.1529980044635 8.32669
50.17758031042124 8.34123
50.20216508562089 8.29964
50.22694442953363 8.29461
50.25153416817468 8.263689999999999
50.27612638170508 8.24335
50.300721072005196 8.2164
50.325510416102105 8.22759
50.350110084975064 8.19544
50.37471223628208 8.20178
50.39931687190919 8.18068
50.424116246675766 8.16891
50.44872587605249 8.1805
50.47333799543065 8.12895
50.49795260670191 8.10478
50.52276204271512 8.08868
50.54738166295838 8.09637
50.57200378079314 8.10032
50.596628398116835 8.03872
50.62144792604559 8.00055
50.646077567609396 8.01008
50.670709714377715 8.007010000000001
50.69553683636198 8.00868
50.72017401885922 7.99356
50.7448137122895 7.95585
50.76945591856022 7.947139999999999
50.79429318636823 7.928889999999999
50.818940443716784 7.94285
50.84359021965163 7.8963600000000005
50.868242516085964 7.87775
50.893089960641895 7.8771
50.917747323549435 7.859380000000001
50.94240721271973 7.87887
50.96706963007175 7.8117600000000005
50.99192728239342 7.8017
51.01659478166073 7.8026
51.04126481489051 7.7694
51.06593738400761 7.7956199999999995
51.090805275207074 7.77085
51.11548294172845 7.7677
51.14016314993547 7.73245
51.164845901758845 7.74728
51.18972406304274 7.69035
51.21441192780656 7.67179
51.23910234200271 7.656630000000001
51.2637953075678 7.63765
51.288683770237945 7.60232
51.31338186432707 7.59158
51.33808251561888 7.581189999999999
51.362978729967345 7.60542
51.387684521509755 7.58875
51.41239287610203 7.56958
51.437103795691165 7.52994
51.46201036644977 7.5006
51.486726441956634 7.4869699999999995
51.51144508832545 7.52119
51.536166307509156 7.449
51.56108326624387 7.4584399999999995
51.58580965706056 7.46448
51.61053862657523 7.42345
51.635270176746864 7.40048
51.66019755512065 7.40718
51.68493429268881 7.37102
51.70967361681515 7.3556
51.73441552946465 7.35308
51.759353359237934 7.338830000000001
51.7841004750961 7.3169
51.80885018539685 7.294289999999999
51.833602492111254 7.269760000000001
51.8585508051424 7.28025
51.883308330926425 7.27732
51.90806845906181 7.25294
51.932831191525715 7.1996899999999995
51.95779001977161 7.180160000000001
51.98255798721516 7.200880000000001
52.00732856494335 7.179939999999999
52.03229530577543 7.1775
52.057071130455945 7.18762
52.081849571391054 7.15296
52.106630630568695 7.13927
52.13160794279417 7.08604
52.15639426492067 7.10412
52.18118321127822 7.06435
52.205974783860896 7.01483
52.23096269971011 6.994510000000001
52.255759551287994 7.01858
52.280559035098186 7.0136199999999995
52.30536115314103 6.998460000000001
52.33035970494467 6.996910000000001
52.35516711807904 6.98911
52.37997717147198 6.964980000000001
52.40478986713005 6.95918
52.42979908731974 6.937360000000001
52.454617094216 6.927510000000001
52.47943774942214 6.89703
52.50426105495102 6.91251
52.529280976059844 6.866039999999999
52.554109609024096 6.85953
52.57894089837482 6.81843
52.60377484613117 6.82332
52.62880550079408 6.807289999999999
52.65364479223379 6.77831
52.67848674816189 6.76813
52.70352547971946 6.75502
52.72837279155837 6.77146
52.753222773982785 6.75179
52.778075429022984 6.74115
52.80312495150885 6.7233
52.827982978797436 6.69665
52.85284368481815 6.69803
52.87770707160767 6.66667
52.90276741793998 6.662710000000001
52.92763619336701 6.66983
52.952507655698504 6.64675
52.977381806977576 6.618510000000001
53.00245301017842 6.63935
53.02733256653592 6.5906
53.052214817996074 6.57777
53.077099766608484 6.52718
53.102181859804446 6.5635
53.127072229988265 6.56503
53.15196530349892 6.536519999999999
53.17686108239249 6.50641
53.20195409881522 6.49536
53.22685531582556 6.4957400000000005
53.25175924441303 6.4673300000000005
53.27666588664027 6.48882
53.30176985962693 6.44551
53.3266819565689 6.44575
53.35159677336455 6.408530000000001
53.376514312083096 6.42151
53.40162927507703 6.39102
53.42655228516116 6.37713
53.45147802340193 6.3354
53.47660125628886 6.344869999999999
53.50153247842639 6.298430000000001
53.52646643496923 6.30195
53.55140312799818 6.3126
53.576537409691696 6.31388
53.60147960336152 6.30536
53.626424539786164 6.27265
53.65137222105307 6.20993
53.67651758529126 6.23302
53.70147078399681 6.21986
53.72642673383343 6.2425
53.75138543689533 6.17291
53.776541917524526 6.16214
53.801506154876755 6.183680000000001
53.826473151763246 6.16364
53.851442910284916 6.11255
53.87661054126026 6.1499
53.9015858509782 6.12605
53.92656392866066 6.11895
53.95154477641532 6.0919
53.976723591801296 6.073259999999999
54.00171000771266 6.07554
54.02669920004598 6.00125
54.051691170915745 6.0133
54.076881204886796 6.0298099999999994
54.101878760928514 5.97732
54.12687910187696 5.9924599999999995
54.152077577768296 5.96743
54.1770835166946 5.92202
54.20209224691339 5.9680800000000005
54.22710377055121 5.95119
54.25231352511594 5.94117
54.27733066384342 5.89133
54.30235060239643 5.8628599999999995
54.32737334290836 5.87455
54.35259441062629 5.84547
54.377622783395324 5.8339
54.40265396455061 5.83691
54.42768795623251 5.79424
54.45292037169559 5.8041
54.477960012857906 5.774430000000001
54.50300247099511 5.760330000000001
54.52804774825457 5.74405
54.55329154616743 5.70224
54.57834249018678 5.68318
54.6033962597977 5.65527
54.6284528571545 5.61241
54.653708072335164 5.5894900000000005
54.67877035378786 5.6502099999999995
54.70383546947698 5.6211199999999995
54.72890342156389 5.5526599999999995
54.7541700889442 5.54714
54.77924374251975 5.55671
54.8043202390049 5.53021
54.82959552413022 5.46079
54.8546777351945 5.50905
54.87976279569621 5.47272
54.90485070780914 5.5179
54.930137506558005 5.45165
54.95523115074295 5.42884
54.98032765308844 5.43891
55.005427015775496 5.3985
55.03072536339621 5.39277
55.05583047570572 5.35462
55.080938454927676 5.32193
55.10604930325027 5.27075
55.131359235107396 5.27452
55.15647585066083 5.1982800000000005
55.181595341907496 5.21131
55.20671771104285 5.16655
55.232039262617704 5.16575
55.25716741665048 5.18584
55.28229845518636 5.13246
55.30743238042802 5.0732099999999996
55.33276558731939 5.125
55.357905315183636 5.0970699999999995
55.383047936390035 4.99073
55.40819345314859 4.99979
55.433538351073295 5.0248
55.458689688238415 4.98281
55.483843927614096 4.91673
55.509197623043605 4.94649
55.53435769621134 4.9278699999999995
55.55952067826466 4.87328
55.5846865714265 4.87245
55.61005202069737 4.90664
55.63522376553902 4.8552
55.66039842818645 4.80208
55.68557601087004 4.8247800000000005
55.7109532500271 4.75836
55.73613670233794 4.7066099999999995
