TT I
1.2716486653135266 7.53096
1.2939594142134223 7.455360000000001
1.3162702121660406 6.5410900000000005
1.3385810600174564 6.624410000000001
1.3608919586137629 6.784089999999999
1.383202908801069 6.95257
1.405513911425503 6.31647
1.4278249673332093 6.29347
1.4501343378461518 6.588430000000001
1.4724455028545926 6.4141
1.4947567236847858 5.997319999999999
1.517068001182951 6.00455
1.5393793361953272 6.01501
1.5616907295681737 5.25585
1.5840021821477681 4.788069999999999
1.60631369478041 4.86923
1.6286252683124185 4.78558
1.6509369035901333 4.78889
1.6732468618895553 5.53123
1.695558623192809 4.839580000000001
1.7178704487808514 5.17063
1.7401823395001077 4.29296
1.7625012545597203 4.8019
1.7848028405262486 4.87312
1.8071218901122095 5.08271
1.8294236121921872 5.01008
1.8517427996910911 4.69576
1.8740620574440425 4.63229
1.8963639900671978 4.59489
1.9186833908139995 4.7068
1.9409854680117449 4.99861
1.9633050151394713 5.19935
1.9856246367570705 4.66447
2.0079269371922672 4.97465
2.03024671027244 4.87861
2.0525491637446027 4.5286800000000005
2.074869091674931 4.6741
2.097171701569106 4.49495
2.1194917877373847 4.97403
2.141811954326636 5.28667
2.164114805233074 4.8583
2.186435135143035 5.804119999999999
2.208738150935709 11.4409
2.231058647554722 21.0115
2.2533792288321184 15.9169
2.275682498336085 8.13492
2.298003251406138 5.31146
2.3203066942619714 5.9259699999999995
2.3426276225136022 5.44211
2.3649486396617507 5.55296
2.387252348930071 6.0348
2.4095735463442893 5.85575
2.4318774374315884 6.11067
2.4541988185014043 6.03095
2.476502894794693 6.7202
2.498824462909887 5.95642
2.521146125856138 6.4907699999999995
2.5434504863470337 6.78671
2.5657723414244717 7.21267
2.588076895590662 7.90597
2.610398946189713 7.63547
2.6327210958598384 7.41242
2.6550259469304716 7.1041
2.6773482972090137 7.6766
2.6996533504259 8.3279
2.7219759047039602 7.30537
2.744298562293959 8.00672
2.7666039251246595 7.588939999999999
2.7889267918020164 7.97797
2.8112323652516555 8.24879
2.833555444408179 8.6331
2.8558786311183852 7.59955
2.8781845268938557 8.103810000000001
2.9005079311721484 8.72995
2.9228140460410397 8.72555
2.9451376712799635 9.48294
2.967444008632326 9.37539
2.9897678582247247 9.63609
3.0120918213106695 10.424000000000001
3.0343984987899373 11.0217
3.0567226913198637 11.5744
3.079029599759726 11.8228
3.101354025127254 12.1822
3.123678568232338 12.9382
3.145985829517914 13.0596
3.16831061055229 13.5369
3.1906181112775593 14.1903
3.212943133635653 14.9477
3.2352682779763207 14.9934
3.2575761442691227 15.1633
3.2799015350264273 15.4151
3.302209649240067 16.2936
3.3245352898092655 16.8328
3.3468436553365257 17.5144
3.369169549113219 17.6522
3.3914955708171384 19.14
3.413804319727358 19.042
3.4361305997334863 18.9841
3.4584396084414553 20.0948
3.4807661501462652 20.6331
3.503092824025881 20.6827
3.5254022288463154 21.1136
3.5477291695206588 21.749000000000002
3.5700388426251948 22.1746
3.5923660534916446 23.7391
3.6146934007816114 34.4612
3.637003482731501 68.8723
3.6593311053109985 73.3739
3.681641464033634 45.5528
3.7039693653009733 28.6865
3.726297407241705 26.0069
3.7486081875460804 25.8648
3.7709365132734978 26.3868
3.793247578841633 26.4267
3.8155761917550093 27.0859
3.8378875459837216 27.2077
3.8602164494827234 27.607
3.882545499606844 28.1386
3.9048572932539183 29.6794
3.9271866390645718 29.4089
3.9494987298666713 30.1892
3.971828374764527 30.5254
3.9941581705403255 31.0365
4.016470713506008 31.4749
4.038800813471445 32.359
4.061113662089144 32.9703
4.0834440696459176 33.696
4.105774632334751 34.3942
4.128087945865126 35.0579
4.150418821249301 35.74
4.172732448931298 37.141
4.195063640413578 38.6364
4.2173775856475215 41.4655
4.239709096631102 64.9414
4.262040768704612 175.582
4.284355196706267 226.74
4.306687193387355 147.313
4.329001947444346 67.0654
4.35133427213731 46.4653
4.373666762177566 44.2979
4.395982011761091 44.3525
4.418314834921175 45.8737
4.44063041906622 52.1077
4.4629635787515625 59.8014
4.4852969080429785 59.0462
4.5076130004776225 53.1642
4.529946671403969 51.6525
4.552263106909177 51.711999999999996
4.574597122877047 52.5483
4.596931312711224 53.6346
4.619248269273446 54.2549
4.6415828092605835 55.4665
4.663900117405352 56.6581
4.686235010953232 57.7716
4.708552674085913 59.0426
4.730887924602802 60.7128
4.753223354952695 62.0562
4.775541557023902 64.0121
4.797877349456786 65.5876
4.820195915032126 67.4588
4.842532072957498 68.9339
4.864868414979744 70.9823
4.88718753227192 73.4098
4.909524244902505 75.7132
4.931843734218147 77.1909
4.954180820867835 80.3976
4.976518095879839 83.5694
4.998838149695359 86.4223
5.021175803844231 90.4148
5.043496238205739 94.3731
5.065834274903528 98.9248
5.088172504230693 104.432
5.1104935158799565 112.06
5.132832132875765 132.803
5.155153533596801 171.206
5.1774925416746225 224.65
5.199814334878411 502.629
5.2221537374521505 1392.02
5.244493338631803 3411.93
5.266815727034316 7589.31
5.289155727832427 11787.8
5.311478517248165 8544.05
5.333818921080011 2946.79
5.356159527788849 612.7669999999999
5.3784829252032536 203.636
5.400823940070432 153.07399999999998
5.423147747031976 134.041
5.445489173474152 123.184
5.467830807066149 117.583
5.490155234831516 113.59
5.512497285125229 109.76700000000001
5.534822130975162 107.34200000000001
5.557164601388673 104.73200000000001
5.579489868738879 101.553
5.601832762690846 100.73299999999999
5.6241758697774475 100.06299999999999
5.646501775867269 99.0215
5.668845311622074 97.4052
5.691171647754637 96.6259
5.713515615597765 95.5248
5.735859800852677 94.77600000000001
5.758186788542988 94.26100000000001
5.780531411018185 94.8974
5.802858837297399 94.4195
5.825203900414495 94.926
5.8475491852224 95.7042
5.869877275883075 95.4233
5.892223006467101 97.4486
5.914551544266608 99.0885
5.936897724049891 103.264
5.959244129804903 111.025
5.981573344815301 143.39600000000002
6.0039202049061 279.59
6.026249875609095 594.855
6.04859719346037 1189.99
6.070927323278297 2367.34
6.093275102315365 4307.39
6.115623113320588 5207.19
6.137953938319995 3302.55
6.160302415650845 1135.82
6.182633708324452 273.069
6.2049826554078376 121.04899999999999
6.227331838745022 96.9976
6.249663839443684 88.23100000000001
6.27201349767565 84.5972
6.294345974611799 87.0094
6.316696111167083 94.0806
6.339046488263839 89.65700000000001
6.361379686074702 78.1613
6.383730546639482 72.8086
6.406064229255215 70.1477
6.428415576718203 69.7984
6.450749747566656 68.7709
6.47310158535871 67.3539
6.495453669698332 66.6372
6.517788579421056 66.3215
6.540141159237969 64.9052
6.562476565766648 64.1455
6.5848296444934045 63.8641
6.607182974060425 63.5859
6.6295191323281015 63.5001
6.651872965955752 65.8852
6.6742096296068985 83.439
6.6965639707294615 114.96
6.71891856698715 113.081
6.741255995248479 83.4135
6.763611104154477 65.3542
6.785949046381137 60.6097
6.808304671371482 59.1887
6.8306605557940046 59.2238
6.852999275508618 58.1448
6.875355681171544 57.9846
6.897694923437771 57.6057
6.92005185377892 57.5243
6.9423916220322655 57.1897
6.964749080490181 56.5865
6.987106804399774 56.6858
7.009447368180821 56.488
7.031805625367033 56.3556
7.054146723727803 56.3117
7.076505517631004 56.5572
7.098864581288365 56.17100000000001
7.121206488070854 55.56
7.143566093607822 55.4171
7.165908543567245 56.0
7.188268694426048 56.1496
7.2106291193438095 56.0074
7.232972390625943 56.8762
7.255333366030969 65.8843
7.277677189091925 102.18700000000001
7.300038718428332 134.148
7.322400526130865 114.456
7.344745183422596 78.0387
7.367107550224791 60.1378
7.389452767901992 56.5028
7.411815697249891 55.9483
7.434161478756298 54.9518
7.456524974096713 54.9456
7.478888753837185 54.8785
7.501235387657368 54.986000000000004
7.523599738562711 55.5296
7.545946944825532 55.5146
7.568311870344528 56.1623
7.5906770845765665 56.2187
7.613025156078678 57.1359
7.635390950099687 58.1567
7.657739602662809 57.3923
7.680105979923558 56.6456
7.702472650212829 57.2438
7.724822180948224 56.427
7.747189439655568 56.6663
7.769539560075357 57.0315
7.791907410653562 57.4239
7.81425812420825 57.5691
7.836626570110925 57.6482
7.858995315087906 58.5639
7.881346924933401 58.6053
7.903716270417482 59.2054
7.926068482028405 59.6274
7.948438431475253 60.3438
7.9708086843180235 60.8778
7.993161805171116 61.718
8.015532667162402 61.8004
8.037886398416653 63.0606
8.060257873014221 63.6959
8.082629655331942 64.3566
8.104984308787587 65.1882
8.127356708900503 67.7335
8.149711981398308 72.3055
8.172085002766314 73.9113
8.194458336181368 71.3317
8.216814543847752 70.5318
8.23918850371002 70.8784
8.26154533906492 71.6684
8.283919928836452 73.5866
8.306277395339652 74.2392
8.328652618483376 75.8468
8.351028159736202 77.9957
8.373386579575245 80.4785
8.395762759396959 82.7908
8.418121819038275 87.1238
8.440498640894003 98.1097
8.462875785192262 112.115
8.485235811156207 137.482
8.507613602688501 203.607
8.529974277114228 312.009
8.552352719347912 461.36800000000005
8.574731488360351 745.985
8.59709314210385 1241.98
8.619472567021075 1817.09
8.64183487789147 2140.38
8.664214962183097 1831.08
8.686577933647762 987.7139999999999
8.708958680784317 389.462
8.731339760774953 169.03099999999998
8.753703729764451 114.626
8.77608547780821 101.95
8.798450116065078 97.7307
8.820832535634787 94.7069
8.843215292401656 93.0705
8.865580941199045 91.5563
8.887964374703538 90.3568
8.910330701447199 91.0327
8.932714815164482 91.8291
8.955099270424924 90.9151
8.977466620733543 88.6061
8.999851761421976 86.6628
9.022219798361645 85.2102
9.04460562795561 85.1404
9.066991803441677 84.7998
9.089360876979615 84.4127
9.111747746589993 84.4006
9.13411751544971 83.7431
9.156505082664324 83.1149
9.178875550323522 83.3235
9.20126381862328 83.2035
9.223652438908596 83.9482
9.246023961427412 83.9163
9.26841328802173 83.5197
9.290785518039224 83.4868
9.313175554425882 84.6397
9.335565947154315 84.5836
9.357939245086508 84.8421
9.380330352834827 84.4858
9.40270436697103 84.8006
9.425096193225055 84.6333
9.447488380180165 85.6505
9.469863475295412 85.7386
9.492256385987508 86.492
9.514632206018318 87.066
9.537025843935714 87.6018
9.559402392368193 88.0787
9.581796761000229 89.145
9.604191496441521 90.1285
9.626569144158516 93.0775
9.648964615551032 96.2603
9.671343000390081 97.7448
9.693739211225699 96.4676
9.716135793237463 95.4253
9.738515290448102 95.2032
9.760912617143402 96.1551
9.783292860202891 97.6657
9.805690935076182 99.085
9.828089385495742 99.7841
9.850470754023561 102.25
9.872869957865444 108.416
9.89525208097539 119.84100000000001
9.917652041736662 130.394
9.940052382417589 136.57
9.962435644102392 160.774
9.984836746950979 215.271
10.007220771957746 292.204
10.029622640473708 406.05400000000003
10.052007432299963 594.054
10.074410069984072 876.5369999999999
10.096813093716005 1277.33
10.119199042482517 1703.89
10.141602840636468 1915.55
10.163989564971628 1617.87
10.186394141051062 941.324
10.208799107559706 413.86300000000006
10.231187001965623 194.704
10.253592751657669 130.064
10.275981430388155 115.914
10.298387966769793 113.809
10.320794897965431 115.15100000000001
10.343184759907361 113.382
10.36559248305461 109.425
10.387983138083852 107.869
10.410391656691655 115.068
10.432800574501677 130.414
10.455192425893369 150.054
10.47760214443012 177.485
10.499994797678786 223.188
10.522405320453982 298.29400000000004
10.54479877906917 400.36800000000005
10.567210109595656 504.92900000000003
10.5896218454736 579.05
10.612016518879773 503.084
10.634429067781074 357.704
10.656824555333241 204.19299999999998
10.679237920773568 125.98899999999999
10.701651695961992 98.3237
10.724048411481384 91.348
10.746463008485165 88.601
10.768860546937125 86.7982
10.791275969274796 84.7974
10.81369180576079 83.8184
10.836090585366925 82.3336
10.858507252467449 81.2404
10.88090686379991 80.1316
10.903324365036394 79.8837
10.925724811614439 79.2133
10.948143150509463 79.9181
10.970561909719066 79.3477
10.992963615930844 77.4046
11.015383218085756 75.8966
11.037785768347074 74.5147
11.06020621697282 73.9416
11.082627090322113 73.3026
11.105030913430326 72.9233
11.12745263854165 73.2149
11.149857314510728 75.1155
11.172279894912576 79.0752
11.194702904450653 79.4324
11.217108866490921 76.3595
11.239532736615194 73.5589
11.26193956033512 71.8004
11.284364294577085 70.5481
11.306789462371718 68.9263
11.329197585398376 68.2477
11.351623622610898 68.1976
11.37403261614354 67.1151
11.396459526308487 67.1115
11.418869393879497 66.683
11.441297180532617 66.5122
11.463725406927658 66.0549
11.486136592353875 65.8483
11.508565700543707 66.0432
11.530977768845315 67.5043
11.553407762368774 67.7284
11.575838200059769 67.5962
11.598251599479612 66.02
11.620682927815501 64.7621
11.64309721895548 64.7585
11.665529441478206 64.2483
11.687962112597958 63.8246
11.710377748130886 63.9498
11.732811318753434 64.1781
11.755227854859067 63.9411
11.777662328529495 63.85
11.800079768750786 63.5169
11.822515149015453 63.5993
11.844950984084935 63.6147
11.867369787303163 63.5468
11.889806534289491 63.7134
11.912226250487029 63.8603
11.934663912939751 64.3491
11.9571020346363 64.1966
11.979523127133968 64.1143
12.001962169624331 65.172
12.024384183972964 67.4858
12.046824150809913 71.8033
12.069264581333726 77.7593
12.091687985297767 84.2572
12.11412934550045 94.1111
12.136553680195208 108.705
12.158995973632788 130.309
12.181438735204349 156.036
12.20386447284199 183.554
12.226308172985636 202.47299999999998
12.24873485024193 200.28099999999998
12.271179492516982 170.768
12.293607112949127 125.152
12.316052700916226 93.74799999999999
12.338498763250042 77.4282
12.360927805303868 69.8062
12.383374818673879 66.9178
12.405804812803074 65.5403
12.428252780773262 65.4003
12.45070122756722 65.3656
12.473132656675375 65.1527
12.49558206341869 65.3635
12.518014453510101 65.4273
12.540464823770117 65.49
12.562915677315177 65.8657
12.58534951575545 66.3861
12.607801338171472 67.9932
12.630236146511358 71.4887
12.652688941369085 74.7393
12.675124723177234 75.125
12.697578494048786 72.6797
12.720032754458185 69.8255
12.742470003354093 68.697
12.764925245138771 68.8813
12.787363476431278 69.1594
12.809819703166806 69.4354
12.83227642391173 70.4261
12.854716135692716 70.8679
12.877173846755147 71.9438
12.899614549869717 72.1553
12.9220732548287 73.0528
12.94453245827299 73.7704
12.966974655289818 74.8678
12.989434858002571 75.4917
13.011878055298721 76.6928
13.034339260862497 77.7962
13.056800969391883 79.0004
13.079245674017244 81.6564
13.101708390774869 85.6576
13.12415410463411 96.0693
13.146617833206086 109.04299999999999
13.169064559883248 122.074
13.191529303857127 137.9
13.213994557076367 162.61700000000002
13.236442809902437 198.968
13.258909083908291 249.74900000000002
13.28135835851934 303.094
13.30382565690295 364.58099999999996
13.326293469022952 412.129
13.348744283242008 417.077
13.371213125129904 357.079
13.39366497011003 263.8
13.416134845360597 174.827
13.438605238843131 125.251
13.46105863690397 111.15700000000001
13.483530069144786 113.348
13.505984506951902 119.72200000000001
13.528456981549432 130.605
13.550929978879088 146.576
13.573385983253365 170.63299999999998
13.595860028340867 207.352
13.618317081455832 251.678
13.64079217790333 298.756
13.663250283359057 337.694
13.685726434770173 369.173
13.708203115221277 337.49300000000005
13.730662806148091 265.575
13.75314054697177 188.101
13.775601299246777 127.979
13.798080104050406 98.3551
13.820559442405358 86.756
13.843021793671388 83.1942
13.865502201420897 81.6619
13.887965623051947 80.9768
13.910447103807167 79.8405
13.932929122629764 78.5618
13.955394156785959 78.3261
13.977877254034569 77.3318
14.000343367582113 76.3813
14.022827546871707 75.7592
14.045294743423524 75.0291
14.06778000837062 74.1289
14.090265817715476 74.1611
14.112734645763819 73.904
14.13522154619454 73.6067
14.157691466286913 73.5055
14.180179461423874 72.9512
14.202668005486178 72.7527
14.22513957064374 72.1047
14.247629214846473 71.8892
14.270101881097517 71.7193
14.29259262906496 71.7043
14.315083930490205 72.2021
14.337558255389705 72.354
14.360050666019726 72.1325
14.382526101071944 71.4941
14.405019624534942 70.6598
14.427513705993134 70.2028
14.449990813291825 70.2899
14.47248601302899 70.0007
14.49496423954951 70.1668
14.517460561197822 70.377
14.539939910570322 70.0608
14.562437357763558 70.1627
14.58493536931253 71.2812
14.607416409993311 71.8436
14.62991555254159 72.3963
14.652397725157423 72.3221
14.674898002342799 72.2708
14.697398848433282 72.0834
14.719882725991326 73.1637
14.74238471217934 75.1858
14.764869730765593 79.6509
14.787372860692983 83.6746
14.809876564079925 88.3996
14.83236330125751 95.1039
14.854868153850365 104.3
14.877356041159485 117.63799999999999
14.899862046604186 135.577
14.922351087688757 157.142
14.944858249632887 182.09099999999998
14.967365991421232 203.763
14.989856770231246 219.44400000000002
15.012365673994204 216.834
15.03485761569738 188.196
15.05736768508665 149.321
15.07987833888692 114.789
15.102372032001655 90.6133
15.124883856909658 77.8735
15.14737872204565 73.5933
15.169891721717274 71.775
15.192405310371893 71.7629
15.214901940621196 71.7067
15.237416709527137 71.6368
15.259914520936249 71.595
15.282430473753607 70.959
15.304947020131227 69.8963
15.327446610371178 69.0222
15.349964346154254 68.3345
15.372465126703139 68.1947
15.394984055556009 67.8263
15.417486030076159 67.71300000000001
15.44000615566487 67.3407
15.462526881230803 67.5521
15.485030653812652 67.4766
15.507552581617434 67.337
15.530057557334603 67.4822
15.55258069104857 67.4064
15.575104429329837 67.6557
15.597611216864632 67.5181
15.620136166564563 68.0059
15.6426441664095 69.732
15.665170331202765 72.8575
15.687697105158826 76.4838
15.710206930593545 80.373
15.732734925158933 84.8511
15.755245972089478 91.2197
15.77777519094324 100.993
15.800287463046663 113.369
15.822817909869592 130.453
15.84534897229804 147.796
15.867863089299354 167.627
15.890395385222186 182.58900000000003
15.912910736597423 189.71599999999998
15.935444269699861 181.75799999999998
15.957978423016485 155.768
15.980495633101265 125.056
16.003031029129367 96.8128
16.02554948280019 77.889
16.048086125229432 69.1901
16.070623392487107 65.7589
16.09314371869582 64.89699999999999
16.11568223789321 63.9788
16.13820381691126 63.1679
16.160743591742527 62.1849
16.183283996022084 61.7888
16.205807461423195 60.6171
16.228349126881973 60.0004
16.25087385432698 60.0086
16.27341678466365 59.2677
16.29594277784926 59.1522
16.31848697676433 59.1673
16.341031811604868 59.2612
16.36355971058487 59.5152
16.3861058195587 59.3423
16.40863499352978 58.3317
16.431182380342005 57.501000000000005
16.453730407713202 57.0296
16.476261501364792 56.7355
16.498810812136167 56.4575
16.52134319004079 56.6091
16.54389378792203 56.3906
16.566445031001553 56.3069
16.588979342490088 55.9593
16.61153187824822 55.8643
16.634067483263312 55.8814
16.656621315414416 56.0441
16.679175797408888 55.4321
16.701713349928728 55.4662
16.72426913389191 55.6695
16.74680798922351 55.8292
16.76936507887444 55.9687
16.791905240734874 55.8789
16.814463639794468 55.9352
16.837022695210294 55.7611
16.859564824093756 56.0531
16.882125194503903 56.6001
16.904668639217885 57.2321
16.927230328348003 57.1343
16.949792678493612 57.2003
16.972338104193863 56.744
16.994901778652235 56.4393
17.017448529496576 56.5784
17.040013531998152 57.1525
17.06257920018044 57.9224
17.0851279459922 58.8403
17.107694947817667 59.434
17.130245028099072 60.4247
17.15281336730298 62.0176
17.17536478578733 63.6583
17.19793446610687 66.0006
17.220504818648422 68.6313
17.243058251703697 71.33800000000001
17.265629950971032 75.3124
17.288184731571736 78.702
17.310757781306908 82.2732
17.33333150794385 83.7282
17.355888317140174 82.7508
17.37846339986244 77.6384
17.401021565958885 71.7263
17.42359800851343 66.5085
17.44617513265564 62.9351
17.468735341390783 61.1716
17.491261035594565 60.2516
17.51396340099364 60.1857
17.536490463869136 60.1099
17.559018209820174 60.1024
17.58154663977963 60.2537
17.604251766089718 60.4686
17.626781572227713 60.8529
17.64931206518155 60.8355
17.671843245885103 61.2828
17.69455114821572 61.5092
17.717083712612634 61.9613
17.739616967569667 62.2012
17.762150914021706 62.4709
17.78486160749854 62.4918
17.807396945166804 63.50899999999999
17.829932977143503 64.7211
17.85246970436452 66.987
17.875183204129467 69.0266
17.897721330097664 71.2216
17.920260154126645 73.6705
17.942799677153296 77.0136
17.9655159983646 80.9655
17.988056927677544 86.5781
18.010598558807683 93.9143
18.033140892692916 102.416
18.05586005052525 111.18799999999999
18.07840379824407 120.756
18.10094825154059 130.889
18.12366954819864 138.412
18.146215420998306 139.501
18.16876200220057 132.352
18.191309292745153 118.681
18.214033452627167 105.249
18.236582170236648 93.8305
18.259131600016456 88.6947
18.281681742907335 88.5413
18.304408781233683 91.9818
18.32696035875955 95.9521
18.349512652227624 100.34899999999999
18.372065662579683 105.066
18.394795594587553 106.637
18.41735004715306 103.56299999999999
18.43990521943684 97.1045
18.46246111238171 87.9814
18.485193953325208 77.791
18.507751296070428 70.5616
18.530309362314178 66.77
18.552868153000343 64.6442
18.57560391815056 63.2437
18.59816416623245 62.7839
18.620725141597372 62.343
18.643286845190268 61.8768
18.666025549835414 61.4306
18.688588718427933 60.9438
18.711152618092243 60.7155
18.73389353884365 60.5514
18.75645890921984 60.0006
18.77902501351406 59.6573
18.801591852673102 59.8182
18.824335739722738 59.1656
18.846904057212626 58.9603
18.8694731124168 58.7629
18.89204290628315 58.7444
18.914789774966803 58.7232
18.937361054791623 58.2707
18.959933076131318 58.152
18.982505839934877 58.0177
19.00525570560582 57.9966
19.027829963004184 57.8225
19.05040496572238 57.981
19.072980714710468 58.29
19.095733592739563 58.5965
19.11831084296757 58.786
19.140888842324735 59.3446
19.16346759176222 59.5158
19.18622349753803 59.9282
19.208803755869358 60.9542
19.231384767143577 62.2521
19.253966532312948 63.6755
19.276725481241822 65.7015
19.29930876296784 67.8895
19.3218928014549 70.3842
19.34465404436217 72.972
19.36723960516257 75.8436
19.389825925592426 77.0388
19.412413006605938 76.1938
19.43517731967805 73.0329
19.457765930683355 68.8377
19.48035530514408 63.9445
19.50294544401556 60.2922
19.525712842708348 57.56
19.54830451925909 56.076
19.570896963095727 55.1071
19.593490175174704 55.0155
19.616260674962184 54.8794
19.638855432416964 54.4755
19.661450960992624 54.4874
19.68404726164677 54.5125
19.706820878021247 54.3824
19.729418731756834 54.6682
19.752017360452857 54.4162
19.77461676506804 54.7949
19.797393513540218 54.8514
19.819994478951667 55.2423
19.84259622316767 55.7887
19.8651987471481 56.1951
19.887978643247177 56.3696
19.91058273574792 56.8399
19.933187610901943 57.7451
19.955969879466828 58.8902
19.97857632894404 60.3249
20.00118356396599 61.956
20.023791585494575 63.696000000000005
20.046577028914875 66.1251
20.069186632506966 67.8471
20.091797025500632 69.8334
20.114408208858933 70.7723
20.137196842715273 70.752
20.159809615886765 69.1607
20.18242318232135 66.8849
20.20503754298326 64.6616
20.227829382875154 63.3859
20.250445341109344 63.2827
20.27306209647285 63.3534
20.29567964993108 64.318
20.31847471147704 65.5218
20.34109387027612 66.2653
20.363713830075454 66.01899999999999
20.386334591841646 64.6363
20.409132890679302 61.8859
20.431755265564437 59.0142
20.454378445325528 56.3734
20.477002430930366 54.3491
20.499803982716553 52.9561
20.522429589228004 52.3429
20.54505600449589 51.8595
20.567683229489194 51.6167
20.590488049900088 51.387
20.61311690359731 50.9495
20.63574656993626 50.7932
20.658553853717297 50.4427
20.681185154618298 50.4718
20.703817271080066 50.446999999999996
20.72645020407368 50.1086
20.749260783967177 49.9407
20.771895359337133 49.8598
20.794530754161617 49.823
20.817166969412938 49.9293
20.83998086114876 49.6146
20.86261872660049 49.5281
20.885257415405402 49.6325
20.90789692853701 49.528
20.930714147864748 49.4236
20.953355319030678 49.6231
20.97599731745334 49.7175
20.99864014410749 49.5509
21.021460706796564 49.5994
21.044105199328826 49.7356
21.06675052302631 50.0517
21.089396678865015 50.2512
21.112220600704806 50.5219
21.134868430275347 50.7091
21.15751709492456 51.1471
21.180166595629693 51.2381
21.202993892429635 51.43
21.22564507473034 51.7102
21.24829709602816 52.2128
21.27112693608965 52.2778
21.293780644891275 52.3189
21.316435195634053 51.6843
21.339090589297417 50.9812
21.361923832041875 50.7538
21.384580921090404 49.8732
21.407238856007325 49.3406
21.429897637773326 49.1636
21.45273429906592 49.3876
21.475394784108598 49.3206
21.498056118951983 49.3378
21.520718304578022 49.5138
21.543558400304388 49.5823
21.566222297108816 49.8305
21.58888704765135 50.0844
21.61155265291521 50.5504
21.63439619898156 50.8738
21.657063523335786 51.1132
21.67973170537063 51.5157
21.7024007460706 52.2402
21.72524775840385 52.9338
21.747918526116475 53.8989
21.770590155457388 55.301
21.79326264741238 56.7804
21.816113141960237 58.4302
21.838787368860547 60.1189
21.861462461341976 61.485
21.884315579735777 63.2322
21.90699241312273 64.681
21.92967011506078 65.4068
21.95234868653799 65.217
21.9752053151131 64.2471
21.997885635446785 62.3436
22.020566828293532 60.4461
22.04324889464272 58.6302
22.066109049404666 57.1407
22.088792872571794 56.623999999999995
22.111477572219204 56.6461
22.1341631493376 56.7733
22.157026846313123 56.663000000000004
22.179714188221507 56.18899999999999
22.202402410582668 55.2102
22.22509151438863 53.8153
22.24795876962584 52.361999999999995
22.270649646204486 51.3553
22.293341407213727 50.6097
22.316034053646906 50.1634
22.338904883215342 49.8723
22.36159931041458 49.8757
22.38429462602756 49.7647
22.40699083104897 49.7044
22.429865251039757 49.6393
22.452563244831367 49.6399
22.47526213102522 49.684
22.49813925616515 49.6306
22.520839937143307 49.6398
22.543541513520587 49.4097
22.56624398629403 49.128
22.589124730075895 49.3679
22.611829005656723 49.6146
22.63453418063466 49.6773
22.657240256008077 49.9528
22.680124634582935 50.0705
22.70283252079775 50.3541
22.725541310413075 50.5678
22.74825100442868 50.8897
22.771139033969575 51.4213
22.79385054687155 51.6974
22.81656296718292 52.3575
22.83927629590484 53.181000000000004
22.862167992606945 54.0791
22.88488314827121 55.0168
22.907599215359284 55.8041
22.93031619487366 56.7742
22.953211574954405 57.718
22.975930389478226 58.4119
22.998650119445763 58.6147
23.02137076586092 58.1628
23.044269845560063 56.9337
23.06699233506288 55.3537
23.089715744034912 53.62
23.112617610931565 52.0052
23.135342869061212 50.9023
23.158069049684816 49.9615
23.1807961538087 49.613
23.20370174880544 49.7035
23.226430710184808 49.7442
23.249160598093425 49.818999999999996
23.271891413539002 50.1158
23.294800752937697 49.7798
23.31753343374794 50.0802
23.340267045128353 50.3294
23.36300158808808 50.6275
23.38591468821339 50.9778
23.408651104658304 51.419
23.431388455719986 51.9935
23.454126742409 52.8458
23.4770436196085 53.6352
23.499783787914662 54.7252
23.522524894889884 55.6549
23.54526694154616 56.4069
23.56818761219047 57.3478
23.59093154860734 58.0372
23.613676427751283 58.6207
23.636422250635754 57.8929
23.659346731118656 56.4672
23.68209445191868 54.6591
23.704843119509587 52.5671
23.72759273490623 50.4811
23.750521041644767 48.9139
23.77327256312355 47.9262
23.796025035462787 47.5373
23.818956224555475 46.9402
23.841710609113413 46.8114
23.86446594758979 46.5438
23.887222241002014 46.2978
23.910157285144578 45.9977
23.932915498962537 46.0848
23.955674670778713 45.8585
23.978434801611975 45.7631
24.001373717286125 45.4984
24.024135776723917 45.4166
24.046898798245582 45.3974
24.06966278287146 45.3159
24.092605586582614 45.016999999999996
24.115371508023642 44.9046
24.1381383956401 44.7294
24.16090625045381 44.69
24.183852958731244 44.663000000000004
24.206622758582608 44.5039
24.229393528706886 44.2945
24.252165270127392 44.4325
24.27511589952438 44.3157
24.297889594216997 44.2533
24.32066426328598 44.0188
24.34343990775613 44.098
24.36639447485003 43.8735
24.38917208083877 43.8189
24.41195066531332 43.8115
24.43490819850244 43.6891
24.457688750692377 43.5419
24.48047028445616 43.6731
24.503252800821233 43.735
24.526214300784112 43.7784
24.548998793132213 43.7014
24.57178427117417 43.5993
24.59457073593893 43.8739
24.617536219319863 43.7095
24.64032466834748 43.6063
24.663114107195035 43.6127
24.685904536893013 43.3705
24.708874020360852 43.295
24.731666442613744 43.2135
24.754459858818787 43.0579
24.777254270007962 42.9637
24.80022777025625 42.8801
24.82302418230472 42.9588
24.845821592443674 42.9989
24.86862000170663 42.9177
24.891597535453727 42.8725
24.914397953892728 43.1064
24.93719937456671 42.9489
24.96000179851076 43.2225
24.98298338249997 43.3937
25.00578782394922 43.5183
25.028593271784167 43.8468
25.05157790644186 44.152
25.07438537804115 44.0911
25.097193859145293 44.2831
25.120003350792075 44.5332
25.142992065061257 44.8752
25.165803588823465 45.1782
25.18861612625217 45.3837
25.211429678386736 45.483000000000004
25.234422489079968 45.4601
25.257238081693636 45.2611
25.280054692141732 45.4222
25.3028723214652 45.4851
25.325869245420463 45.5842
25.348688923599397 45.5057
25.371509623787006 45.6398
25.394331347025812 45.2978
25.41733240110666 44.7727
25.440156181590016 44.2141
25.46298098826268 43.672
25.48580682216873 42.9759
25.50881202326435 42.453
25.53163992281684 42.0898
25.55446885274561 41.8606
25.577298814096377 41.614
25.600308179121807 41.6434
25.623140214533745 41.56100000000001
25.64597328451537 41.4029
25.66898578564376 41.1357
25.691820936010206 41.214
25.714657124097695 41.2736
25.737494350954734 41.2841
25.760511045684957 41.1629
25.783350361364224 41.2507
25.806190718969255 41.2925
25.82903211955018 41.2909
25.852053024868923 41.2048
25.874896522722523 41.3053
25.897741066713106 41.2124
25.920586657892454 41.4433
25.943611790812668 41.5369
25.966459487728237 41.5851
25.989308234998564 41.6795
26.01215803367705 42.0779
26.03518741123814 42.09
26.05803932412957 42.3275
26.080892291600094 42.3398
26.10374631470478 42.2013
26.12677995397268 42.42
26.14963609978026 42.5054
26.172493304397875 42.0882
26.19535156888223 41.77
26.218389486949604 41.5392
26.241249882640123 41.3218
26.26411134137826 41.0463
26.28715248187403 40.9613
26.31001607820869 40.7499
26.3328807407756 40.6458
26.35574647063438 40.8924
26.37879191991473 40.9158
26.401659795896734 40.8668
26.424528742360263 41.013999999999996
26.447398760366614 41.2465
26.470448535598294 41.3881
26.49332070826805 41.4658
26.516193955675355 41.7574
26.53906827888316 41.9472
26.562122397260108 42.148999999999994
26.584998883685063 42.3666
26.607876449110325 42.4522
26.63075509460056 42.6571
26.65381357334404 42.7977
26.67669439061878 42.794
26.699576291163382 42.7962
26.722459276044212 42.631
26.745522132402975 42.3358
26.768407297649354 42.1068
26.791293550442003 41.7249
26.814180891848974 41.4227
26.837248143099337 41.1194
26.860137673466657 41.0367
26.88302829566349 40.8698
26.90592001075963 40.6132
26.92899167420566 40.5366
26.951885586870763 40.1115
26.974780595655517 39.9883
26.99785558178161 39.9124
27.020752794605112 39.7291
27.043651106772522 39.508
27.06655051935668 39.598
27.089629948036183 39.4915
27.112531573292053 39.4215
27.135434302194138 39.5026
27.158338135817015 39.3061
27.181422024430987 39.4082
27.204328079372566 39.1134
27.22723524226965 39.2395
27.250143514198573 39.1563
27.273231880156334 39.2671
27.296142382065014 39.1425
27.319053996245536 38.9206
27.341966723775965 39.0678
27.365059584515222 39.1276
27.38797455070062 39.214
27.410890633481237 39.0547
27.433807833936918 38.9737
27.456905206923906 39.1326
27.47982465472398 39.1942
27.502745223449743 39.2218
27.525666914182825 39.3289
27.548768816912457 39.315
27.571692763693633 39.1209
27.59461783573812 39.104
27.617723149491244 38.9147
27.640650484125285 38.7212
27.66357894728264 38.7985
27.686508540048052 38.8137
27.709618414237887 38.5937
27.732550278321757 38.4637
27.755483275279115 38.5327
27.778417406196485 38.6393
27.801531858397514 38.6567
27.824468269376716 38.566
27.847405817586786 38.6595
27.870344504116094 38.7825
27.893463551932008 38.7186
27.916404527281053 38.9276
27.93934664422563 38.9569
27.962289903855886 38.9735
27.98541356491974 39.3135
28.00835912214229 39.2883
28.03130582533231 39.5211
28.054253675581805 39.6926
28.077381967556104 39.7612
28.100332124185126 39.6608
28.123283431160893 39.5869
28.146235889577238 39.4285
28.169368830154156 39.1515
28.192323603752033 38.9562
28.215279532083304 38.6919
28.238415973016764 38.5055
28.261374223145094 38.412
28.284333631303806 38.2703
28.307294198589954 38.2071
28.330435319167677 37.7926
28.353398217078915 37.4907
28.376362277420153 37.1618
28.39932750129032 37.1524
28.422473319286713 37.0901
28.44544088262495 36.9721
28.468409612800283 36.7773
28.491379510913497 36.6771
28.51453004413313 36.6099
28.53750229057244 36.5115
28.56047570826344 36.4083
28.583450298308804 36.5716
28.606605564586562 36.2494
28.629582511831156 36.2909
28.65256063474956 36.3222
28.675539934446338 36.2244
28.698699951647605 36.1368
28.72168161743193 36.0867
28.74466446331978 36.1956
28.767648490417624 36.0513
28.790813276438353 35.8728
28.813799678527303 36.0098
28.836787265157085 35.999
28.859955641890075 36.0504
28.882945610203045 35.9479
28.905936766392035 35.9598
28.928929111566863 35.9804
28.952102288520145 35.7876
28.975097024308607 35.7221
28.998092952423807 35.6194
29.021090073977508 35.5077
29.04426806913204 35.4545
29.067267590245258 35.2906
29.090268308143695 35.2073
29.11327022394099 35.1974
29.13645305530891 35.0208
29.159457379627167 34.9451
29.18246290519685 34.9492
29.20546963313352 34.9436
29.22865731875826 34.9363
29.25166646419296 34.9138
29.27467681535305 34.7887
29.29768837335608 34.9835
29.320880931312562 34.8743
29.34389491580634 34.7464
29.366910110507334 34.5257
29.38992651653503 34.7177
29.41312396492981 34.8442
29.436142806456754 34.7556
29.45916286268059 34.4936
29.48236399319994 34.5983
29.50538649169417 34.4789
29.528410208259935 34.2699
29.55143514402014 34.065
29.574641196749695 34.0149
29.597668583816574 33.8365
29.6206971934585 33.4803
29.64372702680042 33.7383
29.666938019934474 33.5574
29.689970313635285 33.6961
29.713003834422636 33.5869
29.73603858342347 33.5006
29.759254535188578 33.385999999999996
29.78229175361658 33.3811
29.80533020365064 33.446
29.82836988641968 33.3779
29.85159081507472 33.2805
29.874632976355343 33.286
29.89767637376955 33.3143
29.920721008448314 33.2102
29.9439469322847 33.1892
29.96699405457564 33.1141
29.9900424175358 33.1354
30.013092022298157 33.07
30.03632295963995 33.052
30.059375061131373 33.0454
30.08242840783577 33.1482
30.105483000888153 33.138000000000005
30.128718970092244 32.9908
30.151776069006917 32.8912
30.17483441768648 33.1072
30.198074175317235 32.9739
30.221135036724256 32.9554
30.24419715131772 32.8014
30.267260520236203 32.8092
30.290505341942243 32.897
30.313571232750228 32.93
30.336638381310948 32.9093
30.35970678876503 32.8681
30.38295669299435 32.7759
30.40602763151657 32.828
30.429099832366074 32.7259
30.452173296685572 32.6008
30.47542830191959 32.5665
30.498504306502497 32.6707
30.521581577995562 32.624
30.544660117543582 32.6776
30.56792024229725 32.7432
30.59100133132069 32.6419
30.614083691845494 32.6318
30.637167325018545 32.7709
30.660432587840603 32.8161
30.683518779717886 32.654
30.70660624769615 32.7494
30.729694992924372 32.6472
30.75296541239743 32.7106
30.77605672557558 32.6296
30.799149319462742 32.5254
30.8224236211637 32.5235
30.845518789950724 32.3988
30.868615242910597 32.3894
30.891712981195973 32.1585
30.91499247215866 32.1558
30.938092794619365 32.1218
30.96119440587579 32.0657
30.984297307082752 31.8591
31.00758200598383 31.7916
31.030687500658694 31.763
31.053794288760695 31.7179
31.076902371446767 31.7011
31.100192296997445 31.5907
31.12330298246119 31.5652
31.14641496599209 31.4902
31.169528248749216 31.5558
31.19282341969534 31.4026
31.215939314557186 31.5416
31.239056512134788 31.4513
31.262175013589378 31.4406
31.28547544871168 31.3678
31.30859657161541 31.2936
31.331719001892175 31.3346
31.35484274070538 31.4644
31.378148458819545 31.48
31.401274828443725 31.4286
31.424402510106933 31.4492
31.447712205419993 31.497
31.470842524931633 31.4112
31.493974159989783 31.3213
31.51710711176168 31.3079
31.54042212308802 31.3475
31.563557722100917 31.281999999999996
31.586694641341655 31.0892
31.609832881979628 30.9766
31.63315322823208 30.9741
31.656294125521327 30.8459
31.679436347728515 30.891
31.70257989602529 30.7544
31.725905596152327 30.7205
31.74905181052835 30.6575
31.772199354521323 30.6102
31.79534822930507 30.6465
31.818679302290967 30.6329
31.84183085259981 30.6208
31.864983737233473 30.6196
31.88813795736804 30.6274
31.911474422233013 30.5002
31.934631327356435 30.5027
31.9577895715215 30.5197
31.980949155906522 30.5496
32.004291031706956 30.4452
32.027453310562606 30.3821
32.05061693318573 30.2968
32.07396288236386 30.2521
32.09712920658542 30.1525
32.12029687812702 30.0437
32.14346589817093 29.9843
32.166817291729984 29.9942
32.18998902288583 29.9062
32.21316210610336 29.8812
32.23633654256711 29.788
32.259693399663725 29.7777
32.282870556771144 29.6956
32.30604907069099 29.6816
32.329228942610065 29.5344
32.35259128243769 29.3915
32.375773884550505 29.4043
32.398957848235646 29.4029
32.422143174682176 29.386
32.445511016471215 29.3083
32.468699082679954 29.1605
32.49188851523011 29.2091
32.51507931531304 29.1641
32.538452678331 29.1171
32.56164622776311 28.9712
32.58484114831493 28.8939
32.60803744118015 28.927
32.631416344731896 28.9412
32.654615396551876 28.9094
32.67781582427913 28.9297
32.701198898634416 28.843000000000004
32.72440209253756 28.6638
32.747606665947124 28.7052
32.77081262006088 28.6653
32.79420126883317 28.5824
32.81740999876112 28.5754
32.840620112999424 28.5299
32.86383161274818 28.4772
32.88722585534586 28.52
32.91044014056596 28.5661
32.933655814909734 28.5697
32.95687287957963 28.4734
32.98027273544904 28.3404
33.00349259526636 28.3616
33.026713849030116 28.3101
33.04993649794511 28.2434
33.073341986570746 28.1681
33.09656744032826 28.2931
33.11979429286444 28.2736
33.14302254538647 28.248
33.166433686291185 28.2771
33.18966475336992 28.1372
33.212897224069096 28.0598
33.23613109959831 28.0433
33.259547912343415 27.9983
33.2827846121627 27.9655
33.306022720453775 27.9249
33.32926223842861 27.8648
33.352684742614166 27.8835
33.37592709463173 27.8667
33.399170859982064 27.7479
33.422597648419426 27.7674
33.44584425514446 27.5855
33.46909227885668 27.5909
33.4923417207723 27.3768
33.51577423505344 27.6132
33.539026528130385 27.401999999999997
33.56228024307245 27.3528
33.585535381098246 27.0769
33.60897364093058 27.1514
33.63223163992385 27.2162
33.6554910656699 27.0693
33.678751919389796 27.1098
33.702195944520106 27.0062
33.72545966903325 27.0197
33.74872482519663 26.9431
33.771991414233746 26.9973
33.79544122444841 26.8529
33.81871069412428 26.8679
33.84198160035767 26.7555
33.86525394437455 26.7942
33.88870955949969 26.7537
33.911984794020626 26.6437
33.93526147001624 26.634
33.958539588715006 26.6341
33.98200102861669 26.6154
34.0052820477047 26.5541
34.02856451319451 26.4179
34.05203033759056 26.4289
34.07531571090147 26.4884
34.09860253431845 26.416
34.121890809074316 26.3423
34.145362493118924 26.3022
34.16865368561615 26.1804
34.191946333164054 26.235
34.21524043699793 26.2105
34.23871800066799 26.1717
34.26201503218366 26.105
34.28531352370466 25.9691
34.30861347646881 25.9687
34.33209693978188 25.8952
34.3553998301885 25.9445
34.378704185565205 25.8718
34.402010007152356 25.7982
34.42549939016683 25.7724
34.44880815937748 25.6128
34.472118398533134 25.7041
34.49543010887669 25.5587
34.51892543169198 25.4675
34.54224009966052 25.4415
34.56555624255917 25.5258
34.58887386163339 25.4816
34.61237514439016 25.3806
34.6356957311114 25.3045
34.65901779775809 25.288
34.68252356662995 25.3617
34.705848608458616 25.305
34.72917513396849 25.2503
34.75250314440949 25.111
34.77601490857862 25.1557
34.799345904259795 25.1124
34.82267838863559 25.1067
34.846012362958525 25.0245
34.869530142679984 24.9418
34.89286711232212 24.9991
34.91620557568269 25.0031
34.93954553401677 24.9732
34.9630693495876 24.8766
34.986412313340814 24.9312
35.00975677584668 24.831
35.033102738362956 24.7361
35.05663261012228 24.7226
35.0799815881786 24.761999999999997
35.10333207003229 24.6798
35.12668405694369 24.6921
35.150220005273056 24.6303
35.17357501786656 24.6751
35.19693153931268 24.6217
35.220289570874385 24.6016
35.24383161619786 24.5808
35.267192683604904 24.5195
35.290555264930376 24.5237
35.314101899412165 24.5192
35.33746752422433 24.475
35.36083466676374 24.4303
35.38420332829803 24.3568
35.407756095629054 24.3984
35.43112781085063 24.3416
35.45450104888391 24.3779
35.477875810999194 24.3275
35.50143473172161 24.2214
35.52481255774625 24.2599
35.54819191167777 24.2668
35.57157279478914 24.1832
35.595137889488406 24.0889
35.61852184675279 24.0287
35.641907337029984 24.01
35.665294361595684 24.0029
35.68886565090076 23.9462
35.7122557598848 23.8571
35.73564740699838 23.9284
35.759040593519934 23.87
35.78261809810353 23.8569
35.80601437933051 23.6419
35.829412203814705 23.712
35.85281157283719 23.6373
35.876395313415884 23.669
35.8997977874528 23.5843
35.92320180988546 23.5314
35.946790244133936 23.5187
35.97019737933222 23.4563
35.993606066789866 23.5279
36.01701630779276 23.4649
36.04061101440684 23.3962
36.06402437852291 23.4084
36.08743930005611 23.3964
36.1108557802951 23.2785
36.13445678011326 23.2274
36.15787639383515 23.2306
36.18129757014299 23.1241
36.20472031032821 23.1041
36.22832762423364 23.0987
36.25175350829375 23.0449
36.275180960119776 22.9544
36.298609981005924 23.0319
36.32222362992669 22.9187
36.34565580510207 22.963
36.36908955323448 22.998
36.39252487562093 22.7872
36.416144880530226 22.8018
36.43958336764275 22.785999999999998
36.463023432914625 22.7674
36.486465077645676 22.7786
36.51009145956204 22.7981
36.53353627947859 22.7016
36.55698268276811 22.694000000000003
36.58043067073321 22.6594
36.60406345072071 22.5726
36.62751462435344 22.5006
36.65096738658405 22.4889
36.67460498210655 22.5228
36.69806093788647 22.5061
36.72151848619297 22.4057
36.744977628333636 22.3924
36.76862165890998 22.2998
36.79208400512205 22.3187
36.81554794910557 22.3012
36.83901349217101 22.1567
36.862663978991606 22.1547
36.88613273667352 22.1149
36.90960309738324 22.14
36.933075062434064 22.1215
36.95673202673572 22.0028
36.98020721697122 21.9925
37.003684015502365 21.9712
37.027162423645365 21.9243
37.050825886711465 21.9278
37.07430753063053 21.8684
37.09779078812467 21.8108
37.121275660513014 21.8767
37.144945643673694 21.7706
37.16843376245278 21.7072
37.19192350009803 21.8078
37.215414857931435 21.7082
37.239091382563885 21.6238
37.262585997426164 21.5977
37.28608223645736 21.6141
37.309763684451696 21.5477
37.33326318851098 21.4884
37.356764320726555 21.4796
37.380267082425526 21.5309
37.40395510942588 21.4571
37.42746114683234 21.3866
37.45096881771841 21.3569
37.474478123414166 21.3145
37.49817275092816 21.2325
37.52168534303452 21.2237
37.54519957395567 21.1462
37.568715445024665 21.1542
37.592416694607714 21.118000000000002
37.61593586281424 21.1943
37.63945667518264 21.1151
37.66297913304891 21.0528
37.68668702630454 21.0055
37.710212792059274 21.0039
37.733740207334854 20.9529
37.757269273470364 20.8994
37.780983832050374 20.9082
37.80451621684926 20.8908
37.82805025654007 20.8389
37.851585952464795 20.7141
37.8753071980695 20.6993
37.89884622345676 20.6351
37.92238690911902 20.6271
37.94611318753442 20.6359
37.969657210779765 20.618000000000002
37.99320289834801 20.5995
38.016750251586465 20.5714
38.04048325513017 20.5169
38.06403395679343 20.4649
38.087586328183946 20.377
38.11114037065203 20.3051
38.13488012115898 20.4439
38.1584375229181 20.3253
38.181996599821 20.3075
38.205557353221124 20.2628
38.229303872575656 20.2736
38.2528679961576 20.2227
38.27643380031219 20.2369
38.30000128639589 20.1534
38.32375459653193 20.1391
38.34732546371299 20.1098
38.37089801690786 19.9937
38.39447225747609 20.0853
38.418232380377425 20.0208
38.441810012983396 20.038
38.46538933705673 19.9996
38.488970353960084 19.9574
38.51273731166058 19.8775
38.536321731567014 19.8306
38.55990784840681 19.8332
38.58367995004091 19.7759
38.60726947812959 19.6802
38.63086070726198 19.6978
38.654453638806274 19.7773
38.678232613930824 19.6498
38.70182896773327 19.5719
38.72542702806741 19.5356
38.7490267963045 19.523
38.77281266709232 19.515
38.79641586862214 19.5215
38.8200207821842 19.5253
38.843627409152944 19.5134
38.86742019782782 19.3816
38.891030269149255 19.3133
38.914642058016156 19.3939
38.938255565806124 19.2884
38.96205529464307 19.2284
38.98567225787121 19.259
39.00929094417078 19.2573
39.03291135492255 19.2207
39.05671804624804 19.1708
39.080341923549106 19.1701
39.103967529460334 19.1136
39.127594865365744 19.0083
39.15140854155791 18.9981
39.17503935514948 19.0625
39.19867190290282 18.9682
39.22249083587951 18.9603
39.24612686969409 18.9106
39.269764641845306 18.9211
39.293404153722804 18.9201
39.317230110864074 18.8107
39.34087311998506 18.7585
39.36451787301696 18.7792
39.388164371352595 18.6691
39.41199737518003 18.6786
39.43564738196752 18.6577
39.45929913825317 18.5841
39.48295264543308 18.5553
39.506792718520884 18.5129
39.530449745387216 18.5702
39.55410852735203 18.4824
39.57776906581474 18.5182
39.60161623079 18.5172
39.625280300200025 18.4208
39.64894613032202 18.3643
39.67261372255866 18.4274
39.6964680021016 18.3673
39.72013913657293 18.3422
39.74381203738292 18.3337
39.76748670593756 18.273
39.79134812278169 18.2817
39.81502634488497 18.2203
39.83870633896685 18.2005
39.862388106436654 18.0841
39.88625668336918 18.0655
39.90994201572829 18.0925
39.933629125719285 18.1244
39.957503091207826 18.0249
39.9811937746168 18.0662
40.00488623990914 17.9809
40.02858048850006 17.8422
40.05246165409549 17.8848
40.076159487492085 17.9074
40.099859108448875 17.8811
40.123560518384345 17.8275
40.1474489070226 17.7983
40.171153913178564 17.7891
40.194860712584955 17.7418
40.2185693066637 17.7396
40.242464941335314 17.7117
40.26617714307655 17.6393
40.289891143772046 17.7078
40.3136069448471 17.6693
40.33750984859743 17.5925
40.3612292688043 17.5404
40.3849504936829 17.5176
40.40867352466194 17.4864
40.43258372059144 17.4332
40.45631038219906 17.5154
40.48003885420956 17.3851
40.503769138055105 17.355999999999998
40.52768664931955 17.4223
40.55142057531802 17.3649
40.57515631746428 17.2382
40.599079334038514 17.3033
40.62281872700477 17.2107
40.64655994043941 17.2025
40.67030297578061 17.1282
40.69423334835778 17.2006
40.71798004609188 17.1508
40.74172857006355 17.0885
40.76547892171441 17.0663
40.7894166736039 17.019000000000002
40.813170699248566 17.012999999999998
40.83692655691388 17.0155
40.86068424804498 17.0076
40.884629402612525 16.9673
40.908390779366385 16.9597
40.932153993938 16.893
40.95591904777605 16.8972
40.979871628443995 16.942999999999998
41.003640379561936 16.8477
41.02741097430883 16.7717
41.05118341413683 16.7954
41.075143444384416 16.7885
41.098919593177826 16.7864
41.1226975914255 16.705
41.14647744058318 16.6559
41.170444943946755 16.6477
41.19422851378379 16.6459
41.218013938914645 16.5753
41.24198706625173 16.5503
41.26577622087193 16.534000000000002
41.289567235177785 16.4892
41.31336011063129 16.5566
41.337340752422875 16.4798
41.361137369129835 16.4376
41.38493585138705 16.3903
41.40873620066004 16.3359
41.43272438060107 16.3257
41.45652848292052 16.3108
41.48033445666918 16.2404
41.50414230331616 16.2392
41.528138045159764 16.1362
41.551949656675205 16.1544
41.575763145513235 16.151
41.59957851314666 16.1083
41.62358184070442 16.034000000000002
41.64740098505737 16.0753
41.6712220126409 16.0614
41.69504492493139 16.0652
41.71905586207357 15.995
41.74288256296395 15.9303
41.766711153007456 15.8831
41.79054163368412 15.8892
41.814560204340054 15.8866
41.838394485526365 15.9069
41.86223066180303 15.8514
41.88625497706819 15.7868
41.910094962812 15.8291
41.93393684811168 15.7347
41.95778063445365 15.7041
41.981812625263366 15.6976
42.00566023303407 15.6795
42.029509746323676 15.6592
42.05336116662236 15.6519
42.077400857069705 15.6455
42.10125611078846 15.6015
42.12511327600405 15.5888
42.14897235421036 15.5062
42.173019768448455 15.5083
42.19688269209613 15.4913
42.22074753323349 15.4961
42.24461429335818 15.4177
42.268669455600495 15.3444
42.292540073217886 15.3815
42.31641261433284 15.380999999999998
42.34028708044675 15.3267
42.36435001496739 15.2431
42.38822835065557 15.2646
42.41210861586426 15.2895
42.4359908120986 15.2668
42.46006154323262 15.1914
42.48394762115317 15.1528
42.507835634632315 15.1593
42.531912233047436 15.1239
42.55580413732265 15.0655
42.579697981698 15.0702
42.60359376768525 15.0038
42.62767820545945 15.0034
42.65157789440821 14.9844
42.67547952952185 14.9326
42.699383112316 14.9493
42.72347541395347 14.9129
42.74738291190531 14.8661
42.771292362102166 14.876
42.795203766063516 14.8393
42.819303956130405 14.7689
42.843219287476536 14.7727
42.86713657716324 14.7254
42.89105582671383 14.6798
42.91516392983864 14.6724
42.939087119032166 14.6687
42.963012272677304 14.5918
42.98693939230129 14.6478
43.01105543317513 14.5988
43.034986504731386 14.5846
43.05891954686589 14.5545
43.08285456110972 14.5284
43.10697856448665 14.4842
43.130917542983475 14.4257
43.15485849820081 14.4384
43.17880143167367 14.4327
43.20293342237094 14.3702
43.226880332449 14.3271
43.25082922540554 14.3799
43.27496722682525 14.3229
43.29892010567796 14.2874
43.32287497204102 14.2613
43.34683182745632 14.2283
43.370977859791836 14.2367
43.39493871351105 14.1849
43.41890156092628 14.2029
43.44286640358341 14.1472
43.46702049182749 14.0642
43.49098934522816 14.0398
43.51496019852649 14.1113
43.5389330532723 14.0558
43.56309522248204 14.0323
43.58707210044314 14.0297
43.61105098451946 13.9634
43.63503187626491 13.9593
43.659202151562134 13.9325
43.68318707902681 13.9739
43.70717401884041 13.9084
43.731162972560874 13.8878
43.75534137913236 13.8395
43.779334381108384 13.8111
43.803329401683186 13.814
43.82732644241872 13.8096
43.8515130055166 13.7412
43.87551410707659 13.697000000000001
43.89951723350145 13.6958
43.923709934595614 13.649000000000001
43.94771713129917 13.6276
43.97172635758096 13.6644
43.99573761501002 13.6167
44.0199385169922 13.5965
44.04395385732619 13.5655
44.067971233533086 13.540999999999999
44.09199064718605 13.488
44.11619977548961 13.4163
44.14022328470671 13.453
44.16424883610785 13.446
44.18827643127035 13.4523
44.21249381139513 13.4333
44.236525514814076 13.3466
44.26055926674478 13.3233
44.28459506876863 13.352
44.3088207262813 13.2863
44.33286064928722 13.2232
44.35690262714919 13.2359
44.38094666145278 13.2096
44.4051806219871 13.2313
44.42922879003185 13.2011
44.45327901929361 13.1614
44.477331311362136 13.1496
44.501573600619416 13.1255
44.525630039221795 13.1033
44.54968854541895 13.0435
44.573937102200176 13.0369
44.5979997645541 13.0471
44.622064499300315 13.0074
44.64613130803592 12.9726
44.67038823869318 12.9881
44.69445921643748 12.9041
44.718532272981385 12.8777
44.742607409926194 12.8929
44.76687274034801 12.9035
44.79095205918753 12.8394
44.81503346325094 12.8047
44.839116954143876 12.8066
44.86339071028742 12.7281
44.88747839599524 12.710999999999999
44.91156817336837 12.7349
44.93566004401666 12.7061
44.959942251908146 12.6882
44.984038330325966 12.6346
45.00813650686762 12.5788
45.03223678314731 12.5828
45.05652746888232 12.5898
45.08063196592069 12.5097
45.104738567558705 12.5153
45.128847275414856 12.5406
45.15314646515866 12.4511
45.17725940679741 12.4886
45.20137445952892 12.4432
45.22568004865265 12.4211
45.24979934496396 12.3925
45.27392075725247 12.373
45.29804428714431 12.419
45.322358426247604 12.325
45.346486212804315 12.3174
45.370616121861914 12.3126
45.39474815505086 12.3085
45.41907087049246 12.2741
45.4432071734666 12.2357
45.46734560548283 12.1982
45.49148616817604 12.2398
45.51581748638564 12.1508
45.5399623320197 12.1256
45.56410931325473 12.1294
45.58825843173002 12.1525
45.61259837920865 12.1009
45.636751793816 12.07
45.66090735060093 12.0041
45.68506505120716 12.0366
45.7094136545275 12.0104
45.73357566449271 11.9603
45.75773982322992 11.9406
45.78190613238733 11.9295
45.806263418194064 11.8779
45.83043404997326 11.8903
45.85460683713677 11.8632
45.87897065658495 11.8041
45.90314777634752 11.7712
45.92732705646868 11.7832
45.9515084986045 11.7594
45.97588104735473 11.7346
46.00006683541565 11.714
46.02425479047904 11.73
46.04844491420549 11.6994
46.0728262191024 11.7082
46.09702070211635 11.6711
46.12121735879483 11.6841
46.14541619080294 11.6485
46.169806278764455 11.6281
46.194009483459034 11.6078
46.21821486849841 11.5507
46.24242243555223 11.5247
46.266821333570014 11.5082
46.29103328674601 11.4813
46.31524742696538 11.4985
46.33946375590237 11.4632
46.36387149104216 11.4328
46.38809221957392 11.4008
46.41231514186606 11.4053
46.436540259597464 11.4102
46.460956858999374 11.3402
46.48518638983522 11.3326
46.509418121166966 11.3128
46.533652054678114 11.2669
46.55807754555709 11.245
46.58231590571962 11.2715
46.60655647313217 11.2193
46.630988654873654 11.1859
46.655233659129024 11.1176
46.67948087571551 11.1427
46.70373030632484 11.1573
46.72817142736393 11.1234
46.752425308428684 11.1159
46.77668140861147 11.0803
46.80093972960865 11.0492
46.82538981736788 11.0216
46.849652602470904 10.9782
46.87391761349769 10.9951
46.8981848521493 10.9862
46.9226439341274 10.9284
46.946915650573224 10.8995
46.97118959976749 10.9126
46.99546578341598 10.8764
47.019933887188216 10.8437
47.04421456235744 10.8709
47.06849747711879 10.8271
47.09278263318286 10.7859
47.11725978640143 10.7325
47.14154944775105 10.745999999999999
47.165841355555656 10.7914
47.1901355115306 10.7392
47.214621741924994 10.724
47.23892041698887 10.7092
47.26322134538975 10.6652
47.28771440635075 10.6611
47.31201986422527 10.6495
47.33632758061436 10.6287
47.360637557241866 10.5848
47.38513974410611 10.5853
47.40945426407847 10.5663
47.43377104948137 10.5675
47.45809010204344 10.5106
47.48260144275502 10.5046
47.506925052572285 10.4648
47.53125093475548 10.4468
47.55557909103813 10.4126
47.58009961361992 10.3838
47.60443234110732 10.380999999999998
47.62876734791564 10.3883
47.65310463578333 10.3266
47.6776343683373 10.3644
47.7019762413987 10.2977
47.72632040075572 10.2755
47.75066684815169 10.2937
47.77520581885936 10.2767
47.799556865477655 10.2069
47.823910205386 10.2164
47.84826584033272 10.187999999999999
47.87281407745551 10.1637
47.89717432569297 10.1556
47.92153687423484 10.1701
47.94609208429692 10.0912
47.97045925671401 10.094
47.99482873471275 10.0771
48.01920052005013 10.0715
48.04376504619224 10.0749
48.068141469543484 10.092
48.09252020552573 10.0081
48.11690125590099 10.0117
48.1414751266064 9.97462
48.16586082917454 9.9896
48.19024885144316 9.96953
48.2146391951793 9.94792
48.239222439012764 9.94581
48.26361744916137 9.90212
48.28801478610016 9.88684
48.31241445160131 9.878739999999999
48.337007097209366 9.87612
48.36141144338331 9.87782
48.38581812345755 9.79156
48.41022713920929 9.82077
48.434829215320704 9.75987
48.45924292604658 9.77229
48.48365897780325 9.76497
48.50807737237308 9.76126
48.532688907799276 9.691889999999999
48.55711201168574 9.70684
48.581537463754074 9.654760000000001
48.60615611725119 9.68173
48.63058628942721 9.68367
48.65501881516546 9.67254
48.6794536962573 9.60488
48.70408185970339 9.57329
48.72852147531801 9.54531
48.75296345168211 9.545539999999999
48.77740779059232 9.53464
48.80204549302823 9.55223
48.82649458091802 9.527389999999999
48.85094603676547 9.47218
48.87539986237231 9.45807
48.90004713292306 9.40097
48.92450572200832 9.40219
48.94896668628025 9.39883
48.97343002754588 9.41187
48.99808689542115 9.367460000000001
49.02255501470614 9.349639999999999
49.04702551642794 9.32088
49.0714984023988 9.28618
49.096164896893235 9.289439999999999
49.120642575466796 9.30977
49.145122643748394 9.2521
49.16960510355558 9.26618
49.19428125404938 9.23957
49.2187685210852 9.23723
49.243258185121555 9.23167
49.26794160167084 9.17431
49.2924360839405 9.18275
49.31693296869764 9.17527
49.34143225776915 9.164719999999999
49.36612538195438 9.10138
49.39062950396021 9.08891
49.41513603578346 9.0791
49.4396449792564 9.04743
49.46434784069503 9.04555
49.488861631846454 9.02615
49.513377840166804 8.99985
49.537896467493745 8.99066
49.56260909589029 8.9119
49.587132585683285 8.9311
49.611658500018365 8.957410000000001
49.636186840738596 8.9092
49.66090926588511 8.94633
49.685442483902584 8.89887
49.70997813385706 8.83018
49.734516217597076 8.848239999999999
49.75924846937352 8.861139999999999
49.7837914452858 8.77627
49.80833686055187 8.816419999999999
49.83288471702571 8.762780000000001
49.85762682540054 8.76271
49.882179588965734 8.76211
49.9067347993235 8.727089999999999
49.93129245833333 8.719510000000001
49.95604445336378 8.71159
49.98060703442832 8.70778
50.005172069746266 8.69585
50.02993150438364 8.65085
50.05450147301533 8.64888
50.07907390151433 8.620510000000001
50.10364879174981 8.57674
50.12841816587289 8.6069
50.1529980044635 8.57103
50.17758031042124 8.525269999999999
50.20216508562089 8.55979
50.22694442953363 8.54738
50.25153416817468 8.48783
50.27612638170508 8.4961
50.300721072005196 8.45662
50.325510416102105 8.45021
50.350110084975064 8.417489999999999
50.37471223628208 8.38829
50.39931687190919 8.41423
50.424116246675766 8.362260000000001
50.44872587605249 8.34672
50.47333799543065 8.34485
50.49795260670191 8.338460000000001
50.52276204271512 8.29831
50.54738166295838 8.29928
50.57200378079314 8.28762
50.596628398116835 8.25458
50.62144792604559 8.27079
50.646077567609396 8.23755
50.670709714377715 8.22863
50.69553683636198 8.21382
50.72017401885922 8.180480000000001
50.7448137122895 8.18338
50.76945591856022 8.14702
50.79429318636823 8.13902
50.818940443716784 8.13945
50.84359021965163 8.1417
50.868242516085964 8.09937
50.893089960641895 8.10158
50.917747323549435 8.0421
50.94240721271973 8.065560000000001
50.96706963007175 8.01718
50.99192728239342 7.996010000000001
51.01659478166073 7.9859
51.04126481489051 8.0192
51.06593738400761 7.99948
51.090805275207074 7.978039999999999
51.11548294172845 7.964289999999999
51.14016314993547 7.90728
51.164845901758845 7.86088
51.18972406304274 7.851889999999999
51.21441192780656 7.87317
51.23910234200271 7.8693
51.2637953075678 7.85157
51.288683770237945 7.7926
51.31338186432707 7.8053300000000005
51.33808251561888 7.81076
51.362978729967345 7.824380000000001
51.387684521509755 7.76848
51.41239287610203 7.72478
51.437103795691165 7.71678
51.46201036644977 7.692080000000001
51.486726441956634 7.68376
51.51144508832545 7.65925
51.536166307509156 7.70445
51.56108326624387 7.641839999999999
51.58580965706056 7.632219999999999
51.61053862657523 7.618180000000001
51.635270176746864 7.580360000000001
51.66019755512065 7.5886
51.68493429268881 7.55238
51.70967361681515 7.583239999999999
51.73441552946465 7.578869999999999
51.759353359237934 7.551589999999999
51.7841004750961 7.517339999999999
51.80885018539685 7.50897
51.833602492111254 7.50652
51.8585508051424 7.459230000000001
51.883308330926425 7.439839999999999
51.90806845906181 7.415
51.932831191525715 7.43357
51.95779001977161 7.41523
51.98255798721516 7.36145
52.00732856494335 7.36825
52.03229530577543 7.367889999999999
52.057071130455945 7.34815
52.081849571391054 7.3365
52.106630630568695 7.304930000000001
52.13160794279417 7.282539999999999
52.15639426492067 7.292000000000001
52.18118321127822 7.2706100000000005
52.205974783860896 7.222180000000001
52.23096269971011 7.193169999999999
52.255759551287994 7.22554
52.280559035098186 7.18755
52.30536115314103 7.217410000000001
52.33035970494467 7.19698
52.35516711807904 7.159669999999999
52.37997717147198 7.154260000000001
52.40478986713005 7.13288
52.42979908731974 7.153
52.454617094216 7.09068
52.47943774942214 7.05036
52.50426105495102 7.081980000000001
52.529280976059844 7.06164
52.554109609024096 7.0473300000000005
52.57894089837482 7.03867
52.60377484613117 6.98078
52.62880550079408 6.97059
52.65364479223379 6.93611
52.67848674816189 6.920319999999999
52.70352547971946 6.92957
52.72837279155837 6.9726
52.753222773982785 6.90725
52.778075429022984 6.90033
52.80312495150885 6.888380000000001
52.827982978797436 6.893339999999999
52.85284368481815 6.81228
52.87770707160767 6.858439999999999
52.90276741793998 6.831160000000001
52.92763619336701 6.852580000000001
52.952507655698504 6.8131699999999995
52.977381806977576 6.7553
53.00245301017842 6.7756
53.02733256653592 6.775110000000001
53.052214817996074 6.742660000000001
53.077099766608484 6.74482
53.102181859804446 6.7244399999999995
53.127072229988265 6.68778
53.15196530349892 6.69325
53.17686108239249 6.65142
53.20195409881522 6.68243
53.22685531582556 6.678960000000001
53.25175924441303 6.636760000000001
53.27666588664027 6.607469999999999
53.30176985962693 6.59515
53.3266819565689 6.56928
53.35159677336455 6.568410000000001
53.376514312083096 6.555839999999999
53.40162927507703 6.53179
53.42655228516116 6.52848
53.45147802340193 6.525180000000001
53.47660125628886 6.50062
53.50153247842639 6.49482
53.52646643496923 6.48735
53.55140312799818 6.48487
53.576537409691696 6.49742
53.60147960336152 6.44865
53.626424539786164 6.42665
53.65137222105307 6.42716
53.67651758529126 6.40874
53.70147078399681 6.35654
53.72642673383343 6.36509
53.75138543689533 6.38345
53.776541917524526 6.35612
53.801506154876755 6.34745
53.826473151763246 6.33332
53.851442910284916 6.3137
53.87661054126026 6.29017
53.9015858509782 6.32001
53.92656392866066 6.2866800000000005
53.95154477641532 6.23419
53.976723591801296 6.21689
54.00171000771266 6.2080400000000004
54.02669920004598 6.20109
54.051691170915745 6.1654800000000005
54.076881204886796 6.1617
54.101878760928514 6.15468
54.12687910187696 6.10732
54.152077577768296 6.1359900000000005
54.1770835166946 6.10989
54.20209224691339 6.13225
54.22710377055121 6.08447
54.25231352511594 6.07255
54.27733066384342 6.038469999999999
54.30235060239643 6.060969999999999
54.32737334290836 6.01968
54.35259441062629 5.92915
54.377622783395324 5.93365
54.40265396455061 5.98688
54.42768795623251 5.90819
54.45292037169559 5.91648
54.477960012857906 5.914569999999999
54.50300247099511 5.90693
54.52804774825457 5.87413
54.55329154616743 5.88612
54.57834249018678 5.85222
54.6033962597977 5.81275
54.6284528571545 5.7990900000000005
54.653708072335164 5.7657099999999994
54.67877035378786 5.76829
54.70383546947698 5.72344
54.72890342156389 5.7157599999999995
54.7541700889442 5.69461
54.77924374251975 5.7170000000000005
54.8043202390049 5.66818
54.82959552413022 5.6624099999999995
54.8546777351945 5.65623
54.87976279569621 5.55579
54.90485070780914 5.6127199999999995
54.930137506558005 5.57806
54.95523115074295 5.55427
54.98032765308844 5.54724
55.005427015775496 5.53503
55.03072536339621 5.54819
55.05583047570572 5.48272
55.080938454927676 5.4567
55.10604930325027 5.46322
55.131359235107396 5.45466
55.15647585066083 5.39766
55.181595341907496 5.396
55.20671771104285 5.36483
55.232039262617704 5.34705
55.25716741665048 5.29614
55.28229845518636 5.31915
55.30743238042802 5.218319999999999
55.33276558731939 5.23843
55.357905315183636 5.22159
55.383047936390035 5.21232
55.40819345314859 5.15791
55.433538351073295 5.11514
55.458689688238415 5.20443
55.483843927614096 5.1292599999999995
55.509197623043605 5.09187
55.53435769621134 5.0803400000000005
55.55952067826466 4.9767
55.5846865714265 5.02194
55.61005202069737 4.93026
55.63522376553902 4.96668
55.66039842818645 4.956580000000001
55.68557601087004 4.949730000000001
55.7109532500271 4.86725
55.73613670233794 4.90674
