TT I
1.2716486653135266 7.684239999999999
1.2939594142134223 7.035660000000001
1.3162702121660406 7.1821399999999995
1.3385810600174564 6.572010000000001
1.3608919586137629 7.4565
1.383202908801069 6.71457
1.405513911425503 5.79071
1.4278249673332093 6.31142
1.4501343378461518 6.22831
1.4724455028545926 6.2270199999999996
1.4947567236847858 5.7443
1.517068001182951 6.07224
1.5393793361953272 5.78412
1.5616907295681737 6.304069999999999
1.5840021821477681 5.78483
1.60631369478041 5.9975
1.6286252683124185 5.97272
1.6509369035901333 4.46572
1.6732468618895553 5.0612900000000005
1.695558623192809 5.6894800000000005
1.7178704487808514 6.33775
1.7401823395001077 5.740469999999999
1.7625012545597203 5.07837
1.7848028405262486 5.19423
1.8071218901122095 5.07661
1.8294236121921872 4.99565
1.8517427996910911 5.2152400000000005
1.8740620574440425 5.19295
1.8963639900671978 4.55595
1.9186833908139995 4.7656
1.9409854680117449 5.32217
1.9633050151394713 5.12665
1.9856246367570705 4.55684
2.0079269371922672 4.62844
2.03024671027244 4.02794
2.0525491637446027 4.37061
2.074869091674931 4.844869999999999
2.097171701569106 4.59387
2.1194917877373847 5.39405
2.141811954326636 5.20348
2.164114805233074 4.76969
2.186435135143035 5.57532
2.208738150935709 13.1042
2.231058647554722 25.9254
2.2533792288321184 20.3163
2.275682498336085 8.62969
2.298003251406138 4.9805
2.3203066942619714 5.19273
2.3426276225136022 4.41956
2.3649486396617507 4.78833
2.387252348930071 4.862019999999999
2.4095735463442893 5.27789
2.4318774374315884 5.45287
2.4541988185014043 5.20481
2.476502894794693 5.15845
2.498824462909887 5.18616
2.521146125856138 5.330369999999999
2.5434504863470337 5.37095
2.5657723414244717 5.78748
2.588076895590662 5.92214
2.610398946189713 6.74218
2.6327210958598384 6.15391
2.6550259469304716 6.73325
2.6773482972090137 6.1170599999999995
2.6996533504259 7.01709
2.7219759047039602 7.07795
2.744298562293959 6.786510000000001
2.7666039251246595 6.80007
2.7889267918020164 7.18803
2.8112323652516555 7.381539999999999
2.833555444408179 7.5735399999999995
2.8558786311183852 7.499860000000001
2.8781845268938557 8.44709
2.9005079311721484 8.6298
2.9228140460410397 8.34912
2.9451376712799635 8.89188
2.967444008632326 9.298919999999999
2.9897678582247247 9.555530000000001
3.0120918213106695 10.1782
3.0343984987899373 10.9534
3.0567226913198637 11.2918
3.079029599759726 11.671
3.101354025127254 12.2167
3.123678568232338 12.4743
3.145985829517914 12.9852
3.16831061055229 13.5677
3.1906181112775593 14.3885
3.212943133635653 14.6893
3.2352682779763207 15.2691
3.2575761442691227 15.3389
3.2799015350264273 15.4619
3.302209649240067 16.3294
3.3245352898092655 17.3441
3.3468436553365257 17.6216
3.369169549113219 17.465999999999998
3.3914955708171384 18.9642
3.413804319727358 19.1196
3.4361305997334863 19.4638
3.4584396084414553 19.8002
3.4807661501462652 20.5642
3.503092824025881 21.1593
3.5254022288463154 21.6093
3.5477291695206588 21.9838
3.5700388426251948 22.5811
3.5923660534916446 24.3776
3.6146934007816114 37.5808
3.637003482731501 83.6617
3.6593311053109985 92.9882
3.681641464033634 55.4399
3.7039693653009733 31.4074
3.726297407241705 26.8733
3.7486081875460804 25.8041
3.7709365132734978 26.8013
3.793247578841633 26.8825
3.8155761917550093 27.3508
3.8378875459837216 27.7162
3.8602164494827234 28.0012
3.882545499606844 28.4926
3.9048572932539183 29.0472
3.9271866390645718 29.8215
3.9494987298666713 30.1821
3.971828374764527 30.9565
3.9941581705403255 31.747
4.016470713506008 32.1187
4.038800813471445 33.248000000000005
4.061113662089144 33.3656
4.0834440696459176 34.6787
4.105774632334751 34.7748
4.128087945865126 35.974000000000004
4.150418821249301 36.6736
4.172732448931298 37.9577
4.195063640413578 39.8518
4.2173775856475215 43.5583
4.239709096631102 71.8046
4.262040768704612 218.067
4.284355196706267 297.938
4.306687193387355 198.69299999999998
4.329001947444346 81.7121
4.35133427213731 49.5188
4.373666762177566 46.2203
4.395982011761091 45.8944
4.418314834921175 46.9658
4.44063041906622 53.9989
4.4629635787515625 64.675
4.4852969080429785 64.587
4.5076130004776225 55.9684
4.529946671403969 53.8103
4.552263106909177 53.836999999999996
4.574597122877047 53.5796
4.596931312711224 54.7432
4.619248269273446 55.2623
4.6415828092605835 56.2361
4.663900117405352 57.1163
4.686235010953232 58.7764
4.708552674085913 60.2057
4.730887924602802 61.6667
4.753223354952695 63.426
4.775541557023902 65.2858
4.797877349456786 67.0434
4.820195915032126 68.9062
4.842532072957498 69.9698
4.864868414979744 72.608
4.88718753227192 74.9598
4.909524244902505 76.8714
4.931843734218147 78.8631
4.954180820867835 81.5793
4.976518095879839 85.0102
4.998838149695359 88.3754
5.021175803844231 92.6208
5.043496238205739 96.661
5.065834274903528 101.85
5.088172504230693 108.191
5.1104935158799565 117.318
5.132832132875765 144.076
5.155153533596801 191.955
5.1774925416746225 246.813
5.199814334878411 530.874
5.2221537374521505 1502.13
5.244493338631803 3386.79
5.266815727034316 6820.88
5.289155727832427 10850.8
5.311478517248165 9537.47
5.333818921080011 4211.83
5.356159527788849 973.447
5.3784829252032536 266.119
5.400823940070432 178.054
5.423147747031976 149.916
5.445489173474152 134.39600000000002
5.467830807066149 126.609
5.490155234831516 121.30799999999999
5.512497285125229 115.281
5.534822130975162 111.962
5.557164601388673 109.243
5.579489868738879 106.296
5.601832762690846 104.76799999999999
5.6241758697774475 103.663
5.646501775867269 102.43700000000001
5.668845311622074 100.777
5.691171647754637 99.8248
5.713515615597765 98.794
5.735859800852677 97.4887
5.758186788542988 97.5906
5.780531411018185 98.3626
5.802858837297399 98.1772
5.825203900414495 98.5212
5.8475491852224 99.0316
5.869877275883075 99.6482
5.892223006467101 100.773
5.914551544266608 103.181
5.936897724049891 107.476
5.959244129804903 115.744
5.981573344815301 145.018
6.0039202049061 273.71
6.026249875609095 617.365
6.04859719346037 1186.77
6.070927323278297 2125.87
6.093275102315365 3702.04
6.115623113320588 4695.28
6.137953938319995 3750.12
6.160302415650845 1450.47
6.182633708324452 375.691
6.2049826554078376 148.575
6.227331838745022 107.84299999999999
6.249663839443684 95.1747
6.27201349767565 89.5478
6.294345974611799 93.4791
6.316696111167083 103.866
6.339046488263839 98.5927
6.361379686074702 83.72200000000001
6.383730546639482 75.7464
6.406064229255215 72.8311
6.428415576718203 72.3854
6.450749747566656 70.7038
6.47310158535871 69.6323
6.495453669698332 68.6081
6.517788579421056 68.0963
6.540141159237969 66.4588
6.562476565766648 65.9904
6.5848296444934045 65.5245
6.607182974060425 65.2982
6.6295191323281015 65.3527
6.651872965955752 67.8635
6.6742096296068985 90.6587
6.6965639707294615 134.072
6.71891856698715 135.726
6.741255995248479 95.5633
6.763611104154477 70.4068
6.785949046381137 62.6595
6.808304671371482 60.9546
6.8306605557940046 60.9859
6.852999275508618 59.8774
6.875355681171544 59.2945
6.897694923437771 58.8569
6.92005185377892 58.5617
6.9423916220322655 58.4958
6.964749080490181 57.7267
6.987106804399774 57.7726
7.009447368180821 57.6546
7.031805625367033 57.7471
7.054146723727803 57.7525
7.076505517631004 57.7281
7.098864581288365 57.5209
7.121206488070854 56.8142
7.143566093607822 57.1577
7.165908543567245 57.3034
7.188268694426048 57.5425
7.2106291193438095 57.2557
7.232972390625943 58.6977
7.255333366030969 69.7441
7.277677189091925 118.331
7.300038718428332 164.666
7.322400526130865 142.597
7.344745183422596 90.31299999999999
7.367107550224791 63.6817
7.389452767901992 58.3449
7.411815697249891 57.3332
7.434161478756298 56.7157
7.456524974096713 56.6128
7.478888753837185 56.1781
7.501235387657368 56.3167
7.523599738562711 56.6624
7.545946944825532 57.1089
7.568311870344528 57.3611
7.5906770845765665 57.7777
7.613025156078678 58.9446
7.635390950099687 60.1719
7.657739602662809 59.2021
7.680105979923558 58.0326
7.702472650212829 58.2321
7.724822180948224 57.9858
7.747189439655568 58.1939
7.769539560075357 58.1344
7.791907410653562 58.6277
7.81425812420825 58.8742
7.836626570110925 58.9391
7.858995315087906 60.1627
7.881346924933401 60.4777
7.903716270417482 60.5272
7.926068482028405 61.258
7.948438431475253 61.6996
7.9708086843180235 61.985
7.993161805171116 63.0082
8.015532667162402 63.245
8.037886398416653 64.6372
8.060257873014221 65.2725
8.082629655331942 65.6795
8.104984308787587 66.46
8.127356708900503 69.6369
8.149711981398308 75.2483
8.172085002766314 77.8157
8.194458336181368 75.0948
8.216814543847752 72.5185
8.23918850371002 72.4128
8.26154533906492 73.2495
8.283919928836452 75.0783
8.306277395339652 76.1723
8.328652618483376 77.0916
8.351028159736202 79.7576
8.373386579575245 82.1152
8.395762759396959 84.5853
8.418121819038275 89.45
8.440498640894003 102.76
8.462875785192262 118.446
8.485235811156207 137.876
8.507613602688501 195.172
8.529974277114228 320.395
8.552352719347912 481.408
8.574731488360351 698.0089999999999
8.59709314210385 1073.0
8.619472567021075 1561.02
8.64183487789147 1992.6
8.664214962183097 1959.34
8.686577933647762 1253.35
8.708958680784317 568.177
8.731339760774953 235.513
8.753703729764451 132.19
8.77608547780821 109.445
8.798450116065078 103.449
8.820832535634787 99.1356
8.843215292401656 96.8697
8.865580941199045 94.9588
8.887964374703538 93.9409
8.910330701447199 94.712
8.932714815164482 96.1672
8.955099270424924 95.1986
8.977466620733543 92.0257
8.999851761421976 89.1105
9.022219798361645 87.5995
9.04460562795561 87.2107
9.066991803441677 87.0268
9.089360876979615 86.8341
9.111747746589993 86.2907
9.13411751544971 85.2591
9.156505082664324 85.31
9.178875550323522 85.5355
9.20126381862328 85.5816
9.223652438908596 86.0099
9.246023961427412 86.0097
9.26841328802173 85.5568
9.290785518039224 85.9457
9.313175554425882 86.5669
9.335565947154315 87.0006
9.357939245086508 86.9295
9.380330352834827 86.8911
9.40270436697103 86.443
9.425096193225055 86.5021
9.447488380180165 87.4492
9.469863475295412 88.1238
9.492256385987508 88.1556
9.514632206018318 88.7795
9.537025843935714 89.2842
9.559402392368193 89.9358
9.581796761000229 91.2928
9.604191496441521 92.2862
9.626569144158516 95.4971
9.648964615551032 99.8767
9.671343000390081 101.699
9.693739211225699 99.97399999999999
9.716135793237463 97.8151
9.738515290448102 97.3539
9.760912617143402 97.8931
9.783292860202891 99.7441
9.805690935076182 101.455
9.828089385495742 101.98299999999999
9.850470754023561 104.431
9.872869957865444 112.205
9.89525208097539 126.414
9.917652041736662 139.395
9.940052382417589 141.667
9.962435644102392 155.10299999999998
9.984836746950979 205.03
10.007220771957746 300.12
10.029622640473708 426.684
10.052007432299963 579.052
10.074410069984072 781.169
10.096813093716005 1091.21
10.119199042482517 1473.64
10.141602840636468 1791.11
10.163989564971628 1725.89
10.186394141051062 1215.68
10.208799107559706 596.952
10.231187001965623 268.47900000000004
10.253592751657669 153.775
10.275981430388155 124.931
10.298387966769793 120.805
10.320794897965431 121.708
10.343184759907361 120.359
10.36559248305461 114.525
10.387983138083852 110.65899999999999
10.410391656691655 114.76700000000001
10.432800574501677 129.77
10.455192425893369 153.791
10.47760214443012 184.007
10.499994797678786 219.125
10.522405320453982 272.58
10.54479877906917 356.779
10.567210109595656 455.73900000000003
10.5896218454736 528.645
10.612016518879773 535.409
10.634429067781074 428.42800000000005
10.656824555333241 264.48400000000004
10.679237920773568 154.217
10.701651695961992 108.90799999999999
10.724048411481384 95.727
10.746463008485165 91.8554
10.768860546937125 89.2744
10.791275969274796 87.5408
10.81369180576079 85.9824
10.836090585366925 85.024
10.858507252467449 83.3858
10.88090686379991 82.6144
10.903324365036394 81.9129
10.925724811614439 81.7987
10.948143150509463 82.9117
10.970561909719066 82.2204
10.992963615930844 80.1868
11.015383218085756 78.0752
11.037785768347074 76.3498
11.06020621697282 75.8133
11.082627090322113 75.1822
11.105030913430326 74.7512
11.12745263854165 75.2837
11.149857314510728 78.1102
11.172279894912576 83.9342
11.194702904450653 84.7413
11.217108866490921 80.8423
11.239532736615194 76.5376
11.26193956033512 74.5072
11.284364294577085 73.0086
11.306789462371718 71.2103
11.329197585398376 69.83800000000001
11.351623622610898 69.8936
11.37403261614354 68.6614
11.396459526308487 68.5907
11.418869393879497 68.0795
11.441297180532617 67.808
11.463725406927658 67.4658
11.486136592353875 67.2688
11.508565700543707 67.6052
11.530977768845315 69.5559
11.553407762368774 70.3692
11.575838200059769 69.6958
11.598251599479612 68.0001
11.620682927815501 66.4069
11.64309721895548 66.1447
11.665529441478206 65.9282
11.687962112597958 65.5439
11.710377748130886 65.4419
11.732811318753434 65.4255
11.755227854859067 65.2899
11.777662328529495 64.9914
11.800079768750786 65.0986
11.822515149015453 64.9324
11.844950984084935 64.9725
11.867369787303163 64.9845
11.889806534289491 64.8132
11.912226250487029 65.2854
11.934663912939751 65.4577
11.9571020346363 65.4358
11.979523127133968 65.7321
12.001962169624331 66.6106
12.024384183972964 67.8617
12.046824150809913 71.9506
12.069264581333726 78.7222
12.091687985297767 86.8454
12.11412934550045 95.6244
12.136553680195208 106.706
12.158995973632788 122.171
12.181438735204349 141.891
12.20386447284199 166.313
12.226308172985636 194.26
12.24873485024193 206.57
12.271179492516982 186.345
12.293607112949127 152.075
12.316052700916226 113.228
12.338498763250042 87.9556
12.360927805303868 74.9808
12.383374818673879 69.8752
12.405804812803074 67.7087
12.428252780773262 67.5003
12.45070122756722 67.0767
12.473132656675375 66.7878
12.49558206341869 66.9828
12.518014453510101 67.0645
12.540464823770117 67.3132
12.562915677315177 67.4035
12.58534951575545 68.0757
12.607801338171472 69.7365
12.630236146511358 74.6191
12.652688941369085 79.4456
12.675124723177234 80.0256
12.697578494048786 76.7055
12.720032754458185 72.6628
12.742470003354093 70.7553
12.764925245138771 70.3426
12.787363476431278 70.7822
12.809819703166806 70.9268
12.83227642391173 71.928
12.854716135692716 72.3689
12.877173846755147 73.5646
12.899614549869717 73.7024
12.9220732548287 74.7924
12.94453245827299 75.0655
12.966974655289818 76.1277
12.989434858002571 77.0057
13.011878055298721 77.5872
13.034339260862497 78.9026
13.056800969391883 80.5005
13.079245674017244 82.4105
13.101708390774869 85.595
13.12415410463411 93.8446
13.146617833206086 108.756
13.169064559883248 125.816
13.191529303857127 144.167
13.213994557076367 163.437
13.236442809902437 188.158
13.258909083908291 224.368
13.28135835851934 271.316
13.30382565690295 328.376
13.326293469022952 387.87199999999996
13.348744283242008 427.13800000000003
13.371213125129904 402.935
13.39366497011003 323.547
13.416134845360597 225.925
13.438605238843131 153.72899999999998
13.46105863690397 120.51299999999999
13.483530069144786 116.186
13.505984506951902 123.756
13.528456981549432 136.876
13.550929978879088 149.957
13.573385983253365 165.852
13.595860028340867 190.868
13.618317081455832 227.632
13.64079217790333 271.577
13.663250283359057 317.107
13.685726434770173 355.858
13.708203115221277 358.00699999999995
13.730662806148091 308.49
13.75314054697177 236.579
13.775601299246777 164.507
13.798080104050406 114.66
13.820559442405358 93.47200000000001
13.843021793671388 86.4619
13.865502201420897 84.0977
13.887965623051947 83.4619
13.910447103807167 82.1202
13.932929122629764 80.7296
13.955394156785959 80.1578
13.977877254034569 79.3563
14.000343367582113 78.0267
14.022827546871707 77.4926
14.045294743423524 77.2094
14.06778000837062 76.1378
14.090265817715476 75.8931
14.112734645763819 75.7595
14.13522154619454 75.5639
14.157691466286913 75.5707
14.180179461423874 75.278
14.202668005486178 74.4678
14.22513957064374 73.7564
14.247629214846473 73.316
14.270101881097517 73.1192
14.29259262906496 73.4823
14.315083930490205 74.0622
14.337558255389705 74.2045
14.360050666019726 74.0325
14.382526101071944 73.1193
14.405019624534942 72.1316
14.427513705993134 71.59
14.449990813291825 71.6152
14.47248601302899 71.7235
14.49496423954951 71.9321
14.517460561197822 71.8014
14.539939910570322 71.2586
14.562437357763558 71.8572
14.58493536931253 72.9208
14.607416409993311 73.908
14.62991555254159 74.6524
14.652397725157423 74.3514
14.674898002342799 73.78
14.697398848433282 73.5327
14.719882725991326 74.2899
14.74238471217934 75.4761
14.764869730765593 79.1956
14.787372860692983 84.2274
14.809876564079925 91.1852
14.83236330125751 98.6441
14.854868153850365 105.777
14.877356041159485 114.60600000000001
14.899862046604186 126.95299999999999
14.922351087688757 144.499
14.944858249632887 166.03
14.967365991421232 189.571
14.989856770231246 209.204
15.012365673994204 219.93400000000003
15.03485761569738 207.417
15.05736768508665 175.206
15.07987833888692 137.976
15.102372032001655 105.964
15.124883856909658 85.8698
15.14737872204565 77.4001
15.169891721717274 74.1707
15.192405310371893 73.7815
15.214901940621196 73.9872
15.237416709527137 73.8991
15.259914520936249 74.1322
15.282430473753607 73.025
15.304947020131227 72.048
15.327446610371178 70.9887
15.349964346154254 70.2546
15.372465126703139 69.6847
15.394984055556009 69.2756
15.417486030076159 69.303
15.44000615566487 68.8085
15.462526881230803 68.7422
15.485030653812652 69.0257
15.507552581617434 68.9883
15.530057557334603 68.9981
15.55258069104857 68.8968
15.575104429329837 69.077
15.597611216864632 68.86
15.620136166564563 68.9026
15.6426441664095 69.8704
15.665170331202765 72.8838
15.687697105158826 77.2979
15.710206930593545 82.2284
15.732734925158933 87.8787
15.755245972089478 93.5031
15.77777519094324 99.8574
15.800287463046663 108.38600000000001
15.822817909869592 121.26299999999999
15.84534897229804 136.912
15.867863089299354 155.718
15.890395385222186 174.66099999999997
15.912910736597423 189.83900000000003
15.935444269699861 191.93200000000002
15.957978423016485 176.63099999999997
15.980495633101265 146.296
16.003031029129367 116.066
16.02554948280019 89.6303
16.048086125229432 74.727
16.070623392487107 69.5665
16.09314371869582 67.7976
16.11568223789321 66.3845
16.13820381691126 65.4889
16.160743591742527 64.4292
16.183283996022084 63.2899
16.205807461423195 62.0936
16.228349126881973 61.5498
16.25087385432698 61.693999999999996
16.27341678466365 60.9554
16.29594277784926 60.5723
16.31848697676433 61.0637
16.341031811604868 61.5058
16.36355971058487 61.7156
16.3861058195587 61.3624
16.40863499352978 60.1783
16.431182380342005 59.3589
16.453730407713202 58.6757
16.476261501364792 58.2321
16.498810812136167 57.773
16.52134319004079 57.9659
16.54389378792203 57.7614
16.566445031001553 57.6079
16.588979342490088 57.4059
16.61153187824822 57.4806
16.634067483263312 57.1648
16.656621315414416 57.3165
16.679175797408888 56.8881
16.701713349928728 56.8262
16.72426913389191 57.1094
16.74680798922351 57.0613
16.76936507887444 57.2715
16.791905240734874 57.2804
16.814463639794468 57.2966
16.837022695210294 57.1106
16.859564824093756 57.266000000000005
16.882125194503903 57.9365
16.904668639217885 58.7144
16.927230328348003 59.0051
16.949792678493612 59.0876
16.972338104193863 58.5609
16.994901778652235 57.966
17.017448529496576 57.836000000000006
17.040013531998152 58.2439
17.06257920018044 58.9234
17.0851279459922 59.7021
17.107694947817667 60.8751
17.130245028099072 62.0703
17.15281336730298 63.5118
17.17536478578733 64.7328
17.19793446610687 66.2964
17.220504818648422 68.2934
17.243058251703697 70.2636
17.265629950971032 73.82300000000001
17.288184731571736 77.9166
17.310757781306908 82.1833
17.33333150794385 85.3572
17.355888317140174 85.3372
17.37846339986244 83.1228
17.401021565958885 77.8223
17.42359800851343 71.9115
17.44617513265564 66.8415
17.468735341390783 63.9472
17.491261035594565 62.1324
17.51396340099364 61.5668
17.536490463869136 61.4603
17.559018209820174 61.5993
17.58154663977963 61.7526
17.604251766089718 61.9518
17.626781572227713 62.1353
17.64931206518155 62.4687
17.671843245885103 62.813
17.69455114821572 63.0824
17.717083712612634 63.437
17.739616967569667 63.4857
17.762150914021706 63.863
17.78486160749854 64.0682
17.807396945166804 64.5001
17.829932977143503 65.5993
17.85246970436452 67.4675
17.875183204129467 69.8359
17.897721330097664 72.9385
17.920260154126645 76.3722
17.942799677153296 79.4953
17.9655159983646 82.2476
17.988056927677544 85.8743
18.010598558807683 90.9164
18.033140892692916 97.8633
18.05586005052525 105.913
18.07840379824407 115.529
18.10094825154059 125.845
18.12366954819864 136.416
18.146215420998306 142.173
18.16876200220057 142.135
18.191309292745153 132.94299999999998
18.214033452627167 119.792
18.236582170236648 104.56700000000001
18.259131600016456 94.4685
18.281681742907335 90.0672
18.304408781233683 90.8994
18.32696035875955 94.0013
18.349512652227624 97.9756
18.372065662579683 103.38799999999999
18.394795594587553 106.851
18.41735004715306 107.374
18.43990521943684 103.134
18.46246111238171 95.8476
18.485193953325208 85.9211
18.507751296070428 77.0017
18.530309362314178 70.984
18.552868153000343 67.4742
18.57560391815056 65.1381
18.59816416623245 64.50399999999999
18.620725141597372 63.957
18.643286845190268 63.3457
18.666025549835414 63.0493
18.688588718427933 62.538000000000004
18.711152618092243 62.2463
18.73389353884365 61.949
18.75645890921984 61.3695
18.77902501351406 61.2107
18.801591852673102 61.0449
18.824335739722738 60.5775
18.846904057212626 60.4877
18.8694731124168 60.2201
18.89204290628315 60.1876
18.914789774966803 59.8988
18.937361054791623 59.5715
18.959933076131318 59.3933
18.982505839934877 59.5256
19.00525570560582 59.3443
19.027829963004184 59.3814
19.05040496572238 59.4428
19.072980714710468 59.5906
19.095733592739563 59.7171
19.11831084296757 60.2082
19.140888842324735 60.636
19.16346759176222 61.3089
19.18622349753803 61.7245
19.208803755869358 62.4877
19.231384767143577 63.1552
19.253966532312948 64.2411
19.276725481241822 65.5577
19.29930876296784 67.4342
19.3218928014549 69.613
19.34465404436217 72.3678
19.36723960516257 75.2897
19.389825925592426 77.3796
19.412413006605938 78.2819
19.43517731967805 77.0018
19.457765930683355 73.8928
19.48035530514408 69.4703
19.50294544401556 64.8621
19.525712842708348 61.2838
19.54830451925909 58.6895
19.570896963095727 57.1311
19.593490175174704 56.4368
19.616260674962184 56.2256
19.638855432416964 55.7099
19.661450960992624 55.951
19.68404726164677 55.9072
19.706820878021247 55.5242
19.729418731756834 55.9171
19.752017360452857 55.6854
19.77461676506804 55.76
19.797393513540218 55.9316
19.819994478951667 56.437
19.84259622316767 57.1164
19.8651987471481 57.6385
19.887978643247177 57.8278
19.91058273574792 58.4184
19.933187610901943 59.0947
19.955969879466828 59.9401
19.97857632894404 60.6423
20.00118356396599 61.7305
20.023791585494575 63.3645
20.046577028914875 65.62100000000001
20.069186632506966 67.7056
20.091797025500632 69.9406
20.114408208858933 71.742
20.137196842715273 72.6132
20.159809615886765 72.4972
20.18242318232135 70.3529
20.20503754298326 67.9255
20.227829382875154 65.6957
20.250445341109344 64.6108
20.27306209647285 64.2989
20.29567964993108 64.9603
20.31847471147704 65.8806
20.34109387027612 66.737
20.363713830075454 67.3822
20.386334591841646 67.3809
20.409132890679302 65.6259
20.431755265564437 62.5045
20.454378445325528 59.4954
20.477002430930366 57.2804
20.499803982716553 55.6052
20.522429589228004 54.1543
20.54505600449589 53.5229
20.567683229489194 53.1911
20.590488049900088 52.9135
20.61311690359731 52.5333
20.63574656993626 52.1031
20.658553853717297 51.8716
20.681185154618298 51.8281
20.703817271080066 51.6998
20.72645020407368 51.2505
20.749260783967177 51.1173
20.771895359337133 51.0648
20.794530754161617 50.9839
20.817166969412938 50.9514
20.83998086114876 50.9014
20.86261872660049 50.957
20.885257415405402 50.8181
20.90789692853701 50.623000000000005
20.930714147864748 50.6281
20.953355319030678 50.7396
20.97599731745334 50.873999999999995
20.99864014410749 50.7224
21.021460706796564 50.8176
21.044105199328826 51.0047
21.06675052302631 51.2781
21.089396678865015 51.2617
21.112220600704806 51.3948
21.134868430275347 51.7634
21.15751709492456 51.9349
21.180166595629693 52.1428
21.202993892429635 52.538000000000004
21.22564507473034 52.8251
21.24829709602816 53.0712
21.27112693608965 53.4112
21.293780644891275 53.6243
21.316435195634053 53.3634
21.339090589297417 52.7366
21.361923832041875 52.1374
21.384580921090404 51.3499
21.407238856007325 50.5901
21.429897637773326 50.5047
21.45273429906592 50.51
21.475394784108598 50.4983
21.498056118951983 50.3471
21.520718304578022 50.6149
21.543558400304388 50.7943
21.566222297108816 50.7169
21.58888704765135 51.0673
21.61155265291521 51.483000000000004
21.63439619898156 52.0816
21.657063523335786 52.272
21.67973170537063 52.9261
21.7024007460706 53.5026
21.72524775840385 54.1067
21.747918526116475 54.813
21.770590155457388 55.5726
21.79326264741238 56.8503
21.816113141960237 58.1411
21.838787368860547 59.5506
21.861462461341976 61.2124
21.884315579735777 63.3632
21.90699241312273 64.9722
21.92967011506078 66.3575
21.95234868653799 67.1741
21.9752053151131 66.8867
21.997885635446785 65.5108
22.020566828293532 63.5003
22.04324889464272 61.3217
22.066109049404666 59.3123
22.088792872571794 58.2074
22.111477572219204 57.8455
22.1341631493376 57.7565
22.157026846313123 57.9905
22.179714188221507 57.8707
22.202402410582668 57.2148
22.22509151438863 55.9815
22.24795876962584 54.5557
22.270649646204486 53.3993
22.293341407213727 52.5087
22.316034053646906 51.8824
22.338904883215342 51.3874
22.36159931041458 51.1447
22.38429462602756 51.1259
22.40699083104897 50.9299
22.429865251039757 51.1588
22.452563244831367 51.0957
22.47526213102522 50.9434
22.49813925616515 50.8311
22.520839937143307 50.6844
22.543541513520587 50.6262
22.56624398629403 50.516999999999996
22.589124730075895 50.6508
22.611829005656723 50.7682
22.63453418063466 50.9304
22.657240256008077 51.1045
22.680124634582935 51.2871
22.70283252079775 51.5895
22.725541310413075 52.0268
22.74825100442868 52.1434
22.771139033969575 52.8168
22.79385054687155 52.838
22.81656296718292 53.2294
22.83927629590484 53.7645
22.862167992606945 54.2419
22.88488314827121 55.1324
22.907599215359284 56.0779
22.93031619487366 56.9516
22.953211574954405 57.9133
22.975930389478226 59.0836
22.998650119445763 59.9104
23.02137076586092 59.9321
23.044269845560063 59.4157
23.06699233506288 58.1853
23.089715744034912 56.428000000000004
23.112617610931565 54.5254
23.135342869061212 52.9256
23.158069049684816 51.7345
23.1807961538087 51.2257
23.20370174880544 51.1379
23.226430710184808 51.1029
23.249160598093425 50.9942
23.271891413539002 50.9138
23.294800752937697 51.3685
23.31753343374794 51.3914
23.340267045128353 51.4736
23.36300158808808 51.8304
23.38591468821339 52.1534
23.408651104658304 52.4256
23.431388455719986 52.6613
23.454126742409 53.2794
23.4770436196085 54.1001
23.499783787914662 55.0904
23.522524894889884 55.7083
23.54526694154616 56.5
23.56818761219047 57.7674
23.59093154860734 58.6606
23.613676427751283 59.4987
23.636422250635754 59.6131
23.659346731118656 58.9468
23.68209445191868 57.5166
23.704843119509587 55.4324
23.72759273490623 53.4929
23.750521041644767 51.61600000000001
23.77327256312355 50.2129
23.796025035462787 49.1578
23.818956224555475 48.2975
23.841710609113413 48.0846
23.86446594758979 47.8608
23.887222241002014 47.5771
23.910157285144578 47.1995
23.932915498962537 47.1723
23.955674670778713 46.9431
23.978434801611975 46.7704
24.001373717286125 46.6081
24.024135776723917 46.5699
24.046898798245582 46.5153
24.06966278287146 46.3584
24.092605586582614 46.1598
24.115371508023642 45.9832
24.1381383956401 45.9402
24.16090625045381 45.9128
24.183852958731244 45.8353
24.206622758582608 45.6331
24.229393528706886 45.5294
24.252165270127392 45.7542
24.27511589952438 45.4529
24.297889594216997 45.1998
24.32066426328598 45.2494
24.34343990775613 45.253
24.36639447485003 45.1382
24.38917208083877 45.0862
24.41195066531332 44.8157
24.43490819850244 44.9793
24.457688750692377 44.815
24.48047028445616 44.5829
24.503252800821233 44.7313
24.526214300784112 44.7843
24.548998793132213 44.8174
24.57178427117417 44.7107
24.59457073593893 44.6999
24.617536219319863 44.6555
24.64032466834748 44.6844
24.663114107195035 44.5615
24.685904536893013 44.4997
24.708874020360852 44.4682
24.731666442613744 44.3792
24.754459858818787 44.1927
24.777254270007962 44.152
24.80022777025625 44.0643
24.82302418230472 43.9076
24.845821592443674 44.0707
24.86862000170663 43.873000000000005
24.891597535453727 43.9435
24.914397953892728 44.2363
24.93719937456671 44.1317
24.96000179851076 44.1609
24.98298338249997 44.2951
25.00578782394922 44.5006
25.028593271784167 44.5815
25.05157790644186 44.9278
25.07438537804115 44.8272
25.097193859145293 45.0633
25.120003350792075 45.2968
25.142992065061257 45.7051
25.165803588823465 45.8863
25.18861612625217 46.1854
25.211429678386736 46.3687
25.234422489079968 46.4823
25.257238081693636 46.4947
25.280054692141732 46.5191
25.3028723214652 46.4509
25.325869245420463 46.2938
25.348688923599397 46.4468
25.371509623787006 46.5003
25.394331347025812 46.4542
25.41733240110666 46.2589
25.440156181590016 45.7574
25.46298098826268 45.3737
25.48580682216873 44.7795
25.50881202326435 43.9835
25.53163992281684 43.6419
25.55446885274561 43.2417
25.577298814096377 42.6444
25.600308179121807 42.5676
25.623140214533745 42.543
25.64597328451537 42.4684
25.66898578564376 42.39
25.691820936010206 42.382
25.714657124097695 42.3806
25.737494350954734 42.36600000000001
25.760511045684957 42.1944
25.783350361364224 42.3066
25.806190718969255 42.3201
25.82903211955018 42.4862
25.852053024868923 42.4991
25.874896522722523 42.4576
25.897741066713106 42.3287
25.920586657892454 42.3608
25.943611790812668 42.4497
25.966459487728237 42.5131
25.989308234998564 42.5773
26.01215803367705 42.8808
26.03518741123814 42.8647
26.05803932412957 43.1213
26.080892291600094 43.0024
26.10374631470478 43.1317
26.12677995397268 43.324
26.14963609978026 43.3785
26.172493304397875 43.2232
26.19535156888223 43.0627
26.218389486949604 42.7173
26.241249882640123 42.4876
26.26411134137826 42.2099
26.28715248187403 42.2461
26.31001607820869 41.9108
26.3328807407756 41.6531
26.35574647063438 41.9125
26.37879191991473 41.8619
26.401659795896734 41.8529
26.424528742360263 42.047
26.447398760366614 42.1811
26.470448535598294 42.1049
26.49332070826805 42.3065
26.516193955675355 42.6002
26.53906827888316 42.827
26.562122397260108 42.8823
26.584998883685063 43.1027
26.607876449110325 43.2117
26.63075509460056 43.3994
26.65381357334404 43.7011
26.67669439061878 43.7261
26.699576291163382 43.7607
26.722459276044212 43.8855
26.745522132402975 43.6842
26.768407297649354 43.3978
26.791293550442003 42.9068
26.814180891848974 42.7003
26.837248143099337 42.4491
26.860137673466657 42.29
26.88302829566349 42.0488
26.90592001075963 41.9348
26.92899167420566 41.7027
26.951885586870763 41.3685
26.974780595655517 41.0108
26.99785558178161 40.9425
27.020752794605112 40.8646
27.043651106772522 40.6376
27.06655051935668 40.6327
27.089629948036183 40.3506
27.112531573292053 40.3402
27.135434302194138 40.4124
27.158338135817015 40.1985
27.181422024430987 40.2068
27.204328079372566 40.1873
27.22723524226965 40.218
27.250143514198573 40.3006
27.273231880156334 40.193000000000005
27.296142382065014 40.0534
27.319053996245536 40.0738
27.341966723775965 40.0217
27.365059584515222 39.9603
27.38797455070062 40.0464
27.410890633481237 39.9469
27.433807833936918 39.9571
27.456905206923906 40.1129
27.47982465472398 40.0978
27.502745223449743 40.1099
27.525666914182825 40.2346
27.548768816912457 40.1533
27.571692763693633 40.0558
27.59461783573812 40.0025
27.617723149491244 39.7805
27.640650484125285 39.7986
27.66357894728264 39.811
27.686508540048052 39.8241
27.709618414237887 39.6028
27.732550278321757 39.5029
27.755483275279115 39.4225
27.778417406196485 39.4034
27.801531858397514 39.5253
27.824468269376716 39.393
27.847405817586786 39.369
27.870344504116094 39.4626
27.893463551932008 39.6089
27.916404527281053 39.6174
27.93934664422563 39.641
27.962289903855886 39.7706
27.98541356491974 39.9979
28.00835912214229 40.0967
28.03130582533231 40.4717
28.054253675581805 40.5221
28.077381967556104 40.5182
28.100332124185126 40.6104
28.123283431160893 40.6011
28.146235889577238 40.5899
28.169368830154156 40.4367
28.192323603752033 40.2468
28.215279532083304 39.8915
28.238415973016764 39.5251
28.261374223145094 39.5457
28.284333631303806 39.3026
28.307294198589954 39.1954
28.330435319167677 38.8253
28.353398217078915 38.6386
28.376362277420153 38.4424
28.39932750129032 38.2324
28.422473319286713 37.9661
28.44544088262495 38.0601
28.468409612800283 37.8998
28.491379510913497 37.628
28.51453004413313 37.5051
28.53750229057244 37.4765
28.56047570826344 37.4833
28.583450298308804 37.4442
28.606605564586562 37.1403
28.629582511831156 37.2175
28.65256063474956 37.2815
28.675539934446338 37.123000000000005
28.698699951647605 37.0489
28.72168161743193 36.9009
28.74466446331978 37.0989
28.767648490417624 36.9507
28.790813276438353 36.7977
28.813799678527303 36.9227
28.836787265157085 36.888000000000005
28.859955641890075 36.9803
28.882945610203045 36.8566
28.905936766392035 36.7064
28.928929111566863 36.754
28.952102288520145 36.6484
28.975097024308607 36.5995
28.998092952423807 36.5842
29.021090073977508 36.4941
29.04426806913204 36.3828
29.067267590245258 36.2277
29.090268308143695 36.1137
29.11327022394099 36.1567
29.13645305530891 35.9899
29.159457379627167 35.8297
29.18246290519685 35.793
29.20546963313352 35.7052
29.22865731875826 35.7177
29.25166646419296 35.719
29.27467681535305 35.599000000000004
29.29768837335608 35.6964
29.320880931312562 35.5121
29.34389491580634 35.6101
29.366910110507334 35.5952
29.38992651653503 35.6068
29.41312396492981 35.5288
29.436142806456754 35.5712
29.45916286268059 35.4286
29.48236399319994 35.5174
29.50538649169417 35.35
29.528410208259935 35.2286
29.55143514402014 34.943000000000005
29.574641196749695 34.8878
29.597668583816574 34.8638
29.6206971934585 34.6351
29.64372702680042 34.6743
29.666938019934474 34.4935
29.689970313635285 34.3771
29.713003834422636 34.3778
29.73603858342347 34.2879
29.759254535188578 34.1859
29.78229175361658 34.204
29.80533020365064 34.3632
29.82836988641968 34.2454
29.85159081507472 34.1523
29.874632976355343 34.119
29.89767637376955 34.1737
29.920721008448314 34.0549
29.9439469322847 33.8722
29.96699405457564 33.9282
29.9900424175358 33.9359
30.013092022298157 33.9042
30.03632295963995 33.788000000000004
30.059375061131373 33.8321
30.08242840783577 33.9063
30.105483000888153 33.8794
30.128718970092244 33.7445
30.151776069006917 33.7377
30.17483441768648 33.8523
30.198074175317235 33.7416
30.221135036724256 33.7546
30.24419715131772 33.7348
30.267260520236203 33.7067
30.290505341942243 33.7301
30.313571232750228 33.7631
30.336638381310948 33.8155
30.35970678876503 33.7192
30.38295669299435 33.5417
30.40602763151657 33.5651
30.429099832366074 33.4679
30.452173296685572 33.4537
30.47542830191959 33.4208
30.498504306502497 33.477
30.521581577995562 33.5496
30.544660117543582 33.4395
30.56792024229725 33.4222
30.59100133132069 33.4452
30.614083691845494 33.4249
30.637167325018545 33.4908
30.660432587840603 33.4759
30.683518779717886 33.4359
30.70660624769615 33.4348
30.729694992924372 33.4196
30.75296541239743 33.5247
30.77605672557558 33.4519
30.799149319462742 33.448
30.8224236211637 33.3566
30.845518789950724 33.3084
30.868615242910597 33.2217
30.891712981195973 33.1297
30.91499247215866 32.9961
30.938092794619365 33.0435
30.96119440587579 32.9209
30.984297307082752 32.7217
31.00758200598383 32.7559
31.030687500658694 32.6393
31.053794288760695 32.4614
31.076902371446767 32.3825
31.100192296997445 32.3759
31.12330298246119 32.4438
31.14641496599209 32.2614
31.169528248749216 32.3034
31.19282341969534 32.3023
31.215939314557186 32.3841
31.239056512134788 32.2908
31.262175013589378 32.2046
31.28547544871168 32.1377
31.30859657161541 32.1262
31.331719001892175 32.2022
31.35484274070538 32.194
31.378148458819545 32.2106
31.401274828443725 32.150999999999996
31.424402510106933 32.1579
31.447712205419993 32.2255
31.470842524931633 32.1189
31.493974159989783 32.1322
31.51710711176168 32.1018
31.54042212308802 32.1883
31.563557722100917 32.056999999999995
31.586694641341655 31.871
31.609832881979628 31.7468
31.63315322823208 31.7742
31.656294125521327 31.7323
31.679436347728515 31.7207
31.70257989602529 31.548000000000002
31.725905596152327 31.5677
31.74905181052835 31.4278
31.772199354521323 31.469
31.79534822930507 31.4669
31.818679302290967 31.4781
31.84183085259981 31.433000000000003
31.864983737233473 31.3629
31.88813795736804 31.3081
31.911474422233013 31.2329
31.934631327356435 31.248
31.9577895715215 31.2059
31.980949155906522 31.2877
32.004291031706956 31.3103
32.027453310562606 31.145
32.05061693318573 31.0927
32.07396288236386 31.066
32.09712920658542 31.0045
32.12029687812702 30.844
32.14346589817093 30.8199
32.166817291729984 30.8227
32.18998902288583 30.6957
32.21316210610336 30.7014
32.23633654256711 30.5399
32.259693399663725 30.5444
32.282870556771144 30.469
32.30604907069099 30.4477
32.329228942610065 30.3617
32.35259128243769 30.2159
32.375773884550505 30.1227
32.398957848235646 30.1781
32.422143174682176 30.0839
32.445511016471215 29.9599
32.468699082679954 29.9032
32.49188851523011 29.9328
32.51507931531304 29.9114
32.538452678331 29.8413
32.56164622776311 29.8093
32.58484114831493 29.7384
32.60803744118015 29.7386
32.631416344731896 29.6494
32.654615396551876 29.6761
32.67781582427913 29.6116
32.701198898634416 29.5112
32.72440209253756 29.4573
32.747606665947124 29.3997
32.77081262006088 29.2446
32.79420126883317 29.381
32.81740999876112 29.4291
32.840620112999424 29.2525
32.86383161274818 29.191999999999997
32.88722585534586 29.2185
32.91044014056596 29.2548
32.933655814909734 29.1942
32.95687287957963 29.2518
32.98027273544904 29.1181
33.00349259526636 29.0581
33.026713849030116 29.0171
33.04993649794511 29.0137
33.073341986570746 28.9702
33.09656744032826 28.9802
33.11979429286444 29.0596
33.14302254538647 29.0213
33.166433686291185 28.8862
33.18966475336992 28.8788
33.212897224069096 28.7549
33.23613109959831 28.7963
33.259547912343415 28.7739
33.2827846121627 28.7325
33.306022720453775 28.6288
33.32926223842861 28.5601
33.352684742614166 28.6296
33.37592709463173 28.5045
33.399170859982064 28.5205
33.422597648419426 28.5042
33.44584425514446 28.2862
33.46909227885668 28.2769
33.4923417207723 28.254
33.51577423505344 28.2392
33.539026528130385 28.1191
33.56228024307245 28.0825
33.585535381098246 27.9439
33.60897364093058 27.9016
33.63223163992385 27.8049
33.6554910656699 27.7846
33.678751919389796 27.7706
33.702195944520106 27.7419
33.72545966903325 27.7493
33.74872482519663 27.6684
33.771991414233746 27.7395
33.79544122444841 27.6151
33.81871069412428 27.5018
33.84198160035767 27.5884
33.86525394437455 27.5312
33.88870955949969 27.4131
33.911984794020626 27.3443
33.93526147001624 27.3772
33.958539588715006 27.2437
33.98200102861669 27.2347
34.0052820477047 27.1707
34.02856451319451 27.1929
34.05203033759056 27.0751
34.07531571090147 27.096999999999998
34.09860253431845 27.0996
34.121890809074316 26.9134
34.145362493118924 26.9753
34.16865368561615 26.9366
34.191946333164054 26.8804
34.21524043699793 26.7951
34.23871800066799 26.8409
34.26201503218366 26.7365
34.28531352370466 26.6802
34.30861347646881 26.6518
34.33209693978188 26.6606
34.3553998301885 26.6497
34.378704185565205 26.5328
34.402010007152356 26.4048
34.42549939016683 26.5168
34.44880815937748 26.3769
34.472118398533134 26.3133
34.49543010887669 26.3562
34.51892543169198 26.2255
34.54224009966052 26.1883
34.56555624255917 26.1911
34.58887386163339 26.0913
34.61237514439016 26.0234
34.6356957311114 26.0526
34.65901779775809 25.9959
34.68252356662995 26.0228
34.705848608458616 25.9145
34.72917513396849 25.9151
34.75250314440949 25.8718
34.77601490857862 25.7488
34.799345904259795 25.6536
34.82267838863559 25.7365
34.846012362958525 25.6915
34.869530142679984 25.7308
34.89286711232212 25.636999999999997
34.91620557568269 25.6303
34.93954553401677 25.6273
34.9630693495876 25.5522
34.986412313340814 25.5751
35.00975677584668 25.5753
35.033102738362956 25.4915
35.05663261012228 25.3322
35.0799815881786 25.4032
35.10333207003229 25.3046
35.12668405694369 25.3348
35.150220005273056 25.2423
35.17357501786656 25.2599
35.19693153931268 25.2562
35.220289570874385 25.1841
35.24383161619786 25.1458
35.267192683604904 25.1678
35.290555264930376 25.0027
35.314101899412165 25.089000000000002
35.33746752422433 25.0292
35.36083466676374 25.0426
35.38420332829803 24.9622
35.407756095629054 25.0577
35.43112781085063 25.0477
35.45450104888391 24.9309
35.477875810999194 24.9072
35.50143473172161 24.8262
35.52481255774625 24.9876
35.54819191167777 24.8752
35.57157279478914 24.8554
35.595137889488406 24.7471
35.61852184675279 24.7746
35.641907337029984 24.6024
35.665294361595684 24.5934
35.68886565090076 24.5469
35.7122557598848 24.5474
35.73564740699838 24.6116
35.759040593519934 24.4902
35.78261809810353 24.4253
35.80601437933051 24.33
35.829412203814705 24.3492
35.85281157283719 24.301
35.876395313415884 24.2576
35.8997977874528 24.1812
35.92320180988546 24.0964
35.946790244133936 24.128
35.97019737933222 24.1112
35.993606066789866 24.1021
36.01701630779276 24.0289
36.04061101440684 24.0459
36.06402437852291 23.8864
36.08743930005611 23.9039
36.1108557802951 23.8644
36.13445678011326 23.8158
36.15787639383515 23.804000000000002
36.18129757014299 23.8231
36.20472031032821 23.6962
36.22832762423364 23.6795
36.25175350829375 23.6961
36.275180960119776 23.5507
36.298609981005924 23.6175
36.32222362992669 23.6401
36.34565580510207 23.5989
36.36908955323448 23.5026
36.39252487562093 23.4323
36.416144880530226 23.3656
36.43958336764275 23.4128
36.463023432914625 23.3605
36.486465077645676 23.3271
36.51009145956204 23.3898
36.53353627947859 23.3914
36.55698268276811 23.3484
36.58043067073321 23.2187
36.60406345072071 23.1283
36.62751462435344 23.125
36.65096738658405 23.0419
36.67460498210655 23.052
36.69806093788647 23.0774
36.72151848619297 22.9819
36.744977628333636 23.0042
36.76862165890998 22.9266
36.79208400512205 22.8968
36.81554794910557 22.848000000000003
36.83901349217101 22.7599
36.862663978991606 22.7183
36.88613273667352 22.671
36.90960309738324 22.7415
36.933075062434064 22.6387
36.95673202673572 22.6234
36.98020721697122 22.5339
37.003684015502365 22.4982
37.027162423645365 22.4985
37.050825886711465 22.4422
37.07430753063053 22.4054
37.09779078812467 22.3332
37.121275660513014 22.4142
37.144945643673694 22.3329
37.16843376245278 22.294
37.19192350009803 22.2963
37.215414857931435 22.2778
37.239091382563885 22.149
37.262585997426164 22.1874
37.28608223645736 22.2341
37.309763684451696 22.1104
37.33326318851098 22.04
37.356764320726555 22.0632
37.380267082425526 22.1003
37.40395510942588 22.0037
37.42746114683234 21.9481
37.45096881771841 21.9443
37.474478123414166 21.9216
37.49817275092816 21.8415
37.52168534303452 21.8743
37.54519957395567 21.7269
37.568715445024665 21.7073
37.592416694607714 21.7161
37.61593586281424 21.7389
37.63945667518264 21.6707
37.66297913304891 21.5871
37.68668702630454 21.6148
37.710212792059274 21.5442
37.733740207334854 21.494
37.757269273470364 21.445
37.780983832050374 21.4317
37.80451621684926 21.3752
37.82805025654007 21.3567
37.851585952464795 21.3373
37.8753071980695 21.2217
37.89884622345676 21.2223
37.92238690911902 21.2576
37.94611318753442 21.1362
37.969657210779765 21.0663
37.99320289834801 21.0979
38.016750251586465 21.0751
38.04048325513017 21.0278
38.06403395679343 20.9696
38.087586328183946 20.9854
38.11114037065203 20.9443
38.13488012115898 20.9727
38.1584375229181 20.8579
38.181996599821 20.8434
38.205557353221124 20.8143
38.229303872575656 20.7212
38.2528679961576 20.7534
38.27643380031219 20.7127
38.30000128639589 20.6349
38.32375459653193 20.6396
38.34732546371299 20.7032
38.37089801690786 20.5688
38.39447225747609 20.5271
38.418232380377425 20.4962
38.441810012983396 20.4812
38.46538933705673 20.4904
38.488970353960084 20.4006
38.51273731166058 20.3576
38.536321731567014 20.307000000000002
38.55990784840681 20.3141
38.58367995004091 20.2273
38.60726947812959 20.2137
38.63086070726198 20.2091
38.654453638806274 20.2571
38.678232613930824 20.177
38.70182896773327 20.1465
38.72542702806741 20.0677
38.7490267963045 20.0592
38.77281266709232 20.0343
38.79641586862214 19.9845
38.8200207821842 19.9351
38.843627409152944 19.9976
38.86742019782782 19.8761
38.891030269149255 19.8438
38.914642058016156 19.8571
38.938255565806124 19.8031
38.96205529464307 19.8029
38.98567225787121 19.7811
39.00929094417078 19.7225
39.03291135492255 19.6825
39.05671804624804 19.6284
39.080341923549106 19.602
39.103967529460334 19.6026
39.127594865365744 19.6039
39.15140854155791 19.5104
39.17503935514948 19.4964
39.19867190290282 19.4548
39.22249083587951 19.4576
39.24612686969409 19.4253
39.269764641845306 19.3709
39.293404153722804 19.3907
39.317230110864074 19.2717
39.34087311998506 19.285999999999998
39.36451787301696 19.2932
39.388164371352595 19.1386
39.41199737518003 19.1402
39.43564738196752 19.1552
39.45929913825317 19.1251
39.48295264543308 19.0978
39.506792718520884 19.0364
39.530449745387216 18.9855
39.55410852735203 18.9825
39.57776906581474 18.9831
39.60161623079 18.9185
39.625280300200025 18.9159
39.64894613032202 18.8918
39.67261372255866 18.8638
39.6964680021016 18.8707
39.72013913657293 18.7818
39.74381203738292 18.7549
39.76748670593756 18.7269
39.79134812278169 18.7377
39.81502634488497 18.6453
39.83870633896685 18.6623
39.862388106436654 18.5561
39.88625668336918 18.6351
39.90994201572829 18.5986
39.933629125719285 18.5432
39.957503091207826 18.4945
39.9811937746168 18.4619
40.00488623990914 18.448
40.02858048850006 18.4024
40.05246165409549 18.3675
40.076159487492085 18.2902
40.099859108448875 18.3435
40.123560518384345 18.2846
40.1474489070226 18.285999999999998
40.171153913178564 18.2317
40.194860712584955 18.1869
40.2185693066637 18.2206
40.242464941335314 18.1733
40.26617714307655 18.1456
40.289891143772046 18.1437
40.3136069448471 18.1115
40.33750984859743 18.0514
40.3612292688043 18.0317
40.3849504936829 17.9973
40.40867352466194 17.9752
40.43258372059144 17.9603
40.45631038219906 17.9093
40.48003885420956 17.8276
40.503769138055105 17.8503
40.52768664931955 17.8309
40.55142057531802 17.7859
40.57515631746428 17.8059
40.599079334038514 17.7499
40.62281872700477 17.6432
40.64655994043941 17.6485
40.67030297578061 17.6889
40.69423334835778 17.6822
40.71798004609188 17.623
40.74172857006355 17.5873
40.76547892171441 17.5311
40.7894166736039 17.5163
40.813170699248566 17.467
40.83692655691388 17.4077
40.86068424804498 17.4124
40.884629402612525 17.3895
40.908390779366385 17.4057
40.932153993938 17.3324
40.95591904777605 17.3382
40.979871628443995 17.2635
41.003640379561936 17.27
41.02741097430883 17.2505
41.05118341413683 17.2583
41.075143444384416 17.2194
41.098919593177826 17.1923
41.1226975914255 17.1741
41.14647744058318 17.0805
41.170444943946755 17.0239
41.19422851378379 17.0219
41.218013938914645 16.9778
41.24198706625173 16.8936
41.26577622087193 16.9154
41.289567235177785 16.8836
41.31336011063129 16.864
41.337340752422875 16.8466
41.361137369129835 16.8705
41.38493585138705 16.7645
41.40873620066004 16.7568
41.43272438060107 16.7473
41.45652848292052 16.6639
41.48033445666918 16.6139
41.50414230331616 16.6067
41.528138045159764 16.6679
41.551949656675205 16.5707
41.575763145513235 16.5884
41.59957851314666 16.5516
41.62358184070442 16.5197
41.64740098505737 16.4934
41.6712220126409 16.484
41.69504492493139 16.4098
41.71905586207357 16.3751
41.74288256296395 16.372
41.766711153007456 16.3189
41.79054163368412 16.3136
41.814560204340054 16.3539
41.838394485526365 16.2576
41.86223066180303 16.2462
41.88625497706819 16.2182
41.910094962812 16.1823
41.93393684811168 16.1517
41.95778063445365 16.1176
41.981812625263366 16.1286
42.00566023303407 16.0499
42.029509746323676 16.0374
42.05336116662236 15.9887
42.077400857069705 15.9697
42.10125611078846 15.9492
42.12511327600405 15.9974
42.14897235421036 15.933
42.173019768448455 15.9073
42.19688269209613 15.8747
42.22074753323349 15.8322
42.24461429335818 15.8231
42.268669455600495 15.7918
42.292540073217886 15.751
42.31641261433284 15.7291
42.34028708044675 15.6725
42.36435001496739 15.6806
42.38822835065557 15.6916
42.41210861586426 15.6021
42.4359908120986 15.6005
42.46006154323262 15.5582
42.48394762115317 15.5313
42.507835634632315 15.5612
42.531912233047436 15.5298
42.55580413732265 15.4945
42.579697981698 15.4209
42.60359376768525 15.4537
42.62767820545945 15.4166
42.65157789440821 15.3658
42.67547952952185 15.3589
42.699383112316 15.3229
42.72347541395347 15.2755
42.74738291190531 15.2299
42.771292362102166 15.2618
42.795203766063516 15.2095
42.819303956130405 15.1455
42.843219287476536 15.1331
42.86713657716324 15.1702
42.89105582671383 15.0639
42.91516392983864 15.0717
42.939087119032166 15.0767
42.963012272677304 15.015999999999998
42.98693939230129 15.0293
43.01105543317513 15.0318
43.034986504731386 14.9496
43.05891954686589 14.923
43.08285456110972 14.9233
43.10697856448665 14.8266
43.130917542983475 14.8464
43.15485849820081 14.8537
43.17880143167367 14.7649
43.20293342237094 14.7364
43.226880332449 14.7498
43.25082922540554 14.734000000000002
43.27496722682525 14.7002
43.29892010567796 14.6884
43.32287497204102 14.6887
43.34683182745632 14.624
43.370977859791836 14.5955
43.39493871351105 14.557
43.41890156092628 14.56
43.44286640358341 14.5622
43.46702049182749 14.5254
43.49098934522816 14.4534
43.51496019852649 14.4714
43.5389330532723 14.4189
43.56309522248204 14.362
43.58707210044314 14.3529
43.61105098451946 14.3134
43.63503187626491 14.2588
43.659202151562134 14.2921
43.68318707902681 14.2561
43.70717401884041 14.2346
43.731162972560874 14.1886
43.75534137913236 14.1655
43.779334381108384 14.1596
43.803329401683186 14.1119
43.82732644241872 14.1175
43.8515130055166 14.1118
43.87551410707659 14.0504
43.89951723350145 14.0359
43.923709934595614 14.0197
43.94771713129917 14.0284
43.97172635758096 13.9663
43.99573761501002 13.9131
44.0199385169922 13.8752
44.04395385732619 13.87
44.067971233533086 13.8878
44.09199064718605 13.8594
44.11619977548961 13.7918
44.14022328470671 13.7787
44.16424883610785 13.8291
44.18827643127035 13.8189
44.21249381139513 13.7428
44.236525514814076 13.6807
44.26055926674478 13.6649
44.28459506876863 13.6831
44.3088207262813 13.6528
44.33286064928722 13.5829
44.35690262714919 13.5869
44.38094666145278 13.5447
44.4051806219871 13.5666
44.42922879003185 13.501
44.45327901929361 13.5009
44.477331311362136 13.4922
44.501573600619416 13.4493
44.525630039221795 13.3715
44.54968854541895 13.4026
44.573937102200176 13.4033
44.5979997645541 13.3589
44.622064499300315 13.350999999999999
44.64613130803592 13.3222
44.67038823869318 13.3263
44.69445921643748 13.2745
44.718532272981385 13.2283
44.742607409926194 13.2287
44.76687274034801 13.1449
44.79095205918753 13.1101
44.81503346325094 13.129000000000001
44.839116954143876 13.0882
44.86339071028742 13.1242
44.88747839599524 13.1208
44.91156817336837 13.0436
44.93566004401666 13.067
44.959942251908146 13.0267
44.984038330325966 12.9857
45.00813650686762 12.9142
45.03223678314731 12.9096
45.05652746888232 12.9047
45.08063196592069 12.8486
45.104738567558705 12.8294
45.128847275414856 12.8628
45.15314646515866 12.8159
45.17725940679741 12.7928
45.20137445952892 12.728
45.22568004865265 12.7201
45.24979934496396 12.6946
45.27392075725247 12.6177
45.29804428714431 12.6217
45.322358426247604 12.6779
45.346486212804315 12.6697
45.370616121861914 12.603
45.39474815505086 12.5849
45.41907087049246 12.5616
45.4432071734666 12.5669
45.46734560548283 12.5418
45.49148616817604 12.5273
45.51581748638564 12.5034
45.5399623320197 12.4873
45.56410931325473 12.4421
45.58825843173002 12.4445
45.61259837920865 12.4369
45.636751793816 12.3905
45.66090735060093 12.3448
45.68506505120716 12.3176
45.7094136545275 12.2853
45.73357566449271 12.2545
45.75773982322992 12.2691
45.78190613238733 12.2651
45.806263418194064 12.2133
45.83043404997326 12.2197
45.85460683713677 12.192
45.87897065658495 12.1755
45.90314777634752 12.1254
45.92732705646868 12.0941
45.9515084986045 12.077
45.97588104735473 12.0898
46.00006683541565 12.0565
46.02425479047904 12.036
46.04844491420549 12.0523
46.0728262191024 12.0038
46.09702070211635 11.9766
46.12121735879483 11.9461
46.14541619080294 11.9105
46.169806278764455 11.9038
46.194009483459034 11.8947
46.21821486849841 11.8593
46.24242243555223 11.8123
46.266821333570014 11.8237
46.29103328674601 11.7821
46.31524742696538 11.7869
46.33946375590237 11.7576
46.36387149104216 11.7144
46.38809221957392 11.6959
46.41231514186606 11.6525
46.436540259597464 11.6735
46.460956858999374 11.6479
46.48518638983522 11.6229
46.509418121166966 11.5404
46.533652054678114 11.5479
46.55807754555709 11.5562
46.58231590571962 11.4988
46.60655647313217 11.5114
46.630988654873654 11.4705
46.655233659129024 11.4263
46.67948087571551 11.4441
46.70373030632484 11.4294
46.72817142736393 11.4585
46.752425308428684 11.3876
46.77668140861147 11.3561
46.80093972960865 11.2986
46.82538981736788 11.3233
46.849652602470904 11.2808
46.87391761349769 11.2731
46.8981848521493 11.2787
46.9226439341274 11.1822
46.946915650573224 11.1838
46.97118959976749 11.1788
46.99546578341598 11.155999999999999
47.019933887188216 11.1367
47.04421456235744 11.1373
47.06849747711879 11.0975
47.09278263318286 11.0605
47.11725978640143 11.0497
47.14154944775105 10.9897
47.165841355555656 10.9818
47.1901355115306 10.9955
47.214621741924994 10.9836
47.23892041698887 10.9681
47.26322134538975 10.9
47.28771440635075 10.8672
47.31201986422527 10.9049
47.33632758061436 10.8994
47.360637557241866 10.8841
47.38513974410611 10.854000000000001
47.40945426407847 10.8497
47.43377104948137 10.7734
47.45809010204344 10.7486
47.48260144275502 10.7253
47.506925052572285 10.7162
47.53125093475548 10.7047
47.55557909103813 10.6686
47.58009961361992 10.652999999999999
47.60443234110732 10.6576
47.62876734791564 10.6419
47.65310463578333 10.6457
47.6776343683373 10.604000000000001
47.7019762413987 10.548
47.72632040075572 10.5258
47.75066684815169 10.5211
47.77520581885936 10.509
47.799556865477655 10.4954
47.823910205386 10.5109
47.84826584033272 10.4707
47.87281407745551 10.3891
47.89717432569297 10.4465
47.92153687423484 10.4074
47.94609208429692 10.4144
47.97045925671401 10.3852
47.99482873471275 10.3531
48.01920052005013 10.3335
48.04376504619224 10.3079
48.068141469543484 10.3072
48.09252020552573 10.288
48.11690125590099 10.2804
48.1414751266064 10.2485
48.16586082917454 10.2377
48.19024885144316 10.2078
48.2146391951793 10.2052
48.239222439012764 10.1969
48.26361744916137 10.1416
48.28801478610016 10.1333
48.31241445160131 10.1063
48.337007097209366 10.0911
48.36141144338331 10.0979
48.38581812345755 10.072000000000001
48.41022713920929 10.0696
48.434829215320704 10.0032
48.45924292604658 10.0362
48.48365897780325 10.044
48.50807737237308 10.0008
48.532688907799276 9.95545
48.55711201168574 9.91054
48.581537463754074 9.913030000000001
48.60615611725119 9.9034
48.63058628942721 9.86957
48.65501881516546 9.840060000000001
48.6794536962573 9.8508
48.70408185970339 9.82536
48.72852147531801 9.813930000000001
48.75296345168211 9.76556
48.77740779059232 9.75382
48.80204549302823 9.75283
48.82649458091802 9.748339999999999
48.85094603676547 9.73577
48.87539986237231 9.7303
48.90004713292306 9.69213
48.92450572200832 9.62375
48.94896668628025 9.6677
48.97343002754588 9.6391
48.99808689542115 9.63183
49.02255501470614 9.62615
49.04702551642794 9.593580000000001
49.0714984023988 9.52582
49.096164896893235 9.5627
49.120642575466796 9.50937
49.145122643748394 9.52098
49.16960510355558 9.50522
49.19428125404938 9.445269999999999
49.2187685210852 9.44864
49.243258185121555 9.42155
49.26794160167084 9.41906
49.2924360839405 9.41049
49.31693296869764 9.39789
49.34143225776915 9.36582
49.36612538195438 9.327010000000001
49.39062950396021 9.27943
49.41513603578346 9.2712
49.4396449792564 9.27405
49.46434784069503 9.258610000000001
49.488861631846454 9.21711
49.513377840166804 9.23391
49.537896467493745 9.18838
49.56260909589029 9.161010000000001
49.587132585683285 9.18679
49.611658500018365 9.14995
49.636186840738596 9.09125
49.66090926588511 9.1267
49.685442483902584 9.08784
49.70997813385706 9.049439999999999
49.734516217597076 9.07894
49.75924846937352 9.079930000000001
49.7837914452858 9.05231
49.80833686055187 9.01378
49.83288471702571 8.987639999999999
49.85762682540054 8.994769999999999
49.882179588965734 8.944230000000001
49.9067347993235 8.942789999999999
49.93129245833333 8.96786
49.95604445336378 8.95858
49.98060703442832 8.90708
50.005172069746266 8.90033
50.02993150438364 8.8971
50.05450147301533 8.866530000000001
50.07907390151433 8.82573
50.10364879174981 8.80385
50.12841816587289 8.785210000000001
50.1529980044635 8.79598
50.17758031042124 8.7787
50.20216508562089 8.756680000000001
50.22694442953363 8.71824
50.25153416817468 8.68544
50.27612638170508 8.72679
50.300721072005196 8.65877
50.325510416102105 8.64612
50.350110084975064 8.63274
50.37471223628208 8.63125
50.39931687190919 8.644060000000001
50.424116246675766 8.57134
50.44872587605249 8.53587
50.47333799543065 8.59159
50.49795260670191 8.585980000000001
50.52276204271512 8.5178
50.54738166295838 8.50163
50.57200378079314 8.4938
50.596628398116835 8.492510000000001
50.62144792604559 8.46878
50.646077567609396 8.4498
50.670709714377715 8.44518
50.69553683636198 8.42178
50.72017401885922 8.42452
50.7448137122895 8.353819999999999
50.76945591856022 8.33808
50.79429318636823 8.35582
50.818940443716784 8.34164
50.84359021965163 8.30125
50.868242516085964 8.30257
50.893089960641895 8.28673
50.917747323549435 8.29157
50.94240721271973 8.2646
50.96706963007175 8.229989999999999
50.99192728239342 8.2042
51.01659478166073 8.1926
51.04126481489051 8.18003
51.06593738400761 8.19405
51.090805275207074 8.1926
51.11548294172845 8.176680000000001
51.14016314993547 8.13407
51.164845901758845 8.107000000000001
51.18972406304274 8.107619999999999
51.21441192780656 8.07049
51.23910234200271 8.05245
51.2637953075678 8.027660000000001
51.288683770237945 8.00227
51.31338186432707 7.97629
51.33808251561888 7.990710000000001
51.362978729967345 7.995480000000001
51.387684521509755 7.98027
51.41239287610203 7.95171
51.437103795691165 7.93376
51.46201036644977 7.9241399999999995
51.486726441956634 7.921530000000001
51.51144508832545 7.894760000000001
51.536166307509156 7.844860000000001
51.56108326624387 7.827389999999999
51.58580965706056 7.830589999999999
51.61053862657523 7.79241
51.635270176746864 7.77185
51.66019755512065 7.80258
51.68493429268881 7.762569999999999
51.70967361681515 7.74604
51.73441552946465 7.70228
51.759353359237934 7.75047
51.7841004750961 7.7229600000000005
51.80885018539685 7.69193
51.833602492111254 7.68615
51.8585508051424 7.66453
51.883308330926425 7.63135
51.90806845906181 7.640639999999999
51.932831191525715 7.625210000000001
51.95779001977161 7.560339999999999
51.98255798721516 7.551139999999999
52.00732856494335 7.52929
52.03229530577543 7.52093
52.057071130455945 7.48871
52.081849571391054 7.49872
52.106630630568695 7.452939999999999
52.13160794279417 7.443560000000001
52.15639426492067 7.4703800000000005
52.18118321127822 7.46208
52.205974783860896 7.42997
52.23096269971011 7.4154100000000005
52.255759551287994 7.42019
52.280559035098186 7.37408
52.30536115314103 7.40354
52.33035970494467 7.37242
52.35516711807904 7.3357399999999995
52.37997717147198 7.30852
52.40478986713005 7.346260000000001
52.42979908731974 7.280239999999999
52.454617094216 7.23085
52.47943774942214 7.2461899999999995
52.50426105495102 7.25277
52.529280976059844 7.189260000000001
52.554109609024096 7.219339999999999
52.57894089837482 7.172689999999999
52.60377484613117 7.177410000000001
52.62880550079408 7.198930000000001
52.65364479223379 7.19433
52.67848674816189 7.13633
52.70352547971946 7.10767
52.72837279155837 7.14036
52.753222773982785 7.12984
52.778075429022984 7.11044
52.80312495150885 7.098380000000001
52.827982978797436 7.0495600000000005
52.85284368481815 6.99557
52.87770707160767 6.979989999999999
52.90276741793998 6.9962800000000005
52.92763619336701 7.00131
52.952507655698504 6.969589999999999
52.977381806977576 6.94994
53.00245301017842 6.94723
53.02733256653592 6.923080000000001
53.052214817996074 6.941
53.077099766608484 6.89624
53.102181859804446 6.87035
53.127072229988265 6.89652
53.15196530349892 6.831010000000001
53.17686108239249 6.84158
53.20195409881522 6.8063199999999995
53.22685531582556 6.82315
53.25175924441303 6.7966
53.27666588664027 6.7999
53.30176985962693 6.71995
53.3266819565689 6.76278
53.35159677336455 6.71805
53.376514312083096 6.73225
53.40162927507703 6.743930000000001
53.42655228516116 6.689430000000001
53.45147802340193 6.662999999999999
53.47660125628886 6.66167
53.50153247842639 6.65325
53.52646643496923 6.6304300000000005
53.55140312799818 6.629510000000001
53.576537409691696 6.612410000000001
53.60147960336152 6.58173
53.626424539786164 6.54289
53.65137222105307 6.540109999999999
53.67651758529126 6.55784
53.70147078399681 6.50052
53.72642673383343 6.52149
53.75138543689533 6.54356
53.776541917524526 6.50314
53.801506154876755 6.46767
53.826473151763246 6.4539599999999995
53.851442910284916 6.44792
53.87661054126026 6.45796
53.9015858509782 6.45533
53.92656392866066 6.468459999999999
53.95154477641532 6.41408
53.976723591801296 6.37165
54.00171000771266 6.37587
54.02669920004598 6.3586
54.051691170915745 6.3204
54.076881204886796 6.34582
54.101878760928514 6.3392800000000005
54.12687910187696 6.32974
54.152077577768296 6.310309999999999
54.1770835166946 6.275869999999999
54.20209224691339 6.27083
54.22710377055121 6.25427
54.25231352511594 6.23435
54.27733066384342 6.17199
54.30235060239643 6.19008
54.32737334290836 6.17721
54.35259441062629 6.10955
54.377622783395324 6.091069999999999
54.40265396455061 6.0805
54.42768795623251 6.08322
54.45292037169559 6.06453
54.477960012857906 6.00402
54.50300247099511 6.02985
54.52804774825457 6.04405
54.55329154616743 5.99865
54.57834249018678 5.93682
54.6033962597977 5.94495
54.6284528571545 5.906540000000001
54.653708072335164 5.90832
54.67877035378786 5.89893
54.70383546947698 5.888330000000001
54.72890342156389 5.88307
54.7541700889442 5.86177
54.77924374251975 5.81621
54.8043202390049 5.75585
54.82959552413022 5.76715
54.8546777351945 5.68939
54.87976279569621 5.7323699999999995
54.90485070780914 5.77776
54.930137506558005 5.73953
54.95523115074295 5.713769999999999
54.98032765308844 5.66593
55.005427015775496 5.69877
55.03072536339621 5.60714
55.05583047570572 5.569030000000001
55.080938454927676 5.55464
55.10604930325027 5.55365
55.131359235107396 5.52591
55.15647585066083 5.43133
55.181595341907496 5.49678
55.20671771104285 5.46563
55.232039262617704 5.38923
55.25716741665048 5.3504
55.28229845518636 5.391369999999999
55.30743238042802 5.37622
55.33276558731939 5.33225
55.357905315183636 5.30619
55.383047936390035 5.25695
55.40819345314859 5.2577
55.433538351073295 5.2124
55.458689688238415 5.2062
55.483843927614096 5.1547
55.509197623043605 5.18464
55.53435769621134 5.1178099999999995
55.55952067826466 5.1096699999999995
55.5846865714265 5.13151
55.61005202069737 5.065840000000001
55.63522376553902 5.0743
55.66039842818645 5.03397
55.68557601087004 5.05271
55.7109532500271 4.92643
55.73613670233794 4.9892199999999995
