TT I
1.2716486653135266 7.08333
1.2939594142134223 6.799919999999999
1.3162702121660406 6.08933
1.3385810600174564 6.58085
1.3608919586137629 6.28855
1.383202908801069 6.3589
1.405513911425503 5.58426
1.4278249673332093 6.2047099999999995
1.4501343378461518 6.09985
1.4724455028545926 5.47739
1.4947567236847858 5.96284
1.517068001182951 5.754980000000001
1.5393793361953272 5.6388
1.5616907295681737 5.16973
1.5840021821477681 4.80337
1.60631369478041 5.14269
1.6286252683124185 5.20843
1.6509369035901333 5.2991
1.6732468618895553 4.8448400000000005
1.695558623192809 4.36733
1.7178704487808514 4.697780000000001
1.7401823395001077 4.27083
1.7625012545597203 4.178380000000001
1.7848028405262486 4.40454
1.8071218901122095 4.34055
1.8294236121921872 4.2431
1.8517427996910911 4.39843
1.8740620574440425 4.53138
1.8963639900671978 4.25914
1.9186833908139995 4.09414
1.9409854680117449 4.0879
1.9633050151394713 4.64127
1.9856246367570705 4.18829
2.0079269371922672 4.6094599999999994
2.03024671027244 4.14461
2.0525491637446027 4.4295800000000005
2.074869091674931 4.26628
2.097171701569106 3.87678
2.1194917877373847 4.18256
2.141811954326636 4.6378
2.164114805233074 4.1220099999999995
2.186435135143035 4.52168
2.208738150935709 4.693280000000001
2.231058647554722 6.40937
2.2533792288321184 6.37177
2.275682498336085 5.31735
2.298003251406138 4.818230000000001
2.3203066942619714 4.71239
2.3426276225136022 4.7533199999999995
2.3649486396617507 5.58386
2.387252348930071 6.505730000000001
2.4095735463442893 5.75852
2.4318774374315884 6.03262
2.4541988185014043 6.89045
2.476502894794693 7.15649
2.498824462909887 7.236610000000001
2.521146125856138 7.13428
2.5434504863470337 7.61597
2.5657723414244717 8.00228
2.588076895590662 8.44513
2.610398946189713 8.71619
2.6327210958598384 8.26951
2.6550259469304716 8.352210000000001
2.6773482972090137 8.51822
2.6996533504259 8.06443
2.7219759047039602 8.20415
2.744298562293959 8.295919999999999
2.7666039251246595 8.1372
2.7889267918020164 8.75688
2.8112323652516555 9.18092
2.833555444408179 8.76707
2.8558786311183852 8.339139999999999
2.8781845268938557 9.33758
2.9005079311721484 9.09993
2.9228140460410397 9.1427
2.9451376712799635 9.06643
2.967444008632326 9.25483
2.9897678582247247 9.41504
3.0120918213106695 10.3978
3.0343984987899373 10.4482
3.0567226913198637 11.1884
3.079029599759726 11.4728
3.101354025127254 12.1419
3.123678568232338 12.3204
3.145985829517914 12.5419
3.16831061055229 12.9327
3.1906181112775593 13.686
3.212943133635653 14.4953
3.2352682779763207 14.8595
3.2575761442691227 14.8035
3.2799015350264273 15.0867
3.302209649240067 15.6421
3.3245352898092655 16.3271
3.3468436553365257 16.8262
3.369169549113219 17.1832
3.3914955708171384 17.9285
3.413804319727358 17.842
3.4361305997334863 18.1821
3.4584396084414553 19.1758
3.4807661501462652 19.6913
3.503092824025881 19.8674
3.5254022288463154 20.1909
3.5477291695206588 20.6365
3.5700388426251948 20.5778
3.5923660534916446 21.0841
3.6146934007816114 22.752
3.637003482731501 27.4589
3.6593311053109985 29.7417
3.681641464033634 26.7538
3.7039693653009733 24.1418
3.726297407241705 24.1078
3.7486081875460804 23.9972
3.7709365132734978 25.2968
3.793247578841633 25.5928
3.8155761917550093 25.7305
3.8378875459837216 25.476999999999997
3.8602164494827234 26.2954
3.882545499606844 26.9937
3.9048572932539183 27.8208
3.9271866390645718 28.1756
3.9494987298666713 28.6783
3.971828374764527 29.0909
3.9941581705403255 29.3381
4.016470713506008 29.886999999999997
4.038800813471445 30.8926
4.061113662089144 31.3339
4.0834440696459176 32.29
4.105774632334751 32.7574
4.128087945865126 33.0515
4.150418821249301 33.3453
4.172732448931298 34.0808
4.195063640413578 34.6737
4.2173775856475215 35.8057
4.239709096631102 38.6118
4.262040768704612 53.3849
4.284355196706267 63.7349
4.306687193387355 55.8871
4.329001947444346 44.0449
4.35133427213731 40.7446
4.373666762177566 41.1281
4.395982011761091 41.5258
4.418314834921175 42.9071
4.44063041906622 43.8509
4.4629635787515625 45.8278
4.4852969080429785 47.0379
4.5076130004776225 47.2252
4.529946671403969 47.7601
4.552263106909177 48.306999999999995
4.574597122877047 49.7144
4.596931312711224 50.8615
4.619248269273446 51.6848
4.6415828092605835 52.1984
4.663900117405352 53.6323
4.686235010953232 54.8056
4.708552674085913 56.496
4.730887924602802 58.0482
4.753223354952695 59.295
4.775541557023902 60.8592
4.797877349456786 62.248000000000005
4.820195915032126 64.4862
4.842532072957498 65.4481
4.864868414979744 67.4271
4.88718753227192 69.209
4.909524244902505 70.9925
4.931843734218147 72.7991
4.954180820867835 75.7662
4.976518095879839 78.7905
4.998838149695359 80.8984
5.021175803844231 84.3466
5.043496238205739 87.7881
5.065834274903528 91.5421
5.088172504230693 95.5876
5.1104935158799565 100.531
5.132832132875765 108.044
5.155153533596801 121.499
5.1774925416746225 141.819
5.199814334878411 247.13
5.2221537374521505 874.003
5.244493338631803 2702.2
5.266815727034316 7562.55
5.289155727832427 13760.6
5.311478517248165 9472.14
5.333818921080011 3115.62
5.356159527788849 607.707
5.3784829252032536 193.19299999999998
5.400823940070432 141.688
5.423147747031976 124.01700000000001
5.445489173474152 114.88799999999999
5.467830807066149 109.54299999999999
5.490155234831516 105.46
5.512497285125229 102.867
5.534822130975162 101.835
5.557164601388673 99.0586
5.579489868738879 96.4681
5.601832762690846 95.3507
5.6241758697774475 94.1502
5.646501775867269 93.0239
5.668845311622074 92.2725
5.691171647754637 91.8153
5.713515615597765 90.5296
5.735859800852677 89.5506
5.758186788542988 88.9202
5.780531411018185 88.6943
5.802858837297399 88.137
5.825203900414495 87.7701
5.8475491852224 88.0209
5.869877275883075 88.7678
5.892223006467101 89.5438
5.914551544266608 90.57700000000001
5.936897724049891 92.5477
5.959244129804903 97.0857
5.981573344815301 109.69
6.0039202049061 175.231
6.026249875609095 422.10900000000004
6.04859719346037 944.419
6.070927323278297 2149.51
6.093275102315365 4572.05
6.115623113320588 5501.33
6.137953938319995 3289.54
6.160302415650845 936.6419999999999
6.182633708324452 212.615
6.2049826554078376 106.096
6.227331838745022 87.2689
6.249663839443684 81.0209
6.27201349767565 76.6124
6.294345974611799 75.0295
6.316696111167083 74.3247
6.339046488263839 72.997
6.361379686074702 69.7764
6.383730546639482 67.8181
6.406064229255215 66.2287
6.428415576718203 65.6208
6.450749747566656 64.5104
6.47310158535871 63.3687
6.495453669698332 62.651
6.517788579421056 62.1497
6.540141159237969 61.3497
6.562476565766648 60.7824
6.5848296444934045 60.0557
6.607182974060425 59.3006
6.6295191323281015 59.3402
6.651872965955752 58.7718
6.6742096296068985 59.9135
6.6965639707294615 64.2381
6.71891856698715 64.9652
6.741255995248479 60.6371
6.763611104154477 57.6327
6.785949046381137 56.3514
6.808304671371482 55.7511
6.8306605557940046 55.6108
6.852999275508618 54.8081
6.875355681171544 54.6229
6.897694923437771 54.6858
6.92005185377892 54.5133
6.9423916220322655 54.3199
6.964749080490181 53.489
6.987106804399774 53.4628
7.009447368180821 53.443999999999996
7.031805625367033 53.2455
7.054146723727803 53.082
7.076505517631004 52.9658
7.098864581288365 53.0445
7.121206488070854 52.726000000000006
7.143566093607822 52.4083
7.165908543567245 52.5371
7.188268694426048 52.3202
7.2106291193438095 51.8132
7.232972390625943 52.0964
7.255333366030969 53.0314
7.277677189091925 56.9314
7.300038718428332 62.7813
7.322400526130865 61.7436
7.344745183422596 56.4789
7.367107550224791 53.3241
7.389452767901992 52.5262
7.411815697249891 52.5629
7.434161478756298 52.0764
7.456524974096713 51.9581
7.478888753837185 51.9987
7.501235387657368 53.3914
7.523599738562711 58.3991
7.545946944825532 66.2928
7.568311870344528 68.785
7.5906770845765665 62.207
7.613025156078678 56.2279
7.635390950099687 54.2867
7.657739602662809 53.6281
7.680105979923558 53.3867
7.702472650212829 53.7617
7.724822180948224 53.8898
7.747189439655568 54.1004
7.769539560075357 54.4478
7.791907410653562 54.6516
7.81425812420825 54.6921
7.836626570110925 54.8012
7.858995315087906 55.7225
7.881346924933401 55.9536
7.903716270417482 56.3253
7.926068482028405 56.4663
7.948438431475253 57.5226
7.9708086843180235 57.7103
7.993161805171116 58.3585
8.015532667162402 58.8544
8.037886398416653 59.888999999999996
8.060257873014221 60.3201
8.082629655331942 61.0852
8.104984308787587 61.4471
8.127356708900503 62.1889
8.149711981398308 63.3396
8.172085002766314 64.8263
8.194458336181368 64.9742
8.216814543847752 65.7036
8.23918850371002 66.5262
8.26154533906492 67.9855
8.283919928836452 69.5818
8.306277395339652 70.5266
8.328652618483376 71.6345
8.351028159736202 73.2829
8.373386579575245 75.6523
8.395762759396959 77.1688
8.418121819038275 79.7576
8.440498640894003 83.2092
8.462875785192262 88.6305
8.485235811156207 97.44
8.507613602688501 136.017
8.529974277114228 246.53099999999998
8.552352719347912 402.522
8.574731488360351 661.196
8.59709314210385 1164.4
8.619472567021075 1910.42
8.64183487789147 2362.14
8.664214962183097 1998.03
8.686577933647762 1040.18
8.708958680784317 386.25699999999995
8.731339760774953 166.635
8.753703729764451 108.775
8.77608547780821 95.7137
8.798450116065078 92.8174
8.820832535634787 89.84899999999999
8.843215292401656 88.3717
8.865580941199045 87.3041
8.887964374703538 86.1244
8.910330701447199 85.2529
8.932714815164482 84.4145
8.955099270424924 83.8469
8.977466620733543 83.01899999999999
8.999851761421976 82.5596
9.022219798361645 81.6584
9.04460562795561 81.8512
9.066991803441677 81.0715
9.089360876979615 81.0185
9.111747746589993 81.0118
9.13411751544971 80.6431
9.156505082664324 80.1007
9.178875550323522 80.7058
9.20126381862328 82.6302
9.223652438908596 91.1204
9.246023961427412 102.625
9.26841328802173 106.67
9.290785518039224 97.1507
9.313175554425882 87.132
9.335565947154315 82.3817
9.357939245086508 81.3156
9.380330352834827 81.5415
9.40270436697103 81.5621
9.425096193225055 81.19800000000001
9.447488380180165 81.9807
9.469863475295412 82.1408
9.492256385987508 82.389
9.514632206018318 83.1139
9.537025843935714 83.5254
9.559402392368193 83.9815
9.581796761000229 84.9412
9.604191496441521 85.1552
9.626569144158516 86.3017
9.648964615551032 86.6874
9.671343000390081 88.1248
9.693739211225699 89.0953
9.716135793237463 89.4382
9.738515290448102 90.023
9.760912617143402 91.2491
9.783292860202891 92.4634
9.805690935076182 93.3608
9.828089385495742 94.211
9.850470754023561 96.2029
9.872869957865444 98.0316
9.89525208097539 101.25200000000001
9.917652041736662 105.395
9.940052382417589 108.83200000000001
9.962435644102392 118.973
9.984836746950979 154.303
10.007220771957746 239.734
10.029622640473708 366.14
10.052007432299963 551.7
10.074410069984072 816.799
10.096813093716005 1249.1
10.119199042482517 1807.88
10.141602840636468 2097.42
10.163989564971628 1640.09
10.186394141051062 937.012
10.208799107559706 403.33099999999996
10.231187001965623 185.99400000000003
10.253592751657669 122.57700000000001
10.275981430388155 108.67299999999999
10.298387966769793 104.58
10.320794897965431 103.565
10.343184759907361 102.478
10.36559248305461 100.802
10.387983138083852 99.3805
10.410391656691655 101.044
10.432800574501677 111.469
10.455192425893369 134.872
10.47760214443012 167.449
10.499994797678786 213.52
10.522405320453982 286.319
10.54479877906917 401.73800000000006
10.567210109595656 526.919
10.5896218454736 593.0
10.612016518879773 525.2909999999999
10.634429067781074 357.27
10.656824555333241 204.637
10.679237920773568 129.115
10.701651695961992 100.29299999999999
10.724048411481384 91.6907
10.746463008485165 86.4498
10.768860546937125 83.4116
10.791275969274796 81.3705
10.81369180576079 79.9346
10.836090585366925 79.0498
10.858507252467449 77.9844
10.88090686379991 77.0711
10.903324365036394 75.9693
10.925724811614439 74.5452
10.948143150509463 74.5666
10.970561909719066 73.5885
10.992963615930844 72.9727
11.015383218085756 71.8861
11.037785768347074 70.9225
11.06020621697282 70.3951
11.082627090322113 70.2783
11.105030913430326 69.4155
11.12745263854165 68.92399999999999
11.149857314510728 68.5348
11.172279894912576 69.0639
11.194702904450653 68.5377
11.217108866490921 67.8051
11.239532736615194 66.8921
11.26193956033512 66.4171
11.284364294577085 66.0918
11.306789462371718 65.1795
11.329197585398376 64.9149
11.351623622610898 65.0177
11.37403261614354 64.1317
11.396459526308487 64.2362
11.418869393879497 63.6138
11.441297180532617 63.121
11.463725406927658 62.8099
11.486136592353875 62.4065
11.508565700543707 62.3499
11.530977768845315 62.8654
11.553407762368774 62.5492
11.575838200059769 62.4863
11.598251599479612 61.9337
11.620682927815501 61.3935
11.64309721895548 61.4007
11.665529441478206 61.3326
11.687962112597958 61.2412
11.710377748130886 61.2265
11.732811318753434 60.8736
11.755227854859067 61.0454
11.777662328529495 60.9873
11.800079768750786 60.7123
11.822515149015453 60.8044
11.844950984084935 61.2142
11.867369787303163 60.831
11.889806534289491 61.038999999999994
11.912226250487029 62.8316
11.934663912939751 65.4646
11.9571020346363 67.5742
11.979523127133968 67.3825
12.001962169624331 65.7756
12.024384183972964 63.8768
12.046824150809913 65.6349
12.069264581333726 71.3961
12.091687985297767 79.1596
12.11412934550045 89.3703
12.136553680195208 103.083
12.158995973632788 124.822
12.181438735204349 151.304
12.20386447284199 184.825
12.226308172985636 199.18099999999998
12.24873485024193 199.704
12.271179492516982 163.017
12.293607112949127 122.57700000000001
12.316052700916226 89.7936
12.338498763250042 72.0731
12.360927805303868 64.6896
12.383374818673879 62.9075
12.405804812803074 62.1253
12.428252780773262 62.1357
12.45070122756722 62.368
12.473132656675375 62.1682
12.49558206341869 62.2722
12.518014453510101 62.3158
12.540464823770117 62.6799
12.562915677315177 62.5825
12.58534951575545 62.9579
12.607801338171472 63.0204
12.630236146511358 63.7643
12.652688941369085 64.485
12.675124723177234 65.1043
12.697578494048786 65.204
12.720032754458185 65.0191
12.742470003354093 65.2287
12.764925245138771 65.6741
12.787363476431278 66.2333
12.809819703166806 66.7725
12.83227642391173 67.1144
12.854716135692716 67.8181
12.877173846755147 68.9351
12.899614549869717 69.4983
12.9220732548287 69.844
12.94453245827299 70.3699
12.966974655289818 71.5652
12.989434858002571 72.1694
13.011878055298721 72.9871
13.034339260862497 74.1399
13.056800969391883 75.4392
13.079245674017244 77.6285
13.101708390774869 79.34899999999999
13.12415410463411 84.1171
13.146617833206086 95.6647
13.169064559883248 111.79
13.191529303857127 130.94899999999998
13.213994557076367 154.495
13.236442809902437 189.597
13.258909083908291 239.916
13.28135835851934 305.427
13.30382565690295 381.61800000000005
13.326293469022952 439.19
13.348744283242008 433.32
13.371213125129904 360.5
13.39366497011003 258.703
13.416134845360597 170.489
13.438605238843131 120.819
13.46105863690397 101.564
13.483530069144786 101.15799999999999
13.505984506951902 109.794
13.528456981549432 123.54
13.550929978879088 140.063
13.573385983253365 162.645
13.595860028340867 196.46
13.618317081455832 246.85299999999998
13.64079217790333 307.728
13.663250283359057 359.74300000000005
13.685726434770173 385.077
13.708203115221277 346.792
13.730662806148091 271.689
13.75314054697177 192.937
13.775601299246777 130.839
13.798080104050406 97.2669
13.820559442405358 84.6868
13.843021793671388 80.1613
13.865502201420897 78.6701
13.887965623051947 78.0417
13.910447103807167 76.8413
13.932929122629764 75.6064
13.955394156785959 75.2961
13.977877254034569 74.4543
14.000343367582113 73.6834
14.022827546871707 72.9375
14.045294743423524 72.5069
14.06778000837062 71.9143
14.090265817715476 71.9419
14.112734645763819 72.7829
14.13522154619454 73.681
14.157691466286913 74.9376
14.180179461423874 74.7762
14.202668005486178 72.7676
14.22513957064374 70.931
14.247629214846473 69.5753
14.270101881097517 68.8797
14.29259262906496 68.3866
14.315083930490205 68.5076
14.337558255389705 68.4583
14.360050666019726 68.2369
14.382526101071944 67.8653
14.405019624534942 67.6042
14.427513705993134 67.388
14.449990813291825 67.3323
14.47248601302899 67.3243
14.49496423954951 67.2663
14.517460561197822 67.3339
14.539939910570322 67.2791
14.562437357763558 67.3193
14.58493536931253 67.4448
14.607416409993311 67.7774
14.62991555254159 67.9589
14.652397725157423 68.2969
14.674898002342799 68.344
14.697398848433282 68.5742
14.719882725991326 69.1844
14.74238471217934 69.7233
14.764869730765593 72.3291
14.787372860692983 76.4527
14.809876564079925 83.351
14.83236330125751 91.5397
14.854868153850365 101.095
14.877356041159485 114.14200000000001
14.899862046604186 130.82299999999998
14.922351087688757 154.658
14.944858249632887 184.498
14.967365991421232 212.482
14.989856770231246 229.372
15.012365673994204 222.07
15.03485761569738 190.22799999999998
15.05736768508665 149.33700000000002
15.07987833888692 114.189
15.102372032001655 90.1831
15.124883856909658 76.458
15.14737872204565 71.3085
15.169891721717274 69.4601
15.192405310371893 68.7601
15.214901940621196 67.9317
15.237416709527137 67.5151
15.259914520936249 67.4001
15.282430473753607 66.8132
15.304947020131227 66.3012
15.327446610371178 65.8011
15.349964346154254 65.3146
15.372465126703139 65.4204
15.394984055556009 65.2049
15.417486030076159 65.0378
15.44000615566487 64.7446
15.462526881230803 64.5741
15.485030653812652 64.6223
15.507552581617434 64.2576
15.530057557334603 64.0988
15.55258069104857 64.63
15.575104429329837 64.8355
15.597611216864632 64.3971
15.620136166564563 64.3608
15.6426441664095 64.9182
15.665170331202765 66.4204
15.687697105158826 70.4868
15.710206930593545 75.5554
15.732734925158933 81.7188
15.755245972089478 89.2807
15.77777519094324 97.8094
15.800287463046663 109.303
15.822817909869592 127.01
15.84534897229804 147.715
15.867863089299354 173.545
15.890395385222186 192.74200000000002
15.912910736597423 201.946
15.935444269699861 190.845
15.957978423016485 163.186
15.980495633101265 127.36
16.003031029129367 100.085
16.02554948280019 78.6134
16.048086125229432 68.1087
16.070623392487107 64.2618
16.09314371869582 62.8905
16.11568223789321 61.3993
16.13820381691126 60.1744
16.160743591742527 59.565
16.183283996022084 58.7632
16.205807461423195 58.1295
16.228349126881973 57.6594
16.25087385432698 57.4732
16.27341678466365 56.8607
16.29594277784926 56.6372
16.31848697676433 56.5064
16.341031811604868 56.0159
16.36355971058487 55.9993
16.3861058195587 55.6056
16.40863499352978 55.2723
16.431182380342005 54.8194
16.453730407713202 54.6983
16.476261501364792 54.3156
16.498810812136167 54.2604
16.52134319004079 54.2942
16.54389378792203 54.0733
16.566445031001553 54.181999999999995
16.588979342490088 53.9233
16.61153187824822 53.6783
16.634067483263312 53.4663
16.656621315414416 53.481
16.679175797408888 53.2338
16.701713349928728 53.3358
16.72426913389191 53.4123
16.74680798922351 53.3986
16.76936507887444 53.4552
16.791905240734874 53.396
16.814463639794468 53.4938
16.837022695210294 53.4555
16.859564824093756 53.5599
16.882125194503903 53.7122
16.904668639217885 54.2536
16.927230328348003 54.5033
16.949792678493612 54.7892
16.972338104193863 54.6543
16.994901778652235 54.4084
17.017448529496576 54.4429
17.040013531998152 54.5168
17.06257920018044 54.555
17.0851279459922 55.5535
17.107694947817667 56.6908
17.130245028099072 57.9191
17.15281336730298 59.3469
17.17536478578733 61.2946
17.19793446610687 63.5699
17.220504818648422 66.0791
17.243058251703697 69.2261
17.265629950971032 73.59
17.288184731571736 78.5376
17.310757781306908 82.6918
17.33333150794385 83.369
17.355888317140174 81.7648
17.37846339986244 77.0139
17.401021565958885 70.4785
17.42359800851343 65.014
17.44617513265564 61.1749
17.468735341390783 59.0474
17.491261035594565 58.0797
17.51396340099364 57.9801
17.536490463869136 58.1653
17.559018209820174 57.938
17.58154663977963 58.2432
17.604251766089718 58.3103
17.626781572227713 58.537
17.64931206518155 58.6183
17.671843245885103 58.9576
17.69455114821572 58.9674
17.717083712612634 59.6503
17.739616967569667 60.0146
17.762150914021706 60.6809
17.78486160749854 60.6953
17.807396945166804 61.5279
17.829932977143503 61.8434
17.85246970436452 62.7226
17.875183204129467 64.5867
17.897721330097664 67.8871
17.920260154126645 71.1107
17.942799677153296 74.9526
17.9655159983646 79.0399
17.988056927677544 83.87200000000001
18.010598558807683 90.5329
18.033140892692916 100.021
18.05586005052525 111.036
18.07840379824407 123.176
18.10094825154059 133.967
18.12366954819864 141.967
18.146215420998306 141.773
18.16876200220057 133.91299999999998
18.191309292745153 120.095
18.214033452627167 105.946
18.236582170236648 93.9911
18.259131600016456 87.6766
18.281681742907335 86.7169
18.304408781233683 90.1454
18.32696035875955 95.5004
18.349512652227624 100.601
18.372065662579683 105.42399999999999
18.394795594587553 106.681
18.41735004715306 102.88
18.43990521943684 95.4109
18.46246111238171 86.3687
18.485193953325208 76.8541
18.507751296070428 69.4381
18.530309362314178 65.2945
18.552868153000343 62.9599
18.57560391815056 61.6884
18.59816416623245 61.2269
18.620725141597372 60.6171
18.643286845190268 60.0655
18.666025549835414 59.4656
18.688588718427933 58.7713
18.711152618092243 58.6697
18.73389353884365 58.2161
18.75645890921984 58.0366
18.77902501351406 57.6051
18.801591852673102 57.7038
18.824335739722738 57.0746
18.846904057212626 56.9531
18.8694731124168 56.7789
18.89204290628315 56.8987
18.914789774966803 56.6111
18.937361054791623 56.1566
18.959933076131318 55.9908
18.982505839934877 55.9814
19.00525570560582 56.0098
19.027829963004184 55.748000000000005
19.05040496572238 55.5726
19.072980714710468 55.8645
19.095733592739563 55.8581
19.11831084296757 55.88399999999999
19.140888842324735 56.6519
19.16346759176222 57.1568
19.18622349753803 57.8177
19.208803755869358 58.7441
19.231384767143577 59.9995
19.253966532312948 61.5469
19.276725481241822 63.7832
19.29930876296784 66.4627
19.3218928014549 69.46600000000001
19.34465404436217 72.3615
19.36723960516257 74.7833
19.389825925592426 75.5003
19.412413006605938 74.4631
19.43517731967805 71.179
19.457765930683355 67.1648
19.48035530514408 62.5973
19.50294544401556 58.8992
19.525712842708348 56.2842
19.54830451925909 54.4578
19.570896963095727 53.3742
19.593490175174704 53.2934
19.616260674962184 53.1466
19.638855432416964 52.6628
19.661450960992624 52.9272
19.68404726164677 52.7145
19.706820878021247 52.3801
19.729418731756834 52.6869
19.752017360452857 52.4417
19.77461676506804 52.4987
19.797393513540218 52.6017
19.819994478951667 52.7695
19.84259622316767 53.3198
19.8651987471481 53.9398
19.887978643247177 54.3941
19.91058273574792 55.1788
19.933187610901943 55.7658
19.955969879466828 56.9271
19.97857632894404 58.4226
20.00118356396599 59.9024
20.023791585494575 61.8452
20.046577028914875 64.7959
20.069186632506966 67.2879
20.091797025500632 69.8451
20.114408208858933 70.7678
20.137196842715273 70.499
20.159809615886765 68.8105
20.18242318232135 66.1648
20.20503754298326 63.8456
20.227829382875154 62.4046
20.250445341109344 61.9312
20.27306209647285 62.5308
20.29567964993108 63.9082
20.31847471147704 65.0185
20.34109387027612 65.8626
20.363713830075454 65.1945
20.386334591841646 63.6227
20.409132890679302 61.056000000000004
20.431755265564437 57.8242
20.454378445325528 55.04
20.477002430930366 52.8898
20.499803982716553 51.3519
20.522429589228004 50.4781
20.54505600449589 49.7874
20.567683229489194 49.7471
20.590488049900088 49.3914
20.61311690359731 49.4538
20.63574656993626 49.3356
20.658553853717297 48.7679
20.681185154618298 48.934
20.703817271080066 48.7651
20.72645020407368 48.4443
20.749260783967177 48.2848
20.771895359337133 48.6551
20.794530754161617 48.573
20.817166969412938 48.5717
20.83998086114876 48.2232
20.86261872660049 47.9831
20.885257415405402 47.9085
20.90789692853701 47.7097
20.930714147864748 47.7062
20.953355319030678 47.7741
20.97599731745334 47.9268
20.99864014410749 47.7452
21.021460706796564 47.7619
21.044105199328826 48.2963
21.06675052302631 48.3471
21.089396678865015 48.4921
21.112220600704806 48.721000000000004
21.134868430275347 49.0132
21.15751709492456 49.357
21.180166595629693 49.6779
21.202993892429635 50.1933
21.22564507473034 50.582
21.24829709602816 50.7553
21.27112693608965 51.0217
21.293780644891275 50.8593
21.316435195634053 50.0842
21.339090589297417 49.4787
21.361923832041875 48.9903
21.384580921090404 48.3381
21.407238856007325 47.8142
21.429897637773326 47.8902
21.45273429906592 47.7944
21.475394784108598 47.6427
21.498056118951983 47.6865
21.520718304578022 47.99
21.543558400304388 47.9935
21.566222297108816 47.9
21.58888704765135 48.1061
21.61155265291521 48.3608
21.63439619898156 48.9851
21.657063523335786 49.4174
21.67973170537063 50.1794
21.7024007460706 50.7578
21.72524775840385 51.5432
21.747918526116475 52.4899
21.770590155457388 53.4565
21.79326264741238 55.0029
21.816113141960237 56.8266
21.838787368860547 58.8743
21.861462461341976 60.8148
21.884315579735777 63.2744
21.90699241312273 64.8214
21.92967011506078 65.4378
21.95234868653799 64.793
21.9752053151131 63.4859
21.997885635446785 61.63
22.020566828293532 59.5323
22.04324889464272 57.5838
22.066109049404666 56.3194
22.088792872571794 55.8025
22.111477572219204 55.8732
22.1341631493376 56.2283
22.157026846313123 56.0763
22.179714188221507 55.3015
22.202402410582668 54.1129
22.22509151438863 52.4571
22.24795876962584 51.1217
22.270649646204486 50.0528
22.293341407213727 49.4285
22.316034053646906 48.8084
22.338904883215342 48.4771
22.36159931041458 48.2113
22.38429462602756 48.2442
22.40699083104897 47.9252
22.429865251039757 47.8472
22.452563244831367 48.0133
22.47526213102522 48.0208
22.49813925616515 47.9194
22.520839937143307 47.8814
22.543541513520587 47.9561
22.56624398629403 47.9483
22.589124730075895 47.9332
22.611829005656723 48.0418
22.63453418063466 47.9459
22.657240256008077 48.1387
22.680124634582935 48.4323
22.70283252079775 48.861999999999995
22.725541310413075 49.2672
22.74825100442868 49.3756
22.771139033969575 50.0381
22.79385054687155 50.3516
22.81656296718292 50.9716
22.83927629590484 51.7453
22.862167992606945 52.6705
22.88488314827121 53.7927
22.907599215359284 54.7564
22.93031619487366 55.955
22.953211574954405 57.0429
22.975930389478226 57.876000000000005
22.998650119445763 57.9068
23.02137076586092 56.9527
23.044269845560063 55.933
23.06699233506288 54.1682
23.089715744034912 52.3773
23.112617610931565 50.6942
23.135342869061212 49.5359
23.158069049684816 48.8132
23.1807961538087 48.1298
23.20370174880544 48.1215
23.226430710184808 48.0278
23.249160598093425 48.0973
23.271891413539002 48.1924
23.294800752937697 48.2768
23.31753343374794 48.7886
23.340267045128353 48.9735
23.36300158808808 49.2535
23.38591468821339 49.8482
23.408651104658304 50.2647
23.431388455719986 50.8613
23.454126742409 51.56100000000001
23.4770436196085 52.54
23.499783787914662 53.8566
23.522524894889884 54.8467
23.54526694154616 56.1249
23.56818761219047 57.1392
23.59093154860734 57.9301
23.613676427751283 58.4396
23.636422250635754 57.5792
23.659346731118656 55.7367
23.68209445191868 53.8189
23.704843119509587 51.5421
23.72759273490623 49.6456
23.750521041644767 48.1204
23.77327256312355 46.8219
23.796025035462787 46.0889
23.818956224555475 45.6597
23.841710609113413 45.3476
23.86446594758979 45.1943
23.887222241002014 44.9083
23.910157285144578 44.4696
23.932915498962537 44.7956
23.955674670778713 44.5651
23.978434801611975 44.349
24.001373717286125 44.1547
24.024135776723917 44.0362
24.046898798245582 43.9525
24.06966278287146 43.821999999999996
24.092605586582614 43.6399
24.115371508023642 43.3757
24.1381383956401 43.3777
24.16090625045381 43.37
24.183852958731244 43.153999999999996
24.206622758582608 43.1761
24.229393528706886 42.8932
24.252165270127392 43.0512
24.27511589952438 43.0614
24.297889594216997 42.785
24.32066426328598 42.5426
24.34343990775613 42.7563
24.36639447485003 42.5774
24.38917208083877 42.5265
24.41195066531332 42.5455
24.43490819850244 42.5483
24.457688750692377 42.3562
24.48047028445616 42.336000000000006
24.503252800821233 42.6048
24.526214300784112 42.592
24.548998793132213 42.5524
24.57178427117417 42.3682
24.59457073593893 42.4344
24.617536219319863 42.3768
24.64032466834748 42.4874
24.663114107195035 42.2956
24.685904536893013 42.0951
24.708874020360852 41.9085
24.731666442613744 41.8247
24.754459858818787 41.7831
24.777254270007962 41.6871
24.80022777025625 41.5572
24.82302418230472 41.5978
24.845821592443674 41.7446
24.86862000170663 41.71
24.891597535453727 41.474
24.914397953892728 41.9769
24.93719937456671 41.7579
24.96000179851076 41.7645
24.98298338249997 42.0299
25.00578782394922 42.3114
25.028593271784167 42.4033
25.05157790644186 42.8574
25.07438537804115 43.0043
25.097193859145293 43.1904
25.120003350792075 43.5746
25.142992065061257 44.0177
25.165803588823465 44.2409
25.18861612625217 44.2671
25.211429678386736 44.3625
25.234422489079968 44.4253
25.257238081693636 44.5891
25.280054692141732 44.6433
25.3028723214652 44.6265
25.325869245420463 44.8223
25.348688923599397 44.9056
25.371509623787006 44.7048
25.394331347025812 44.4715
25.41733240110666 43.8864
25.440156181590016 43.1211
25.46298098826268 42.7016
25.48580682216873 42.1015
25.50881202326435 41.5197
25.53163992281684 40.9988
25.55446885274561 40.7489
25.577298814096377 40.4816
25.600308179121807 40.3814
25.623140214533745 40.4589
25.64597328451537 40.2456
25.66898578564376 39.8868
25.691820936010206 39.9666
25.714657124097695 39.9302
25.737494350954734 39.9442
25.760511045684957 40.019
25.783350361364224 40.1553
25.806190718969255 40.149
25.82903211955018 40.2687
25.852053024868923 40.0924
25.874896522722523 40.2108
25.897741066713106 40.1642
25.920586657892454 40.2414
25.943611790812668 40.3672
25.966459487728237 40.5401
25.989308234998564 40.4186
26.01215803367705 40.9155
26.03518741123814 41.1877
26.05803932412957 41.2753
26.080892291600094 41.1423
26.10374631470478 41.2846
26.12677995397268 41.403999999999996
26.14963609978026 41.2793
26.172493304397875 41.1069
26.19535156888223 40.8408
26.218389486949604 40.4848
26.241249882640123 40.1606
26.26411134137826 39.8394
26.28715248187403 39.915
26.31001607820869 39.6851
26.3328807407756 39.5399
26.35574647063438 39.6306
26.37879191991473 39.6638
26.401659795896734 39.817
26.424528742360263 39.8944
26.447398760366614 39.9879
26.470448535598294 40.2335
26.49332070826805 40.3388
26.516193955675355 40.7455
26.53906827888316 40.941
26.562122397260108 41.1179
26.584998883685063 41.4657
26.607876449110325 41.7433
26.63075509460056 42.0028
26.65381357334404 42.17100000000001
26.67669439061878 42.0551
26.699576291163382 41.9743
26.722459276044212 41.9698
26.745522132402975 41.5882
26.768407297649354 41.2461
26.791293550442003 40.8628
26.814180891848974 40.7011
26.837248143099337 40.3434
26.860137673466657 40.1902
26.88302829566349 39.9157
26.90592001075963 39.7873
26.92899167420566 39.6733
26.951885586870763 39.2613
26.974780595655517 39.0267
26.99785558178161 38.9195
27.020752794605112 38.7539
27.043651106772522 38.4757
27.06655051935668 38.437
27.089629948036183 38.3707
27.112531573292053 38.3449
27.135434302194138 38.3862
27.158338135817015 38.1711
27.181422024430987 38.1921
27.204328079372566 38.0
27.22723524226965 38.082
27.250143514198573 38.1903
27.273231880156334 38.1761
27.296142382065014 38.0425
27.319053996245536 37.872
27.341966723775965 38.0588
27.365059584515222 38.1281
27.38797455070062 38.1314
27.410890633481237 37.9985
27.433807833936918 38.0165
27.456905206923906 38.1427
27.47982465472398 38.145
27.502745223449743 38.2392
27.525666914182825 38.3799
27.548768816912457 38.3048
27.571692763693633 38.2967
27.59461783573812 38.0521
27.617723149491244 37.9212
27.640650484125285 37.8605
27.66357894728264 37.9092
27.686508540048052 37.7155
27.709618414237887 37.5196
27.732550278321757 37.5571
27.755483275279115 37.5235
27.778417406196485 37.6108
27.801531858397514 37.4944
27.824468269376716 37.4806
27.847405817586786 37.4828
27.870344504116094 37.66
27.893463551932008 37.7763
27.916404527281053 37.9327
27.93934664422563 38.0776
27.962289903855886 38.3156
27.98541356491974 38.5365
28.00835912214229 38.6171
28.03130582533231 38.9336
28.054253675581805 39.1262
28.077381967556104 39.1005
28.100332124185126 38.9191
28.123283431160893 38.7246
28.146235889577238 38.6442
28.169368830154156 38.5143
28.192323603752033 38.3237
28.215279532083304 38.1784
28.238415973016764 37.8377
28.261374223145094 37.7663
28.284333631303806 37.373000000000005
28.307294198589954 37.2614
28.330435319167677 36.821
28.353398217078915 36.5643
28.376362277420153 36.3863
28.39932750129032 36.2987
28.422473319286713 36.101
28.44544088262495 36.0229
28.468409612800283 35.8554
28.491379510913497 35.6265
28.51453004413313 35.666
28.53750229057244 35.5898
28.56047570826344 35.5412
28.583450298308804 35.6745
28.606605564586562 35.3866
28.629582511831156 35.4256
28.65256063474956 35.2731
28.675539934446338 35.3345
28.698699951647605 35.3591
28.72168161743193 35.1479
28.74466446331978 35.1663
28.767648490417624 35.0858
28.790813276438353 35.2152
28.813799678527303 35.1002
28.836787265157085 35.0468
28.859955641890075 35.1748
28.882945610203045 35.1106
28.905936766392035 34.9791
28.928929111566863 35.0383
28.952102288520145 34.9151
28.975097024308607 34.8653
28.998092952423807 34.6967
29.021090073977508 34.5581
29.04426806913204 34.5639
29.067267590245258 34.4708
29.090268308143695 34.2901
29.11327022394099 34.1457
29.13645305530891 34.0522
29.159457379627167 34.0693
29.18246290519685 34.0073
29.20546963313352 33.9122
29.22865731875826 33.9782
29.25166646419296 33.9526
29.27467681535305 33.7961
29.29768837335608 33.9213
29.320880931312562 33.8725
29.34389491580634 33.9295
29.366910110507334 33.8973
29.38992651653503 33.9891
29.41312396492981 33.9983
29.436142806456754 33.8212
29.45916286268059 33.759
29.48236399319994 33.624
29.50538649169417 33.48
29.528410208259935 33.361999999999995
29.55143514402014 33.1777
29.574641196749695 33.0177
29.597668583816574 32.9883
29.6206971934585 32.7436
29.64372702680042 32.8681
29.666938019934474 32.8261
29.689970313635285 32.6836
29.713003834422636 32.6625
29.73603858342347 32.6146
29.759254535188578 32.4854
29.78229175361658 32.4724
29.80533020365064 32.5479
29.82836988641968 32.4701
29.85159081507472 32.2574
29.874632976355343 32.2829
29.89767637376955 32.4037
29.920721008448314 32.299
29.9439469322847 32.3214
29.96699405457564 32.1651
29.9900424175358 32.3219
30.013092022298157 32.1944
30.03632295963995 32.1045
30.059375061131373 32.1757
30.08242840783577 32.1488
30.105483000888153 32.1827
30.128718970092244 32.1317
30.151776069006917 32.1377
30.17483441768648 32.1366
30.198074175317235 32.0069
30.221135036724256 32.0555
30.24419715131772 32.0114
30.267260520236203 31.9721
30.290505341942243 31.9761
30.313571232750228 32.0218
30.336638381310948 31.9839
30.35970678876503 31.9195
30.38295669299435 31.9167
30.40602763151657 31.9679
30.429099832366074 31.8632
30.452173296685572 31.8515
30.47542830191959 31.8004
30.498504306502497 31.7552
30.521581577995562 31.8509
30.544660117543582 31.82
30.56792024229725 31.9499
30.59100133132069 31.8111
30.614083691845494 31.8922
30.637167325018545 31.9233
30.660432587840603 32.031
30.683518779717886 31.9745
30.70660624769615 31.9726
30.729694992924372 32.0701
30.75296541239743 32.0057
30.77605672557558 31.9363
30.799149319462742 31.8807
30.8224236211637 31.838
30.845518789950724 31.7319
30.868615242910597 31.6178
30.891712981195973 31.4744
30.91499247215866 31.3349
30.938092794619365 31.2614
30.96119440587579 31.3075
30.984297307082752 31.101999999999997
31.00758200598383 31.0853
31.030687500658694 31.0056
31.053794288760695 30.9495
31.076902371446767 30.857
31.100192296997445 30.8989
31.12330298246119 30.8301
31.14641496599209 30.7325
31.169528248749216 30.6699
31.19282341969534 30.7032
31.215939314557186 30.6733
31.239056512134788 30.6569
31.262175013589378 30.7402
31.28547544871168 30.6669
31.30859657161541 30.5111
31.331719001892175 30.5043
31.35484274070538 30.7364
31.378148458819545 30.6747
31.401274828443725 30.6339
31.424402510106933 30.6601
31.447712205419993 30.7175
31.470842524931633 30.646
31.493974159989783 30.6342
31.51710711176168 30.5682
31.54042212308802 30.5781
31.563557722100917 30.5751
31.586694641341655 30.3317
31.609832881979628 30.3847
31.63315322823208 30.3501
31.656294125521327 30.2203
31.679436347728515 30.033
31.70257989602529 29.7986
31.725905596152327 29.8759
31.74905181052835 29.8377
31.772199354521323 30.0019
31.79534822930507 29.9098
31.818679302290967 29.82
31.84183085259981 29.8558
31.864983737233473 29.9207
31.88813795736804 29.9359
31.911474422233013 29.8111
31.934631327356435 29.9428
31.9577895715215 29.7937
31.980949155906522 29.8291
32.004291031706956 29.7748
32.027453310562606 29.665
32.05061693318573 29.69
32.07396288236386 29.6937
32.09712920658542 29.5194
32.12029687812702 29.2805
32.14346589817093 29.325
32.166817291729984 29.2944
32.18998902288583 29.228
32.21316210610336 29.2041
32.23633654256711 29.0266
32.259693399663725 29.0396
32.282870556771144 28.9216
32.30604907069099 29.0068
32.329228942610065 28.8616
32.35259128243769 28.6853
32.375773884550505 28.6194
32.398957848235646 28.7028
32.422143174682176 28.62
32.445511016471215 28.5235
32.468699082679954 28.4883
32.49188851523011 28.4966
32.51507931531304 28.3962
32.538452678331 28.4408
32.56164622776311 28.3128
32.58484114831493 28.3064
32.60803744118015 28.3128
32.631416344731896 28.2756
32.654615396551876 28.1695
32.67781582427913 28.1754
32.701198898634416 27.9915
32.72440209253756 27.9924
32.747606665947124 28.0133
32.77081262006088 27.8187
32.79420126883317 27.8499
32.81740999876112 27.9159
32.840620112999424 27.7831
32.86383161274818 27.8235
32.88722585534586 27.8501
32.91044014056596 27.8454
32.933655814909734 27.7787
32.95687287957963 27.7828
32.98027273544904 27.7506
33.00349259526636 27.6448
33.026713849030116 27.6968
33.04993649794511 27.6814
33.073341986570746 27.6244
33.09656744032826 27.586
33.11979429286444 27.5979
33.14302254538647 27.6429
33.166433686291185 27.5513
33.18966475336992 27.4622
33.212897224069096 27.3283
33.23613109959831 27.3579
33.259547912343415 27.368000000000002
33.2827846121627 27.3999
33.306022720453775 27.3556
33.32926223842861 27.1988
33.352684742614166 27.2217
33.37592709463173 27.2155
33.399170859982064 27.1087
33.422597648419426 26.9589
33.44584425514446 26.8194
33.46909227885668 26.8897
33.4923417207723 26.874000000000002
33.51577423505344 26.843000000000004
33.539026528130385 26.6762
33.56228024307245 26.6687
33.585535381098246 26.4934
33.60897364093058 26.5203
33.63223163992385 26.4566
33.6554910656699 26.4717
33.678751919389796 26.4137
33.702195944520106 26.2938
33.72545966903325 26.3691
33.74872482519663 26.3229
33.771991414233746 26.2414
33.79544122444841 26.2772
33.81871069412428 26.1867
33.84198160035767 26.1486
33.86525394437455 26.2712
33.88870955949969 26.1209
33.911984794020626 26.0429
33.93526147001624 26.0868
33.958539588715006 25.9875
33.98200102861669 25.8403
34.0052820477047 25.8821
34.02856451319451 25.8408
34.05203033759056 25.7643
34.07531571090147 25.7138
34.09860253431845 25.7658
34.121890809074316 25.5608
34.145362493118924 25.7015
34.16865368561615 25.6818
34.191946333164054 25.5297
34.21524043699793 25.4657
34.23871800066799 25.4504
34.26201503218366 25.3776
34.28531352370466 25.3831
34.30861347646881 25.3225
34.33209693978188 25.3181
34.3553998301885 25.2558
34.378704185565205 25.1234
34.402010007152356 25.1904
34.42549939016683 25.2292
34.44880815937748 25.1247
34.472118398533134 25.0769
34.49543010887669 24.9672
34.51892543169198 24.9267
34.54224009966052 24.9301
34.56555624255917 24.884
34.58887386163339 24.8064
34.61237514439016 24.750999999999998
34.6356957311114 24.7086
34.65901779775809 24.698
34.68252356662995 24.7015
34.705848608458616 24.7262
34.72917513396849 24.5667
34.75250314440949 24.5797
34.77601490857862 24.4777
34.799345904259795 24.4453
34.82267838863559 24.4674
34.846012362958525 24.4476
34.869530142679984 24.4636
34.89286711232212 24.3668
34.91620557568269 24.4072
34.93954553401677 24.3119
34.9630693495876 24.2504
34.986412313340814 24.2739
35.00975677584668 24.203000000000003
35.033102738362956 24.1997
35.05663261012228 24.0854
35.0799815881786 24.1229
35.10333207003229 24.045
35.12668405694369 23.9911
35.150220005273056 24.0625
35.17357501786656 24.0543
35.19693153931268 23.9582
35.220289570874385 23.9214
35.24383161619786 23.8687
35.267192683604904 23.9019
35.290555264930376 23.8348
35.314101899412165 23.8834
35.33746752422433 23.8214
35.36083466676374 23.854
35.38420332829803 23.7654
35.407756095629054 23.8087
35.43112781085063 23.8355
35.45450104888391 23.756
35.477875810999194 23.7428
35.50143473172161 23.6545
35.52481255774625 23.7471
35.54819191167777 23.7178
35.57157279478914 23.5549
35.595137889488406 23.611
35.61852184675279 23.5349
35.641907337029984 23.4133
35.665294361595684 23.3982
35.68886565090076 23.2948
35.7122557598848 23.2971
35.73564740699838 23.2981
35.759040593519934 23.2843
35.78261809810353 23.1972
35.80601437933051 23.1494
35.829412203814705 23.1422
35.85281157283719 23.0384
35.876395313415884 23.0836
35.8997977874528 23.0356
35.92320180988546 22.9878
35.946790244133936 22.9517
35.97019737933222 23.0441
35.993606066789866 22.8713
36.01701630779276 22.8642
36.04061101440684 22.8046
36.06402437852291 22.791999999999998
36.08743930005611 22.8059
36.1108557802951 22.6638
36.13445678011326 22.7049
36.15787639383515 22.6889
36.18129757014299 22.6922
36.20472031032821 22.6287
36.22832762423364 22.5496
36.25175350829375 22.5406
36.275180960119776 22.4411
36.298609981005924 22.498
36.32222362992669 22.414
36.34565580510207 22.4611
36.36908955323448 22.4411
36.39252487562093 22.2773
36.416144880530226 22.2534
36.43958336764275 22.2319
36.463023432914625 22.2015
36.486465077645676 22.1646
36.51009145956204 22.2629
36.53353627947859 22.2384
36.55698268276811 22.1333
36.58043067073321 22.104
36.60406345072071 21.9867
36.62751462435344 21.9919
36.65096738658405 21.9686
36.67460498210655 21.9032
36.69806093788647 21.8836
36.72151848619297 21.7425
36.744977628333636 21.8646
36.76862165890998 21.8304
36.79208400512205 21.7858
36.81554794910557 21.7488
36.83901349217101 21.6986
36.862663978991606 21.6187
36.88613273667352 21.5937
36.90960309738324 21.6181
36.933075062434064 21.5334
36.95673202673572 21.4981
36.98020721697122 21.5013
37.003684015502365 21.4317
37.027162423645365 21.3538
37.050825886711465 21.3945
37.07430753063053 21.2868
37.09779078812467 21.3558
37.121275660513014 21.3199
37.144945643673694 21.2398
37.16843376245278 21.1844
37.19192350009803 21.2047
37.215414857931435 21.0824
37.239091382563885 21.0638
37.262585997426164 21.0578
37.28608223645736 21.0715
37.309763684451696 21.0162
37.33326318851098 20.9533
37.356764320726555 20.9707
37.380267082425526 20.9303
37.40395510942588 20.9323
37.42746114683234 20.9078
37.45096881771841 20.8297
37.474478123414166 20.7937
37.49817275092816 20.7165
37.52168534303452 20.682
37.54519957395567 20.6322
37.568715445024665 20.689
37.592416694607714 20.5776
37.61593586281424 20.6208
37.63945667518264 20.5973
37.66297913304891 20.5521
37.68668702630454 20.5159
37.710212792059274 20.4401
37.733740207334854 20.4549
37.757269273470364 20.4014
37.780983832050374 20.3395
37.80451621684926 20.3738
37.82805025654007 20.2768
37.851585952464795 20.255
37.8753071980695 20.222
37.89884622345676 20.1915
37.92238690911902 20.1349
37.94611318753442 20.0748
37.969657210779765 20.0029
37.99320289834801 20.0244
38.016750251586465 20.0633
38.04048325513017 19.9918
38.06403395679343 19.9586
38.087586328183946 19.7986
38.11114037065203 19.8246
38.13488012115898 19.9221
38.1584375229181 19.8588
38.181996599821 19.7677
38.205557353221124 19.7768
38.229303872575656 19.739
38.2528679961576 19.7086
38.27643380031219 19.6806
38.30000128639589 19.6895
38.32375459653193 19.6531
38.34732546371299 19.6066
38.37089801690786 19.5353
38.39447225747609 19.5011
38.418232380377425 19.534000000000002
38.441810012983396 19.4759
38.46538933705673 19.419
38.488970353960084 19.3422
38.51273731166058 19.3214
38.536321731567014 19.3618
38.55990784840681 19.3012
38.58367995004091 19.2709
38.60726947812959 19.1958
38.63086070726198 19.2323
38.654453638806274 19.2281
38.678232613930824 19.206
38.70182896773327 19.1331
38.72542702806741 19.0769
38.7490267963045 19.07
38.77281266709232 19.0219
38.79641586862214 19.0131
38.8200207821842 18.9411
38.843627409152944 18.9695
38.86742019782782 18.9471
38.891030269149255 18.8601
38.914642058016156 18.8442
38.938255565806124 18.902
38.96205529464307 18.7844
38.98567225787121 18.8169
39.00929094417078 18.7454
39.03291135492255 18.6979
39.05671804624804 18.6575
39.080341923549106 18.6507
39.103967529460334 18.5981
39.127594865365744 18.5512
39.15140854155791 18.5319
39.17503935514948 18.5355
39.19867190290282 18.515
39.22249083587951 18.4561
39.24612686969409 18.4967
39.269764641845306 18.4113
39.293404153722804 18.3547
39.317230110864074 18.3166
39.34087311998506 18.293
39.36451787301696 18.2582
39.388164371352595 18.2392
39.41199737518003 18.2068
39.43564738196752 18.2685
39.45929913825317 18.1102
39.48295264543308 18.0683
39.506792718520884 18.0907
39.530449745387216 18.0643
39.55410852735203 18.0781
39.57776906581474 18.0513
39.60161623079 18.0186
39.625280300200025 18.0082
39.64894613032202 17.8996
39.67261372255866 17.9389
39.6964680021016 17.8897
39.72013913657293 17.8813
39.74381203738292 17.875
39.76748670593756 17.868
39.79134812278169 17.7801
39.81502634488497 17.754
39.83870633896685 17.7541
39.862388106436654 17.6792
39.88625668336918 17.7071
39.90994201572829 17.6678
39.933629125719285 17.6481
39.957503091207826 17.5007
39.9811937746168 17.5943
40.00488623990914 17.5013
40.02858048850006 17.4965
40.05246165409549 17.4755
40.076159487492085 17.4402
40.099859108448875 17.4225
40.123560518384345 17.3975
40.1474489070226 17.375
40.171153913178564 17.2812
40.194860712584955 17.2701
40.2185693066637 17.2768
40.242464941335314 17.2764
40.26617714307655 17.2367
40.289891143772046 17.1988
40.3136069448471 17.1855
40.33750984859743 17.1106
40.3612292688043 17.045
40.3849504936829 17.0243
40.40867352466194 17.0367
40.43258372059144 17.0343
40.45631038219906 17.0384
40.48003885420956 16.945999999999998
40.503769138055105 16.9387
40.52768664931955 16.9168
40.55142057531802 16.8834
40.57515631746428 16.8902
40.599079334038514 16.847
40.62281872700477 16.7834
40.64655994043941 16.7738
40.67030297578061 16.7143
40.69423334835778 16.724
40.71798004609188 16.7092
40.74172857006355 16.7069
40.76547892171441 16.6652
40.7894166736039 16.573
40.813170699248566 16.6152
40.83692655691388 16.601
40.86068424804498 16.5276
40.884629402612525 16.5261
40.908390779366385 16.5354
40.932153993938 16.4915
40.95591904777605 16.4449
40.979871628443995 16.4565
41.003640379561936 16.4334
41.02741097430883 16.3547
41.05118341413683 16.3118
41.075143444384416 16.2959
41.098919593177826 16.3095
41.1226975914255 16.2271
41.14647744058318 16.2833
41.170444943946755 16.2508
41.19422851378379 16.2318
41.218013938914645 16.2066
41.24198706625173 16.1586
41.26577622087193 16.1161
41.289567235177785 16.0799
41.31336011063129 15.985999999999999
41.337340752422875 15.9613
41.361137369129835 16.0138
41.38493585138705 16.0048
41.40873620066004 15.9019
41.43272438060107 15.9591
41.45652848292052 15.9063
41.48033445666918 15.798
41.50414230331616 15.808
41.528138045159764 15.7832
41.551949656675205 15.7566
41.575763145513235 15.7448
41.59957851314666 15.7235
41.62358184070442 15.6802
41.64740098505737 15.696
41.6712220126409 15.6857
41.69504492493139 15.5975
41.71905586207357 15.5605
41.74288256296395 15.5329
41.766711153007456 15.5259
41.79054163368412 15.5422
41.814560204340054 15.507
41.838394485526365 15.5286
41.86223066180303 15.4427
41.88625497706819 15.3631
41.910094962812 15.350999999999999
41.93393684811168 15.359000000000002
41.95778063445365 15.3307
41.981812625263366 15.2967
42.00566023303407 15.2941
42.029509746323676 15.2694
42.05336116662236 15.2102
42.077400857069705 15.2169
42.10125611078846 15.1906
42.12511327600405 15.1143
42.14897235421036 15.1321
42.173019768448455 15.0765
42.19688269209613 15.0989
42.22074753323349 15.0319
42.24461429335818 15.0129
42.268669455600495 14.9433
42.292540073217886 14.9565
42.31641261433284 14.9874
42.34028708044675 14.9283
42.36435001496739 14.8941
42.38822835065557 14.9563
42.41210861586426 14.8904
42.4359908120986 14.8125
42.46006154323262 14.7876
42.48394762115317 14.7449
42.507835634632315 14.8425
42.531912233047436 14.7593
42.55580413732265 14.6726
42.579697981698 14.6866
42.60359376768525 14.6616
42.62767820545945 14.6719
42.65157789440821 14.6351
42.67547952952185 14.6043
42.699383112316 14.5691
42.72347541395347 14.502
42.74738291190531 14.4649
42.771292362102166 14.5144
42.795203766063516 14.5129
42.819303956130405 14.4618
42.843219287476536 14.3753
42.86713657716324 14.3745
42.89105582671383 14.354000000000001
42.91516392983864 14.2837
42.939087119032166 14.2967
42.963012272677304 14.2724
42.98693939230129 14.2489
43.01105543317513 14.2181
43.034986504731386 14.1674
43.05891954686589 14.168
43.08285456110972 14.1964
43.10697856448665 14.1137
43.130917542983475 14.0769
43.15485849820081 14.0601
43.17880143167367 13.9967
43.20293342237094 14.0039
43.226880332449 13.9751
43.25082922540554 13.9668
43.27496722682525 13.9471
43.29892010567796 13.9641
43.32287497204102 13.9035
43.34683182745632 13.8495
43.370977859791836 13.8417
43.39493871351105 13.8153
43.41890156092628 13.8531
43.44286640358341 13.7955
43.46702049182749 13.7793
43.49098934522816 13.7102
43.51496019852649 13.7115
43.5389330532723 13.6684
43.56309522248204 13.6769
43.58707210044314 13.6885
43.61105098451946 13.6655
43.63503187626491 13.62
43.659202151562134 13.6158
43.68318707902681 13.5636
43.70717401884041 13.569
43.731162972560874 13.5346
43.75534137913236 13.504000000000001
43.779334381108384 13.4553
43.803329401683186 13.4274
43.82732644241872 13.4431
43.8515130055166 13.3943
43.87551410707659 13.3637
43.89951723350145 13.3868
43.923709934595614 13.3526
43.94771713129917 13.3182
43.97172635758096 13.2662
43.99573761501002 13.2564
44.0199385169922 13.2022
44.04395385732619 13.1812
44.067971233533086 13.1636
44.09199064718605 13.1435
44.11619977548961 13.136
44.14022328470671 13.0765
44.16424883610785 13.1157
44.18827643127035 13.0288
44.21249381139513 13.052
44.236525514814076 13.0113
44.26055926674478 13.0113
44.28459506876863 12.9879
44.3088207262813 12.9439
44.33286064928722 12.9288
44.35690262714919 12.9371
44.38094666145278 12.8901
44.4051806219871 12.8834
44.42922879003185 12.8889
44.45327901929361 12.8227
44.477331311362136 12.8193
44.501573600619416 12.7516
44.525630039221795 12.7308
44.54968854541895 12.7302
44.573937102200176 12.7252
44.5979997645541 12.7033
44.622064499300315 12.6491
44.64613130803592 12.6441
44.67038823869318 12.624
44.69445921643748 12.6082
44.718532272981385 12.5738
44.742607409926194 12.5357
44.76687274034801 12.540999999999999
44.79095205918753 12.4908
44.81503346325094 12.4907
44.839116954143876 12.4668
44.86339071028742 12.4355
44.88747839599524 12.4087
44.91156817336837 12.3594
44.93566004401666 12.4169
44.959942251908146 12.3984
44.984038330325966 12.3661
45.00813650686762 12.3242
45.03223678314731 12.2599
45.05652746888232 12.2688
45.08063196592069 12.2658
45.104738567558705 12.2157
45.128847275414856 12.1643
45.15314646515866 12.1831
45.17725940679741 12.2018
45.20137445952892 12.1438
45.22568004865265 12.1145
45.24979934496396 12.1006
45.27392075725247 12.0928
45.29804428714431 12.0524
45.322358426247604 12.047
45.346486212804315 12.002
45.370616121861914 11.9852
45.39474815505086 11.9892
45.41907087049246 11.9332
45.4432071734666 11.9098
45.46734560548283 11.9358
45.49148616817604 11.9334
45.51581748638564 11.8696
45.5399623320197 11.8459
45.56410931325473 11.8046
45.58825843173002 11.8301
45.61259837920865 11.7919
45.636751793816 11.7934
45.66090735060093 11.7234
45.68506505120716 11.6741
45.7094136545275 11.7099
45.73357566449271 11.6438
45.75773982322992 11.6056
45.78190613238733 11.6389
45.806263418194064 11.5755
45.83043404997326 11.619000000000002
45.85460683713677 11.5879
45.87897065658495 11.5622
45.90314777634752 11.5356
45.92732705646868 11.5524
45.9515084986045 11.5107
45.97588104735473 11.4927
46.00006683541565 11.4786
46.02425479047904 11.4778
46.04844491420549 11.4167
46.0728262191024 11.3823
46.09702070211635 11.3672
46.12121735879483 11.4054
46.14541619080294 11.3863
46.169806278764455 11.3657
46.194009483459034 11.2789
46.21821486849841 11.2449
46.24242243555223 11.2836
46.266821333570014 11.2203
46.29103328674601 11.2089
46.31524742696538 11.2184
46.33946375590237 11.187999999999999
46.36387149104216 11.1953
46.38809221957392 11.0987
46.41231514186606 11.130999999999998
46.436540259597464 11.1487
46.460956858999374 11.0732
46.48518638983522 11.0383
46.509418121166966 11.0213
46.533652054678114 11.0148
46.55807754555709 10.9954
46.58231590571962 10.9732
46.60655647313217 10.964
46.630988654873654 10.9119
46.655233659129024 10.9082
46.67948087571551 10.8729
46.70373030632484 10.8284
46.72817142736393 10.8476
46.752425308428684 10.8092
46.77668140861147 10.8111
46.80093972960865 10.7798
46.82538981736788 10.7782
46.849652602470904 10.7081
46.87391761349769 10.7217
46.8981848521493 10.7147
46.9226439341274 10.6828
46.946915650573224 10.6322
46.97118959976749 10.6704
46.99546578341598 10.6383
47.019933887188216 10.5826
47.04421456235744 10.5563
47.06849747711879 10.5678
47.09278263318286 10.5294
47.11725978640143 10.5066
47.14154944775105 10.4709
47.165841355555656 10.4395
47.1901355115306 10.4648
47.214621741924994 10.4502
47.23892041698887 10.4362
47.26322134538975 10.4004
47.28771440635075 10.356
47.31201986422527 10.3847
47.33632758061436 10.3606
47.360637557241866 10.347999999999999
47.38513974410611 10.3414
47.40945426407847 10.2923
47.43377104948137 10.3071
47.45809010204344 10.2488
47.48260144275502 10.2122
47.506925052572285 10.2304
47.53125093475548 10.1472
47.55557909103813 10.1727
47.58009961361992 10.1707
47.60443234110732 10.1471
47.62876734791564 10.1463
47.65310463578333 10.0996
47.6776343683373 10.0576
47.7019762413987 10.047
47.72632040075572 9.99267
47.75066684815169 10.0636
47.77520581885936 10.0303
47.799556865477655 9.989130000000001
47.823910205386 9.96903
47.84826584033272 9.951989999999999
47.87281407745551 9.9197
47.89717432569297 9.92532
47.92153687423484 9.90483
47.94609208429692 9.906889999999999
47.97045925671401 9.90381
47.99482873471275 9.83148
48.01920052005013 9.852160000000001
48.04376504619224 9.82425
48.068141469543484 9.81683
48.09252020552573 9.83574
48.11690125590099 9.77533
48.1414751266064 9.7477
48.16586082917454 9.73783
48.19024885144316 9.684610000000001
48.2146391951793 9.70805
48.239222439012764 9.69048
48.26361744916137 9.65033
48.28801478610016 9.650830000000001
48.31241445160131 9.63081
48.337007097209366 9.62157
48.36141144338331 9.577630000000001
48.38581812345755 9.55927
48.41022713920929 9.56153
48.434829215320704 9.554730000000001
48.45924292604658 9.51494
48.48365897780325 9.511519999999999
48.50807737237308 9.48478
48.532688907799276 9.463189999999999
48.55711201168574 9.45652
48.581537463754074 9.45749
48.60615611725119 9.45549
48.63058628942721 9.395489999999999
48.65501881516546 9.366769999999999
48.6794536962573 9.35379
48.70408185970339 9.310960000000001
48.72852147531801 9.30222
48.75296345168211 9.27827
48.77740779059232 9.33981
48.80204549302823 9.30477
48.82649458091802 9.268839999999999
48.85094603676547 9.2698
48.87539986237231 9.195889999999999
48.90004713292306 9.184330000000001
48.92450572200832 9.154160000000001
48.94896668628025 9.18397
48.97343002754588 9.17328
48.99808689542115 9.16048
49.02255501470614 9.1367
49.04702551642794 9.122010000000001
49.0714984023988 9.099910000000001
49.096164896893235 9.09171
49.120642575466796 9.05307
49.145122643748394 9.067860000000001
49.16960510355558 9.016739999999999
49.19428125404938 8.99479
49.2187685210852 8.98733
49.243258185121555 8.97215
49.26794160167084 8.966280000000001
49.2924360839405 8.94753
49.31693296869764 8.92106
49.34143225776915 8.89937
49.36612538195438 8.84246
49.39062950396021 8.88697
49.41513603578346 8.86316
49.4396449792564 8.82741
49.46434784069503 8.83729
49.488861631846454 8.76147
49.513377840166804 8.76501
49.537896467493745 8.7312
49.56260909589029 8.724210000000001
49.587132585683285 8.745410000000001
49.611658500018365 8.720260000000001
49.636186840738596 8.67103
49.66090926588511 8.68222
49.685442483902584 8.69387
49.70997813385706 8.642719999999999
49.734516217597076 8.63935
49.75924846937352 8.615739999999999
49.7837914452858 8.586319999999999
49.80833686055187 8.5531
49.83288471702571 8.54347
49.85762682540054 8.56367
49.882179588965734 8.5258
49.9067347993235 8.49225
49.93129245833333 8.50061
49.95604445336378 8.50881
49.98060703442832 8.46262
50.005172069746266 8.43592
50.02993150438364 8.43096
50.05450147301533 8.43452
50.07907390151433 8.39949
50.10364879174981 8.38545
50.12841816587289 8.37986
50.1529980044635 8.3774
50.17758031042124 8.32535
50.20216508562089 8.3437
50.22694442953363 8.31891
50.25153416817468 8.26877
50.27612638170508 8.28227
50.300721072005196 8.22049
50.325510416102105 8.2195
50.350110084975064 8.22775
50.37471223628208 8.223289999999999
50.39931687190919 8.20464
50.424116246675766 8.21856
50.44872587605249 8.17065
50.47333799543065 8.12934
50.49795260670191 8.10265
50.52276204271512 8.096639999999999
50.54738166295838 8.08713
50.57200378079314 8.064860000000001
50.596628398116835 8.04068
50.62144792604559 8.045
50.646077567609396 8.03508
50.670709714377715 8.03631
50.69553683636198 7.989089999999999
50.72017401885922 7.98623
50.7448137122895 7.99855
50.76945591856022 7.961860000000001
50.79429318636823 7.9325
50.818940443716784 7.959280000000001
50.84359021965163 7.91345
50.868242516085964 7.87707
50.893089960641895 7.87155
50.917747323549435 7.86977
50.94240721271973 7.835210000000001
50.96706963007175 7.808210000000001
50.99192728239342 7.7964899999999995
51.01659478166073 7.78757
51.04126481489051 7.80531
51.06593738400761 7.77026
51.090805275207074 7.763310000000001
51.11548294172845 7.79275
51.14016314993547 7.721
51.164845901758845 7.69097
51.18972406304274 7.6974100000000005
51.21441192780656 7.685860000000001
51.23910234200271 7.66215
51.2637953075678 7.6367899999999995
51.288683770237945 7.618189999999999
51.31338186432707 7.59583
51.33808251561888 7.5923
51.362978729967345 7.55742
51.387684521509755 7.55625
51.41239287610203 7.5507800000000005
51.437103795691165 7.56323
51.46201036644977 7.516430000000001
51.486726441956634 7.49826
51.51144508832545 7.51663
51.536166307509156 7.4931
51.56108326624387 7.4387300000000005
51.58580965706056 7.44825
51.61053862657523 7.428939999999999
51.635270176746864 7.403169999999999
51.66019755512065 7.41515
51.68493429268881 7.381660000000001
51.70967361681515 7.383260000000001
51.73441552946465 7.4014
51.759353359237934 7.35135
51.7841004750961 7.3578
51.80885018539685 7.31712
51.833602492111254 7.2961800000000006
51.8585508051424 7.241389999999999
51.883308330926425 7.239439999999999
51.90806845906181 7.25772
51.932831191525715 7.21892
51.95779001977161 7.218089999999999
51.98255798721516 7.211989999999999
52.00732856494335 7.154610000000001
52.03229530577543 7.16415
52.057071130455945 7.14659
52.081849571391054 7.11503
52.106630630568695 7.12815
52.13160794279417 7.083239999999999
52.15639426492067 7.10878
52.18118321127822 7.08763
52.205974783860896 7.05929
52.23096269971011 7.044
52.255759551287994 7.01538
52.280559035098186 6.99056
52.30536115314103 6.9962100000000005
52.33035970494467 7.0069300000000005
52.35516711807904 6.987139999999999
52.37997717147198 6.96524
52.40478986713005 6.913239999999999
52.42979908731974 6.91564
52.454617094216 6.922630000000001
52.47943774942214 6.921889999999999
52.50426105495102 6.90917
52.529280976059844 6.861260000000001
52.554109609024096 6.8505199999999995
52.57894089837482 6.8660000000000005
52.60377484613117 6.851380000000001
52.62880550079408 6.842160000000001
52.65364479223379 6.79225
52.67848674816189 6.776680000000001
52.70352547971946 6.80772
52.72837279155837 6.790489999999999
52.753222773982785 6.77342
52.778075429022984 6.763089999999999
52.80312495150885 6.743180000000001
52.827982978797436 6.722510000000001
52.85284368481815 6.69441
52.87770707160767 6.667389999999999
52.90276741793998 6.691739999999999
52.92763619336701 6.6513800000000005
52.952507655698504 6.629919999999999
52.977381806977576 6.61115
53.00245301017842 6.62338
53.02733256653592 6.61065
53.052214817996074 6.58447
53.077099766608484 6.5914
53.102181859804446 6.57137
53.127072229988265 6.5377
53.15196530349892 6.5237300000000005
53.17686108239249 6.479
53.20195409881522 6.50842
53.22685531582556 6.4977
53.25175924441303 6.43348
53.27666588664027 6.42287
53.30176985962693 6.468780000000001
53.3266819565689 6.4092199999999995
53.35159677336455 6.38114
53.376514312083096 6.42389
53.40162927507703 6.42749
53.42655228516116 6.35883
53.45147802340193 6.3414
53.47660125628886 6.36445
53.50153247842639 6.33902
53.52646643496923 6.29863
53.55140312799818 6.32332
53.576537409691696 6.30426
53.60147960336152 6.27648
53.626424539786164 6.2855
53.65137222105307 6.28754
53.67651758529126 6.25229
53.70147078399681 6.23566
53.72642673383343 6.243580000000001
53.75138543689533 6.19762
53.776541917524526 6.18117
53.801506154876755 6.1649199999999995
53.826473151763246 6.152909999999999
53.851442910284916 6.13511
53.87661054126026 6.13788
53.9015858509782 6.12087
53.92656392866066 6.10107
53.95154477641532 6.07872
53.976723591801296 6.0702
54.00171000771266 6.07876
54.02669920004598 6.0380199999999995
54.051691170915745 6.01656
54.076881204886796 6.013669999999999
54.101878760928514 6.01124
54.12687910187696 5.9751
54.152077577768296 6.00665
54.1770835166946 5.9701900000000006
54.20209224691339 5.978619999999999
54.22710377055121 5.93424
54.25231352511594 5.9261
54.27733066384342 5.89807
54.30235060239643 5.90522
54.32737334290836 5.86648
54.35259441062629 5.85807
54.377622783395324 5.8787400000000005
54.40265396455061 5.837000000000001
54.42768795623251 5.79064
54.45292037169559 5.77022
54.477960012857906 5.780480000000001
54.50300247099511 5.7973300000000005
54.52804774825457 5.80149
54.55329154616743 5.73612
54.57834249018678 5.66785
54.6033962597977 5.63402
54.6284528571545 5.6730599999999995
54.653708072335164 5.6426
54.67877035378786 5.63617
54.70383546947698 5.63606
54.72890342156389 5.55812
54.7541700889442 5.53749
54.77924374251975 5.53043
54.8043202390049 5.49728
54.82959552413022 5.46908
54.8546777351945 5.50001
54.87976279569621 5.4663699999999995
54.90485070780914 5.52276
54.930137506558005 5.46191
54.95523115074295 5.41973
54.98032765308844 5.43281
55.005427015775496 5.42455
55.03072536339621 5.41156
55.05583047570572 5.34415
55.080938454927676 5.3421400000000006
55.10604930325027 5.2881
55.131359235107396 5.28348
55.15647585066083 5.27792
55.181595341907496 5.21606
55.20671771104285 5.18792
55.232039262617704 5.21711
55.25716741665048 5.13929
55.28229845518636 5.1551599999999995
55.30743238042802 5.12901
55.33276558731939 5.091130000000001
55.357905315183636 5.1286
55.383047936390035 5.06077
55.40819345314859 5.031569999999999
55.433538351073295 4.98965
55.458689688238415 4.9886099999999995
55.483843927614096 4.95169
55.509197623043605 4.96068
55.53435769621134 4.88052
55.55952067826466 4.8707400000000005
55.5846865714265 4.88625
55.61005202069737 4.87541
55.63522376553902 4.87094
55.66039842818645 4.82165
55.68557601087004 4.828930000000001
55.7109532500271 4.75858
55.73613670233794 4.78934
