TT I
1.2716486653135266 7.027139999999999
1.2939594142134223 7.08605
1.3162702121660406 6.6199699999999995
1.3385810600174564 6.26505
1.3608919586137629 6.9273
1.383202908801069 6.80797
1.405513911425503 6.61572
1.4278249673332093 5.94721
1.4501343378461518 5.52939
1.4724455028545926 5.87595
1.4947567236847858 5.73464
1.517068001182951 5.88968
1.5393793361953272 5.65017
1.5616907295681737 5.94475
1.5840021821477681 5.20826
1.60631369478041 5.48815
1.6286252683124185 5.56015
1.6509369035901333 5.57765
1.6732468618895553 4.88525
1.695558623192809 5.07845
1.7178704487808514 5.38028
1.7401823395001077 4.9604800000000004
1.7625012545597203 5.0938300000000005
1.7848028405262486 5.54753
1.8071218901122095 5.068890000000001
1.8294236121921872 4.506469999999999
1.8517427996910911 4.94065
1.8740620574440425 4.51585
1.8963639900671978 4.62685
1.9186833908139995 4.6977400000000005
1.9409854680117449 4.90334
1.9633050151394713 5.17249
1.9856246367570705 4.3527
2.0079269371922672 4.78629
2.03024671027244 5.0261
2.0525491637446027 4.95708
2.074869091674931 4.68273
2.097171701569106 4.94204
2.1194917877373847 5.12226
2.141811954326636 5.63046
2.164114805233074 5.30771
2.186435135143035 6.603860000000001
2.208738150935709 14.0938
2.231058647554722 29.2165
2.2533792288321184 22.5093
2.275682498336085 10.2237
2.298003251406138 5.72044
2.3203066942619714 5.86664
2.3426276225136022 5.84628
2.3649486396617507 6.4311300000000005
2.387252348930071 6.3734
2.4095735463442893 5.68927
2.4318774374315884 6.35785
2.4541988185014043 6.4404699999999995
2.476502894794693 7.81902
2.498824462909887 8.1826
2.521146125856138 7.62258
2.5434504863470337 7.288530000000001
2.5657723414244717 8.07516
2.588076895590662 8.1828
2.610398946189713 8.0954
2.6327210958598384 8.1314
2.6550259469304716 8.04698
2.6773482972090137 8.95316
2.6996533504259 8.822330000000001
2.7219759047039602 8.16412
2.744298562293959 8.09489
2.7666039251246595 8.5177
2.7889267918020164 8.24195
2.8112323652516555 8.48899
2.833555444408179 9.512089999999999
2.8558786311183852 8.80822
2.8781845268938557 9.45958
2.9005079311721484 9.105260000000001
2.9228140460410397 9.05674
2.9451376712799635 9.339939999999999
2.967444008632326 9.34676
2.9897678582247247 9.89749
3.0120918213106695 10.2402
3.0343984987899373 10.5055
3.0567226913198637 11.6962
3.079029599759726 11.4958
3.101354025127254 11.7662
3.123678568232338 12.6574
3.145985829517914 13.3089
3.16831061055229 13.9399
3.1906181112775593 14.2288
3.212943133635653 14.7952
3.2352682779763207 15.377
3.2575761442691227 15.3381
3.2799015350264273 15.9737
3.302209649240067 16.2397
3.3245352898092655 16.8639
3.3468436553365257 17.453
3.369169549113219 17.6382
3.3914955708171384 18.8687
3.413804319727358 18.85
3.4361305997334863 18.9605
3.4584396084414553 19.682000000000002
3.4807661501462652 20.506
3.503092824025881 21.2123
3.5254022288463154 21.243000000000002
3.5477291695206588 21.7501
3.5700388426251948 22.4369
3.5923660534916446 23.7836
3.6146934007816114 38.9909
3.637003482731501 90.6907
3.6593311053109985 101.516
3.681641464033634 58.0828
3.7039693653009733 31.1477
3.726297407241705 25.9187
3.7486081875460804 25.2059
3.7709365132734978 25.9245
3.793247578841633 26.183000000000003
3.8155761917550093 26.5597
3.8378875459837216 26.8706
3.8602164494827234 27.5918
3.882545499606844 28.526999999999997
3.9048572932539183 28.7601
3.9271866390645718 29.125
3.9494987298666713 29.6887
3.971828374764527 30.1653
3.9941581705403255 30.5846
4.016470713506008 31.0373
4.038800813471445 31.8323
4.061113662089144 32.6012
4.0834440696459176 32.8163
4.105774632334751 33.9168
4.128087945865126 34.7728
4.150418821249301 35.2626
4.172732448931298 36.4256
4.195063640413578 38.4412
4.2173775856475215 42.6788
4.239709096631102 75.2289
4.262040768704612 244.465
4.284355196706267 332.533
4.306687193387355 215.933
4.329001947444346 83.3161
4.35133427213731 48.3778
4.373666762177566 44.1665
4.395982011761091 43.9268
4.418314834921175 45.443000000000005
4.44063041906622 53.6507
4.4629635787515625 65.0954
4.4852969080429785 64.8219
4.5076130004776225 54.3355
4.529946671403969 49.5134
4.552263106909177 49.4005
4.574597122877047 50.8766
4.596931312711224 51.7706
4.619248269273446 52.468
4.6415828092605835 53.7351
4.663900117405352 54.8176
4.686235010953232 56.2587
4.708552674085913 57.3788
4.730887924602802 58.776
4.753223354952695 60.3309
4.775541557023902 61.9187
4.797877349456786 63.0504
4.820195915032126 64.9182
4.842532072957498 66.1244
4.864868414979744 68.1575
4.88718753227192 70.268
4.909524244902505 71.9391
4.931843734218147 73.78699999999999
4.954180820867835 75.80199999999999
4.976518095879839 78.6487
4.998838149695359 81.2522
5.021175803844231 85.2078
5.043496238205739 87.9339
5.065834274903528 92.1036
5.088172504230693 96.8166
5.1104935158799565 102.148
5.132832132875765 122.961
5.155153533596801 164.385
5.1774925416746225 196.37900000000002
5.199814334878411 295.796
5.2221537374521505 790.929
5.244493338631803 2484.64
5.266815727034316 7479.0
5.289155727832427 12489.2
5.311478517248165 8976.29
5.333818921080011 2733.76
5.356159527788849 505.158
5.3784829252032536 176.512
5.400823940070432 139.52200000000002
5.423147747031976 125.25200000000001
5.445489173474152 116.318
5.467830807066149 111.13799999999999
5.490155234831516 107.23200000000001
5.512497285125229 103.992
5.534822130975162 102.48700000000001
5.557164601388673 100.251
5.579489868738879 97.4051
5.601832762690846 97.0703
5.6241758697774475 96.3237
5.646501775867269 94.9253
5.668845311622074 94.0285
5.691171647754637 92.7107
5.713515615597765 91.4305
5.735859800852677 90.3541
5.758186788542988 90.1864
5.780531411018185 90.5526
5.802858837297399 89.3212
5.825203900414495 89.2259
5.8475491852224 89.509
5.869877275883075 89.8471
5.892223006467101 90.6558
5.914551544266608 91.3927
5.936897724049891 93.286
5.959244129804903 97.7357
5.981573344815301 110.33200000000001
6.0039202049061 176.062
6.026249875609095 384.26800000000003
6.04859719346037 835.173
6.070927323278297 2118.25
6.093275102315365 4368.08
6.115623113320588 5269.41
6.137953938319995 3233.07
6.160302415650845 943.373
6.182633708324452 223.356
6.2049826554078376 110.306
6.227331838745022 90.3989
6.249663839443684 83.3226
6.27201349767565 81.369
6.294345974611799 88.3531
6.316696111167083 100.62799999999999
6.339046488263839 95.0936
6.361379686074702 79.2792
6.383730546639482 71.3227
6.406064229255215 68.6508
6.428415576718203 67.7183
6.450749747566656 66.3057
6.47310158535871 65.0035
6.495453669698332 65.083
6.517788579421056 63.9599
6.540141159237969 62.93899999999999
6.562476565766648 62.4395
6.5848296444934045 62.0348
6.607182974060425 61.7529
6.6295191323281015 61.9032
6.651872965955752 65.9596
6.6742096296068985 92.64299999999999
6.6965639707294615 139.985
6.71891856698715 140.197
6.741255995248479 95.6254
6.763611104154477 68.181
6.785949046381137 60.1451
6.808304671371482 57.8956
6.8306605557940046 57.5128
6.852999275508618 56.5276
6.875355681171544 56.2766
6.897694923437771 56.2981
6.92005185377892 55.8392
6.9423916220322655 55.9961
6.964749080490181 55.2751
6.987106804399774 55.5314
7.009447368180821 55.2425
7.031805625367033 54.7989
7.054146723727803 54.6927
7.076505517631004 54.6402
7.098864581288365 55.0193
7.121206488070854 54.8033
7.143566093607822 54.5219
7.165908543567245 54.7843
7.188268694426048 55.0316
7.2106291193438095 54.8922
7.232972390625943 56.6723
7.255333366030969 70.1284
7.277677189091925 125.12899999999999
7.300038718428332 173.65099999999998
7.322400526130865 147.22
7.344745183422596 89.8678
7.367107550224791 61.6943
7.389452767901992 56.3105
7.411815697249891 55.1587
7.434161478756298 54.1315
7.456524974096713 53.8579
7.478888753837185 54.0123
7.501235387657368 54.1494
7.523599738562711 54.2433
7.545946944825532 54.5924
7.568311870344528 54.7297
7.5906770845765665 55.0941
7.613025156078678 56.3371
7.635390950099687 57.6691
7.657739602662809 56.6739
7.680105979923558 55.4778
7.702472650212829 55.6303
7.724822180948224 55.1635
7.747189439655568 55.6082
7.769539560075357 55.8509
7.791907410653562 56.2296
7.81425812420825 56.0362
7.836626570110925 56.3905
7.858995315087906 57.0345
7.881346924933401 57.2115
7.903716270417482 57.7225
7.926068482028405 57.9955
7.948438431475253 58.4225
7.9708086843180235 59.0941
7.993161805171116 59.799
8.015532667162402 60.5104
8.037886398416653 61.3168
8.060257873014221 61.3919
8.082629655331942 62.2581
8.104984308787587 63.1292
8.127356708900503 66.2669
8.149711981398308 71.9472
8.172085002766314 74.5317
8.194458336181368 71.5417
8.216814543847752 68.8016
8.23918850371002 68.3046
8.26154533906492 69.3309
8.283919928836452 70.9712
8.306277395339652 71.7762
8.328652618483376 72.8749
8.351028159736202 74.9728
8.373386579575245 76.6678
8.395762759396959 78.7787
8.418121819038275 83.485
8.440498640894003 97.2467
8.462875785192262 110.76700000000001
8.485235811156207 118.845
8.507613602688501 146.942
8.529974277114228 220.75400000000002
8.552352719347912 342.439
8.574731488360351 606.071
8.59709314210385 1133.29
8.619472567021075 1860.96
8.64183487789147 2220.65
8.664214962183097 1812.71
8.686577933647762 930.63
8.708958680784317 360.925
8.731339760774953 169.25
8.753703729764451 110.792
8.77608547780821 97.5227
8.798450116065078 93.9529
8.820832535634787 90.9315
8.843215292401656 89.4469
8.865580941199045 88.3074
8.887964374703538 87.2205
8.910330701447199 88.505
8.932714815164482 90.5664
8.955099270424924 90.4633
8.977466620733543 87.3748
8.999851761421976 84.3029
9.022219798361645 82.5616
9.04460562795561 82.6169
9.066991803441677 81.9539
9.089360876979615 81.4227
9.111747746589993 81.32600000000001
9.13411751544971 80.9164
9.156505082664324 80.5988
9.178875550323522 80.9368
9.20126381862328 81.2881
9.223652438908596 81.5908
9.246023961427412 81.2568
9.26841328802173 80.6808
9.290785518039224 80.9372
9.313175554425882 81.4091
9.335565947154315 81.1909
9.357939245086508 81.697
9.380330352834827 81.545
9.40270436697103 81.8933
9.425096193225055 81.5934
9.447488380180165 82.60799999999999
9.469863475295412 82.8065
9.492256385987508 83.3333
9.514632206018318 84.0018
9.537025843935714 84.446
9.559402392368193 84.9183
9.581796761000229 86.2091
9.604191496441521 87.2413
9.626569144158516 90.5905
9.648964615551032 95.4079
9.671343000390081 96.9748
9.693739211225699 95.0304
9.716135793237463 92.1595
9.738515290448102 92.08
9.760912617143402 92.73
9.783292860202891 93.6627
9.805690935076182 95.105
9.828089385495742 95.6449
9.850470754023561 97.98
9.872869957865444 105.9
9.89525208097539 121.13
9.917652041736662 134.19799999999998
9.940052382417589 132.736
9.962435644102392 133.602
9.984836746950979 158.547
10.007220771957746 214.35
10.029622640473708 307.96299999999997
10.052007432299963 476.605
10.074410069984072 784.23
10.096813093716005 1266.64
10.119199042482517 1769.31
10.141602840636468 1972.38
10.163989564971628 1572.52
10.186394141051062 899.133
10.208799107559706 397.616
10.231187001965623 185.09099999999998
10.253592751657669 124.665
10.275981430388155 111.61
10.298387966769793 111.19200000000001
10.320794897965431 114.044
10.343184759907361 112.809
10.36559248305461 107.331
10.387983138083852 102.59700000000001
10.410391656691655 103.853
10.432800574501677 112.919
10.455192425893369 126.715
10.47760214443012 150.5
10.499994797678786 193.97799999999998
10.522405320453982 274.907
10.54479877906917 396.73900000000003
10.567210109595656 526.335
10.5896218454736 571.197
10.612016518879773 502.902
10.634429067781074 350.49800000000005
10.656824555333241 201.511
10.679237920773568 122.001
10.701651695961992 95.7449
10.724048411481384 88.3127
10.746463008485165 85.3618
10.768860546937125 83.9652
10.791275969274796 81.8407
10.81369180576079 80.9273
10.836090585366925 80.1166
10.858507252467449 78.7396
10.88090686379991 78.1164
10.903324365036394 77.3533
10.925724811614439 77.2214
10.948143150509463 78.6899
10.970561909719066 78.0947
10.992963615930844 76.006
11.015383218085756 73.8443
11.037785768347074 72.3905
11.06020621697282 72.0502
11.082627090322113 71.5055
11.105030913430326 71.2596
11.12745263854165 71.6152
11.149857314510728 75.2893
11.172279894912576 81.6324
11.194702904450653 82.2159
11.217108866490921 78.016
11.239532736615194 73.4287
11.26193956033512 71.3849
11.284364294577085 69.6199
11.306789462371718 67.2526
11.329197585398376 66.6612
11.351623622610898 66.2362
11.37403261614354 65.4747
11.396459526308487 65.4215
11.418869393879497 64.7712
11.441297180532617 64.5557
11.463725406927658 64.3462
11.486136592353875 64.1163
11.508565700543707 64.5046
11.530977768845315 66.435
11.553407762368774 67.3887
11.575838200059769 66.7326
11.598251599479612 64.7695
11.620682927815501 63.3945
11.64309721895548 63.0104
11.665529441478206 62.2656
11.687962112597958 61.8947
11.710377748130886 62.2479
11.732811318753434 62.0792
11.755227854859067 62.1075
11.777662328529495 61.9952
11.800079768750786 61.9214
11.822515149015453 61.5705
11.844950984084935 61.8746
11.867369787303163 61.6208
11.889806534289491 61.5178
11.912226250487029 61.906000000000006
11.934663912939751 61.9299
11.9571020346363 62.0579
11.979523127133968 62.0932
12.001962169624331 62.5161
12.024384183972964 63.2539
12.046824150809913 65.7593
12.069264581333726 70.067
12.091687985297767 75.7726
12.11412934550045 84.2071
12.136553680195208 99.1693
12.158995973632788 122.88600000000001
12.181438735204349 153.079
12.20386447284199 189.845
12.226308172985636 210.90099999999998
12.24873485024193 201.257
12.271179492516982 168.292
12.293607112949127 125.554
12.316052700916226 95.1548
12.338498763250042 77.8951
12.360927805303868 69.5513
12.383374818673879 65.6048
12.405804812803074 63.9264
12.428252780773262 63.3729
12.45070122756722 63.5223
12.473132656675375 63.2673
12.49558206341869 63.4464
12.518014453510101 63.5192
12.540464823770117 63.445
12.562915677315177 63.7836
12.58534951575545 64.7255
12.607801338171472 66.8677
12.630236146511358 72.3894
12.652688941369085 76.748
12.675124723177234 77.408
12.697578494048786 73.6086
12.720032754458185 68.7312
12.742470003354093 67.0478
12.764925245138771 66.8395
12.787363476431278 67.223
12.809819703166806 67.2222
12.83227642391173 68.0967
12.854716135692716 68.3053
12.877173846755147 69.4716
12.899614549869717 69.7451
12.9220732548287 70.5024
12.94453245827299 70.8683
12.966974655289818 72.3135
12.989434858002571 72.7917
13.011878055298721 73.2634
13.034339260862497 74.4197
13.056800969391883 75.7757
13.079245674017244 77.5073
13.101708390774869 79.2282
13.12415410463411 84.5717
13.146617833206086 94.4046
13.169064559883248 105.266
13.191529303857127 118.846
13.213994557076367 140.395
13.236442809902437 176.595
13.258909083908291 233.19099999999997
13.28135835851934 301.747
13.30382565690295 374.44
13.326293469022952 423.059
13.348744283242008 423.254
13.371213125129904 352.45300000000003
13.39366497011003 258.238
13.416134845360597 169.98
13.438605238843131 121.723
13.46105863690397 102.631
13.483530069144786 101.219
13.505984506951902 105.29299999999999
13.528456981549432 114.56700000000001
13.550929978879088 128.214
13.573385983253365 151.548
13.595860028340867 191.91
13.618317081455832 248.68599999999998
13.64079217790333 307.562
13.663250283359057 359.83099999999996
13.685726434770173 379.42199999999997
13.708203115221277 335.99800000000005
13.730662806148091 260.728
13.75314054697177 182.74
13.775601299246777 125.98
13.798080104050406 96.1145
13.820559442405358 84.1712
13.843021793671388 80.6628
13.865502201420897 78.6665
13.887965623051947 78.4462
13.910447103807167 77.2676
13.932929122629764 75.9528
13.955394156785959 75.5293
13.977877254034569 74.8403
14.000343367582113 73.7848
14.022827546871707 73.4611
14.045294743423524 72.6334
14.06778000837062 72.0226
14.090265817715476 71.8587
14.112734645763819 71.6186
14.13522154619454 71.3768
14.157691466286913 71.405
14.180179461423874 71.4165
14.202668005486178 70.5577
14.22513957064374 69.9465
14.247629214846473 69.4245
14.270101881097517 69.2077
14.29259262906496 69.5606
14.315083930490205 70.5162
14.337558255389705 70.7798
14.360050666019726 70.3827
14.382526101071944 69.3826
14.405019624534942 68.4889
14.427513705993134 67.9946
14.449990813291825 67.8643
14.47248601302899 67.5884
14.49496423954951 67.7185
14.517460561197822 67.9623
14.539939910570322 67.6747
14.562437357763558 68.1231
14.58493536931253 69.2705
14.607416409993311 70.1716
14.62991555254159 70.7663
14.652397725157423 70.4943
14.674898002342799 70.0085
14.697398848433282 69.3556
14.719882725991326 69.7222
14.74238471217934 70.2722
14.764869730765593 72.9308
14.787372860692983 75.8359
14.809876564079925 79.7514
14.83236330125751 85.096
14.854868153850365 93.1634
14.877356041159485 106.79700000000001
14.899862046604186 125.302
14.922351087688757 152.30700000000002
14.944858249632887 184.334
14.967365991421232 212.21400000000003
14.989856770231246 225.37099999999998
15.012365673994204 217.166
15.03485761569738 188.226
15.05736768508665 147.55200000000002
15.07987833888692 112.84299999999999
15.102372032001655 90.0212
15.124883856909658 76.3919
15.14737872204565 71.2596
15.169891721717274 69.6668
15.192405310371893 69.4047
15.214901940621196 69.8035
15.237416709527137 70.0038
15.259914520936249 70.3251
15.282430473753607 69.3946
15.304947020131227 68.3876
15.327446610371178 67.2282
15.349964346154254 66.0982
15.372465126703139 65.9525
15.394984055556009 65.718
15.417486030076159 65.4094
15.44000615566487 65.0307
15.462526881230803 64.9668
15.485030653812652 65.1089
15.507552581617434 65.2181
15.530057557334603 65.2656
15.55258069104857 65.1901
15.575104429329837 65.1815
15.597611216864632 64.6989
15.620136166564563 64.6774
15.6426441664095 65.2239
15.665170331202765 66.8484
15.687697105158826 69.7579
15.710206930593545 72.72800000000001
15.732734925158933 76.4184
15.755245972089478 82.4271
15.77777519094324 91.2554
15.800287463046663 104.359
15.822817909869592 124.663
15.84534897229804 147.639
15.867863089299354 171.196
15.890395385222186 191.305
15.912910736597423 194.269
15.935444269699861 182.49599999999998
15.957978423016485 154.16899999999998
15.980495633101265 121.00200000000001
16.003031029129367 93.3981
16.02554948280019 75.8095
16.048086125229432 66.9312
16.070623392487107 64.3618
16.09314371869582 63.6121
16.11568223789321 62.8415
16.13820381691126 61.8053
16.160743591742527 60.9553
16.183283996022084 59.848
16.205807461423195 58.722
16.228349126881973 58.2904
16.25087385432698 58.1846
16.27341678466365 57.5481
16.29594277784926 57.6449
16.31848697676433 57.9251
16.341031811604868 58.2332
16.36355971058487 58.6095
16.3861058195587 58.3008
16.40863499352978 57.0419
16.431182380342005 56.1614
16.453730407713202 55.3851
16.476261501364792 55.1129
16.498810812136167 54.7875
16.52134319004079 54.9717
16.54389378792203 54.7974
16.566445031001553 54.5577
16.588979342490088 54.5964
16.61153187824822 54.3653
16.634067483263312 54.0046
16.656621315414416 53.9906
16.679175797408888 53.6906
16.701713349928728 53.797
16.72426913389191 54.0571
16.74680798922351 54.2172
16.76936507887444 54.2678
16.791905240734874 54.5141
16.814463639794468 54.0744
16.837022695210294 54.0719
16.859564824093756 54.3556
16.882125194503903 55.2273
16.904668639217885 55.9389
16.927230328348003 56.0362
16.949792678493612 56.1557
16.972338104193863 55.7123
16.994901778652235 54.7348
17.017448529496576 54.6976
17.040013531998152 54.955
17.06257920018044 55.341
17.0851279459922 56.0195
17.107694947817667 56.7331
17.130245028099072 57.3658
17.15281336730298 58.9144
17.17536478578733 60.4443
17.19793446610687 62.7928
17.220504818648422 65.4827
17.243058251703697 69.296
17.265629950971032 73.819
17.288184731571736 79.2616
17.310757781306908 83.1596
17.33333150794385 83.3878
17.355888317140174 81.5017
17.37846339986244 76.0525
17.401021565958885 70.0466
17.42359800851343 64.4716
17.44617513265564 61.0268
17.468735341390783 59.1898
17.491261035594565 58.1086
17.51396340099364 57.8897
17.536490463869136 58.1054
17.559018209820174 58.2047
17.58154663977963 58.2664
17.604251766089718 58.4556
17.626781572227713 58.7145
17.64931206518155 58.9231
17.671843245885103 59.4846
17.69455114821572 59.8215
17.717083712612634 60.0704
17.739616967569667 60.1833
17.762150914021706 60.426
17.78486160749854 60.1668
17.807396945166804 60.9306
17.829932977143503 61.411
17.85246970436452 62.5624
17.875183204129467 64.171
17.897721330097664 66.1373
17.920260154126645 68.4369
17.942799677153296 71.3724
17.9655159983646 75.2461
17.988056927677544 80.2476
18.010598558807683 87.7857
18.033140892692916 98.2794
18.05586005052525 109.477
18.07840379824407 121.204
18.10094825154059 131.127
18.12366954819864 138.055
18.146215420998306 136.159
18.16876200220057 127.56
18.191309292745153 113.52600000000001
18.214033452627167 100.62100000000001
18.236582170236648 89.8284
18.259131600016456 84.5988
18.281681742907335 84.9109
18.304408781233683 89.9214
18.32696035875955 95.5724
18.349512652227624 100.654
18.372065662579683 104.436
18.394795594587553 104.665
18.41735004715306 100.904
18.43990521943684 93.7944
18.46246111238171 84.7208
18.485193953325208 76.2851
18.507751296070428 69.2833
18.530309362314178 65.029
18.552868153000343 62.6332
18.57560391815056 61.3354
18.59816416623245 60.8109
18.620725141597372 60.2557
18.643286845190268 60.0624
18.666025549835414 59.5339
18.688588718427933 58.7961
18.711152618092243 58.8292
18.73389353884365 58.6096
18.75645890921984 58.056999999999995
18.77902501351406 57.7749
18.801591852673102 57.783
18.824335739722738 57.3173
18.846904057212626 57.422
18.8694731124168 56.9191
18.89204290628315 56.9825
18.914789774966803 56.693000000000005
18.937361054791623 56.5103
18.959933076131318 56.2013
18.982505839934877 56.3647
19.00525570560582 56.2521
19.027829963004184 55.9643
19.05040496572238 56.0695
19.072980714710468 56.0688
19.095733592739563 56.0067
19.11831084296757 56.4147
19.140888842324735 56.7951
19.16346759176222 57.1309
19.18622349753803 57.4773
19.208803755869358 58.2851
19.231384767143577 59.4911
19.253966532312948 60.9221
19.276725481241822 63.0765
19.29930876296784 65.7125
19.3218928014549 68.8317
19.34465404436217 72.4463
19.36723960516257 75.0026
19.389825925592426 76.0742
19.412413006605938 74.7601
19.43517731967805 70.9329
19.457765930683355 66.414
19.48035530514408 62.196000000000005
19.50294544401556 58.7271
19.525712842708348 56.0522
19.54830451925909 54.4586
19.570896963095727 53.4123
19.593490175174704 53.2149
19.616260674962184 52.9955
19.638855432416964 52.7783
19.661450960992624 53.0127
19.68404726164677 52.8723
19.706820878021247 52.5647
19.729418731756834 52.8226
19.752017360452857 52.6957
19.77461676506804 52.8458
19.797393513540218 52.7812
19.819994478951667 52.8447
19.84259622316767 53.4833
19.8651987471481 53.9762
19.887978643247177 54.1752
19.91058273574792 54.4515
19.933187610901943 55.2872
19.955969879466828 56.2557
19.97857632894404 57.7653
20.00118356396599 59.3971
20.023791585494575 61.4863
20.046577028914875 64.4518
20.069186632506966 66.4023
20.091797025500632 68.3799
20.114408208858933 68.8717
20.137196842715273 68.5382
20.159809615886765 66.9704
20.18242318232135 64.2573
20.20503754298326 62.4986
20.227829382875154 61.4967
20.250445341109344 61.3708
20.27306209647285 62.3867
20.29567964993108 63.8837
20.31847471147704 64.9373
20.34109387027612 65.1553
20.363713830075454 64.7261
20.386334591841646 62.9341
20.409132890679302 60.3722
20.431755265564437 57.4981
20.454378445325528 54.7074
20.477002430930366 53.0018
20.499803982716553 51.7912
20.522429589228004 50.998000000000005
20.54505600449589 50.5776
20.567683229489194 50.2948
20.590488049900088 49.7852
20.61311690359731 49.5103
20.63574656993626 49.3357
20.658553853717297 48.9888
20.681185154618298 49.0159
20.703817271080066 48.9945
20.72645020407368 48.4748
20.749260783967177 48.4293
20.771895359337133 48.5273
20.794530754161617 48.3641
20.817166969412938 48.1634
20.83998086114876 48.0353
20.86261872660049 48.0055
20.885257415405402 48.0932
20.90789692853701 48.0353
20.930714147864748 47.8682
20.953355319030678 47.9085
20.97599731745334 48.0879
20.99864014410749 47.9474
21.021460706796564 47.8855
21.044105199328826 48.202
21.06675052302631 48.4205
21.089396678865015 48.5634
21.112220600704806 48.9042
21.134868430275347 49.2304
21.15751709492456 49.5643
21.180166595629693 49.9468
21.202993892429635 50.4669
21.22564507473034 50.8774
21.24829709602816 50.7737
21.27112693608965 50.8846
21.293780644891275 50.8727
21.316435195634053 50.0036
21.339090589297417 49.4166
21.361923832041875 48.9641
21.384580921090404 48.2862
21.407238856007325 47.8843
21.429897637773326 47.7744
21.45273429906592 47.648
21.475394784108598 47.757
21.498056118951983 47.6621
21.520718304578022 47.7399
21.543558400304388 47.886
21.566222297108816 48.0665
21.58888704765135 48.0431
21.61155265291521 48.3383
21.63439619898156 48.8993
21.657063523335786 49.074
21.67973170537063 49.49
21.7024007460706 49.8742
21.72524775840385 50.574
21.747918526116475 51.7186
21.770590155457388 52.9539
21.79326264741238 54.4259
21.816113141960237 56.3067
21.838787368860547 58.2724
21.861462461341976 60.3146
21.884315579735777 62.288999999999994
21.90699241312273 63.4225
21.92967011506078 63.6132
21.95234868653799 63.3315
21.9752053151131 62.038999999999994
21.997885635446785 60.1932
22.020566828293532 58.6556
22.04324889464272 57.2246
22.066109049404666 56.0839
22.088792872571794 55.5574
22.111477572219204 55.5952
22.1341631493376 55.4402
22.157026846313123 55.2824
22.179714188221507 54.3502
22.202402410582668 53.3163
22.22509151438863 52.1168
22.24795876962584 50.7795
22.270649646204486 50.0341
22.293341407213727 49.0213
22.316034053646906 48.6275
22.338904883215342 48.2818
22.36159931041458 48.5281
22.38429462602756 48.4294
22.40699083104897 48.1696
22.429865251039757 48.3377
22.452563244831367 48.4822
22.47526213102522 48.361999999999995
22.49813925616515 48.0638
22.520839937143307 47.9854
22.543541513520587 48.0377
22.56624398629403 47.8392
22.589124730075895 47.8083
22.611829005656723 47.8935
22.63453418063466 48.0296
22.657240256008077 48.2137
22.680124634582935 48.2162
22.70283252079775 48.3125
22.725541310413075 48.81399999999999
22.74825100442868 49.0331
22.771139033969575 49.4181
22.79385054687155 49.6392
22.81656296718292 50.1918
22.83927629590484 51.1725
22.862167992606945 52.1997
22.88488314827121 53.5572
22.907599215359284 54.5812
22.93031619487366 55.803999999999995
22.953211574954405 56.7648
22.975930389478226 57.2987
22.998650119445763 57.5677
23.02137076586092 56.6122
23.044269845560063 55.3547
23.06699233506288 53.711000000000006
23.089715744034912 52.0267
23.112617610931565 50.5719
23.135342869061212 49.4146
23.158069049684816 48.5102
23.1807961538087 48.2807
23.20370174880544 48.2285
23.226430710184808 48.1534
23.249160598093425 48.1533
23.271891413539002 48.0929
23.294800752937697 47.9626
23.31753343374794 48.2485
23.340267045128353 48.4585
23.36300158808808 48.7187
23.38591468821339 48.9492
23.408651104658304 49.31100000000001
23.431388455719986 50.1352
23.454126742409 50.87
23.4770436196085 51.9235
23.499783787914662 53.3183
23.522524894889884 54.3883
23.54526694154616 55.4531
23.56818761219047 56.5202
23.59093154860734 56.9168
23.613676427751283 57.2289
23.636422250635754 56.4162
23.659346731118656 54.7962
23.68209445191868 52.9255
23.704843119509587 50.8512
23.72759273490623 49.151
23.750521041644767 47.6825
23.77327256312355 46.5779
23.796025035462787 45.985
23.818956224555475 45.4696
23.841710609113413 45.4502
23.86446594758979 45.18
23.887222241002014 44.8392
23.910157285144578 44.6692
23.932915498962537 44.6424
23.955674670778713 44.519
23.978434801611975 44.2998
24.001373717286125 44.0408
24.024135776723917 44.034
24.046898798245582 44.0501
24.06966278287146 43.8667
24.092605586582614 43.7152
24.115371508023642 43.5472
24.1381383956401 43.475
24.16090625045381 43.3719
24.183852958731244 43.4094
24.206622758582608 43.3692
24.229393528706886 43.1037
24.252165270127392 43.1925
24.27511589952438 42.9389
24.297889594216997 42.8962
24.32066426328598 42.6956
24.34343990775613 42.6155
24.36639447485003 42.7593
24.38917208083877 42.6116
24.41195066531332 42.4707
24.43490819850244 42.6601
24.457688750692377 42.5301
24.48047028445616 42.4339
24.503252800821233 42.5512
24.526214300784112 42.5829
24.548998793132213 42.5326
24.57178427117417 42.4412
24.59457073593893 42.4972
24.617536219319863 42.4641
24.64032466834748 42.5281
24.663114107195035 42.3247
24.685904536893013 41.9714
24.708874020360852 42.0914
24.731666442613744 42.083999999999996
24.754459858818787 41.9457
24.777254270007962 41.8942
24.80022777025625 41.7227
24.82302418230472 41.7004
24.845821592443674 41.6898
24.86862000170663 41.6414
24.891597535453727 41.5913
24.914397953892728 41.6458
24.93719937456671 41.6606
24.96000179851076 41.793
24.98298338249997 41.9858
25.00578782394922 42.2702
25.028593271784167 42.1434
25.05157790644186 42.5705
25.07438537804115 42.8261
25.097193859145293 43.1043
25.120003350792075 43.1749
25.142992065061257 43.4779
25.165803588823465 43.7189
25.18861612625217 43.9348
25.211429678386736 44.0843
25.234422489079968 44.1621
25.257238081693636 44.343
25.280054692141732 44.3774
25.3028723214652 44.3992
25.325869245420463 44.577
25.348688923599397 44.4524
25.371509623787006 44.3198
25.394331347025812 43.9658
25.41733240110666 43.5673
25.440156181590016 42.9059
25.46298098826268 42.371
25.48580682216873 41.8766
25.50881202326435 41.3624
25.53163992281684 40.8707
25.55446885274561 40.6151
25.577298814096377 40.4198
25.600308179121807 40.3403
25.623140214533745 40.4008
25.64597328451537 40.3362
25.66898578564376 39.9558
25.691820936010206 40.0535
25.714657124097695 39.9649
25.737494350954734 40.0141
25.760511045684957 39.9785
25.783350361364224 40.0577
25.806190718969255 39.9848
25.82903211955018 40.0344
25.852053024868923 40.0443
25.874896522722523 40.0385
25.897741066713106 40.0776
25.920586657892454 40.2157
25.943611790812668 40.2364
25.966459487728237 40.4578
25.989308234998564 40.5442
26.01215803367705 40.7628
26.03518741123814 40.8956
26.05803932412957 41.1567
26.080892291600094 41.1198
26.10374631470478 41.1156
26.12677995397268 41.2017
26.14963609978026 41.1414
26.172493304397875 40.7202
26.19535156888223 40.5147
26.218389486949604 40.3083
26.241249882640123 40.0681
26.26411134137826 39.8362
26.28715248187403 39.8322
26.31001607820869 39.5678
26.3328807407756 39.3782
26.35574647063438 39.6041
26.37879191991473 39.4952
26.401659795896734 39.5768
26.424528742360263 39.7213
26.447398760366614 39.8227
26.470448535598294 39.9274
26.49332070826805 40.0554
26.516193955675355 40.5338
26.53906827888316 40.7186
26.562122397260108 40.9755
26.584998883685063 41.1274
26.607876449110325 41.4567
26.63075509460056 41.6448
26.65381357334404 41.6842
26.67669439061878 41.6034
26.699576291163382 41.4486
26.722459276044212 41.3499
26.745522132402975 41.1278
26.768407297649354 40.8553
26.791293550442003 40.568000000000005
26.814180891848974 40.3191
26.837248143099337 40.0056
26.860137673466657 39.8786
26.88302829566349 39.6254
26.90592001075963 39.4358
26.92899167420566 39.3249
26.951885586870763 38.8767
26.974780595655517 38.8421
26.99785558178161 38.5915
27.020752794605112 38.4522
27.043651106772522 38.3356
27.06655051935668 38.3238
27.089629948036183 38.1803
27.112531573292053 38.1489
27.135434302194138 38.2518
27.158338135817015 38.1178
27.181422024430987 38.1767
27.204328079372566 38.0633
27.22723524226965 38.008
27.250143514198573 38.216
27.273231880156334 38.1459
27.296142382065014 37.8982
27.319053996245536 37.9194
27.341966723775965 37.9013
27.365059584515222 37.9216
27.38797455070062 38.0864
27.410890633481237 37.9173
27.433807833936918 37.8916
27.456905206923906 38.0152
27.47982465472398 37.931
27.502745223449743 38.0844
27.525666914182825 38.3152
27.548768816912457 38.2243
27.571692763693633 38.0645
27.59461783573812 37.9331
27.617723149491244 37.7389
27.640650484125285 37.6788
27.66357894728264 37.5682
27.686508540048052 37.6199
27.709618414237887 37.4679
27.732550278321757 37.2198
27.755483275279115 37.2497
27.778417406196485 37.3682
27.801531858397514 37.3947
27.824468269376716 37.2551
27.847405817586786 37.3642
27.870344504116094 37.5307
27.893463551932008 37.565
27.916404527281053 37.8674
27.93934664422563 37.8836
27.962289903855886 37.8929
27.98541356491974 38.0779
28.00835912214229 38.2223
28.03130582533231 38.509
28.054253675581805 38.7582
28.077381967556104 38.6087
28.100332124185126 38.5736
28.123283431160893 38.5205
28.146235889577238 38.3872
28.169368830154156 38.104
28.192323603752033 37.9604
28.215279532083304 37.7875
28.238415973016764 37.5092
28.261374223145094 37.4681
28.284333631303806 37.1506
28.307294198589954 36.9784
28.330435319167677 36.592
28.353398217078915 36.3846
28.376362277420153 36.2725
28.39932750129032 36.0833
28.422473319286713 35.986999999999995
28.44544088262495 35.9135
28.468409612800283 35.7362
28.491379510913497 35.5364
28.51453004413313 35.4904
28.53750229057244 35.4803
28.56047570826344 35.5083
28.583450298308804 35.5753
28.606605564586562 35.2477
28.629582511831156 35.2928
28.65256063474956 35.1035
28.675539934446338 35.1334
28.698699951647605 35.1796
28.72168161743193 35.0808
28.74466446331978 34.9679
28.767648490417624 34.9739
28.790813276438353 35.116
28.813799678527303 34.9834
28.836787265157085 34.9357
28.859955641890075 35.0496
28.882945610203045 34.9859
28.905936766392035 34.8299
28.928929111566863 34.8724
28.952102288520145 34.8229
28.975097024308607 34.7086
28.998092952423807 34.5474
29.021090073977508 34.3716
29.04426806913204 34.4309
29.067267590245258 34.2606
29.090268308143695 34.3082
29.11327022394099 34.2541
29.13645305530891 34.0189
29.159457379627167 33.9719
29.18246290519685 33.9396
29.20546963313352 33.8962
29.22865731875826 33.9088
29.25166646419296 33.8974
29.27467681535305 33.7904
29.29768837335608 33.9073
29.320880931312562 33.9073
29.34389491580634 33.8226
29.366910110507334 33.8478
29.38992651653503 33.7861
29.41312396492981 33.7948
29.436142806456754 33.7173
29.45916286268059 33.7187
29.48236399319994 33.5716
29.50538649169417 33.2949
29.528410208259935 33.3059
29.55143514402014 33.0565
29.574641196749695 33.0116
29.597668583816574 32.7879
29.6206971934585 32.7724
29.64372702680042 32.7605
29.666938019934474 32.6745
29.689970313635285 32.5889
29.713003834422636 32.6215
29.73603858342347 32.4958
29.759254535188578 32.408
29.78229175361658 32.3972
29.80533020365064 32.4048
29.82836988641968 32.3858
29.85159081507472 32.2911
29.874632976355343 32.3653
29.89767637376955 32.4241
29.920721008448314 32.1596
29.9439469322847 32.1405
29.96699405457564 32.1493
29.9900424175358 32.2254
30.013092022298157 32.1765
30.03632295963995 31.9671
30.059375061131373 32.0599
30.08242840783577 32.1132
30.105483000888153 32.0344
30.128718970092244 32.0256
30.151776069006917 31.9804
30.17483441768648 32.0749
30.198074175317235 32.025
30.221135036724256 32.0259
30.24419715131772 31.906
30.267260520236203 31.8714
30.290505341942243 31.875
30.313571232750228 31.9787
30.336638381310948 31.9603
30.35970678876503 31.9009
30.38295669299435 31.8659
30.40602763151657 31.7626
30.429099832366074 31.6266
30.452173296685572 31.6044
30.47542830191959 31.6301
30.498504306502497 31.5912
30.521581577995562 31.695
30.544660117543582 31.6825
30.56792024229725 31.726999999999997
30.59100133132069 31.7021
30.614083691845494 31.7643
30.637167325018545 31.838
30.660432587840603 31.8433
30.683518779717886 31.7512
30.70660624769615 31.8108
30.729694992924372 31.8715
30.75296541239743 31.7667
30.77605672557558 31.7927
30.799149319462742 31.7068
30.8224236211637 31.5321
30.845518789950724 31.4792
30.868615242910597 31.3926
30.891712981195973 31.2103
30.91499247215866 31.1854
30.938092794619365 31.1914
30.96119440587579 31.1437
30.984297307082752 31.0185
31.00758200598383 30.9485
31.030687500658694 30.7176
31.053794288760695 30.7636
31.076902371446767 30.713
31.100192296997445 30.824
31.12330298246119 30.7473
31.14641496599209 30.623
31.169528248749216 30.704
31.19282341969534 30.5387
31.215939314557186 30.524
31.239056512134788 30.5184
31.262175013589378 30.6063
31.28547544871168 30.4766
31.30859657161541 30.3659
31.331719001892175 30.4424
31.35484274070538 30.5334
31.378148458819545 30.4818
31.401274828443725 30.4585
31.424402510106933 30.5172
31.447712205419993 30.6271
31.470842524931633 30.4629
31.493974159989783 30.3105
31.51710711176168 30.3405
31.54042212308802 30.3734
31.563557722100917 30.3188
31.586694641341655 30.2402
31.609832881979628 30.0373
31.63315322823208 30.0439
31.656294125521327 30.011
31.679436347728515 29.8956
31.70257989602529 29.8518
31.725905596152327 29.8145
31.74905181052835 29.6531
31.772199354521323 29.8162
31.79534822930507 29.7803
31.818679302290967 29.7371
31.84183085259981 29.7095
31.864983737233473 29.7768
31.88813795736804 29.8871
31.911474422233013 29.7134
31.934631327356435 29.6469
31.9577895715215 29.7062
31.980949155906522 29.7191
32.004291031706956 29.6611
32.027453310562606 29.5812
32.05061693318573 29.4194
32.07396288236386 29.389
32.09712920658542 29.3803
32.12029687812702 29.2429
32.14346589817093 29.1383
32.166817291729984 29.229
32.18998902288583 29.2048
32.21316210610336 29.1843
32.23633654256711 28.8558
32.259693399663725 28.7813
32.282870556771144 28.738000000000003
32.30604907069099 28.8184
32.329228942610065 28.7474
32.35259128243769 28.5689
32.375773884550505 28.5233
32.398957848235646 28.5184
32.422143174682176 28.4741
32.445511016471215 28.4414
32.468699082679954 28.4101
32.49188851523011 28.3509
32.51507931531304 28.2441
32.538452678331 28.2319
32.56164622776311 28.2166
32.58484114831493 28.1862
32.60803744118015 28.1603
32.631416344731896 28.1265
32.654615396551876 28.11
32.67781582427913 28.0341
32.701198898634416 27.9279
32.72440209253756 27.8967
32.747606665947124 27.9318
32.77081262006088 27.7937
32.79420126883317 27.8416
32.81740999876112 27.8585
32.840620112999424 27.8299
32.86383161274818 27.7061
32.88722585534586 27.5976
32.91044014056596 27.6427
32.933655814909734 27.6364
32.95687287957963 27.654
32.98027273544904 27.6086
33.00349259526636 27.5207
33.026713849030116 27.5208
33.04993649794511 27.4993
33.073341986570746 27.4668
33.09656744032826 27.5354
33.11979429286444 27.4968
33.14302254538647 27.5114
33.166433686291185 27.4251
33.18966475336992 27.2956
33.212897224069096 27.2457
33.23613109959831 27.2992
33.259547912343415 27.2126
33.2827846121627 27.2797
33.306022720453775 27.1923
33.32926223842861 27.0467
33.352684742614166 27.0842
33.37592709463173 27.0624
33.399170859982064 26.9034
33.422597648419426 26.8302
33.44584425514446 26.8707
33.46909227885668 26.8448
33.4923417207723 26.6521
33.51577423505344 26.6717
33.539026528130385 26.5956
33.56228024307245 26.5384
33.585535381098246 26.3762
33.60897364093058 26.3815
33.63223163992385 26.4382
33.6554910656699 26.3952
33.678751919389796 26.3436
33.702195944520106 26.2231
33.72545966903325 26.3196
33.74872482519663 26.1695
33.771991414233746 26.2077
33.79544122444841 26.1932
33.81871069412428 26.1046
33.84198160035767 26.0959
33.86525394437455 26.1282
33.88870955949969 26.0109
33.911984794020626 25.9994
33.93526147001624 25.8909
33.958539588715006 25.8188
33.98200102861669 25.7419
34.0052820477047 25.7044
34.02856451319451 25.7419
34.05203033759056 25.6655
34.07531571090147 25.6331
34.09860253431845 25.6322
34.121890809074316 25.6264
34.145362493118924 25.6111
34.16865368561615 25.5409
34.191946333164054 25.4931
34.21524043699793 25.4903
34.23871800066799 25.5143
34.26201503218366 25.378
34.28531352370466 25.3826
34.30861347646881 25.3317
34.33209693978188 25.2899
34.3553998301885 25.2887
34.378704185565205 25.1211
34.402010007152356 25.0953
34.42549939016683 25.1429
34.44880815937748 25.0731
34.472118398533134 24.9434
34.49543010887669 24.9069
34.51892543169198 24.851
34.54224009966052 24.8211
34.56555624255917 24.7953
34.58887386163339 24.7232
34.61237514439016 24.6788
34.6356957311114 24.7034
34.65901779775809 24.5928
34.68252356662995 24.6445
34.705848608458616 24.6203
34.72917513396849 24.566999999999997
34.75250314440949 24.495
34.77601490857862 24.3443
34.799345904259795 24.4249
34.82267838863559 24.4019
34.846012362958525 24.4112
34.869530142679984 24.3528
34.89286711232212 24.2584
34.91620557568269 24.2541
34.93954553401677 24.2495
34.9630693495876 24.2044
34.986412313340814 24.1615
35.00975677584668 24.1761
35.033102738362956 24.1769
35.05663261012228 24.0904
35.0799815881786 24.0515
35.10333207003229 24.0416
35.12668405694369 24.0836
35.150220005273056 23.9972
35.17357501786656 23.9435
35.19693153931268 23.9214
35.220289570874385 23.873
35.24383161619786 23.8716
35.267192683604904 23.9124
35.290555264930376 23.8388
35.314101899412165 23.7532
35.33746752422433 23.7851
35.36083466676374 23.8109
35.38420332829803 23.6381
35.407756095629054 23.695999999999998
35.43112781085063 23.6779
35.45450104888391 23.6516
35.477875810999194 23.6697
35.50143473172161 23.6151
35.52481255774625 23.5538
35.54819191167777 23.5253
35.57157279478914 23.4285
35.595137889488406 23.4191
35.61852184675279 23.4113
35.641907337029984 23.3347
35.665294361595684 23.3425
35.68886565090076 23.2715
35.7122557598848 23.2468
35.73564740699838 23.2144
35.759040593519934 23.124000000000002
35.78261809810353 23.0591
35.80601437933051 23.0396
35.829412203814705 23.0885
35.85281157283719 22.9583
35.876395313415884 23.0569
35.8997977874528 23.0387
35.92320180988546 22.9426
35.946790244133936 22.8544
35.97019737933222 22.9288
35.993606066789866 22.8363
36.01701630779276 22.7785
36.04061101440684 22.6956
36.06402437852291 22.7698
36.08743930005611 22.7233
36.1108557802951 22.6229
36.13445678011326 22.5979
36.15787639383515 22.611
36.18129757014299 22.5424
36.20472031032821 22.5464
36.22832762423364 22.4314
36.25175350829375 22.3876
36.275180960119776 22.3284
36.298609981005924 22.3913
36.32222362992669 22.386999999999997
36.34565580510207 22.396
36.36908955323448 22.3127
36.39252487562093 22.1079
36.416144880530226 22.1491
36.43958336764275 22.1302
36.463023432914625 22.1969
36.486465077645676 22.1663
36.51009145956204 22.2222
36.53353627947859 22.0809
36.55698268276811 22.0562
36.58043067073321 22.0005
36.60406345072071 21.8934
36.62751462435344 21.9726
36.65096738658405 21.9265
36.67460498210655 21.8495
36.69806093788647 21.826
36.72151848619297 21.7618
36.744977628333636 21.7482
36.76862165890998 21.7239
36.79208400512205 21.6724
36.81554794910557 21.6569
36.83901349217101 21.5946
36.862663978991606 21.5571
36.88613273667352 21.4969
36.90960309738324 21.4869
36.933075062434064 21.4846
36.95673202673572 21.4911
36.98020721697122 21.3869
37.003684015502365 21.355999999999998
37.027162423645365 21.3599
37.050825886711465 21.3159
37.07430753063053 21.2377
37.09779078812467 21.2431
37.121275660513014 21.2508
37.144945643673694 21.1762
37.16843376245278 21.1797
37.19192350009803 21.1938
37.215414857931435 21.1333
37.239091382563885 21.0656
37.262585997426164 21.0172
37.28608223645736 21.0487
37.309763684451696 20.9289
37.33326318851098 20.9223
37.356764320726555 20.908
37.380267082425526 20.9149
37.40395510942588 20.8975
37.42746114683234 20.8066
37.45096881771841 20.7638
37.474478123414166 20.7457
37.49817275092816 20.7278
37.52168534303452 20.668000000000003
37.54519957395567 20.6267
37.568715445024665 20.5753
37.592416694607714 20.5258
37.61593586281424 20.5435
37.63945667518264 20.5575
37.66297913304891 20.4706
37.68668702630454 20.4137
37.710212792059274 20.3373
37.733740207334854 20.2987
37.757269273470364 20.2779
37.780983832050374 20.3298
37.80451621684926 20.3208
37.82805025654007 20.279
37.851585952464795 20.1574
37.8753071980695 20.0882
37.89884622345676 20.0768
37.92238690911902 20.0431
37.94611318753442 20.0136
37.969657210779765 19.9872
37.99320289834801 19.9778
38.016750251586465 20.0175
38.04048325513017 19.9782
38.06403395679343 19.8734
38.087586328183946 19.7737
38.11114037065203 19.9081
38.13488012115898 19.8881
38.1584375229181 19.7664
38.181996599821 19.7174
38.205557353221124 19.6651
38.229303872575656 19.6807
38.2528679961576 19.6842
38.27643380031219 19.5853
38.30000128639589 19.5518
38.32375459653193 19.58
38.34732546371299 19.5365
38.37089801690786 19.4835
38.39447225747609 19.4688
38.418232380377425 19.4502
38.441810012983396 19.4239
38.46538933705673 19.407
38.488970353960084 19.3471
38.51273731166058 19.2834
38.536321731567014 19.2831
38.55990784840681 19.2388
38.58367995004091 19.189
38.60726947812959 19.1365
38.63086070726198 19.1448
38.654453638806274 19.1832
38.678232613930824 19.0342
38.70182896773327 19.0069
38.72542702806741 19.0088
38.7490267963045 18.9801
38.77281266709232 18.9282
38.79641586862214 18.9727
38.8200207821842 18.875999999999998
38.843627409152944 18.9181
38.86742019782782 18.8441
38.891030269149255 18.8327
38.914642058016156 18.83
38.938255565806124 18.7192
38.96205529464307 18.7671
38.98567225787121 18.7481
39.00929094417078 18.6208
39.03291135492255 18.6749
39.05671804624804 18.6391
39.080341923549106 18.673
39.103967529460334 18.6647
39.127594865365744 18.5761
39.15140854155791 18.5376
39.17503935514948 18.5348
39.19867190290282 18.4455
39.22249083587951 18.3918
39.24612686969409 18.4454
39.269764641845306 18.416
39.293404153722804 18.346
39.317230110864074 18.3082
39.34087311998506 18.2816
39.36451787301696 18.1891
39.388164371352595 18.1939
39.41199737518003 18.1819
39.43564738196752 18.1372
39.45929913825317 18.1169
39.48295264543308 18.0905
39.506792718520884 18.0488
39.530449745387216 17.9742
39.55410852735203 17.9906
39.57776906581474 17.9802
39.60161623079 17.956
39.625280300200025 17.9365
39.64894613032202 17.887
39.67261372255866 17.852999999999998
39.6964680021016 17.8333
39.72013913657293 17.811
39.74381203738292 17.8235
39.76748670593756 17.8008
39.79134812278169 17.7702
39.81502634488497 17.7256
39.83870633896685 17.7846
39.862388106436654 17.6377
39.88625668336918 17.5855
39.90994201572829 17.5856
39.933629125719285 17.5541
39.957503091207826 17.5393
39.9811937746168 17.5042
40.00488623990914 17.4504
40.02858048850006 17.4358
40.05246165409549 17.4002
40.076159487492085 17.3685
40.099859108448875 17.3529
40.123560518384345 17.3492
40.1474489070226 17.3222
40.171153913178564 17.2689
40.194860712584955 17.2875
40.2185693066637 17.2679
40.242464941335314 17.1846
40.26617714307655 17.1881
40.289891143772046 17.1393
40.3136069448471 17.0842
40.33750984859743 17.1298
40.3612292688043 17.1236
40.3849504936829 17.0997
40.40867352466194 17.0904
40.43258372059144 17.0698
40.45631038219906 17.0046
40.48003885420956 16.8799
40.503769138055105 16.893
40.52768664931955 16.9651
40.55142057531802 16.8281
40.57515631746428 16.8311
40.599079334038514 16.8074
40.62281872700477 16.7107
40.64655994043941 16.67
40.67030297578061 16.6836
40.69423334835778 16.6816
40.71798004609188 16.7201
40.74172857006355 16.6409
40.76547892171441 16.6374
40.7894166736039 16.6261
40.813170699248566 16.54
40.83692655691388 16.5176
40.86068424804498 16.4894
40.884629402612525 16.5051
40.908390779366385 16.4823
40.932153993938 16.4049
40.95591904777605 16.4096
40.979871628443995 16.4485
41.003640379561936 16.4207
41.02741097430883 16.3408
41.05118341413683 16.3078
41.075143444384416 16.2925
41.098919593177826 16.3047
41.1226975914255 16.2462
41.14647744058318 16.262999999999998
41.170444943946755 16.1993
41.19422851378379 16.1643
41.218013938914645 16.13
41.24198706625173 16.0076
41.26577622087193 16.076
41.289567235177785 16.0795
41.31336011063129 16.0295
41.337340752422875 15.9588
41.361137369129835 15.9594
41.38493585138705 15.9274
41.40873620066004 15.8669
41.43272438060107 15.8904
41.45652848292052 15.8943
41.48033445666918 15.7875
41.50414230331616 15.7839
41.528138045159764 15.7724
41.551949656675205 15.6892
41.575763145513235 15.6755
41.59957851314666 15.6959
41.62358184070442 15.6853
41.64740098505737 15.6191
41.6712220126409 15.571
41.69504492493139 15.5777
41.71905586207357 15.533
41.74288256296395 15.5157
41.766711153007456 15.4736
41.79054163368412 15.4358
41.814560204340054 15.4872
41.838394485526365 15.4446
41.86223066180303 15.4076
41.88625497706819 15.3652
41.910094962812 15.4058
41.93393684811168 15.3722
41.95778063445365 15.2594
41.981812625263366 15.290999999999999
42.00566023303407 15.25
42.029509746323676 15.2354
42.05336116662236 15.1797
42.077400857069705 15.2194
42.10125611078846 15.1846
42.12511327600405 15.1194
42.14897235421036 15.1001
42.173019768448455 15.0832
42.19688269209613 15.0128
42.22074753323349 15.0086
42.24461429335818 14.9355
42.268669455600495 14.9422
42.292540073217886 14.9446
42.31641261433284 14.9884
42.34028708044675 14.8811
42.36435001496739 14.8517
42.38822835065557 14.85
42.41210861586426 14.8258
42.4359908120986 14.8201
42.46006154323262 14.7207
42.48394762115317 14.7072
42.507835634632315 14.732999999999999
42.531912233047436 14.7442
42.55580413732265 14.7231
42.579697981698 14.6503
42.60359376768525 14.5532
42.62767820545945 14.5703
42.65157789440821 14.5882
42.67547952952185 14.5545
42.699383112316 14.5478
42.72347541395347 14.5063
42.74738291190531 14.4579
42.771292362102166 14.4801
42.795203766063516 14.4303
42.819303956130405 14.457
42.843219287476536 14.3479
42.86713657716324 14.3251
42.89105582671383 14.2985
42.91516392983864 14.3402
42.939087119032166 14.3513
42.963012272677304 14.2192
42.98693939230129 14.2416
43.01105543317513 14.1843
43.034986504731386 14.1691
43.05891954686589 14.1719
43.08285456110972 14.1046
43.10697856448665 14.1172
43.130917542983475 14.0573
43.15485849820081 14.0665
43.17880143167367 14.0355
43.20293342237094 14.0291
43.226880332449 14.0307
43.25082922540554 13.952
43.27496722682525 13.9035
43.29892010567796 13.905
43.32287497204102 13.9066
43.34683182745632 13.8315
43.370977859791836 13.8681
43.39493871351105 13.8748
43.41890156092628 13.8199
43.44286640358341 13.7823
43.46702049182749 13.7815
43.49098934522816 13.7068
43.51496019852649 13.6691
43.5389330532723 13.694
43.56309522248204 13.6608
43.58707210044314 13.6467
43.61105098451946 13.5579
43.63503187626491 13.5542
43.659202151562134 13.5502
43.68318707902681 13.5463
43.70717401884041 13.5149
43.731162972560874 13.4731
43.75534137913236 13.4349
43.779334381108384 13.4525
43.803329401683186 13.3931
43.82732644241872 13.4539
43.8515130055166 13.3626
43.87551410707659 13.338
43.89951723350145 13.3197
43.923709934595614 13.3197
43.94771713129917 13.3177
43.97172635758096 13.2912
43.99573761501002 13.1848
44.0199385169922 13.197000000000001
44.04395385732619 13.2028
44.067971233533086 13.2089
44.09199064718605 13.1366
44.11619977548961 13.1102
44.14022328470671 13.1022
44.16424883610785 13.1259
44.18827643127035 13.1151
44.21249381139513 13.0485
44.236525514814076 13.0182
44.26055926674478 12.9598
44.28459506876863 13.01
44.3088207262813 12.9753
44.33286064928722 12.9031
44.35690262714919 12.8957
44.38094666145278 12.89
44.4051806219871 12.8551
44.42922879003185 12.8229
44.45327901929361 12.8226
44.477331311362136 12.8344
44.501573600619416 12.7611
44.525630039221795 12.7467
44.54968854541895 12.7314
44.573937102200176 12.6854
44.5979997645541 12.6756
44.622064499300315 12.6364
44.64613130803592 12.6168
44.67038823869318 12.6282
44.69445921643748 12.5444
44.718532272981385 12.5267
44.742607409926194 12.5159
44.76687274034801 12.5192
44.79095205918753 12.4956
44.81503346325094 12.4928
44.839116954143876 12.4974
44.86339071028742 12.4194
44.88747839599524 12.3845
44.91156817336837 12.3769
44.93566004401666 12.3613
44.959942251908146 12.363
44.984038330325966 12.3296
45.00813650686762 12.2694
45.03223678314731 12.2692
45.05652746888232 12.2308
45.08063196592069 12.2363
45.104738567558705 12.2149
45.128847275414856 12.1753
45.15314646515866 12.1398
45.17725940679741 12.1974
45.20137445952892 12.1167
45.22568004865265 12.0955
45.24979934496396 12.0698
45.27392075725247 12.0596
45.29804428714431 12.0805
45.322358426247604 12.017999999999999
45.346486212804315 12.0064
45.370616121861914 12.0043
45.39474815505086 11.9823
45.41907087049246 11.9346
45.4432071734666 11.8865
45.46734560548283 11.9172
45.49148616817604 11.8968
45.51581748638564 11.8944
45.5399623320197 11.8401
45.56410931325473 11.8282
45.58825843173002 11.7955
45.61259837920865 11.7795
45.636751793816 11.7983
45.66090735060093 11.7425
45.68506505120716 11.7023
45.7094136545275 11.6656
45.73357566449271 11.6465
45.75773982322992 11.6798
45.78190613238733 11.6251
45.806263418194064 11.5738
45.83043404997326 11.5837
45.85460683713677 11.5683
45.87897065658495 11.5267
45.90314777634752 11.4558
45.92732705646868 11.4679
45.9515084986045 11.4743
45.97588104735473 11.4496
46.00006683541565 11.4158
46.02425479047904 11.4213
46.04844491420549 11.4089
46.0728262191024 11.3835
46.09702070211635 11.3923
46.12121735879483 11.39
46.14541619080294 11.3759
46.169806278764455 11.2974
46.194009483459034 11.2737
46.21821486849841 11.2567
46.24242243555223 11.2628
46.266821333570014 11.2288
46.29103328674601 11.1724
46.31524742696538 11.1686
46.33946375590237 11.1172
46.36387149104216 11.1386
46.38809221957392 11.099
46.41231514186606 11.0857
46.436540259597464 11.0693
46.460956858999374 11.0514
46.48518638983522 11.0669
46.509418121166966 11.0138
46.533652054678114 10.9623
46.55807754555709 10.9856
46.58231590571962 11.0036
46.60655647313217 10.9069
46.630988654873654 10.9168
46.655233659129024 10.8733
46.67948087571551 10.880999999999998
46.70373030632484 10.8657
46.72817142736393 10.8114
46.752425308428684 10.8244
46.77668140861147 10.7872
46.80093972960865 10.7802
46.82538981736788 10.7562
46.849652602470904 10.7269
46.87391761349769 10.7464
46.8981848521493 10.686
46.9226439341274 10.6509
46.946915650573224 10.6226
46.97118959976749 10.6173
46.99546578341598 10.6057
47.019933887188216 10.6016
47.04421456235744 10.5463
47.06849747711879 10.5621
47.09278263318286 10.5125
47.11725978640143 10.5282
47.14154944775105 10.4926
47.165841355555656 10.4654
47.1901355115306 10.4467
47.214621741924994 10.4591
47.23892041698887 10.4131
47.26322134538975 10.3942
47.28771440635075 10.335999999999999
47.31201986422527 10.3793
47.33632758061436 10.3427
47.360637557241866 10.3169
47.38513974410611 10.3138
47.40945426407847 10.2663
47.43377104948137 10.235
47.45809010204344 10.2724
47.48260144275502 10.2362
47.506925052572285 10.2159
47.53125093475548 10.1597
47.55557909103813 10.1475
47.58009961361992 10.1043
47.60443234110732 10.1351
47.62876734791564 10.1064
47.65310463578333 10.0789
47.6776343683373 10.0612
47.7019762413987 10.0253
47.72632040075572 10.0042
47.75066684815169 10.0275
47.77520581885936 9.98076
47.799556865477655 9.9873
47.823910205386 9.96535
47.84826584033272 9.92375
47.87281407745551 9.88813
47.89717432569297 9.89568
47.92153687423484 9.8968
47.94609208429692 9.86317
47.97045925671401 9.85367
47.99482873471275 9.826210000000001
48.01920052005013 9.794830000000001
48.04376504619224 9.810960000000001
48.068141469543484 9.80017
48.09252020552573 9.80222
48.11690125590099 9.7416
48.1414751266064 9.71239
48.16586082917454 9.73151
48.19024885144316 9.67782
48.2146391951793 9.68186
48.239222439012764 9.69252
48.26361744916137 9.65949
48.28801478610016 9.64141
48.31241445160131 9.66259
48.337007097209366 9.60158
48.36141144338331 9.59192
48.38581812345755 9.57657
48.41022713920929 9.54053
48.434829215320704 9.52922
48.45924292604658 9.53165
48.48365897780325 9.515889999999999
48.50807737237308 9.459480000000001
48.532688907799276 9.484960000000001
48.55711201168574 9.43805
48.581537463754074 9.41436
48.60615611725119 9.40136
48.63058628942721 9.36813
48.65501881516546 9.34672
48.6794536962573 9.35748
48.70408185970339 9.32506
48.72852147531801 9.3097
48.75296345168211 9.300139999999999
48.77740779059232 9.3093
48.80204549302823 9.28363
48.82649458091802 9.249880000000001
48.85094603676547 9.23907
48.87539986237231 9.229519999999999
48.90004713292306 9.21827
48.92450572200832 9.18507
48.94896668628025 9.150730000000001
48.97343002754588 9.10458
48.99808689542115 9.142000000000001
49.02255501470614 9.1032
49.04702551642794 9.07875
49.0714984023988 9.04965
49.096164896893235 9.06216
49.120642575466796 9.01126
49.145122643748394 9.02869
49.16960510355558 8.98873
49.19428125404938 8.968919999999999
49.2187685210852 8.98028
49.243258185121555 8.95688
49.26794160167084 8.942039999999999
49.2924360839405 8.92048
49.31693296869764 8.91112
49.34143225776915 8.88258
49.36612538195438 8.85445
49.39062950396021 8.8648
49.41513603578346 8.83808
49.4396449792564 8.82513
49.46434784069503 8.79233
49.488861631846454 8.77951
49.513377840166804 8.73213
49.537896467493745 8.74359
49.56260909589029 8.67955
49.587132585683285 8.73222
49.611658500018365 8.68641
49.636186840738596 8.658719999999999
49.66090926588511 8.689919999999999
49.685442483902584 8.65509
49.70997813385706 8.61555
49.734516217597076 8.62032
49.75924846937352 8.60902
49.7837914452858 8.555660000000001
49.80833686055187 8.565660000000001
49.83288471702571 8.56371
49.85762682540054 8.52641
49.882179588965734 8.490969999999999
49.9067347993235 8.48829
49.93129245833333 8.49891
49.95604445336378 8.48441
49.98060703442832 8.46525
50.005172069746266 8.42408
50.02993150438364 8.40499
50.05450147301533 8.39986
50.07907390151433 8.38683
50.10364879174981 8.37791
50.12841816587289 8.33267
50.1529980044635 8.33318
50.17758031042124 8.35783
50.20216508562089 8.3153
50.22694442953363 8.28722
50.25153416817468 8.285689999999999
50.27612638170508 8.25398
50.300721072005196 8.2198
50.325510416102105 8.22063
50.350110084975064 8.18895
50.37471223628208 8.21826
50.39931687190919 8.20053
50.424116246675766 8.128169999999999
50.44872587605249 8.09901
50.47333799543065 8.10621
50.49795260670191 8.12007
50.52276204271512 8.11139
50.54738166295838 8.07414
50.57200378079314 8.09779
50.596628398116835 8.071010000000001
50.62144792604559 8.04608
50.646077567609396 8.03527
50.670709714377715 8.016810000000001
50.69553683636198 7.9630600000000005
50.72017401885922 7.9896899999999995
50.7448137122895 7.954680000000001
50.76945591856022 7.9358
50.79429318636823 7.94486
50.818940443716784 7.917889999999999
50.84359021965163 7.88847
50.868242516085964 7.855119999999999
50.893089960641895 7.8665899999999995
50.917747323549435 7.858569999999999
50.94240721271973 7.828810000000001
50.96706963007175 7.81387
50.99192728239342 7.77413
51.01659478166073 7.76889
51.04126481489051 7.80002
51.06593738400761 7.78848
51.090805275207074 7.75652
51.11548294172845 7.742430000000001
51.14016314993547 7.75081
51.164845901758845 7.72946
51.18972406304274 7.6983
51.21441192780656 7.65995
51.23910234200271 7.6700800000000005
51.2637953075678 7.64475
51.288683770237945 7.62078
51.31338186432707 7.5831800000000005
51.33808251561888 7.586
51.362978729967345 7.57865
51.387684521509755 7.5719
51.41239287610203 7.5576
51.437103795691165 7.54511
51.46201036644977 7.505780000000001
51.486726441956634 7.50255
51.51144508832545 7.463989999999999
51.536166307509156 7.50334
51.56108326624387 7.4134
51.58580965706056 7.4282699999999995
51.61053862657523 7.4222399999999995
51.635270176746864 7.35197
51.66019755512065 7.37418
51.68493429268881 7.40141
51.70967361681515 7.33905
51.73441552946465 7.3445100000000005
51.759353359237934 7.3559
51.7841004750961 7.317589999999999
51.80885018539685 7.33748
51.833602492111254 7.275189999999999
51.8585508051424 7.2691
51.883308330926425 7.27044
51.90806845906181 7.2172
51.932831191525715 7.2065
51.95779001977161 7.2168600000000005
51.98255798721516 7.19987
52.00732856494335 7.179360000000001
52.03229530577543 7.154660000000001
52.057071130455945 7.200639999999999
52.081849571391054 7.13655
52.106630630568695 7.1025
52.13160794279417 7.06031
52.15639426492067 7.07987
52.18118321127822 7.1111
52.205974783860896 7.0525199999999995
52.23096269971011 7.028810000000001
52.255759551287994 7.025519999999999
52.280559035098186 6.98332
52.30536115314103 7.00157
52.33035970494467 7.00807
52.35516711807904 6.97434
52.37997717147198 6.97537
52.40478986713005 6.9403
52.42979908731974 6.915839999999999
52.454617094216 6.925510000000001
52.47943774942214 6.89116
52.50426105495102 6.91856
52.529280976059844 6.87455
52.554109609024096 6.88006
52.57894089837482 6.85038
52.60377484613117 6.81197
52.62880550079408 6.79108
52.65364479223379 6.75219
52.67848674816189 6.780880000000001
52.70352547971946 6.81751
52.72837279155837 6.77238
52.753222773982785 6.75818
52.778075429022984 6.73758
52.80312495150885 6.753430000000001
52.827982978797436 6.7194
52.85284368481815 6.69557
52.87770707160767 6.694939999999999
52.90276741793998 6.669789999999999
52.92763619336701 6.65411
52.952507655698504 6.662089999999999
52.977381806977576 6.582000000000001
53.00245301017842 6.63483
53.02733256653592 6.615060000000001
53.052214817996074 6.5926800000000005
53.077099766608484 6.6078399999999995
53.102181859804446 6.5341
53.127072229988265 6.54852
53.15196530349892 6.52824
53.17686108239249 6.52051
53.20195409881522 6.52372
53.22685531582556 6.47431
53.25175924441303 6.46826
53.27666588664027 6.45167
53.30176985962693 6.42709
53.3266819565689 6.44569
53.35159677336455 6.43848
53.376514312083096 6.4316
53.40162927507703 6.40725
53.42655228516116 6.36889
53.45147802340193 6.34035
53.47660125628886 6.33145
53.50153247842639 6.354369999999999
53.52646643496923 6.3105199999999995
53.55140312799818 6.29814
53.576537409691696 6.26394
53.60147960336152 6.26198
53.626424539786164 6.2534
53.65137222105307 6.2198400000000005
53.67651758529126 6.2478
53.70147078399681 6.21767
53.72642673383343 6.20656
53.75138543689533 6.22087
53.776541917524526 6.19382
53.801506154876755 6.14412
53.826473151763246 6.15958
53.851442910284916 6.08589
53.87661054126026 6.10581
53.9015858509782 6.1006
53.92656392866066 6.09883
53.95154477641532 6.1123199999999995
53.976723591801296 6.04546
54.00171000771266 6.07641
54.02669920004598 6.0810900000000006
54.051691170915745 6.04968
54.076881204886796 6.05473
54.101878760928514 6.03982
54.12687910187696 6.03029
54.152077577768296 5.99986
54.1770835166946 5.943919999999999
54.20209224691339 5.95375
54.22710377055121 5.90872
54.25231352511594 5.90688
54.27733066384342 5.88961
54.30235060239643 5.8800099999999995
54.32737334290836 5.90453
54.35259441062629 5.87524
54.377622783395324 5.85133
54.40265396455061 5.83255
54.42768795623251 5.8169
54.45292037169559 5.82817
54.477960012857906 5.75849
54.50300247099511 5.75833
54.52804774825457 5.727180000000001
54.55329154616743 5.6806
54.57834249018678 5.70771
54.6033962597977 5.716880000000001
54.6284528571545 5.6544
54.653708072335164 5.6442
54.67877035378786 5.60873
54.70383546947698 5.59668
54.72890342156389 5.58754
54.7541700889442 5.52745
54.77924374251975 5.5485
54.8043202390049 5.49177
54.82959552413022 5.49019
54.8546777351945 5.50946
54.87976279569621 5.42251
54.90485070780914 5.48757
54.930137506558005 5.40527
54.95523115074295 5.42154
54.98032765308844 5.4328
55.005427015775496 5.34635
55.03072536339621 5.37177
55.05583047570572 5.3679
55.080938454927676 5.32404
55.10604930325027 5.3293099999999995
55.131359235107396 5.268269999999999
55.15647585066083 5.21473
55.181595341907496 5.2323
55.20671771104285 5.23664
55.232039262617704 5.15563
55.25716741665048 5.13583
55.28229845518636 5.13921
55.30743238042802 5.06367
55.33276558731939 5.08745
55.357905315183636 5.0978699999999995
55.383047936390035 5.0208699999999995
55.40819345314859 4.998880000000001
55.433538351073295 5.03417
55.458689688238415 4.9884
55.483843927614096 4.9389400000000006
55.509197623043605 4.9684800000000005
55.53435769621134 4.90006
55.55952067826466 4.91054
55.5846865714265 4.91079
55.61005202069737 4.81005
55.63522376553902 4.8554
55.66039842818645 4.8451900000000006
55.68557601087004 4.82291
55.7109532500271 4.72241
55.73613670233794 4.79378
