TT I
1.2716486653135266 7.271560000000001
1.2939594142134223 6.45268
1.3162702121660406 6.20774
1.3385810600174564 6.41106
1.3608919586137629 6.08319
1.383202908801069 6.01783
1.405513911425503 5.62513
1.4278249673332093 6.17851
1.4501343378461518 6.3025
1.4724455028545926 5.8863
1.4947567236847858 5.78061
1.517068001182951 6.180219999999999
1.5393793361953272 5.10245
1.5616907295681737 5.0016
1.5840021821477681 4.6449
1.60631369478041 4.599530000000001
1.6286252683124185 4.472569999999999
1.6509369035901333 4.98139
1.6732468618895553 4.741230000000001
1.695558623192809 4.20097
1.7178704487808514 5.4209
1.7401823395001077 5.0521
1.7625012545597203 4.42091
1.7848028405262486 4.41887
1.8071218901122095 4.56343
1.8294236121921872 3.8752199999999997
1.8517427996910911 3.98664
1.8740620574440425 4.82067
1.8963639900671978 3.84177
1.9186833908139995 3.9386
1.9409854680117449 4.60351
1.9633050151394713 3.8160300000000005
1.9856246367570705 3.55139
2.0079269371922672 4.05178
2.03024671027244 4.13287
2.0525491637446027 3.9839900000000004
2.074869091674931 4.35692
2.097171701569106 3.6982
2.1194917877373847 3.8742099999999997
2.141811954326636 4.38641
2.164114805233074 4.20562
2.186435135143035 5.02645
2.208738150935709 5.267580000000001
2.231058647554722 6.994739999999999
2.2533792288321184 6.642410000000001
2.275682498336085 5.52888
2.298003251406138 5.47663
2.3203066942619714 5.31484
2.3426276225136022 5.02861
2.3649486396617507 5.70151
2.387252348930071 5.66068
2.4095735463442893 6.10264
2.4318774374315884 6.01795
2.4541988185014043 6.31032
2.476502894794693 6.48961
2.498824462909887 6.75243
2.521146125856138 7.3379199999999996
2.5434504863470337 6.73728
2.5657723414244717 7.688289999999999
2.588076895590662 8.49601
2.610398946189713 8.23145
2.6327210958598384 8.64173
2.6550259469304716 7.95039
2.6773482972090137 8.02005
2.6996533504259 8.04233
2.7219759047039602 8.54838
2.744298562293959 8.12304
2.7666039251246595 8.15587
2.7889267918020164 8.1395
2.8112323652516555 8.59145
2.833555444408179 8.83677
2.8558786311183852 8.24545
2.8781845268938557 8.89785
2.9005079311721484 9.10635
2.9228140460410397 8.87626
2.9451376712799635 9.19843
2.967444008632326 10.418
2.9897678582247247 10.0331
3.0120918213106695 10.418
3.0343984987899373 10.9557
3.0567226913198637 10.9005
3.079029599759726 11.5122
3.101354025127254 12.33
3.123678568232338 12.3898
3.145985829517914 13.0563
3.16831061055229 13.5545
3.1906181112775593 13.9705
3.212943133635653 14.5032
3.2352682779763207 14.3871
3.2575761442691227 14.578
3.2799015350264273 15.1925
3.302209649240067 15.7212
3.3245352898092655 16.2559
3.3468436553365257 16.5829
3.369169549113219 17.2365
3.3914955708171384 18.3648
3.413804319727358 18.3199
3.4361305997334863 18.3488
3.4584396084414553 18.44
3.4807661501462652 19.2365
3.503092824025881 19.708
3.5254022288463154 19.9404
3.5477291695206588 20.3964
3.5700388426251948 20.4717
3.5923660534916446 21.1501
3.6146934007816114 22.8356
3.637003482731501 27.5008
3.6593311053109985 29.4563
3.681641464033634 26.5933
3.7039693653009733 24.1408
3.726297407241705 23.8511
3.7486081875460804 23.8055
3.7709365132734978 24.7397
3.793247578841633 25.5288
3.8155761917550093 25.4414
3.8378875459837216 25.9215
3.8602164494827234 26.0138
3.882545499606844 26.8577
3.9048572932539183 27.644000000000002
3.9271866390645718 28.0085
3.9494987298666713 28.4673
3.971828374764527 28.734
3.9941581705403255 29.2857
4.016470713506008 29.6464
4.038800813471445 30.4221
4.061113662089144 30.7955
4.0834440696459176 31.6336
4.105774632334751 32.1798
4.128087945865126 32.5149
4.150418821249301 33.0018
4.172732448931298 33.9337
4.195063640413578 34.1693
4.2173775856475215 34.7773
4.239709096631102 37.4333
4.262040768704612 52.0915
4.284355196706267 64.202
4.306687193387355 56.7654
4.329001947444346 44.2303
4.35133427213731 40.821999999999996
4.373666762177566 40.3593
4.395982011761091 40.6733
4.418314834921175 41.7674
4.44063041906622 42.9546
4.4629635787515625 45.2285
4.4852969080429785 46.635
4.5076130004776225 46.5075
4.529946671403969 46.8507
4.552263106909177 46.9367
4.574597122877047 48.2273
4.596931312711224 49.0932
4.619248269273446 50.5277
4.6415828092605835 51.5914
4.663900117405352 52.5272
4.686235010953232 53.9857
4.708552674085913 55.4735
4.730887924602802 56.9117
4.753223354952695 57.9465
4.775541557023902 59.3611
4.797877349456786 60.6942
4.820195915032126 63.1335
4.842532072957498 64.2379
4.864868414979744 65.803
4.88718753227192 67.9891
4.909524244902505 69.3497
4.931843734218147 71.7284
4.954180820867835 73.82
4.976518095879839 76.6551
4.998838149695359 79.3482
5.021175803844231 83.0125
5.043496238205739 85.6245
5.065834274903528 89.49600000000001
5.088172504230693 93.6078
5.1104935158799565 97.6865
5.132832132875765 105.546
5.155153533596801 117.704
5.1774925416746225 137.04
5.199814334878411 229.821
5.2221537374521505 796.7189999999999
5.244493338631803 2485.94
5.266815727034316 7127.56
5.289155727832427 13552.9
5.311478517248165 9640.36
5.333818921080011 3363.67
5.356159527788849 694.303
5.3784829252032536 210.55599999999998
5.400823940070432 144.884
5.423147747031976 123.884
5.445489173474152 113.65299999999999
5.467830807066149 108.23700000000001
5.490155234831516 104.244
5.512497285125229 101.145
5.534822130975162 99.3512
5.557164601388673 97.1659
5.579489868738879 94.6676
5.601832762690846 93.6024
5.6241758697774475 91.9116
5.646501775867269 91.1625
5.668845311622074 90.4755
5.691171647754637 89.7377
5.713515615597765 88.5912
5.735859800852677 88.0812
5.758186788542988 87.2771
5.780531411018185 87.2216
5.802858837297399 86.45100000000001
5.825203900414495 86.4614
5.8475491852224 86.3681
5.869877275883075 86.8389
5.892223006467101 87.5074
5.914551544266608 88.917
5.936897724049891 91.1183
5.959244129804903 95.2756
5.981573344815301 106.7
6.0039202049061 162.72299999999998
6.026249875609095 392.846
6.04859719346037 886.69
6.070927323278297 2052.68
6.093275102315365 4564.17
6.115623113320588 5595.53
6.137953938319995 3629.89
6.160302415650845 1086.84
6.182633708324452 241.516
6.2049826554078376 109.79299999999999
6.227331838745022 87.5146
6.249663839443684 79.7777
6.27201349767565 75.8291
6.294345974611799 73.7884
6.316696111167083 72.8767
6.339046488263839 71.7029
6.361379686074702 68.1682
6.383730546639482 66.4222
6.406064229255215 65.1036
6.428415576718203 64.4158
6.450749747566656 63.7403
6.47310158535871 62.2873
6.495453669698332 61.8273
6.517788579421056 60.7726
6.540141159237969 60.1469
6.562476565766648 59.9324
6.5848296444934045 58.9445
6.607182974060425 58.6307
6.6295191323281015 58.0329
6.651872965955752 57.7336
6.6742096296068985 58.5016
6.6965639707294615 62.9387
6.71891856698715 63.8699
6.741255995248479 60.0048
6.763611104154477 57.0245
6.785949046381137 55.335
6.808304671371482 54.2871
6.8306605557940046 54.2708
6.852999275508618 53.9986
6.875355681171544 53.4857
6.897694923437771 53.5283
6.92005185377892 53.3358
6.9423916220322655 53.2905
6.964749080490181 52.4474
6.987106804399774 52.6819
7.009447368180821 52.2641
7.031805625367033 52.123000000000005
7.054146723727803 52.1055
7.076505517631004 52.4322
7.098864581288365 52.2339
7.121206488070854 51.6263
7.143566093607822 51.2456
7.165908543567245 51.3995
7.188268694426048 51.5153
7.2106291193438095 51.2046
7.232972390625943 51.2721
7.255333366030969 51.1962
7.277677189091925 55.113
7.300038718428332 61.7749
7.322400526130865 61.0821
7.344745183422596 56.0118
7.367107550224791 52.4047
7.389452767901992 51.6919
7.411815697249891 51.4622
7.434161478756298 51.288000000000004
7.456524974096713 51.4464
7.478888753837185 51.527
7.501235387657368 52.699
7.523599738562711 58.6339
7.545946944825532 68.9086
7.568311870344528 72.8887
7.5906770845765665 65.8226
7.613025156078678 56.6046
7.635390950099687 53.6542
7.657739602662809 53.1363
7.680105979923558 52.6488
7.702472650212829 53.2187
7.724822180948224 53.239
7.747189439655568 53.3302
7.769539560075357 53.0688
7.791907410653562 53.8208
7.81425812420825 53.6829
7.836626570110925 53.8539
7.858995315087906 54.6307
7.881346924933401 54.611000000000004
7.903716270417482 55.1377
7.926068482028405 55.714
7.948438431475253 56.2344
7.9708086843180235 56.8727
7.993161805171116 57.495
8.015532667162402 57.4808
8.037886398416653 58.3122
8.060257873014221 58.9027
8.082629655331942 59.6689
8.104984308787587 60.3407
8.127356708900503 60.9609
8.149711981398308 62.1847
8.172085002766314 63.5191
8.194458336181368 64.0335
8.216814543847752 64.8909
8.23918850371002 65.6097
8.26154533906492 66.4962
8.283919928836452 67.6688
8.306277395339652 68.7821
8.328652618483376 70.6781
8.351028159736202 72.3298
8.373386579575245 73.8195
8.395762759396959 75.5894
8.418121819038275 77.936
8.440498640894003 81.4016
8.462875785192262 85.9656
8.485235811156207 94.0745
8.507613602688501 127.74799999999999
8.529974277114228 228.153
8.552352719347912 373.996
8.574731488360351 614.659
8.59709314210385 1090.37
8.619472567021075 1833.12
8.64183487789147 2289.32
8.664214962183097 1977.69
8.686577933647762 1119.51
8.708958680784317 416.83
8.731339760774953 171.791
8.753703729764451 109.445
8.77608547780821 94.54799999999999
8.798450116065078 90.8449
8.820832535634787 88.2841
8.843215292401656 86.8153
8.865580941199045 85.4322
8.887964374703538 84.11
8.910330701447199 83.51299999999999
8.932714815164482 83.2119
8.955099270424924 82.7268
8.977466620733543 81.7966
8.999851761421976 80.6665
9.022219798361645 80.0858
9.04460562795561 80.1232
9.066991803441677 79.7513
9.089360876979615 79.7526
9.111747746589993 79.3961
9.13411751544971 78.9201
9.156505082664324 78.6898
9.178875550323522 79.2323
9.20126381862328 81.6407
9.223652438908596 90.5304
9.246023961427412 106.365
9.26841328802173 113.10600000000001
9.290785518039224 103.12700000000001
9.313175554425882 89.2311
9.335565947154315 81.5189
9.357939245086508 79.7242
9.380330352834827 79.7247
9.40270436697103 80.1359
9.425096193225055 79.6432
9.447488380180165 80.587
9.469863475295412 80.4281
9.492256385987508 80.8448
9.514632206018318 81.5233
9.537025843935714 81.9923
9.559402392368193 82.3986
9.581796761000229 83.244
9.604191496441521 83.4313
9.626569144158516 84.1129
9.648964615551032 85.2826
9.671343000390081 86.6114
9.693739211225699 87.4164
9.716135793237463 87.4865
9.738515290448102 88.4427
9.760912617143402 89.5857
9.783292860202891 90.8504
9.805690935076182 91.6506
9.828089385495742 92.0962
9.850470754023561 94.0454
9.872869957865444 95.7358
9.89525208097539 98.8355
9.917652041736662 102.6
9.940052382417589 105.995
9.962435644102392 115.00399999999999
9.984836746950979 146.63
10.007220771957746 226.734
10.029622640473708 348.26300000000003
10.052007432299963 515.85
10.074410069984072 772.597
10.096813093716005 1198.8
10.119199042482517 1772.45
10.141602840636468 2102.06
10.163989564971628 1707.91
10.186394141051062 1022.36
10.208799107559706 449.402
10.231187001965623 201.793
10.253592751657669 125.03200000000001
10.275981430388155 107.40700000000001
10.298387966769793 103.367
10.320794897965431 101.979
10.343184759907361 100.565
10.36559248305461 99.1098
10.387983138083852 97.8814
10.410391656691655 98.8663
10.432800574501677 107.71600000000001
10.455192425893369 129.519
10.47760214443012 161.371
10.499994797678786 202.25400000000002
10.522405320453982 271.32599999999996
10.54479877906917 383.62300000000005
10.567210109595656 508.083
10.5896218454736 589.252
10.612016518879773 563.7669999999999
10.634429067781074 397.116
10.656824555333241 229.074
10.679237920773568 141.31
10.701651695961992 103.66
10.724048411481384 92.2802
10.746463008485165 85.6624
10.768860546937125 82.3945
10.791275969274796 80.0263
10.81369180576079 78.7183
10.836090585366925 77.5916
10.858507252467449 76.3698
10.88090686379991 75.8054
10.903324365036394 74.7101
10.925724811614439 73.7828
10.948143150509463 73.4253
10.970561909719066 72.3954
10.992963615930844 71.9893
11.015383218085756 70.665
11.037785768347074 69.8358
11.06020621697282 69.5095
11.082627090322113 68.8836
11.105030913430326 68.2062
11.12745263854165 67.8519
11.149857314510728 67.0436
11.172279894912576 67.9362
11.194702904450653 67.4154
11.217108866490921 66.2586
11.239532736615194 65.4286
11.26193956033512 65.2192
11.284364294577085 64.8095
11.306789462371718 64.133
11.329197585398376 63.9145
11.351623622610898 63.8399
11.37403261614354 63.1669
11.396459526308487 63.2507
11.418869393879497 62.7609
11.441297180532617 62.1794
11.463725406927658 61.7946
11.486136592353875 61.6899
11.508565700543707 61.0936
11.530977768845315 61.1931
11.553407762368774 61.3385
11.575838200059769 61.1636
11.598251599479612 60.9139
11.620682927815501 60.6833
11.64309721895548 60.9337
11.665529441478206 60.4551
11.687962112597958 60.0992
11.710377748130886 59.9989
11.732811318753434 59.7454
11.755227854859067 60.0262
11.777662328529495 59.5982
11.800079768750786 59.4714
11.822515149015453 59.5829
11.844950984084935 59.8835
11.867369787303163 59.8605
11.889806534289491 60.0186
11.912226250487029 61.8196
11.934663912939751 65.0207
11.9571020346363 67.8403
11.979523127133968 68.0428
12.001962169624331 66.2249
12.024384183972964 63.6581
12.046824150809913 64.0887
12.069264581333726 69.4322
12.091687985297767 76.5469
12.11412934550045 85.9348
12.136553680195208 98.6934
12.158995973632788 120.20100000000001
12.181438735204349 146.069
12.20386447284199 179.55
12.226308172985636 202.41299999999998
12.24873485024193 213.237
12.271179492516982 176.90099999999998
12.293607112949127 137.46
12.316052700916226 98.7896
12.338498763250042 74.3467
12.360927805303868 64.8234
12.383374818673879 62.2667
12.405804812803074 61.2721
12.428252780773262 60.9984
12.45070122756722 61.1323
12.473132656675375 61.2137
12.49558206341869 61.4932
12.518014453510101 61.2469
12.540464823770117 61.4158
12.562915677315177 61.3946
12.58534951575545 61.9839
12.607801338171472 61.9678
12.630236146511358 62.5456
12.652688941369085 63.5932
12.675124723177234 63.9535
12.697578494048786 64.3861
12.720032754458185 63.8268
12.742470003354093 64.4697
12.764925245138771 64.5423
12.787363476431278 64.8427
12.809819703166806 65.1585
12.83227642391173 65.8456
12.854716135692716 66.4697
12.877173846755147 67.5661
12.899614549869717 67.6762
12.9220732548287 68.8571
12.94453245827299 69.3123
12.966974655289818 70.158
12.989434858002571 71.0694
13.011878055298721 71.5541
13.034339260862497 72.6694
13.056800969391883 74.1543
13.079245674017244 76.7275
13.101708390774869 78.3759
13.12415410463411 82.5081
13.146617833206086 92.26700000000001
13.169064559883248 107.545
13.191529303857127 125.432
13.213994557076367 147.637
13.236442809902437 180.426
13.258909083908291 228.519
13.28135835851934 291.599
13.30382565690295 367.35400000000004
13.326293469022952 435.385
13.348744283242008 451.167
13.371213125129904 384.336
13.39366497011003 282.502
13.416134845360597 185.794
13.438605238843131 128.306
13.46105863690397 102.87799999999999
13.483530069144786 99.2217
13.505984506951902 106.91
13.528456981549432 120.04799999999999
13.550929978879088 135.826
13.573385983253365 156.67700000000002
13.595860028340867 189.255
13.618317081455832 235.92
13.64079217790333 297.036
13.663250283359057 355.809
13.685726434770173 392.038
13.708203115221277 362.777
13.730662806148091 288.65
13.75314054697177 207.063
13.775601299246777 138.36700000000002
13.798080104050406 100.899
13.820559442405358 84.6601
13.843021793671388 79.5283
13.865502201420897 77.5804
13.887965623051947 76.9358
13.910447103807167 75.8854
13.932929122629764 74.5493
13.955394156785959 74.1828
13.977877254034569 73.7263
14.000343367582113 72.7078
14.022827546871707 72.2449
14.045294743423524 71.4317
14.06778000837062 70.7993
14.090265817715476 71.2091
14.112734645763819 71.7639
14.13522154619454 73.3466
14.157691466286913 74.9211
14.180179461423874 75.4177
14.202668005486178 73.4596
14.22513957064374 70.8427
14.247629214846473 68.8503
14.270101881097517 67.8352
14.29259262906496 67.4002
14.315083930490205 67.4332
14.337558255389705 67.4831
14.360050666019726 67.2344
14.382526101071944 67.0182
14.405019624534942 66.6499
14.427513705993134 66.3069
14.449990813291825 66.242
14.47248601302899 66.2186
14.49496423954951 66.2879
14.517460561197822 66.2787
14.539939910570322 66.0002
14.562437357763558 66.3472
14.58493536931253 66.6913
14.607416409993311 66.6883
14.62991555254159 67.1226
14.652397725157423 67.0099
14.674898002342799 67.0635
14.697398848433282 67.262
14.719882725991326 68.1977
14.74238471217934 68.6317
14.764869730765593 70.5609
14.787372860692983 74.2946
14.809876564079925 80.8925
14.83236330125751 88.4754
14.854868153850365 97.4621
14.877356041159485 110.06
14.899862046604186 125.64
14.922351087688757 148.762
14.944858249632887 178.79
14.967365991421232 208.593
14.989856770231246 229.243
15.012365673994204 229.378
15.03485761569738 201.975
15.05736768508665 160.74200000000002
15.07987833888692 122.521
15.102372032001655 94.48299999999999
15.124883856909658 77.7142
15.14737872204565 71.1766
15.169891721717274 68.8398
15.192405310371893 67.9751
15.214901940621196 67.3819
15.237416709527137 66.6253
15.259914520936249 66.3603
15.282430473753607 65.8811
15.304947020131227 65.0557
15.327446610371178 65.0273
15.349964346154254 64.7975
15.372465126703139 64.2127
15.394984055556009 64.1262
15.417486030076159 64.0705
15.44000615566487 63.6649
15.462526881230803 63.5547
15.485030653812652 63.4643
15.507552581617434 63.5138
15.530057557334603 63.5779
15.55258069104857 63.4106
15.575104429329837 63.5597
15.597611216864632 63.4677
15.620136166564563 63.4964
15.6426441664095 64.0422
15.665170331202765 65.0086
15.687697105158826 68.4908
15.710206930593545 73.8078
15.732734925158933 79.449
15.755245972089478 86.6641
15.77777519094324 94.7062
15.800287463046663 105.565
15.822817909869592 122.48700000000001
15.84534897229804 143.69799999999998
15.867863089299354 169.143
15.890395385222186 190.75599999999997
15.912910736597423 202.692
15.935444269699861 193.736
15.957978423016485 169.368
15.980495633101265 134.684
16.003031029129367 104.682
16.02554948280019 81.5845
16.048086125229432 69.5058
16.070623392487107 64.9775
16.09314371869582 62.8873
16.11568223789321 61.2265
16.13820381691126 59.8366
16.160743591742527 59.1264
16.183283996022084 58.4052
16.205807461423195 57.4228
16.228349126881973 56.7557
16.25087385432698 56.8701
16.27341678466365 56.2606
16.29594277784926 56.0469
16.31848697676433 55.9502
16.341031811604868 55.2339
16.36355971058487 55.3273
16.3861058195587 55.0189
16.40863499352978 54.4702
16.431182380342005 54.1894
16.453730407713202 53.8254
16.476261501364792 53.6264
16.498810812136167 53.5493
16.52134319004079 53.615
16.54389378792203 53.1853
16.566445031001553 53.3059
16.588979342490088 53.1577
16.61153187824822 52.9994
16.634067483263312 52.788000000000004
16.656621315414416 52.7619
16.679175797408888 52.5182
16.701713349928728 52.6884
16.72426913389191 52.766999999999996
16.74680798922351 52.7659
16.76936507887444 52.7468
16.791905240734874 52.8217
16.814463639794468 52.5898
16.837022695210294 52.7644
16.859564824093756 52.9862
16.882125194503903 53.0308
16.904668639217885 53.5845
16.927230328348003 53.8724
16.949792678493612 54.1426
16.972338104193863 54.1225
16.994901778652235 53.8795
17.017448529496576 53.773
17.040013531998152 53.9056
17.06257920018044 54.1167
17.0851279459922 54.861999999999995
17.107694947817667 56.0925
17.130245028099072 56.8669
17.15281336730298 58.5061
17.17536478578733 60.183
17.19793446610687 62.1541
17.220504818648422 64.8133
17.243058251703697 67.7638
17.265629950971032 72.1509
17.288184731571736 77.0984
17.310757781306908 81.7377
17.33333150794385 83.3244
17.355888317140174 82.6546
17.37846339986244 78.9406
17.401021565958885 72.3819
17.42359800851343 66.2763
17.44617513265564 61.5152
17.468735341390783 58.9199
17.491261035594565 57.6643
17.51396340099364 57.1769
17.536490463869136 57.17
17.559018209820174 57.1823
17.58154663977963 57.1651
17.604251766089718 57.4026
17.626781572227713 57.7549
17.64931206518155 57.858999999999995
17.671843245885103 58.1081
17.69455114821572 58.3187
17.717083712612634 58.9633
17.739616967569667 59.243
17.762150914021706 59.8495
17.78486160749854 60.0523
17.807396945166804 60.6839
17.829932977143503 61.0838
17.85246970436452 61.7958
17.875183204129467 63.536
17.897721330097664 66.2945
17.920260154126645 69.7703
17.942799677153296 73.3636
17.9655159983646 77.2023
17.988056927677544 81.9265
18.010598558807683 88.788
18.033140892692916 97.6996
18.05586005052525 108.954
18.07840379824407 121.133
18.10094825154059 133.232
18.12366954819864 142.81799999999998
18.146215420998306 144.268
18.16876200220057 138.381
18.191309292745153 123.973
18.214033452627167 109.553
18.236582170236648 96.1583
18.259131600016456 88.1967
18.281681742907335 85.884
18.304408781233683 88.7981
18.32696035875955 94.2756
18.349512652227624 99.4597
18.372065662579683 105.323
18.394795594587553 107.79799999999999
18.41735004715306 104.712
18.43990521943684 99.0601
18.46246111238171 89.584
18.485193953325208 79.05199999999999
18.507751296070428 70.7122
18.530309362314178 65.7199
18.552868153000343 62.9788
18.57560391815056 61.3061
18.59816416623245 60.8289
18.620725141597372 60.1593
18.643286845190268 59.3827
18.666025549835414 58.8709
18.688588718427933 58.2307
18.711152618092243 58.1424
18.73389353884365 57.9919
18.75645890921984 57.358999999999995
18.77902501351406 56.9537
18.801591852673102 57.2584
18.824335739722738 56.5351
18.846904057212626 56.43600000000001
18.8694731124168 56.1231
18.89204290628315 56.1004
18.914789774966803 56.0331
18.937361054791623 55.7463
18.959933076131318 55.4217
18.982505839934877 55.3997
19.00525570560582 55.3864
19.027829963004184 55.0393
19.05040496572238 55.1724
19.072980714710468 54.9745
19.095733592739563 54.9817
19.11831084296757 55.1684
19.140888842324735 56.0035
19.16346759176222 56.2397
19.18622349753803 56.9799
19.208803755869358 58.1231
19.231384767143577 59.1747
19.253966532312948 60.4839
19.276725481241822 62.7505
19.29930876296784 65.4474
19.3218928014549 68.908
19.34465404436217 72.2247
19.36723960516257 74.988
19.389825925592426 76.2598
19.412413006605938 75.374
19.43517731967805 72.3417
19.457765930683355 67.8256
19.48035530514408 63.4526
19.50294544401556 59.6048
19.525712842708348 56.18899999999999
19.54830451925909 54.3898
19.570896963095727 53.0841
19.593490175174704 52.6443
19.616260674962184 52.5202
19.638855432416964 52.1012
19.661450960992624 52.1653
19.68404726164677 52.016999999999996
19.706820878021247 51.8188
19.729418731756834 52.1226
19.752017360452857 51.8707
19.77461676506804 51.8953
19.797393513540218 51.8316
19.819994478951667 52.025
19.84259622316767 52.6414
19.8651987471481 53.3651
19.887978643247177 53.7943
19.91058273574792 54.3456
19.933187610901943 55.2387
19.955969879466828 56.257
19.97857632894404 57.5537
20.00118356396599 58.8994
20.023791585494575 60.9315
20.046577028914875 63.8666
20.069186632506966 66.334
20.091797025500632 69.0049
20.114408208858933 70.5254
20.137196842715273 70.9827
20.159809615886765 69.3166
20.18242318232135 66.9164
20.20503754298326 64.3672
20.227829382875154 62.5367
20.250445341109344 61.968999999999994
20.27306209647285 62.3088
20.29567964993108 63.532
20.31847471147704 64.6309
20.34109387027612 65.6248
20.363713830075454 65.5953
20.386334591841646 64.1096
20.409132890679302 61.6891
20.431755265564437 58.2784
20.454378445325528 55.2511
20.477002430930366 52.9701
20.499803982716553 51.1773
20.522429589228004 49.8484
20.54505600449589 49.3795
20.567683229489194 49.3251
20.590488049900088 49.0015
20.61311690359731 48.7335
20.63574656993626 48.6893
20.658553853717297 48.4554
20.681185154618298 48.375
20.703817271080066 48.4237
20.72645020407368 48.1149
20.749260783967177 48.2329
20.771895359337133 48.1514
20.794530754161617 47.9931
20.817166969412938 47.8305
20.83998086114876 47.8548
20.86261872660049 47.7516
20.885257415405402 47.4053
20.90789692853701 47.3149
20.930714147864748 47.2997
20.953355319030678 47.347
20.97599731745334 47.3212
20.99864014410749 47.2575
21.021460706796564 47.4731
21.044105199328826 47.6783
21.06675052302631 47.8397
21.089396678865015 47.9063
21.112220600704806 48.2165
21.134868430275347 48.6922
21.15751709492456 48.8147
21.180166595629693 49.2066
21.202993892429635 49.5857
21.22564507473034 50.3001
21.24829709602816 50.5123
21.27112693608965 50.6114
21.293780644891275 50.5059
21.316435195634053 49.9779
21.339090589297417 49.0217
21.361923832041875 48.6042
21.384580921090404 48.0633
21.407238856007325 47.3876
21.429897637773326 47.2393
21.45273429906592 47.2496
21.475394784108598 47.1846
21.498056118951983 47.1622
21.520718304578022 47.4013
21.543558400304388 47.483000000000004
21.566222297108816 47.6179
21.58888704765135 47.6733
21.61155265291521 47.888999999999996
21.63439619898156 48.4577
21.657063523335786 48.8527
21.67973170537063 49.6801
21.7024007460706 50.0988
21.72524775840385 50.8937
21.747918526116475 51.7015
21.770590155457388 52.9079
21.79326264741238 54.365
21.816113141960237 55.9479
21.838787368860547 58.1679
21.861462461341976 60.4322
21.884315579735777 62.8341
21.90699241312273 64.6603
21.92967011506078 65.3655
21.95234868653799 65.383
21.9752053151131 64.0788
21.997885635446785 62.2323
22.020566828293532 60.0111
22.04324889464272 57.9806
22.066109049404666 56.4911
22.088792872571794 55.7966
22.111477572219204 55.8958
22.1341631493376 56.1288
22.157026846313123 55.9061
22.179714188221507 55.3839
22.202402410582668 54.3431
22.22509151438863 52.6384
22.24795876962584 51.2789
22.270649646204486 50.0011
22.293341407213727 49.1022
22.316034053646906 48.5855
22.338904883215342 47.9841
22.36159931041458 47.8827
22.38429462602756 47.6157
22.40699083104897 47.4779
22.429865251039757 47.52
22.452563244831367 47.6623
22.47526213102522 47.691
22.49813925616515 47.5298
22.520839937143307 47.4379
22.543541513520587 47.4678
22.56624398629403 47.4903
22.589124730075895 47.4515
22.611829005656723 47.5183
22.63453418063466 47.5773
22.657240256008077 47.7253
22.680124634582935 47.81
22.70283252079775 48.2431
22.725541310413075 48.7456
22.74825100442868 49.1237
22.771139033969575 49.6867
22.79385054687155 49.8334
22.81656296718292 50.3676
22.83927629590484 51.0866
22.862167992606945 52.1333
22.88488314827121 53.3495
22.907599215359284 54.3326
22.93031619487366 55.8251
22.953211574954405 56.7993
22.975930389478226 57.6642
22.998650119445763 58.1056
23.02137076586092 57.4869
23.044269845560063 56.3562
23.06699233506288 54.8253
23.089715744034912 52.8693
23.112617610931565 50.9919
23.135342869061212 49.6404
23.158069049684816 48.6451
23.1807961538087 48.0398
23.20370174880544 47.9472
23.226430710184808 47.6929
23.249160598093425 47.8274
23.271891413539002 47.7738
23.294800752937697 47.9214
23.31753343374794 48.2534
23.340267045128353 48.4188
23.36300158808808 48.8856
23.38591468821339 49.4523
23.408651104658304 49.8592
23.431388455719986 50.3296
23.454126742409 51.2957
23.4770436196085 52.2046
23.499783787914662 53.5267
23.522524894889884 54.6042
23.54526694154616 55.8767
23.56818761219047 57.2153
23.59093154860734 58.0587
23.613676427751283 58.7207
23.636422250635754 57.9167
23.659346731118656 56.3014
23.68209445191868 54.4224
23.704843119509587 52.1648
23.72759273490623 50.0469
23.750521041644767 48.3513
23.77327256312355 46.8985
23.796025035462787 46.0247
23.818956224555475 45.4226
23.841710609113413 45.2279
23.86446594758979 44.9086
23.887222241002014 44.6252
23.910157285144578 44.3938
23.932915498962537 44.3422
23.955674670778713 44.1165
23.978434801611975 44.1658
24.001373717286125 43.8439
24.024135776723917 43.8395
24.046898798245582 43.6549
24.06966278287146 43.4305
24.092605586582614 43.1921
24.115371508023642 43.0778
24.1381383956401 43.1133
24.16090625045381 43.0593
24.183852958731244 42.8683
24.206622758582608 42.7951
24.229393528706886 42.5567
24.252165270127392 42.8161
24.27511589952438 42.7324
24.297889594216997 42.4159
24.32066426328598 42.3187
24.34343990775613 42.345
24.36639447485003 42.335
24.38917208083877 42.2124
24.41195066531332 42.1307
24.43490819850244 42.148999999999994
24.457688750692377 42.0155
24.48047028445616 42.0039
24.503252800821233 42.2618
24.526214300784112 42.1454
24.548998793132213 42.1049
24.57178427117417 41.9898
24.59457073593893 42.0928
24.617536219319863 42.1136
24.64032466834748 42.0295
24.663114107195035 42.0121
24.685904536893013 41.7993
24.708874020360852 41.6685
24.731666442613744 41.5409
24.754459858818787 41.482
24.777254270007962 41.2782
24.80022777025625 41.2331
24.82302418230472 41.3155
24.845821592443674 41.2964
24.86862000170663 41.2845
24.891597535453727 41.2927
24.914397953892728 41.4009
24.93719937456671 41.4478
24.96000179851076 41.5115
24.98298338249997 41.7372
25.00578782394922 41.8867
25.028593271784167 41.9906
25.05157790644186 42.5416
25.07438537804115 42.5648
25.097193859145293 43.0288
25.120003350792075 43.1972
25.142992065061257 43.5997
25.165803588823465 43.8908
25.18861612625217 44.2766
25.211429678386736 44.292
25.234422489079968 44.3779
25.257238081693636 44.3602
25.280054692141732 44.4932
25.3028723214652 44.5017
25.325869245420463 44.6062
25.348688923599397 44.6531
25.371509623787006 44.6837
25.394331347025812 44.3731
25.41733240110666 43.93
25.440156181590016 43.2144
25.46298098826268 42.7069
25.48580682216873 42.0561
25.50881202326435 41.3981
25.53163992281684 40.8739
25.55446885274561 40.5363
25.577298814096377 40.1451
25.600308179121807 40.0526
25.623140214533745 40.1828
25.64597328451537 40.0931
25.66898578564376 39.6582
25.691820936010206 39.7924
25.714657124097695 39.7868
25.737494350954734 39.8454
25.760511045684957 39.6565
25.783350361364224 39.6987
25.806190718969255 39.8013
25.82903211955018 39.8995
25.852053024868923 39.9058
25.874896522722523 39.8488
25.897741066713106 39.677
25.920586657892454 39.9448
25.943611790812668 40.1877
25.966459487728237 40.2814
25.989308234998564 40.2809
26.01215803367705 40.8609
26.03518741123814 40.8673
26.05803932412957 40.9357
26.080892291600094 41.0052
26.10374631470478 40.941
26.12677995397268 41.18600000000001
26.14963609978026 41.3208
26.172493304397875 40.9852
26.19535156888223 40.7991
26.218389486949604 40.3131
26.241249882640123 40.0762
26.26411134137826 39.8321
26.28715248187403 39.7603
26.31001607820869 39.4491
26.3328807407756 39.2518
26.35574647063438 39.4821
26.37879191991473 39.4185
26.401659795896734 39.4475
26.424528742360263 39.5941
26.447398760366614 39.7186
26.470448535598294 39.8
26.49332070826805 40.0014
26.516193955675355 40.4896
26.53906827888316 40.6841
26.562122397260108 40.7981
26.584998883685063 41.3243
26.607876449110325 41.6438
26.63075509460056 41.8616
26.65381357334404 41.8993
26.67669439061878 41.9198
26.699576291163382 41.9226
26.722459276044212 41.769
26.745522132402975 41.4569
26.768407297649354 41.22
26.791293550442003 40.8354
26.814180891848974 40.5583
26.837248143099337 40.218
26.860137673466657 40.2656
26.88302829566349 39.864000000000004
26.90592001075963 39.6976
26.92899167420566 39.5925
26.951885586870763 39.0367
26.974780595655517 38.9307
26.99785558178161 38.7273
27.020752794605112 38.4903
27.043651106772522 38.2706
27.06655051935668 38.1998
27.089629948036183 38.1724
27.112531573292053 38.0316
27.135434302194138 38.0458
27.158338135817015 37.869
27.181422024430987 37.9855
27.204328079372566 37.9248
27.22723524226965 37.9857
27.250143514198573 37.9458
27.273231880156334 38.049
27.296142382065014 37.8012
27.319053996245536 37.7912
27.341966723775965 37.75
27.365059584515222 37.7878
27.38797455070062 37.9292
27.410890633481237 37.7724
27.433807833936918 37.8648
27.456905206923906 37.9265
27.47982465472398 37.85
27.502745223449743 38.0144
27.525666914182825 38.23
27.548768816912457 38.0642
27.571692763693633 37.9916
27.59461783573812 37.9802
27.617723149491244 37.739000000000004
27.640650484125285 37.7293
27.66357894728264 37.6669
27.686508540048052 37.5387
27.709618414237887 37.4218
27.732550278321757 37.2122
27.755483275279115 37.2887
27.778417406196485 37.4541
27.801531858397514 37.4403
27.824468269376716 37.2653
27.847405817586786 37.2437
27.870344504116094 37.4012
27.893463551932008 37.5122
27.916404527281053 37.6926
27.93934664422563 37.8621
27.962289903855886 37.9684
27.98541356491974 38.3047
28.00835912214229 38.4809
28.03130582533231 38.7243
28.054253675581805 38.8205
28.077381967556104 38.9344
28.100332124185126 38.8651
28.123283431160893 38.8326
28.146235889577238 38.7163
28.169368830154156 38.4936
28.192323603752033 38.3403
28.215279532083304 38.0541
28.238415973016764 37.841
28.261374223145094 37.5964
28.284333631303806 37.3084
28.307294198589954 37.2044
28.330435319167677 36.8321
28.353398217078915 36.58
28.376362277420153 36.2809
28.39932750129032 36.1198
28.422473319286713 35.9841
28.44544088262495 35.9449
28.468409612800283 35.7197
28.491379510913497 35.5229
28.51453004413313 35.4393
28.53750229057244 35.4098
28.56047570826344 35.1447
28.583450298308804 35.3139
28.606605564586562 35.1203
28.629582511831156 35.1663
28.65256063474956 35.0073
28.675539934446338 35.0463
28.698699951647605 35.0743
28.72168161743193 34.9628
28.74466446331978 34.8589
28.767648490417624 34.8847
28.790813276438353 34.7467
28.813799678527303 34.7916
28.836787265157085 34.8352
28.859955641890075 34.9426
28.882945610203045 34.8426
28.905936766392035 34.8045
28.928929111566863 34.8299
28.952102288520145 34.7089
28.975097024308607 34.6643
28.998092952423807 34.4751
29.021090073977508 34.403
29.04426806913204 34.2683
29.067267590245258 34.1391
29.090268308143695 34.0602
29.11327022394099 33.9727
29.13645305530891 33.8158
29.159457379627167 33.909
29.18246290519685 33.7325
29.20546963313352 33.7252
29.22865731875826 33.8022
29.25166646419296 33.8094
29.27467681535305 33.6794
29.29768837335608 33.7744
29.320880931312562 33.7153
29.34389491580634 33.7593
29.366910110507334 33.6467
29.38992651653503 33.7225
29.41312396492981 33.7995
29.436142806456754 33.6602
29.45916286268059 33.6054
29.48236399319994 33.5235
29.50538649169417 33.35
29.528410208259935 33.2571
29.55143514402014 32.9545
29.574641196749695 32.9055
29.597668583816574 32.7659
29.6206971934585 32.6037
29.64372702680042 32.6859
29.666938019934474 32.5536
29.689970313635285 32.4155
29.713003834422636 32.4216
29.73603858342347 32.2898
29.759254535188578 32.2871
29.78229175361658 32.1915
29.80533020365064 32.3163
29.82836988641968 32.3584
29.85159081507472 32.2397
29.874632976355343 32.1474
29.89767637376955 32.1503
29.920721008448314 32.0953
29.9439469322847 32.0996
29.96699405457564 32.0642
29.9900424175358 32.111
30.013092022298157 32.0049
30.03632295963995 31.9522
30.059375061131373 31.9165
30.08242840783577 32.001999999999995
30.105483000888153 31.9776
30.128718970092244 31.8785
30.151776069006917 31.8286
30.17483441768648 31.8901
30.198074175317235 31.7934
30.221135036724256 31.8358
30.24419715131772 31.8099
30.267260520236203 31.6939
30.290505341942243 31.8192
30.313571232750228 31.8321
30.336638381310948 31.8448
30.35970678876503 31.7522
30.38295669299435 31.6583
30.40602763151657 31.6405
30.429099832366074 31.6165
30.452173296685572 31.5557
30.47542830191959 31.6055
30.498504306502497 31.6308
30.521581577995562 31.793000000000003
30.544660117543582 31.698
30.56792024229725 31.785999999999998
30.59100133132069 31.6621
30.614083691845494 31.6312
30.637167325018545 31.7775
30.660432587840603 31.8514
30.683518779717886 31.8251
30.70660624769615 31.8114
30.729694992924372 31.8267
30.75296541239743 31.8655
30.77605672557558 31.8319
30.799149319462742 31.7672
30.8224236211637 31.7108
30.845518789950724 31.6768
30.868615242910597 31.5237
30.891712981195973 31.2891
30.91499247215866 31.3259
30.938092794619365 31.166999999999998
30.96119440587579 31.0932
30.984297307082752 30.9984
31.00758200598383 30.862
31.030687500658694 30.7881
31.053794288760695 30.7109
31.076902371446767 30.6306
31.100192296997445 30.6306
31.12330298246119 30.5803
31.14641496599209 30.4594
31.169528248749216 30.599
31.19282341969534 30.4723
31.215939314557186 30.5945
31.239056512134788 30.6159
31.262175013589378 30.500999999999998
31.28547544871168 30.4451
31.30859657161541 30.3287
31.331719001892175 30.3798
31.35484274070538 30.5496
31.378148458819545 30.5126
31.401274828443725 30.4959
31.424402510106933 30.4975
31.447712205419993 30.6311
31.470842524931633 30.4424
31.493974159989783 30.5145
31.51710711176168 30.5062
31.54042212308802 30.4701
31.563557722100917 30.4901
31.586694641341655 30.2827
31.609832881979628 30.1683
31.63315322823208 30.1946
31.656294125521327 29.9928
31.679436347728515 29.9668
31.70257989602529 29.8819
31.725905596152327 29.7828
31.74905181052835 29.7409
31.772199354521323 29.8594
31.79534822930507 29.8307
31.818679302290967 29.8144
31.84183085259981 29.8106
31.864983737233473 29.8293
31.88813795736804 29.7905
31.911474422233013 29.679000000000002
31.934631327356435 29.5994
31.9577895715215 29.6248
31.980949155906522 29.6861
32.004291031706956 29.6549
32.027453310562606 29.5489
32.05061693318573 29.4709
32.07396288236386 29.4637
32.09712920658542 29.4395
32.12029687812702 29.2522
32.14346589817093 29.1857
32.166817291729984 29.1861
32.18998902288583 29.0575
32.21316210610336 28.9896
32.23633654256711 28.8308
32.259693399663725 28.7977
32.282870556771144 28.6967
32.30604907069099 28.7151
32.329228942610065 28.7333
32.35259128243769 28.6265
32.375773884550505 28.5426
32.398957848235646 28.5438
32.422143174682176 28.4388
32.445511016471215 28.3841
32.468699082679954 28.3536
32.49188851523011 28.2446
32.51507931531304 28.1373
32.538452678331 28.2514
32.56164622776311 28.0755
32.58484114831493 28.0094
32.60803744118015 28.092
32.631416344731896 28.0969
32.654615396551876 28.0244
32.67781582427913 28.0079
32.701198898634416 27.8057
32.72440209253756 27.8212
32.747606665947124 27.8329
32.77081262006088 27.6582
32.79420126883317 27.6763
32.81740999876112 27.7502
32.840620112999424 27.6829
32.86383161274818 27.7411
32.88722585534586 27.6492
32.91044014056596 27.7557
32.933655814909734 27.7104
32.95687287957963 27.7006
32.98027273544904 27.5561
33.00349259526636 27.444000000000003
33.026713849030116 27.5405
33.04993649794511 27.5172
33.073341986570746 27.3593
33.09656744032826 27.4037
33.11979429286444 27.4518
33.14302254538647 27.4222
33.166433686291185 27.4076
33.18966475336992 27.3887
33.212897224069096 27.2042
33.23613109959831 27.2035
33.259547912343415 27.2569
33.2827846121627 27.1645
33.306022720453775 27.1027
33.32926223842861 27.0234
33.352684742614166 27.0917
33.37592709463173 27.1034
33.399170859982064 26.9622
33.422597648419426 26.8197
33.44584425514446 26.7195
33.46909227885668 26.6702
33.4923417207723 26.563000000000002
33.51577423505344 26.5547
33.539026528130385 26.4648
33.56228024307245 26.5082
33.585535381098246 26.3434
33.60897364093058 26.3327
33.63223163992385 26.3589
33.6554910656699 26.397
33.678751919389796 26.3546
33.702195944520106 26.1704
33.72545966903325 26.2175
33.74872482519663 26.1398
33.771991414233746 26.1698
33.79544122444841 26.0454
33.81871069412428 25.9715
33.84198160035767 25.976999999999997
33.86525394437455 26.0958
33.88870955949969 25.9275
33.911984794020626 25.9438
33.93526147001624 25.89
33.958539588715006 25.8579
33.98200102861669 25.8196
34.0052820477047 25.6381
34.02856451319451 25.6645
34.05203033759056 25.6407
34.07531571090147 25.6562
34.09860253431845 25.5735
34.121890809074316 25.4196
34.145362493118924 25.5131
34.16865368561615 25.3907
34.191946333164054 25.4767
34.21524043699793 25.4034
34.23871800066799 25.3792
34.26201503218366 25.3188
34.28531352370466 25.2468
34.30861347646881 25.2288
34.33209693978188 25.2017
34.3553998301885 25.1419
34.378704185565205 25.1157
34.402010007152356 25.0348
34.42549939016683 25.0212
34.44880815937748 24.9279
34.472118398533134 24.9156
34.49543010887669 24.8416
34.51892543169198 24.7353
34.54224009966052 24.7569
34.56555624255917 24.7593
34.58887386163339 24.6878
34.61237514439016 24.5837
34.6356957311114 24.6038
34.65901779775809 24.5102
34.68252356662995 24.5139
34.705848608458616 24.489
34.72917513396849 24.5213
34.75250314440949 24.4517
34.77601490857862 24.383000000000003
34.799345904259795 24.3355
34.82267838863559 24.4171
34.846012362958525 24.3043
34.869530142679984 24.3093
34.89286711232212 24.2317
34.91620557568269 24.2892
34.93954553401677 24.1772
34.9630693495876 24.1451
34.986412313340814 24.1488
35.00975677584668 24.0483
35.033102738362956 24.0063
35.05663261012228 23.9887
35.0799815881786 23.9535
35.10333207003229 23.9377
35.12668405694369 24.0224
35.150220005273056 23.8801
35.17357501786656 23.951999999999998
35.19693153931268 23.8146
35.220289570874385 23.8375
35.24383161619786 23.9156
35.267192683604904 23.8602
35.290555264930376 23.8556
35.314101899412165 23.7391
35.33746752422433 23.7509
35.36083466676374 23.748
35.38420332829803 23.6801
35.407756095629054 23.7262
35.43112781085063 23.7425
35.45450104888391 23.6189
35.477875810999194 23.6401
35.50143473172161 23.4749
35.52481255774625 23.6289
35.54819191167777 23.5215
35.57157279478914 23.5538
35.595137889488406 23.5041
35.61852184675279 23.4204
35.641907337029984 23.4171
35.665294361595684 23.3161
35.68886565090076 23.1904
35.7122557598848 23.2689
35.73564740699838 23.2469
35.759040593519934 23.0574
35.78261809810353 23.0797
35.80601437933051 22.9949
35.829412203814705 22.9507
35.85281157283719 22.8866
35.876395313415884 22.9798
35.8997977874528 22.8254
35.92320180988546 22.8837
35.946790244133936 22.8133
35.97019737933222 22.8436
35.993606066789866 22.7749
36.01701630779276 22.6984
36.04061101440684 22.686999999999998
36.06402437852291 22.6712
36.08743930005611 22.6382
36.1108557802951 22.5646
36.13445678011326 22.5773
36.15787639383515 22.4893
36.18129757014299 22.4184
36.20472031032821 22.4449
36.22832762423364 22.3737
36.25175350829375 22.4524
36.275180960119776 22.3482
36.298609981005924 22.3575
36.32222362992669 22.3568
36.34565580510207 22.3456
36.36908955323448 22.2593
36.39252487562093 22.1365
36.416144880530226 22.1113
36.43958336764275 22.1025
36.463023432914625 22.141
36.486465077645676 22.0539
36.51009145956204 22.1289
36.53353627947859 22.105
36.55698268276811 22.0707
36.58043067073321 22.0317
36.60406345072071 21.8888
36.62751462435344 21.914
36.65096738658405 21.8318
36.67460498210655 21.8406
36.69806093788647 21.8809
36.72151848619297 21.666999999999998
36.744977628333636 21.7327
36.76862165890998 21.7367
36.79208400512205 21.6675
36.81554794910557 21.6015
36.83901349217101 21.4717
36.862663978991606 21.4937
36.88613273667352 21.4667
36.90960309738324 21.4704
36.933075062434064 21.4152
36.95673202673572 21.4302
36.98020721697122 21.3519
37.003684015502365 21.276999999999997
37.027162423645365 21.2725
37.050825886711465 21.2793
37.07430753063053 21.1604
37.09779078812467 21.1805
37.121275660513014 21.1401
37.144945643673694 21.0723
37.16843376245278 21.0708
37.19192350009803 21.1289
37.215414857931435 21.0467
37.239091382563885 20.9418
37.262585997426164 20.9442
37.28608223645736 20.9494
37.309763684451696 20.8927
37.33326318851098 20.8215
37.356764320726555 20.8284
37.380267082425526 20.8977
37.40395510942588 20.78
37.42746114683234 20.6963
37.45096881771841 20.6953
37.474478123414166 20.677
37.49817275092816 20.6432
37.52168534303452 20.5924
37.54519957395567 20.5381
37.568715445024665 20.5394
37.592416694607714 20.4974
37.61593586281424 20.5212
37.63945667518264 20.5188
37.66297913304891 20.4295
37.68668702630454 20.4481
37.710212792059274 20.3483
37.733740207334854 20.2949
37.757269273470364 20.2391
37.780983832050374 20.2782
37.80451621684926 20.2872
37.82805025654007 20.1685
37.851585952464795 20.211
37.8753071980695 20.1154
37.89884622345676 20.047
37.92238690911902 20.1178
37.94611318753442 20.0072
37.969657210779765 19.9523
37.99320289834801 20.0069
38.016750251586465 19.9054
38.04048325513017 19.8982
38.06403395679343 19.8956
38.087586328183946 19.7839
38.11114037065203 19.7963
38.13488012115898 19.7854
38.1584375229181 19.7452
38.181996599821 19.6872
38.205557353221124 19.6882
38.229303872575656 19.6164
38.2528679961576 19.6249
38.27643380031219 19.6268
38.30000128639589 19.5215
38.32375459653193 19.4998
38.34732546371299 19.5385
38.37089801690786 19.3995
38.39447225747609 19.4003
38.418232380377425 19.3983
38.441810012983396 19.3937
38.46538933705673 19.3656
38.488970353960084 19.2917
38.51273731166058 19.2411
38.536321731567014 19.2547
38.55990784840681 19.2715
38.58367995004091 19.1677
38.60726947812959 19.1182
38.63086070726198 19.1019
38.654453638806274 19.1967
38.678232613930824 19.0589
38.70182896773327 18.9374
38.72542702806741 18.9879
38.7490267963045 19.0358
38.77281266709232 18.9456
38.79641586862214 18.8718
38.8200207821842 18.8202
38.843627409152944 18.8428
38.86742019782782 18.8447
38.891030269149255 18.7967
38.914642058016156 18.7249
38.938255565806124 18.7109
38.96205529464307 18.6528
38.98567225787121 18.727999999999998
39.00929094417078 18.6051
39.03291135492255 18.6579
39.05671804624804 18.6344
39.080341923549106 18.5284
39.103967529460334 18.4794
39.127594865365744 18.4652
39.15140854155791 18.4
39.17503935514948 18.4237
39.19867190290282 18.3926
39.22249083587951 18.3686
39.24612686969409 18.4236
39.269764641845306 18.3425
39.293404153722804 18.3068
39.317230110864074 18.1971
39.34087311998506 18.1721
39.36451787301696 18.2672
39.388164371352595 18.1607
39.41199737518003 18.1363
39.43564738196752 18.1173
39.45929913825317 18.0797
39.48295264543308 18.101
39.506792718520884 18.0323
39.530449745387216 18.0198
39.55410852735203 17.9874
39.57776906581474 17.9622
39.60161623079 17.8912
39.625280300200025 17.8775
39.64894613032202 17.8587
39.67261372255866 17.8089
39.6964680021016 17.7554
39.72013913657293 17.7788
39.74381203738292 17.7605
39.76748670593756 17.7103
39.79134812278169 17.6971
39.81502634488497 17.6186
39.83870633896685 17.5889
39.862388106436654 17.565
39.88625668336918 17.5803
39.90994201572829 17.5424
39.933629125719285 17.5609
39.957503091207826 17.4887
39.9811937746168 17.5081
40.00488623990914 17.4368
40.02858048850006 17.3649
40.05246165409549 17.381
40.076159487492085 17.3551
40.099859108448875 17.338
40.123560518384345 17.2796
40.1474489070226 17.2778
40.171153913178564 17.2362
40.194860712584955 17.1513
40.2185693066637 17.2215
40.242464941335314 17.1293
40.26617714307655 17.1067
40.289891143772046 17.1176
40.3136069448471 17.0653
40.33750984859743 17.0744
40.3612292688043 17.0298
40.3849504936829 16.9852
40.40867352466194 17.0389
40.43258372059144 16.9194
40.45631038219906 16.8903
40.48003885420956 16.8353
40.503769138055105 16.9176
40.52768664931955 16.857
40.55142057531802 16.8219
40.57515631746428 16.7682
40.599079334038514 16.7636
40.62281872700477 16.6885
40.64655994043941 16.6526
40.67030297578061 16.6949
40.69423334835778 16.6922
40.71798004609188 16.6315
40.74172857006355 16.6505
40.76547892171441 16.6241
40.7894166736039 16.5655
40.813170699248566 16.4796
40.83692655691388 16.5357
40.86068424804498 16.4537
40.884629402612525 16.4589
40.908390779366385 16.4717
40.932153993938 16.392
40.95591904777605 16.3809
40.979871628443995 16.3483
41.003640379561936 16.3117
41.02741097430883 16.3037
41.05118341413683 16.2773
41.075143444384416 16.2608
41.098919593177826 16.2148
41.1226975914255 16.2038
41.14647744058318 16.1789
41.170444943946755 16.1257
41.19422851378379 16.1139
41.218013938914645 16.0405
41.24198706625173 15.9979
41.26577622087193 16.0398
41.289567235177785 15.9608
41.31336011063129 15.9296
41.337340752422875 15.8903
41.361137369129835 15.9468
41.38493585138705 15.8897
41.40873620066004 15.8933
41.43272438060107 15.8052
41.45652848292052 15.7575
41.48033445666918 15.7379
41.50414230331616 15.7726
41.528138045159764 15.7424
41.551949656675205 15.6665
41.575763145513235 15.6562
41.59957851314666 15.6424
41.62358184070442 15.6195
41.64740098505737 15.6217
41.6712220126409 15.5566
41.69504492493139 15.5443
41.71905586207357 15.5343
41.74288256296395 15.469000000000001
41.766711153007456 15.5247
41.79054163368412 15.4576
41.814560204340054 15.4528
41.838394485526365 15.3918
41.86223066180303 15.3524
41.88625497706819 15.3301
41.910094962812 15.3494
41.93393684811168 15.3436
41.95778063445365 15.2583
41.981812625263366 15.2204
42.00566023303407 15.2569
42.029509746323676 15.2007
42.05336116662236 15.1557
42.077400857069705 15.1468
42.10125611078846 15.1139
42.12511327600405 15.134
42.14897235421036 15.0478
42.173019768448455 15.062999999999999
42.19688269209613 14.9688
42.22074753323349 15.0107
42.24461429335818 14.9552
42.268669455600495 14.9294
42.292540073217886 14.9386
42.31641261433284 14.9277
42.34028708044675 14.8654
42.36435001496739 14.8325
42.38822835065557 14.845999999999998
42.41210861586426 14.7581
42.4359908120986 14.7776
42.46006154323262 14.7176
42.48394762115317 14.712
42.507835634632315 14.6939
42.531912233047436 14.6744
42.55580413732265 14.6041
42.579697981698 14.5672
42.60359376768525 14.5637
42.62767820545945 14.578
42.65157789440821 14.5672
42.67547952952185 14.5355
42.699383112316 14.5496
42.72347541395347 14.4222
42.74738291190531 14.4799
42.771292362102166 14.4456
42.795203766063516 14.382
42.819303956130405 14.352
42.843219287476536 14.2833
42.86713657716324 14.2457
42.89105582671383 14.2916
42.91516392983864 14.2736
42.939087119032166 14.2794
42.963012272677304 14.1979
42.98693939230129 14.2155
43.01105543317513 14.1753
43.034986504731386 14.1599
43.05891954686589 14.1436
43.08285456110972 14.1907
43.10697856448665 14.1014
43.130917542983475 14.0326
43.15485849820081 14.0134
43.17880143167367 13.9565
43.20293342237094 13.9098
43.226880332449 13.8788
43.25082922540554 13.8744
43.27496722682525 13.8738
43.29892010567796 13.8232
43.32287497204102 13.8487
43.34683182745632 13.8153
43.370977859791836 13.7888
43.39493871351105 13.7265
43.41890156092628 13.7798
43.44286640358341 13.7272
43.46702049182749 13.7288
43.49098934522816 13.6983
43.51496019852649 13.6589
43.5389330532723 13.6045
43.56309522248204 13.6387
43.58707210044314 13.6116
43.61105098451946 13.5511
43.63503187626491 13.5564
43.659202151562134 13.5156
43.68318707902681 13.5058
43.70717401884041 13.4874
43.731162972560874 13.4772
43.75534137913236 13.4133
43.779334381108384 13.3871
43.803329401683186 13.3837
43.82732644241872 13.4053
43.8515130055166 13.3528
43.87551410707659 13.3044
43.89951723350145 13.2806
43.923709934595614 13.2393
43.94771713129917 13.2597
43.97172635758096 13.2259
43.99573761501002 13.1913
44.0199385169922 13.1788
44.04395385732619 13.1729
44.067971233533086 13.1634
44.09199064718605 13.1172
44.11619977548961 13.0828
44.14022328470671 13.0747
44.16424883610785 13.0651
44.18827643127035 13.0043
44.21249381139513 12.9626
44.236525514814076 12.9325
44.26055926674478 12.9458
44.28459506876863 12.9922
44.3088207262813 12.9236
44.33286064928722 12.8586
44.35690262714919 12.8718
44.38094666145278 12.8476
44.4051806219871 12.8365
44.42922879003185 12.8174
44.45327901929361 12.7659
44.477331311362136 12.7845
44.501573600619416 12.7131
44.525630039221795 12.6541
44.54968854541895 12.7039
44.573937102200176 12.6607
44.5979997645541 12.6713
44.622064499300315 12.6232
44.64613130803592 12.5969
44.67038823869318 12.6124
44.69445921643748 12.5282
44.718532272981385 12.497
44.742607409926194 12.5146
44.76687274034801 12.4713
44.79095205918753 12.4781
44.81503346325094 12.4589
44.839116954143876 12.4223
44.86339071028742 12.4169
44.88747839599524 12.3863
44.91156817336837 12.327
44.93566004401666 12.2979
44.959942251908146 12.2916
44.984038330325966 12.2705
45.00813650686762 12.2013
45.03223678314731 12.214
45.05652746888232 12.1834
45.08063196592069 12.1735
45.104738567558705 12.194
45.128847275414856 12.1574
45.15314646515866 12.1027
45.17725940679741 12.151
45.20137445952892 12.0775
45.22568004865265 12.0917
45.24979934496396 12.026
45.27392075725247 12.0444
45.29804428714431 12.0357
45.322358426247604 11.9966
45.346486212804315 11.9708
45.370616121861914 11.9663
45.39474815505086 11.9406
45.41907087049246 11.8244
45.4432071734666 11.8544
45.46734560548283 11.8741
45.49148616817604 11.8196
45.51581748638564 11.8049
45.5399623320197 11.7951
45.56410931325473 11.762
45.58825843173002 11.7645
45.61259837920865 11.7507
45.636751793816 11.7294
45.66090735060093 11.6897
45.68506505120716 11.6864
45.7094136545275 11.6279
45.73357566449271 11.587
45.75773982322992 11.5717
45.78190613238733 11.5551
45.806263418194064 11.512
45.83043404997326 11.5311
45.85460683713677 11.5038
45.87897065658495 11.4858
45.90314777634752 11.4925
45.92732705646868 11.4625
45.9515084986045 11.4458
45.97588104735473 11.4558
46.00006683541565 11.4009
46.02425479047904 11.3879
46.04844491420549 11.3913
46.0728262191024 11.3493
46.09702070211635 11.3484
46.12121735879483 11.3116
46.14541619080294 11.3067
46.169806278764455 11.2794
46.194009483459034 11.2311
46.21821486849841 11.234000000000002
46.24242243555223 11.1969
46.266821333570014 11.1608
46.29103328674601 11.1393
46.31524742696538 11.2133
46.33946375590237 11.1102
46.36387149104216 11.1157
46.38809221957392 11.0498
46.41231514186606 11.0502
46.436540259597464 11.0418
46.460956858999374 11.0319
46.48518638983522 10.9678
46.509418121166966 10.9616
46.533652054678114 10.9589
46.55807754555709 10.9465
46.58231590571962 10.9307
46.60655647313217 10.8728
46.630988654873654 10.8681
46.655233659129024 10.8272
46.67948087571551 10.8476
46.70373030632484 10.8122
46.72817142736393 10.8304
46.752425308428684 10.7484
46.77668140861147 10.7463
46.80093972960865 10.6766
46.82538981736788 10.6644
46.849652602470904 10.6636
46.87391761349769 10.6077
46.8981848521493 10.6254
46.9226439341274 10.6329
46.946915650573224 10.6203
46.97118959976749 10.6037
46.99546578341598 10.6036
47.019933887188216 10.5612
47.04421456235744 10.5096
47.06849747711879 10.5387
47.09278263318286 10.5509
47.11725978640143 10.4871
47.14154944775105 10.4501
47.165841355555656 10.4162
47.1901355115306 10.4419
47.214621741924994 10.4285
47.23892041698887 10.3813
47.26322134538975 10.3339
47.28771440635075 10.3295
47.31201986422527 10.3504
47.33632758061436 10.289000000000001
47.360637557241866 10.2653
47.38513974410611 10.2308
47.40945426407847 10.2182
47.43377104948137 10.2199
47.45809010204344 10.203
47.48260144275502 10.1715
47.506925052572285 10.1792
47.53125093475548 10.1637
47.55557909103813 10.1461
47.58009961361992 10.0942
47.60443234110732 10.0991
47.62876734791564 10.1036
47.65310463578333 10.0764
47.6776343683373 10.0678
47.7019762413987 10.026
47.72632040075572 10.0136
47.75066684815169 10.0014
47.77520581885936 10.0104
47.799556865477655 9.94785
47.823910205386 9.97043
47.84826584033272 9.932910000000001
47.87281407745551 9.86829
47.89717432569297 9.86623
47.92153687423484 9.83597
47.94609208429692 9.87854
47.97045925671401 9.81883
47.99482873471275 9.79424
48.01920052005013 9.758980000000001
48.04376504619224 9.730189999999999
48.068141469543484 9.76285
48.09252020552573 9.75136
48.11690125590099 9.70164
48.1414751266064 9.67565
48.16586082917454 9.670739999999999
48.19024885144316 9.65977
48.2146391951793 9.6674
48.239222439012764 9.65263
48.26361744916137 9.59247
48.28801478610016 9.62467
48.31241445160131 9.59555
48.337007097209366 9.57112
48.36141144338331 9.54396
48.38581812345755 9.48978
48.41022713920929 9.553930000000001
48.434829215320704 9.5175
48.45924292604658 9.46899
48.48365897780325 9.4639
48.50807737237308 9.453439999999999
48.532688907799276 9.46362
48.55711201168574 9.41802
48.581537463754074 9.40903
48.60615611725119 9.39414
48.63058628942721 9.34397
48.65501881516546 9.37823
48.6794536962573 9.32876
48.70408185970339 9.3283
48.72852147531801 9.278139999999999
48.75296345168211 9.25018
48.77740779059232 9.2665
48.80204549302823 9.26474
48.82649458091802 9.22343
48.85094603676547 9.20175
48.87539986237231 9.18478
48.90004713292306 9.11103
48.92450572200832 9.125630000000001
48.94896668628025 9.14753
48.97343002754588 9.09676
48.99808689542115 9.11859
49.02255501470614 9.11595
49.04702551642794 9.07366
49.0714984023988 9.0695
49.096164896893235 9.06408
49.120642575466796 8.991769999999999
49.145122643748394 8.97211
49.16960510355558 8.95316
49.19428125404938 8.94864
49.2187685210852 8.97725
49.243258185121555 8.91545
49.26794160167084 8.87315
49.2924360839405 8.87861
49.31693296869764 8.88678
49.34143225776915 8.85811
49.36612538195438 8.83185
49.39062950396021 8.81461
49.41513603578346 8.78298
49.4396449792564 8.77411
49.46434784069503 8.79155
49.488861631846454 8.75636
49.513377840166804 8.76334
49.537896467493745 8.708919999999999
49.56260909589029 8.68574
49.587132585683285 8.683769999999999
49.611658500018365 8.64753
49.636186840738596 8.651019999999999
49.66090926588511 8.64989
49.685442483902584 8.62979
49.70997813385706 8.58383
49.734516217597076 8.57991
49.75924846937352 8.56156
49.7837914452858 8.57821
49.80833686055187 8.54847
49.83288471702571 8.53357
49.85762682540054 8.518839999999999
49.882179588965734 8.49339
49.9067347993235 8.45133
49.93129245833333 8.43945
49.95604445336378 8.46158
49.98060703442832 8.477689999999999
50.005172069746266 8.43789
50.02993150438364 8.390939999999999
50.05450147301533 8.398610000000001
50.07907390151433 8.36048
50.10364879174981 8.36197
50.12841816587289 8.334439999999999
50.1529980044635 8.31987
50.17758031042124 8.27495
50.20216508562089 8.26171
50.22694442953363 8.25056
50.25153416817468 8.25603
50.27612638170508 8.23841
50.300721072005196 8.19691
50.325510416102105 8.18047
50.350110084975064 8.15603
50.37471223628208 8.15125
50.39931687190919 8.14905
50.424116246675766 8.14842
50.44872587605249 8.13752
50.47333799543065 8.12485
50.49795260670191 8.10478
50.52276204271512 8.07668
50.54738166295838 8.07681
50.57200378079314 8.01483
50.596628398116835 8.01323
50.62144792604559 8.025839999999999
50.646077567609396 7.988339999999999
50.670709714377715 7.997889999999999
50.69553683636198 7.9327
50.72017401885922 7.93825
50.7448137122895 7.93315
50.76945591856022 7.93805
50.79429318636823 7.9215
50.818940443716784 7.911910000000001
50.84359021965163 7.8792100000000005
50.868242516085964 7.86247
50.893089960641895 7.85768
50.917747323549435 7.821839999999999
50.94240721271973 7.80615
50.96706963007175 7.77323
50.99192728239342 7.79007
51.01659478166073 7.801839999999999
51.04126481489051 7.7644899999999994
51.06593738400761 7.74091
51.090805275207074 7.741639999999999
51.11548294172845 7.726310000000001
51.14016314993547 7.69263
51.164845901758845 7.6816
51.18972406304274 7.662539999999999
51.21441192780656 7.63892
51.23910234200271 7.64735
51.2637953075678 7.61285
51.288683770237945 7.588210000000001
51.31338186432707 7.552010000000001
51.33808251561888 7.58195
51.362978729967345 7.5345699999999995
51.387684521509755 7.52185
51.41239287610203 7.5034
51.437103795691165 7.4766
51.46201036644977 7.489889999999999
51.486726441956634 7.49377
51.51144508832545 7.4802
51.536166307509156 7.43756
51.56108326624387 7.41467
51.58580965706056 7.41104
51.61053862657523 7.40373
51.635270176746864 7.34646
51.66019755512065 7.346010000000001
51.68493429268881 7.339519999999999
51.70967361681515 7.362939999999999
51.73441552946465 7.36257
51.759353359237934 7.313560000000001
51.7841004750961 7.29752
51.80885018539685 7.261239999999999
51.833602492111254 7.242380000000001
51.8585508051424 7.21932
51.883308330926425 7.21674
51.90806845906181 7.259289999999999
51.932831191525715 7.18393
51.95779001977161 7.16973
51.98255798721516 7.1729899999999995
52.00732856494335 7.180739999999999
52.03229530577543 7.11066
52.057071130455945 7.12085
52.081849571391054 7.129980000000001
52.106630630568695 7.125439999999999
52.13160794279417 7.05523
52.15639426492067 7.087210000000001
52.18118321127822 7.06285
52.205974783860896 7.04569
52.23096269971011 7.018860000000001
52.255759551287994 6.9851
52.280559035098186 7.02042
52.30536115314103 7.028689999999999
52.33035970494467 6.928560000000001
52.35516711807904 6.98382
52.37997717147198 6.9627300000000005
52.40478986713005 6.90302
52.42979908731974 6.92238
52.454617094216 6.89712
52.47943774942214 6.845089999999999
52.50426105495102 6.8703
52.529280976059844 6.83286
52.554109609024096 6.859189999999999
52.57894089837482 6.83943
52.60377484613117 6.8069
52.62880550079408 6.79287
52.65364479223379 6.77906
52.67848674816189 6.750660000000001
52.70352547971946 6.76749
52.72837279155837 6.774889999999999
52.753222773982785 6.69221
52.778075429022984 6.698360000000001
52.80312495150885 6.679710000000001
52.827982978797436 6.67805
52.85284368481815 6.675260000000001
52.87770707160767 6.64965
52.90276741793998 6.6427
52.92763619336701 6.62534
52.952507655698504 6.63543
52.977381806977576 6.6200399999999995
53.00245301017842 6.55512
53.02733256653592 6.557939999999999
53.052214817996074 6.55674
53.077099766608484 6.56462
53.102181859804446 6.54406
53.127072229988265 6.58095
53.15196530349892 6.50272
53.17686108239249 6.47005
53.20195409881522 6.47406
53.22685531582556 6.46098
53.25175924441303 6.43275
53.27666588664027 6.41188
53.30176985962693 6.41004
53.3266819565689 6.41362
53.35159677336455 6.3469
53.376514312083096 6.39447
53.40162927507703 6.40137
53.42655228516116 6.34935
53.45147802340193 6.295059999999999
53.47660125628886 6.31286
53.50153247842639 6.31232
53.52646643496923 6.28826
53.55140312799818 6.26944
53.576537409691696 6.24518
53.60147960336152 6.22021
53.626424539786164 6.2489300000000005
53.65137222105307 6.23969
53.67651758529126 6.18398
53.70147078399681 6.16732
53.72642673383343 6.198230000000001
53.75138543689533 6.15987
53.776541917524526 6.18145
53.801506154876755 6.14741
53.826473151763246 6.13115
53.851442910284916 6.11078
53.87661054126026 6.10343
53.9015858509782 6.08539
53.92656392866066 6.0772699999999995
53.95154477641532 6.08487
53.976723591801296 6.04301
54.00171000771266 6.01547
54.02669920004598 6.0143
54.051691170915745 5.99407
54.076881204886796 5.964840000000001
54.101878760928514 5.96547
54.12687910187696 5.97639
54.152077577768296 5.96352
54.1770835166946 5.898630000000001
54.20209224691339 5.92866
54.22710377055121 5.94799
54.25231352511594 5.91237
54.27733066384342 5.8962
54.30235060239643 5.87903
54.32737334290836 5.82835
54.35259441062629 5.82282
54.377622783395324 5.794230000000001
54.40265396455061 5.7976
54.42768795623251 5.77309
54.45292037169559 5.8055900000000005
54.477960012857906 5.79228
54.50300247099511 5.7634300000000005
54.52804774825457 5.72208
54.55329154616743 5.69822
54.57834249018678 5.66564
54.6033962597977 5.66915
54.6284528571545 5.6189800000000005
54.653708072335164 5.6185
54.67877035378786 5.6229
54.70383546947698 5.58253
54.72890342156389 5.53188
54.7541700889442 5.579219999999999
54.77924374251975 5.5346400000000004
54.8043202390049 5.49631
54.82959552413022 5.494190000000001
54.8546777351945 5.47358
54.87976279569621 5.43797
54.90485070780914 5.462680000000001
54.930137506558005 5.45207
54.95523115074295 5.40097
54.98032765308844 5.382569999999999
55.005427015775496 5.34663
55.03072536339621 5.33177
55.05583047570572 5.34166
55.080938454927676 5.2958
55.10604930325027 5.30545
55.131359235107396 5.30199
55.15647585066083 5.25561
55.181595341907496 5.23187
55.20671771104285 5.19876
55.232039262617704 5.139390000000001
55.25716741665048 5.1641900000000005
55.28229845518636 5.1532800000000005
55.30743238042802 5.10738
55.33276558731939 5.116709999999999
55.357905315183636 5.064690000000001
55.383047936390035 5.03069
55.40819345314859 5.04226
55.433538351073295 4.9987900000000005
55.458689688238415 5.04258
55.483843927614096 4.93161
55.509197623043605 4.9596800000000005
55.53435769621134 4.92816
55.55952067826466 4.82766
55.5846865714265 4.8576
55.61005202069737 4.8994
55.63522376553902 4.849559999999999
55.66039842818645 4.82965
55.68557601087004 4.83673
55.7109532500271 4.73914
55.73613670233794 4.72964
