TT I
1.2716486653135266 7.39947
1.2939594142134223 7.588610000000001
1.3162702121660406 7.3624
1.3385810600174564 7.031280000000001
1.3608919586137629 6.6413899999999995
1.383202908801069 6.53699
1.405513911425503 5.94714
1.4278249673332093 6.622539999999999
1.4501343378461518 6.63357
1.4724455028545926 6.3543
1.4947567236847858 6.67287
1.517068001182951 6.53429
1.5393793361953272 6.6776800000000005
1.5616907295681737 6.58102
1.5840021821477681 5.68007
1.60631369478041 5.71509
1.6286252683124185 5.81339
1.6509369035901333 5.38955
1.6732468618895553 5.719609999999999
1.695558623192809 5.05986
1.7178704487808514 5.70081
1.7401823395001077 5.03003
1.7625012545597203 4.93577
1.7848028405262486 5.2743199999999995
1.8071218901122095 5.2358400000000005
1.8294236121921872 4.6569199999999995
1.8517427996910911 4.93234
1.8740620574440425 5.16597
1.8963639900671978 4.85921
1.9186833908139995 5.20005
1.9409854680117449 4.99516
1.9633050151394713 5.14737
1.9856246367570705 5.3533800000000005
2.0079269371922672 5.45955
2.03024671027244 5.004230000000001
2.0525491637446027 4.65069
2.074869091674931 4.25319
2.097171701569106 4.57492
2.1194917877373847 4.75427
2.141811954326636 4.49021
2.164114805233074 4.06982
2.186435135143035 4.41803
2.208738150935709 4.87059
2.231058647554722 4.3726199999999995
2.2533792288321184 4.54534
2.275682498336085 4.63722
2.298003251406138 4.8074
2.3203066942619714 4.63317
2.3426276225136022 4.3438
2.3649486396617507 4.41836
2.387252348930071 4.8226
2.4095735463442893 4.28156
2.4318774374315884 4.90782
2.4541988185014043 4.11262
2.476502894794693 4.87699
2.498824462909887 5.06936
2.521146125856138 4.6710400000000005
2.5434504863470337 4.9471099999999995
2.5657723414244717 5.19881
2.588076895590662 6.00286
2.610398946189713 5.96319
2.6327210958598384 5.397930000000001
2.6550259469304716 6.25054
2.6773482972090137 6.30104
2.6996533504259 5.73046
2.7219759047039602 6.22864
2.744298562293959 6.734560000000001
2.7666039251246595 6.34997
2.7889267918020164 6.7805
2.8112323652516555 7.309310000000001
2.833555444408179 7.552289999999999
2.8558786311183852 6.73577
2.8781845268938557 8.28462
2.9005079311721484 8.128039999999999
2.9228140460410397 8.79068
2.9451376712799635 9.41504
2.967444008632326 9.26442
2.9897678582247247 9.604230000000001
3.0120918213106695 10.587
3.0343984987899373 10.3447
3.0567226913198637 10.3932
3.079029599759726 11.3467
3.101354025127254 12.3016
3.123678568232338 12.7576
3.145985829517914 12.5175
3.16831061055229 13.7075
3.1906181112775593 13.876
3.212943133635653 14.5354
3.2352682779763207 15.3324
3.2575761442691227 15.725
3.2799015350264273 15.4676
3.302209649240067 16.3056
3.3245352898092655 17.1561
3.3468436553365257 17.3113
3.369169549113219 17.6638
3.3914955708171384 18.508
3.413804319727358 18.8773
3.4361305997334863 19.1125
3.4584396084414553 19.6596
3.4807661501462652 20.4796
3.503092824025881 20.7066
3.5254022288463154 20.5521
3.5477291695206588 21.3754
3.5700388426251948 22.1807
3.5923660534916446 22.8759
3.6146934007816114 23.1073
3.637003482731501 23.238000000000003
3.6593311053109985 23.357
3.681641464033634 23.831
3.7039693653009733 24.5491
3.726297407241705 25.1485
3.7486081875460804 25.0586
3.7709365132734978 25.6359
3.793247578841633 26.2327
3.8155761917550093 26.7355
3.8378875459837216 27.0749
3.8602164494827234 27.5194
3.882545499606844 28.1515
3.9048572932539183 29.0578
3.9271866390645718 29.5135
3.9494987298666713 30.2533
3.971828374764527 30.6783
3.9941581705403255 31.0526
4.016470713506008 31.8418
4.038800813471445 32.5166
4.061113662089144 33.205999999999996
4.0834440696459176 34.179
4.105774632334751 34.4507
4.128087945865126 34.8201
4.150418821249301 35.716
4.172732448931298 36.4311
4.195063640413578 37.0419
4.2173775856475215 38.0577
4.239709096631102 38.9435
4.262040768704612 39.3044
4.284355196706267 39.7995
4.306687193387355 40.7029
4.329001947444346 41.8119
4.35133427213731 42.8909
4.373666762177566 43.6614
4.395982011761091 44.7476
4.418314834921175 45.5946
4.44063041906622 46.2129
4.4629635787515625 47.4947
4.4852969080429785 48.7465
4.5076130004776225 50.1514
4.529946671403969 52.0547
4.552263106909177 53.4606
4.574597122877047 53.9699
4.596931312711224 54.9502
4.619248269273446 55.7126
4.6415828092605835 56.9407
4.663900117405352 58.6705
4.686235010953232 59.6808
4.708552674085913 61.0684
4.730887924602802 62.9813
4.753223354952695 64.4675
4.775541557023902 66.1245
4.797877349456786 68.5405
4.820195915032126 70.6327
4.842532072957498 71.5613
4.864868414979744 74.1539
4.88718753227192 77.3465
4.909524244902505 79.5432
4.931843734218147 81.3232
4.954180820867835 84.7009
4.976518095879839 88.8189
4.998838149695359 91.6853
5.021175803844231 96.5435
5.043496238205739 101.198
5.065834274903528 106.941
5.088172504230693 114.54899999999999
5.1104935158799565 124.25299999999999
5.132832132875765 141.017
5.155153533596801 169.291
5.1774925416746225 285.616
5.199814334878411 885.013
5.2221537374521505 2198.9
5.244493338631803 3968.16
5.266815727034316 6690.7
5.289155727832427 10590.4
5.311478517248165 9240.56
5.333818921080011 4101.34
5.356159527788849 969.176
5.3784829252032536 272.633
5.400823940070432 183.428
5.423147747031976 153.745
5.445489173474152 138.131
5.467830807066149 130.083
5.490155234831516 124.131
5.512497285125229 118.23100000000001
5.534822130975162 114.866
5.557164601388673 111.95100000000001
5.579489868738879 108.679
5.601832762690846 107.016
5.6241758697774475 105.551
5.646501775867269 104.428
5.668845311622074 103.743
5.691171647754637 103.101
5.713515615597765 101.435
5.735859800852677 101.037
5.758186788542988 101.037
5.780531411018185 102.126
5.802858837297399 101.277
5.825203900414495 102.348
5.8475491852224 103.639
5.869877275883075 104.837
5.892223006467101 107.262
5.914551544266608 110.59100000000001
5.936897724049891 117.677
5.959244129804903 133.351
5.981573344815301 198.31400000000002
6.0039202049061 446.809
6.026249875609095 898.2360000000001
6.04859719346037 1421.0
6.070927323278297 2212.71
6.093275102315365 3643.67
6.115623113320588 4640.41
6.137953938319995 3660.43
6.160302415650845 1418.61
6.182633708324452 364.67900000000003
6.2049826554078376 148.10399999999998
6.227331838745022 109.91799999999999
6.249663839443684 96.7717
6.27201349767565 89.2743
6.294345974611799 84.9626
6.316696111167083 80.9721
6.339046488263839 78.5169
6.361379686074702 76.178
6.383730546639482 74.3232
6.406064229255215 72.7154
6.428415576718203 72.5108
6.450749747566656 71.3563
6.47310158535871 69.5394
6.495453669698332 68.8124
6.517788579421056 67.8418
6.540141159237969 66.6073
6.562476565766648 66.2674
6.5848296444934045 65.2773
6.607182974060425 64.3373
6.6295191323281015 64.0553
6.651872965955752 63.0676
6.6742096296068985 62.3973
6.6965639707294615 62.32899999999999
6.71891856698715 61.5119
6.741255995248479 60.6302
6.763611104154477 60.635
6.785949046381137 60.5095
6.808304671371482 60.1354
6.8306605557940046 60.0519
6.852999275508618 59.0839
6.875355681171544 58.7784
6.897694923437771 58.4334
6.92005185377892 58.2135
6.9423916220322655 57.8007
6.964749080490181 57.4601
6.987106804399774 57.5656
7.009447368180821 57.5373
7.031805625367033 57.4405
7.054146723727803 57.2692
7.076505517631004 56.9958
7.098864581288365 56.9482
7.121206488070854 56.8167
7.143566093607822 56.476000000000006
7.165908543567245 56.6563
7.188268694426048 56.3894
7.2106291193438095 55.895
7.232972390625943 55.963
7.255333366030969 55.7821
7.277677189091925 55.4406
7.300038718428332 55.9854
7.322400526130865 55.8675
7.344745183422596 55.8862
7.367107550224791 55.6228
7.389452767901992 55.8596
7.411815697249891 55.7883
7.434161478756298 55.6643
7.456524974096713 55.4155
7.478888753837185 55.6557
7.501235387657368 56.4112
7.523599738562711 56.1748
7.545946944825532 56.3497
7.568311870344528 57.1437
7.5906770845765665 57.3562
7.613025156078678 57.3789
7.635390950099687 57.4372
7.657739602662809 57.4013
7.680105979923558 57.5743
7.702472650212829 58.3829
7.724822180948224 58.2963
7.747189439655568 58.3959
7.769539560075357 58.2415
7.791907410653562 58.9704
7.81425812420825 59.3045
7.836626570110925 59.2892
7.858995315087906 60.3787
7.881346924933401 60.3902
7.903716270417482 61.1762
7.926068482028405 61.1447
7.948438431475253 61.6633
7.9708086843180235 62.3095
7.993161805171116 63.483000000000004
8.015532667162402 63.9714
8.037886398416653 64.865
8.060257873014221 65.3804
8.082629655331942 66.49600000000001
8.104984308787587 67.0205
8.127356708900503 67.8271
8.149711981398308 69.1024
8.172085002766314 69.9057
8.194458336181368 70.2904
8.216814543847752 71.4105
8.23918850371002 73.2314
8.26154533906492 74.3235
8.283919928836452 76.6576
8.306277395339652 77.5684
8.328652618483376 79.4046
8.351028159736202 81.5605
8.373386579575245 84.5624
8.395762759396959 86.5921
8.418121819038275 90.3016
8.440498640894003 96.2784
8.462875785192262 110.994
8.485235811156207 162.725
8.507613602688501 290.0
8.529974277114228 452.186
8.552352719347912 586.363
8.574731488360351 755.404
8.59709314210385 1060.41
8.619472567021075 1539.16
8.64183487789147 1980.38
8.664214962183097 1926.95
8.686577933647762 1204.86
8.708958680784317 524.805
8.731339760774953 218.725
8.753703729764451 130.81
8.77608547780821 111.03299999999999
8.798450116065078 104.943
8.820832535634787 100.51100000000001
8.843215292401656 97.6808
8.865580941199045 96.1419
8.887964374703538 94.5776
8.910330701447199 93.5508
8.932714815164482 92.7306
8.955099270424924 91.0739
8.977466620733543 89.7724
8.999851761421976 89.7347
9.022219798361645 88.7651
9.04460562795561 88.61200000000001
9.066991803441677 88.3556
9.089360876979615 87.8747
9.111747746589993 87.5506
9.13411751544971 86.7632
9.156505082664324 86.9404
9.178875550323522 86.6739
9.20126381862328 86.3861
9.223652438908596 86.7524
9.246023961427412 86.84
9.26841328802173 87.0854
9.290785518039224 87.1576
9.313175554425882 88.3118
9.335565947154315 88.1597
9.357939245086508 88.633
9.380330352834827 87.9945
9.40270436697103 88.3338
9.425096193225055 88.1113
9.447488380180165 88.8527
9.469863475295412 89.0907
9.492256385987508 89.557
9.514632206018318 90.0921
9.537025843935714 90.4194
9.559402392368193 91.661
9.581796761000229 92.9894
9.604191496441521 93.6761
9.626569144158516 94.3579
9.648964615551032 95.1577
9.671343000390081 95.9133
9.693739211225699 96.5862
9.716135793237463 97.656
9.738515290448102 98.4681
9.760912617143402 100.12200000000001
9.783292860202891 101.99
9.805690935076182 103.52799999999999
9.828089385495742 104.59899999999999
9.850470754023561 106.97
9.872869957865444 109.052
9.89525208097539 112.729
9.917652041736662 118.475
9.940052382417589 136.191
9.962435644102392 198.733
9.984836746950979 302.731
10.007220771957746 417.983
10.029622640473708 519.535
10.052007432299963 633.42
10.074410069984072 801.299
10.096813093716005 1069.75
10.119199042482517 1462.25
10.141602840636468 1782.74
10.163989564971628 1696.42
10.186394141051062 1140.54
10.208799107559706 547.945
10.231187001965623 245.725
10.253592751657669 147.97299999999998
10.275981430388155 124.6
10.298387966769793 117.693
10.320794897965431 115.08
10.343184759907361 113.084
10.36559248305461 111.565
10.387983138083852 114.882
10.410391656691655 131.328
10.432800574501677 158.856
10.455192425893369 187.755
10.47760214443012 212.396
10.499994797678786 238.375
10.522405320453982 280.968
10.54479877906917 352.411
10.567210109595656 442.649
10.5896218454736 532.996
10.612016518879773 536.149
10.634429067781074 414.22900000000004
10.656824555333241 253.463
10.679237920773568 154.761
10.701651695961992 108.736
10.724048411481384 96.5449
10.746463008485165 92.4085
10.768860546937125 90.29799999999999
10.791275969274796 88.2348
10.81369180576079 86.8666
10.836090585366925 85.4398
10.858507252467449 84.0934
10.88090686379991 83.2194
10.903324365036394 82.4564
10.925724811614439 80.9816
10.948143150509463 80.4526
10.970561909719066 79.4107
10.992963615930844 78.5509
11.015383218085756 77.655
11.037785768347074 77.0794
11.06020621697282 76.1257
11.082627090322113 75.7464
11.105030913430326 75.2992
11.12745263854165 74.4583
11.149857314510728 73.2463
11.172279894912576 73.3484
11.194702904450653 72.1913
11.217108866490921 71.5021
11.239532736615194 71.4269
11.26193956033512 71.168
11.284364294577085 70.8472
11.306789462371718 70.3782
11.329197585398376 70.2477
11.351623622610898 69.9857
11.37403261614354 68.9622
11.396459526308487 69.2183
11.418869393879497 68.538
11.441297180532617 68.2002
11.463725406927658 67.6265
11.486136592353875 67.3929
11.508565700543707 67.0478
11.530977768845315 67.2955
11.553407762368774 66.4954
11.575838200059769 66.6748
11.598251599479612 66.6474
11.620682927815501 66.2673
11.64309721895548 66.383
11.665529441478206 66.3038
11.687962112597958 66.1665
11.710377748130886 66.1625
11.732811318753434 65.9171
11.755227854859067 65.8351
11.777662328529495 65.7376
11.800079768750786 65.4438
11.822515149015453 65.1585
11.844950984084935 65.8635
11.867369787303163 65.3987
11.889806534289491 65.2961
11.912226250487029 65.8532
11.934663912939751 66.1662
11.9571020346363 66.354
11.979523127133968 66.9049
12.001962169624331 68.7046
12.024384183972964 72.532
12.046824150809913 79.8149
12.069264581333726 88.0596
12.091687985297767 94.1398
12.11412934550045 100.115
12.136553680195208 109.12299999999999
12.158995973632788 122.631
12.181438735204349 140.222
12.20386447284199 165.89
12.226308172985636 194.137
12.24873485024193 209.887
12.271179492516982 188.642
12.293607112949127 145.947
12.316052700916226 104.697
12.338498763250042 79.6833
12.360927805303868 70.3151
12.383374818673879 68.081
12.405804812803074 67.2632
12.428252780773262 67.2897
12.45070122756722 67.3523
12.473132656675375 66.8972
12.49558206341869 67.2879
12.518014453510101 67.3663
12.540464823770117 67.4927
12.562915677315177 67.7711
12.58534951575545 67.8346
12.607801338171472 67.6577
12.630236146511358 67.7798
12.652688941369085 68.6269
12.675124723177234 69.0259
12.697578494048786 69.7418
12.720032754458185 69.8343
12.742470003354093 70.2013
12.764925245138771 70.9898
12.787363476431278 71.3868
12.809819703166806 71.577
12.83227642391173 72.4733
12.854716135692716 72.9994
12.877173846755147 74.4429
12.899614549869717 75.0073
12.9220732548287 75.6872
12.94453245827299 76.2456
12.966974655289818 77.4372
12.989434858002571 78.4256
13.011878055298721 79.3861
13.034339260862497 80.8198
13.056800969391883 82.5757
13.079245674017244 86.3307
13.101708390774869 94.0861
13.12415410463411 110.75200000000001
13.146617833206086 131.27
13.169064559883248 147.577
13.191529303857127 160.82399999999998
13.213994557076367 174.45
13.236442809902437 196.81400000000002
13.258909083908291 228.908
13.28135835851934 268.58799999999997
13.30382565690295 320.448
13.326293469022952 381.73800000000006
13.348744283242008 419.559
13.371213125129904 391.842
13.39366497011003 309.976
13.416134845360597 213.93099999999998
13.438605238843131 150.309
13.46105863690397 129.439
13.483530069144786 133.716
13.505984506951902 143.595
13.528456981549432 153.434
13.550929978879088 162.009
13.573385983253365 174.47
13.595860028340867 196.46
13.618317081455832 225.6
13.64079217790333 262.568
13.663250283359057 308.869
13.685726434770173 351.64099999999996
13.708203115221277 357.666
13.730662806148091 306.673
13.75314054697177 229.373
13.775601299246777 158.262
13.798080104050406 112.177
13.820559442405358 93.1582
13.843021793671388 87.286
13.865502201420897 84.8379
13.887965623051947 84.2185
13.910447103807167 83.0413
13.932929122629764 81.3232
13.955394156785959 81.1519
13.977877254034569 80.1284
14.000343367582113 79.0296
14.022827546871707 78.6061
14.045294743423524 77.6568
14.06778000837062 76.9774
14.090265817715476 76.9198
14.112734645763819 76.182
14.13522154619454 75.6276
14.157691466286913 75.2577
14.180179461423874 75.1516
14.202668005486178 74.8206
14.22513957064374 74.2886
14.247629214846473 74.1923
14.270101881097517 73.8306
14.29259262906496 73.4612
14.315083930490205 73.4999
14.337558255389705 73.1002
14.360050666019726 72.9981
14.382526101071944 72.6381
14.405019624534942 72.6493
14.427513705993134 72.1962
14.449990813291825 72.2654
14.47248601302899 72.2919
14.49496423954951 72.7084
14.517460561197822 72.7192
14.539939910570322 72.2161
14.562437357763558 72.5751
14.58493536931253 72.8448
14.607416409993311 72.9837
14.62991555254159 73.2731
14.652397725157423 73.5014
14.674898002342799 74.1116
14.697398848433282 74.5625
14.719882725991326 76.5997
14.74238471217934 81.1213
14.764869730765593 88.9484
14.787372860692983 95.2772
14.809876564079925 101.745
14.83236330125751 106.766
14.854868153850365 111.601
14.877356041159485 119.54299999999999
14.899862046604186 130.101
14.922351087688757 145.07399999999998
14.944858249632887 162.874
14.967365991421232 186.062
14.989856770231246 208.484
15.012365673994204 221.803
15.03485761569738 206.55599999999998
15.05736768508665 170.99
15.07987833888692 132.537
15.102372032001655 103.632
15.124883856909658 84.2165
15.14737872204565 77.1022
15.169891721717274 74.3948
15.192405310371893 73.9229
15.214901940621196 73.2155
15.237416709527137 72.5846
15.259914520936249 72.3484
15.282430473753607 71.6183
15.304947020131227 70.9458
15.327446610371178 70.547
15.349964346154254 70.1461
15.372465126703139 70.1165
15.394984055556009 69.9296
15.417486030076159 69.7725
15.44000615566487 69.3628
15.462526881230803 69.1429
15.485030653812652 69.393
15.507552581617434 69.3233
15.530057557334603 69.358
15.55258069104857 69.351
15.575104429329837 69.8408
15.597611216864632 70.0162
15.620136166564563 71.2684
15.6426441664095 74.6743
15.665170331202765 80.6758
15.687697105158826 86.5232
15.710206930593545 91.4833
15.732734925158933 95.0501
15.755245972089478 98.2694
15.77777519094324 103.175
15.800287463046663 111.084
15.822817909869592 122.29
15.84534897229804 135.101
15.867863089299354 152.709
15.890395385222186 172.11900000000003
15.912910736597423 189.90599999999998
15.935444269699861 192.145
15.957978423016485 177.485
15.980495633101265 146.096
16.003031029129367 113.402
16.02554948280019 87.2827
16.048086125229432 73.3656
16.070623392487107 67.9129
16.09314371869582 65.9885
16.11568223789321 64.7157
16.13820381691126 64.2242
16.160743591742527 63.605
16.183283996022084 63.1157
16.205807461423195 62.2243
16.228349126881973 61.8259
16.25087385432698 61.4713
16.27341678466365 60.925
16.29594277784926 60.9593
16.31848697676433 60.3347
16.341031811604868 59.5893
16.36355971058487 59.6804
16.3861058195587 59.6726
16.40863499352978 58.8771
16.431182380342005 58.8156
16.453730407713202 58.6344
16.476261501364792 58.4632
16.498810812136167 57.9975
16.52134319004079 58.0702
16.54389378792203 58.0694
16.566445031001553 57.9198
16.588979342490088 57.7834
16.61153187824822 57.5315
16.634067483263312 57.4441
16.656621315414416 57.4941
16.679175797408888 57.0492
16.701713349928728 57.3119
16.72426913389191 57.3832
16.74680798922351 57.3533
16.76936507887444 57.285
16.791905240734874 57.132
16.814463639794468 57.0427
16.837022695210294 57.1503
16.859564824093756 57.1749
16.882125194503903 57.0612
16.904668639217885 57.7071
16.927230328348003 57.4061
16.949792678493612 57.8601
16.972338104193863 57.7943
16.994901778652235 57.9667
17.017448529496576 58.4341
17.040013531998152 59.3933
17.06257920018044 60.5619
17.0851279459922 61.6851
17.107694947817667 62.9674
17.130245028099072 63.9445
17.15281336730298 64.6042
17.17536478578733 65.5571
17.19793446610687 67.0485
17.220504818648422 68.8689
17.243058251703697 70.7786
17.265629950971032 73.6584
17.288184731571736 77.2268
17.310757781306908 81.934
17.33333150794385 84.7355
17.355888317140174 85.5978
17.37846339986244 83.0165
17.401021565958885 76.9958
17.42359800851343 71.1308
17.44617513265564 66.7352
17.468735341390783 63.9789
17.491261035594565 62.5374
17.51396340099364 61.8811
17.536490463869136 61.9299
17.559018209820174 61.9603
17.58154663977963 61.9872
17.604251766089718 62.4671
17.626781572227713 62.6182
17.64931206518155 62.7568
17.671843245885103 63.2982
17.69455114821572 63.4242
17.717083712612634 63.4628
17.739616967569667 63.967
17.762150914021706 64.5388
17.78486160749854 64.9745
17.807396945166804 66.4829
17.829932977143503 69.0347
17.85246970436452 72.3752
17.875183204129467 75.4255
17.897721330097664 78.4099
17.920260154126645 80.572
17.942799677153296 82.9119
17.9655159983646 84.8004
17.988056927677544 88.0273
18.010598558807683 93.2435
18.033140892692916 99.0947
18.05586005052525 105.73899999999999
18.07840379824407 114.837
18.10094825154059 126.34299999999999
18.12366954819864 138.755
18.146215420998306 146.675
18.16876200220057 145.168
18.191309292745153 134.287
18.214033452627167 119.46600000000001
18.236582170236648 104.11200000000001
18.259131600016456 94.281
18.281681742907335 90.0019
18.304408781233683 90.2995
18.32696035875955 92.7724
18.349512652227624 97.1796
18.372065662579683 102.844
18.394795594587553 106.777
18.41735004715306 107.117
18.43990521943684 102.883
18.46246111238171 94.5397
18.485193953325208 84.0314
18.507751296070428 75.7395
18.530309362314178 70.3832
18.552868153000343 67.3383
18.57560391815056 65.3129
18.59816416623245 64.9012
18.620725141597372 64.4259
18.643286845190268 63.8604
18.666025549835414 63.4216
18.688588718427933 62.8749
18.711152618092243 62.6145
18.73389353884365 62.4729
18.75645890921984 62.0396
18.77902501351406 61.6398
18.801591852673102 61.597
18.824335739722738 60.9893
18.846904057212626 60.9237
18.8694731124168 60.6555
18.89204290628315 60.7835
18.914789774966803 60.4618
18.937361054791623 60.2013
18.959933076131318 59.9442
18.982505839934877 59.8698
19.00525570560582 59.8848
19.027829963004184 59.6005
19.05040496572238 59.842
19.072980714710468 60.2614
19.095733592739563 60.9313
19.11831084296757 61.3094
19.140888842324735 61.7138
19.16346759176222 62.1232
19.18622349753803 62.5174
19.208803755869358 63.0641
19.231384767143577 63.6262
19.253966532312948 64.7147
19.276725481241822 65.9237
19.29930876296784 67.1456
19.3218928014549 69.0243
19.34465404436217 71.1462
19.36723960516257 73.9206
19.389825925592426 76.2602
19.412413006605938 77.3782
19.43517731967805 76.3589
19.457765930683355 72.7699
19.48035530514408 68.5905
19.50294544401556 63.8698
19.525712842708348 60.5282
19.54830451925909 58.3955
19.570896963095727 57.0475
19.593490175174704 56.619
19.616260674962184 56.4697
19.638855432416964 56.2197
19.661450960992624 56.4185
19.68404726164677 56.3277
19.706820878021247 56.1299
19.729418731756834 56.3295
19.752017360452857 56.2623
19.77461676506804 56.7964
19.797393513540218 57.1029
19.819994478951667 57.4546
19.84259622316767 58.3011
19.8651987471481 58.6771
19.887978643247177 58.9322
19.91058273574792 59.0337
19.933187610901943 59.6432
19.955969879466828 60.4016
19.97857632894404 61.4347
20.00118356396599 62.4936
20.023791585494575 64.1377
20.046577028914875 66.2424
20.069186632506966 68.3274
20.091797025500632 70.7368
20.114408208858933 72.44
20.137196842715273 73.8772
20.159809615886765 73.0705
20.18242318232135 70.9112
20.20503754298326 67.9246
20.227829382875154 65.7724
20.250445341109344 64.3167
20.27306209647285 64.0148
20.29567964993108 64.4957
20.31847471147704 65.5636
20.34109387027612 66.9687
20.363713830075454 67.7024
20.386334591841646 67.5574
20.409132890679302 65.5644
20.431755265564437 62.4974
20.454378445325528 59.2878
20.477002430930366 56.7974
20.499803982716553 55.0739
20.522429589228004 53.8239
20.54505600449589 53.0863
20.567683229489194 53.0026
20.590488049900088 52.8775
20.61311690359731 52.6276
20.63574656993626 52.3081
20.658553853717297 52.1506
20.681185154618298 52.2275
20.703817271080066 51.861000000000004
20.72645020407368 51.5714
20.749260783967177 51.4208
20.771895359337133 51.3207
20.794530754161617 51.2935
20.817166969412938 51.2509
20.83998086114876 51.3905
20.86261872660049 51.2797
20.885257415405402 51.0416
20.90789692853701 51.0638
20.930714147864748 51.0639
20.953355319030678 51.3338
20.97599731745334 51.4606
20.99864014410749 51.294
21.021460706796564 51.2579
21.044105199328826 51.3932
21.06675052302631 51.4482
21.089396678865015 51.4683
21.112220600704806 51.6168
21.134868430275347 51.98
21.15751709492456 52.1303
21.180166595629693 52.1175
21.202993892429635 52.638000000000005
21.22564507473034 52.9448
21.24829709602816 53.3935
21.27112693608965 53.6227
21.293780644891275 53.9798
21.316435195634053 53.653
21.339090589297417 52.8595
21.361923832041875 52.4108
21.384580921090404 51.7729
21.407238856007325 51.148
21.429897637773326 50.9204
21.45273429906592 51.0004
21.475394784108598 50.9073
21.498056118951983 50.9665
21.520718304578022 51.288999999999994
21.543558400304388 51.4606
21.566222297108816 51.8795
21.58888704765135 52.3098
21.61155265291521 52.9999
21.63439619898156 53.3587
21.657063523335786 53.6695
21.67973170537063 54.0711
21.7024007460706 54.1771
21.72524775840385 54.7366
21.747918526116475 55.49
21.770590155457388 56.276
21.79326264741238 57.5264
21.816113141960237 58.708
21.838787368860547 60.0723
21.861462461341976 61.6358
21.884315579735777 63.3093
21.90699241312273 65.1558
21.92967011506078 66.6688
21.95234868653799 67.2389
21.9752053151131 66.8735
21.997885635446785 65.5205
22.020566828293532 63.0983
22.04324889464272 60.7085
22.066109049404666 58.8894
22.088792872571794 57.9166
22.111477572219204 57.8266
22.1341631493376 57.9969
22.157026846313123 58.3792
22.179714188221507 58.3012
22.202402410582668 57.6573
22.22509151438863 56.2533
22.24795876962584 54.7371
22.270649646204486 53.5232
22.293341407213727 52.7492
22.316034053646906 51.9543
22.338904883215342 51.3691
22.36159931041458 51.3993
22.38429462602756 51.1847
22.40699083104897 50.8367
22.429865251039757 51.0569
22.452563244831367 50.8455
22.47526213102522 50.8486
22.49813925616515 50.9078
22.520839937143307 50.82899999999999
22.543541513520587 51.032
22.56624398629403 50.8906
22.589124730075895 50.9694
22.611829005656723 51.376000000000005
22.63453418063466 51.6289
22.657240256008077 51.9782
22.680124634582935 52.173
22.70283252079775 52.5064
22.725541310413075 52.7406
22.74825100442868 52.6011
22.771139033969575 53.2286
22.79385054687155 53.2653
22.81656296718292 53.5312
22.83927629590484 54.2091
22.862167992606945 54.7564
22.88488314827121 55.6092
22.907599215359284 56.2881
22.93031619487366 57.1432
22.953211574954405 57.8922
22.975930389478226 59.1205
22.998650119445763 59.9801
23.02137076586092 59.9937
23.044269845560063 59.38
23.06699233506288 58.0448
23.089715744034912 56.2413
23.112617610931565 54.4208
23.135342869061212 52.99100000000001
23.158069049684816 52.0281
23.1807961538087 51.4655
23.20370174880544 51.4782
23.226430710184808 51.6309
23.249160598093425 51.8681
23.271891413539002 51.9278
23.294800752937697 52.1426
23.31753343374794 52.3649
23.340267045128353 52.1577
23.36300158808808 52.4976
23.38591468821339 52.7066
23.408651104658304 52.8716
23.431388455719986 53.2183
23.454126742409 53.6172
23.4770436196085 54.2527
23.499783787914662 54.9963
23.522524894889884 55.5951
23.54526694154616 56.5042
23.56818761219047 57.5321
23.59093154860734 58.6423
23.613676427751283 59.7525
23.636422250635754 59.7609
23.659346731118656 58.7169
23.68209445191868 57.0513
23.704843119509587 55.292
23.72759273490623 53.1274
23.750521041644767 51.4661
23.77327256312355 49.9986
23.796025035462787 48.967
23.818956224555475 48.4954
23.841710609113413 48.2541
23.86446594758979 48.0075
23.887222241002014 47.8062
23.910157285144578 47.4265
23.932915498962537 47.3871
23.955674670778713 47.2772
23.978434801611975 47.0005
24.001373717286125 47.0281
24.024135776723917 46.7109
24.046898798245582 46.568000000000005
24.06966278287146 46.4771
24.092605586582614 46.4671
24.115371508023642 46.233999999999995
24.1381383956401 46.1023
24.16090625045381 46.1089
24.183852958731244 46.0079
24.206622758582608 45.8982
24.229393528706886 45.7035
24.252165270127392 45.6345
24.27511589952438 45.6544
24.297889594216997 45.5278
24.32066426328598 45.383
24.34343990775613 45.3514
24.36639447485003 45.2273
24.38917208083877 45.1651
24.41195066531332 45.1396
24.43490819850244 45.0858
24.457688750692377 44.8665
24.48047028445616 44.8296
24.503252800821233 45.0884
24.526214300784112 45.0479
24.548998793132213 44.9948
24.57178427117417 44.9105
24.59457073593893 45.06399999999999
24.617536219319863 44.913000000000004
24.64032466834748 44.9975
24.663114107195035 44.8931
24.685904536893013 44.7082
24.708874020360852 44.4593
24.731666442613744 44.3997
24.754459858818787 44.3131
24.777254270007962 44.394
24.80022777025625 44.3486
24.82302418230472 44.2207
24.845821592443674 44.4449
24.86862000170663 44.4681
24.891597535453727 44.25899999999999
24.914397953892728 44.4441
24.93719937456671 44.4778
24.96000179851076 44.5929
24.98298338249997 44.8533
25.00578782394922 45.043
25.028593271784167 45.0436
25.05157790644186 45.1794
25.07438537804115 45.211000000000006
25.097193859145293 45.3382
25.120003350792075 45.6947
25.142992065061257 46.0762
25.165803588823465 46.3054
25.18861612625217 46.4798
25.211429678386736 46.5092
25.234422489079968 46.7318
25.257238081693636 46.5909
25.280054692141732 46.7247
25.3028723214652 46.3835
25.325869245420463 46.5521
25.348688923599397 46.6097
25.371509623787006 46.7372
25.394331347025812 46.5006
25.41733240110666 46.3958
25.440156181590016 46.0025
25.46298098826268 45.5541
25.48580682216873 44.8379
25.50881202326435 44.1522
25.53163992281684 43.513999999999996
25.55446885274561 43.2708
25.577298814096377 42.9195
25.600308179121807 42.7603
25.623140214533745 42.9325
25.64597328451537 42.8883
25.66898578564376 42.4766
25.691820936010206 42.5552
25.714657124097695 42.599
25.737494350954734 42.5557
25.760511045684957 42.3431
25.783350361364224 42.5612
25.806190718969255 42.5256
25.82903211955018 42.6379
25.852053024868923 42.6279
25.874896522722523 42.6447
25.897741066713106 42.4559
25.920586657892454 42.3894
25.943611790812668 42.676
25.966459487728237 42.6942
25.989308234998564 42.5956
26.01215803367705 43.0433
26.03518741123814 43.1397
26.05803932412957 43.3382
26.080892291600094 43.1519
26.10374631470478 43.358999999999995
26.12677995397268 43.4902
26.14963609978026 43.6167
26.172493304397875 43.4793
26.19535156888223 43.3226
26.218389486949604 42.9977
26.241249882640123 42.922
26.26411134137826 42.4946
26.28715248187403 42.4845
26.31001607820869 42.2702
26.3328807407756 42.0652
26.35574647063438 42.3176
26.37879191991473 42.1553
26.401659795896734 42.213
26.424528742360263 42.24100000000001
26.447398760366614 42.3076
26.470448535598294 42.4535
26.49332070826805 42.6307
26.516193955675355 42.7069
26.53906827888316 42.8515
26.562122397260108 43.0232
26.584998883685063 43.2569
26.607876449110325 43.5114
26.63075509460056 43.6081
26.65381357334404 43.8297
26.67669439061878 44.0137
26.699576291163382 44.0179
26.722459276044212 43.9443
26.745522132402975 43.7387
26.768407297649354 43.5113
26.791293550442003 42.9709
26.814180891848974 42.7363
26.837248143099337 42.4364
26.860137673466657 42.3405
26.88302829566349 42.1546
26.90592001075963 42.0149
26.92899167420566 41.7849
26.951885586870763 41.5182
26.974780595655517 41.3155
26.99785558178161 41.1876
27.020752794605112 40.9495
27.043651106772522 40.8185
27.06655051935668 40.6931
27.089629948036183 40.6151
27.112531573292053 40.5265
27.135434302194138 40.6724
27.158338135817015 40.3876
27.181422024430987 40.5168
27.204328079372566 40.4398
27.22723524226965 40.4901
27.250143514198573 40.5235
27.273231880156334 40.4377
27.296142382065014 40.1924
27.319053996245536 40.2449
27.341966723775965 40.2374
27.365059584515222 40.2658
27.38797455070062 40.3183
27.410890633481237 40.1133
27.433807833936918 40.1067
27.456905206923906 40.1899
27.47982465472398 40.1415
27.502745223449743 40.1584
27.525666914182825 40.266999999999996
27.548768816912457 40.3683
27.571692763693633 40.2761
27.59461783573812 40.2897
27.617723149491244 40.2021
27.640650484125285 40.1308
27.66357894728264 40.0495
27.686508540048052 40.0834
27.709618414237887 39.9825
27.732550278321757 39.735
27.755483275279115 39.7344
27.778417406196485 39.7893
27.801531858397514 39.7449
27.824468269376716 39.7514
27.847405817586786 39.6484
27.870344504116094 39.8807
27.893463551932008 39.8434
27.916404527281053 39.9157
27.93934664422563 39.9533
27.962289903855886 40.0253
27.98541356491974 40.1433
28.00835912214229 40.189
28.03130582533231 40.3343
28.054253675581805 40.6253
28.077381967556104 40.6623
28.100332124185126 40.6784
28.123283431160893 40.6524
28.146235889577238 40.5222
28.169368830154156 40.395
28.192323603752033 40.3218
28.215279532083304 39.9506
28.238415973016764 39.5364
28.261374223145094 39.512
28.284333631303806 39.5396
28.307294198589954 39.2969
28.330435319167677 38.8788
28.353398217078915 38.7518
28.376362277420153 38.5901
28.39932750129032 38.4077
28.422473319286713 38.1718
28.44544088262495 38.097
28.468409612800283 38.0332
28.491379510913497 37.6544
28.51453004413313 37.6902
28.53750229057244 37.6246
28.56047570826344 37.5566
28.583450298308804 37.5117
28.606605564586562 37.2785
28.629582511831156 37.4894
28.65256063474956 37.3151
28.675539934446338 37.1815
28.698699951647605 37.2512
28.72168161743193 37.1692
28.74466446331978 37.1804
28.767648490417624 37.0316
28.790813276438353 36.9701
28.813799678527303 37.0655
28.836787265157085 36.9188
28.859955641890075 36.9499
28.882945610203045 37.0393
28.905936766392035 36.9828
28.928929111566863 37.0054
28.952102288520145 36.9598
28.975097024308607 36.8835
28.998092952423807 36.6965
29.021090073977508 36.5565
29.04426806913204 36.5338
29.067267590245258 36.3068
29.090268308143695 36.2036
29.11327022394099 36.1502
29.13645305530891 36.0446
29.159457379627167 36.0941
29.18246290519685 36.0156
29.20546963313352 35.9729
29.22865731875826 35.9186
29.25166646419296 35.8131
29.27467681535305 35.7191
29.29768837335608 35.7722
29.320880931312562 35.8134
29.34389491580634 35.6915
29.366910110507334 35.755
29.38992651653503 35.6982
29.41312396492981 35.6814
29.436142806456754 35.7482
29.45916286268059 35.6575
29.48236399319994 35.5952
29.50538649169417 35.503
29.528410208259935 35.4033
29.55143514402014 35.132
29.574641196749695 35.0068
29.597668583816574 34.9226
29.6206971934585 34.701
29.64372702680042 34.7668
29.666938019934474 34.5986
29.689970313635285 34.5705
29.713003834422636 34.5677
29.73603858342347 34.496
29.759254535188578 34.3545
29.78229175361658 34.3419
29.80533020365064 34.3947
29.82836988641968 34.4778
29.85159081507472 34.3846
29.874632976355343 34.2973
29.89767637376955 34.278
29.920721008448314 34.1962
29.9439469322847 34.1875
29.96699405457564 34.1666
29.9900424175358 34.1732
30.013092022298157 34.1173
30.03632295963995 33.9319
30.059375061131373 34.0171
30.08242840783577 34.1181
30.105483000888153 34.0616
30.128718970092244 34.0266
30.151776069006917 33.9071
30.17483441768648 33.8717
30.198074175317235 33.8758
30.221135036724256 33.9043
30.24419715131772 33.830999999999996
30.267260520236203 33.7798
30.290505341942243 33.7662
30.313571232750228 33.8994
30.336638381310948 33.9
30.35970678876503 33.8061
30.38295669299435 33.6831
30.40602763151657 33.5384
30.429099832366074 33.569
30.452173296685572 33.5955
30.47542830191959 33.5512
30.498504306502497 33.4954
30.521581577995562 33.6975
30.544660117543582 33.7256
30.56792024229725 33.6203
30.59100133132069 33.4578
30.614083691845494 33.5264
30.637167325018545 33.6685
30.660432587840603 33.7506
30.683518779717886 33.6454
30.70660624769615 33.6551
30.729694992924372 33.756
30.75296541239743 33.7396
30.77605672557558 33.6179
30.799149319462742 33.5691
30.8224236211637 33.5106
30.845518789950724 33.3851
30.868615242910597 33.4257
30.891712981195973 33.1982
30.91499247215866 33.0697
30.938092794619365 33.1567
30.96119440587579 33.0158
30.984297307082752 32.8991
31.00758200598383 32.7604
31.030687500658694 32.7776
31.053794288760695 32.6817
31.076902371446767 32.6144
31.100192296997445 32.6811
31.12330298246119 32.5327
31.14641496599209 32.4423
31.169528248749216 32.5036
31.19282341969534 32.4147
31.215939314557186 32.4318
31.239056512134788 32.3718
31.262175013589378 32.3481
31.28547544871168 32.2236
31.30859657161541 32.1801
31.331719001892175 32.3259
31.35484274070538 32.3916
31.378148458819545 32.4113
31.401274828443725 32.251
31.424402510106933 32.2976
31.447712205419993 32.3231
31.470842524931633 32.2758
31.493974159989783 32.2176
31.51710711176168 32.2102
31.54042212308802 32.3077
31.563557722100917 32.2361
31.586694641341655 32.1714
31.609832881979628 32.0555
31.63315322823208 32.0211
31.656294125521327 31.8244
31.679436347728515 31.7183
31.70257989602529 31.5637
31.725905596152327 31.6484
31.74905181052835 31.4838
31.772199354521323 31.5339
31.79534822930507 31.4912
31.818679302290967 31.4564
31.84183085259981 31.4952
31.864983737233473 31.5536
31.88813795736804 31.5514
31.911474422233013 31.3803
31.934631327356435 31.3775
31.9577895715215 31.4133
31.980949155906522 31.3691
32.004291031706956 31.3794
32.027453310562606 31.3205
32.05061693318573 31.2357
32.07396288236386 31.3592
32.09712920658542 31.1354
32.12029687812702 31.0311
32.14346589817093 31.0158
32.166817291729984 30.998
32.18998902288583 30.7936
32.21316210610336 30.752
32.23633654256711 30.7479
32.259693399663725 30.7802
32.282870556771144 30.5782
32.30604907069099 30.588
32.329228942610065 30.4943
32.35259128243769 30.3966
32.375773884550505 30.3737
32.398957848235646 30.4221
32.422143174682176 30.2546
32.445511016471215 30.1582
32.468699082679954 30.123
32.49188851523011 30.0112
32.51507931531304 29.8975
32.538452678331 30.0194
32.56164622776311 29.8936
32.58484114831493 29.8352
32.60803744118015 29.8353
32.631416344731896 29.8334
32.654615396551876 29.8505
32.67781582427913 29.8147
32.701198898634416 29.7131
32.72440209253756 29.639
32.747606665947124 29.6568
32.77081262006088 29.579
32.79420126883317 29.5421
32.81740999876112 29.5536
32.840620112999424 29.379
32.86383161274818 29.4183
32.88722585534586 29.4126
32.91044014056596 29.4331
32.933655814909734 29.4091
32.95687287957963 29.3465
32.98027273544904 29.2762
33.00349259526636 29.2535
33.026713849030116 29.2841
33.04993649794511 29.1607
33.073341986570746 29.1256
33.09656744032826 29.1955
33.11979429286444 29.1076
33.14302254538647 29.1211
33.166433686291185 28.9913
33.18966475336992 28.9969
33.212897224069096 28.8455
33.23613109959831 28.8622
33.259547912343415 28.8396
33.2827846121627 28.9513
33.306022720453775 28.7909
33.32926223842861 28.6247
33.352684742614166 28.7136
33.37592709463173 28.7332
33.399170859982064 28.6405
33.422597648419426 28.511
33.44584425514446 28.4492
33.46909227885668 28.4601
33.4923417207723 28.2825
33.51577423505344 28.3232
33.539026528130385 28.2226
33.56228024307245 28.2285
33.585535381098246 27.9987
33.60897364093058 27.9847
33.63223163992385 28.0753
33.6554910656699 27.8425
33.678751919389796 27.8697
33.702195944520106 27.8217
33.72545966903325 27.8395
33.74872482519663 27.7509
33.771991414233746 27.7688
33.79544122444841 27.715
33.81871069412428 27.621
33.84198160035767 27.545
33.86525394437455 27.5416
33.88870955949969 27.5204
33.911984794020626 27.5851
33.93526147001624 27.5093
33.958539588715006 27.5144
33.98200102861669 27.3732
34.0052820477047 27.2949
34.02856451319451 27.3491
34.05203033759056 27.2611
34.07531571090147 27.2375
34.09860253431845 27.1875
34.121890809074316 27.1735
34.145362493118924 27.1345
34.16865368561615 27.0482
34.191946333164054 27.0218
34.21524043699793 26.8976
34.23871800066799 26.9254
34.26201503218366 26.8202
34.28531352370466 26.8371
34.30861347646881 26.7976
34.33209693978188 26.8087
34.3553998301885 26.6606
34.378704185565205 26.5982
34.402010007152356 26.5259
34.42549939016683 26.6094
34.44880815937748 26.5031
34.472118398533134 26.4361
34.49543010887669 26.4441
34.51892543169198 26.3201
34.54224009966052 26.3217
34.56555624255917 26.3211
34.58887386163339 26.2723
34.61237514439016 26.1546
34.6356957311114 26.0928
34.65901779775809 26.0666
34.68252356662995 26.0826
34.705848608458616 26.0634
34.72917513396849 26.0021
34.75250314440949 25.9529
34.77601490857862 25.8947
34.799345904259795 25.8042
34.82267838863559 25.8852
34.846012362958525 25.8331
34.869530142679984 25.7614
34.89286711232212 25.7367
34.91620557568269 25.7631
34.93954553401677 25.697
34.9630693495876 25.6816
34.986412313340814 25.6591
35.00975677584668 25.6116
35.033102738362956 25.5902
35.05663261012228 25.4861
35.0799815881786 25.4242
35.10333207003229 25.4408
35.12668405694369 25.5198
35.150220005273056 25.4158
35.17357501786656 25.4288
35.19693153931268 25.3431
35.220289570874385 25.2489
35.24383161619786 25.2969
35.267192683604904 25.2493
35.290555264930376 25.2364
35.314101899412165 25.1581
35.33746752422433 25.1203
35.36083466676374 25.1553
35.38420332829803 25.0285
35.407756095629054 25.0971
35.43112781085063 25.0708
35.45450104888391 25.0016
35.477875810999194 24.9413
35.50143473172161 24.8494
35.52481255774625 24.9121
35.54819191167777 24.8603
35.57157279478914 24.8868
35.595137889488406 24.8423
35.61852184675279 24.7851
35.641907337029984 24.6987
35.665294361595684 24.6487
35.68886565090076 24.596
35.7122557598848 24.5717
35.73564740699838 24.6136
35.759040593519934 24.5137
35.78261809810353 24.4765
35.80601437933051 24.4559
35.829412203814705 24.4139
35.85281157283719 24.195
35.876395313415884 24.2663
35.8997977874528 24.2268
35.92320180988546 24.289
35.946790244133936 24.1611
35.97019737933222 24.1685
35.993606066789866 24.1627
36.01701630779276 24.0705
36.04061101440684 24.0916
36.06402437852291 24.1086
36.08743930005611 24.0258
36.1108557802951 23.9274
36.13445678011326 23.9269
36.15787639383515 23.9411
36.18129757014299 23.8453
36.20472031032821 23.7198
36.22832762423364 23.741999999999997
36.25175350829375 23.7571
36.275180960119776 23.648000000000003
36.298609981005924 23.6659
36.32222362992669 23.6925
36.34565580510207 23.6106
36.36908955323448 23.5739
36.39252487562093 23.5662
36.416144880530226 23.451
36.43958336764275 23.4675
36.463023432914625 23.443
36.486465077645676 23.3229
36.51009145956204 23.3907
36.53353627947859 23.3808
36.55698268276811 23.3492
36.58043067073321 23.3128
36.60406345072071 23.1782
36.62751462435344 23.2152
36.65096738658405 23.195
36.67460498210655 23.1922
36.69806093788647 23.1222
36.72151848619297 23.0458
36.744977628333636 23.1325
36.76862165890998 22.9892
36.79208400512205 23.0274
36.81554794910557 23.0025
36.83901349217101 22.9788
36.862663978991606 22.9125
36.88613273667352 22.7894
36.90960309738324 22.808000000000003
36.933075062434064 22.7264
36.95673202673572 22.7156
36.98020721697122 22.6865
37.003684015502365 22.6146
37.027162423645365 22.5436
37.050825886711465 22.6022
37.07430753063053 22.5139
37.09779078812467 22.576999999999998
37.121275660513014 22.5344
37.144945643673694 22.5
37.16843376245278 22.3694
37.19192350009803 22.4085
37.215414857931435 22.3428
37.239091382563885 22.2767
37.262585997426164 22.2711
37.28608223645736 22.2181
37.309763684451696 22.1365
37.33326318851098 22.1535
37.356764320726555 22.1184
37.380267082425526 22.1257
37.40395510942588 22.0733
37.42746114683234 21.9705
37.45096881771841 21.9345
37.474478123414166 22.0083
37.49817275092816 21.9861
37.52168534303452 21.9462
37.54519957395567 21.726999999999997
37.568715445024665 21.7667
37.592416694607714 21.7625
37.61593586281424 21.7781
37.63945667518264 21.7551
37.66297913304891 21.6855
37.68668702630454 21.6932
37.710212792059274 21.5816
37.733740207334854 21.5478
37.757269273470364 21.4737
37.780983832050374 21.3714
37.80451621684926 21.3936
37.82805025654007 21.4393
37.851585952464795 21.3435
37.8753071980695 21.3276
37.89884622345676 21.2849
37.92238690911902 21.2977
37.94611318753442 21.2888
37.969657210779765 21.1773
37.99320289834801 21.1618
38.016750251586465 21.1655
38.04048325513017 21.1095
38.06403395679343 21.0264
38.087586328183946 21.0307
38.11114037065203 21.0354
38.13488012115898 21.018
38.1584375229181 20.9381
38.181996599821 20.8726
38.205557353221124 20.9284
38.229303872575656 20.9041
38.2528679961576 20.888
38.27643380031219 20.8028
38.30000128639589 20.6859
38.32375459653193 20.7379
38.34732546371299 20.7294
38.37089801690786 20.6008
38.39447225747609 20.5687
38.418232380377425 20.5369
38.441810012983396 20.5862
38.46538933705673 20.5271
38.488970353960084 20.5029
38.51273731166058 20.4738
38.536321731567014 20.3982
38.55990784840681 20.3193
38.58367995004091 20.3446
38.60726947812959 20.2417
38.63086070726198 20.3011
38.654453638806274 20.2435
38.678232613930824 20.1615
38.70182896773327 20.1184
38.72542702806741 20.1386
38.7490267963045 20.1418
38.77281266709232 20.0888
38.79641586862214 20.027
38.8200207821842 19.9577
38.843627409152944 20.1035
38.86742019782782 19.9728
38.891030269149255 19.9424
38.914642058016156 19.9191
38.938255565806124 19.8353
38.96205529464307 19.8384
38.98567225787121 19.8098
39.00929094417078 19.7753
39.03291135492255 19.8333
39.05671804624804 19.7553
39.080341923549106 19.6538
39.103967529460334 19.6636
39.127594865365744 19.5946
39.15140854155791 19.5342
39.17503935514948 19.5111
39.19867190290282 19.524
39.22249083587951 19.5129
39.24612686969409 19.5371
39.269764641845306 19.4827
39.293404153722804 19.4346
39.317230110864074 19.3501
39.34087311998506 19.3565
39.36451787301696 19.3003
39.388164371352595 19.2566
39.41199737518003 19.2079
39.43564738196752 19.2505
39.45929913825317 19.2021
39.48295264543308 19.1706
39.506792718520884 19.1343
39.530449745387216 19.0485
39.55410852735203 19.1215
39.57776906581474 19.101
39.60161623079 18.9917
39.625280300200025 18.9467
39.64894613032202 18.9113
39.67261372255866 19.0072
39.6964680021016 18.9229
39.72013913657293 18.8575
39.74381203738292 18.8666
39.76748670593756 18.8243
39.79134812278169 18.7862
39.81502634488497 18.7633
39.83870633896685 18.7232
39.862388106436654 18.6568
39.88625668336918 18.679000000000002
39.90994201572829 18.6671
39.933629125719285 18.6108
39.957503091207826 18.5925
39.9811937746168 18.6052
40.00488623990914 18.5302
40.02858048850006 18.4648
40.05246165409549 18.4621
40.076159487492085 18.4323
40.099859108448875 18.3962
40.123560518384345 18.3487
40.1474489070226 18.3597
40.171153913178564 18.2812
40.194860712584955 18.2129
40.2185693066637 18.2226
40.242464941335314 18.148
40.26617714307655 18.1696
40.289891143772046 18.1842
40.3136069448471 18.1174
40.33750984859743 18.085
40.3612292688043 18.0545
40.3849504936829 18.0192
40.40867352466194 17.9966
40.43258372059144 17.9803
40.45631038219906 17.9905
40.48003885420956 17.9392
40.503769138055105 17.9314
40.52768664931955 17.9258
40.55142057531802 17.89
40.57515631746428 17.8153
40.599079334038514 17.8341
40.62281872700477 17.719
40.64655994043941 17.6914
40.67030297578061 17.7291
40.69423334835778 17.6492
40.71798004609188 17.6243
40.74172857006355 17.6006
40.76547892171441 17.6164
40.7894166736039 17.5469
40.813170699248566 17.5023
40.83692655691388 17.5024
40.86068424804498 17.4968
40.884629402612525 17.4058
40.908390779366385 17.3919
40.932153993938 17.3489
40.95591904777605 17.3656
40.979871628443995 17.354
41.003640379561936 17.351
41.02741097430883 17.312
41.05118341413683 17.2252
41.075143444384416 17.2643
41.098919593177826 17.2179
41.1226975914255 17.1381
41.14647744058318 17.0881
41.170444943946755 17.1163
41.19422851378379 17.1194
41.218013938914645 17.0413
41.24198706625173 16.9934
41.26577622087193 16.9946
41.289567235177785 16.9316
41.31336011063129 16.9368
41.337340752422875 16.9099
41.361137369129835 16.8662
41.38493585138705 16.7841
41.40873620066004 16.7249
41.43272438060107 16.7509
41.45652848292052 16.7819
41.48033445666918 16.7285
41.50414230331616 16.6986
41.528138045159764 16.6649
41.551949656675205 16.5874
41.575763145513235 16.6243
41.59957851314666 16.5731
41.62358184070442 16.5444
41.64740098505737 16.5284
41.6712220126409 16.5153
41.69504492493139 16.4754
41.71905586207357 16.434
41.74288256296395 16.4185
41.766711153007456 16.4271
41.79054163368412 16.4055
41.814560204340054 16.3754
41.838394485526365 16.3398
41.86223066180303 16.3033
41.88625497706819 16.2566
41.910094962812 16.2623
41.93393684811168 16.1859
41.95778063445365 16.1314
41.981812625263366 16.1334
42.00566023303407 16.1511
42.029509746323676 16.0978
42.05336116662236 16.0809
42.077400857069705 16.0821
42.10125611078846 16.0522
42.12511327600405 15.9671
42.14897235421036 15.9775
42.173019768448455 15.956
42.19688269209613 15.9137
42.22074753323349 15.8668
42.24461429335818 15.8407
42.268669455600495 15.802
42.292540073217886 15.7683
42.31641261433284 15.7732
42.34028708044675 15.7247
42.36435001496739 15.7412
42.38822835065557 15.7161
42.41210861586426 15.6663
42.4359908120986 15.6394
42.46006154323262 15.6069
42.48394762115317 15.5752
42.507835634632315 15.6093
42.531912233047436 15.5679
42.55580413732265 15.5046
42.579697981698 15.5213
42.60359376768525 15.4372
42.62767820545945 15.4327
42.65157789440821 15.4339
42.67547952952185 15.3415
42.699383112316 15.3692
42.72347541395347 15.407
42.74738291190531 15.3171
42.771292362102166 15.2821
42.795203766063516 15.2368
42.819303956130405 15.2153
42.843219287476536 15.222999999999999
42.86713657716324 15.1901
42.89105582671383 15.1531
42.91516392983864 15.1305
42.939087119032166 15.1175
42.963012272677304 15.0678
42.98693939230129 15.0277
43.01105543317513 15.015999999999998
43.034986504731386 14.9729
43.05891954686589 14.9205
43.08285456110972 14.918
43.10697856448665 14.9116
43.130917542983475 14.8515
43.15485849820081 14.8441
43.17880143167367 14.8167
43.20293342237094 14.7445
43.226880332449 14.7954
43.25082922540554 14.7902
43.27496722682525 14.7558
43.29892010567796 14.7189
43.32287497204102 14.7301
43.34683182745632 14.6097
43.370977859791836 14.6431
43.39493871351105 14.616
43.41890156092628 14.5733
43.44286640358341 14.5459
43.46702049182749 14.5438
43.49098934522816 14.4814
43.51496019852649 14.494000000000002
43.5389330532723 14.4764
43.56309522248204 14.3931
43.58707210044314 14.3998
43.61105098451946 14.3518
43.63503187626491 14.3847
43.659202151562134 14.2937
43.68318707902681 14.2907
43.70717401884041 14.2398
43.731162972560874 14.2303
43.75534137913236 14.2078
43.779334381108384 14.1767
43.803329401683186 14.1314
43.82732644241872 14.1545
43.8515130055166 14.1458
43.87551410707659 14.0556
43.89951723350145 14.0502
43.923709934595614 14.0429
43.94771713129917 14.0103
43.97172635758096 14.0044
43.99573761501002 13.9577
44.0199385169922 13.9556
44.04395385732619 13.9409
44.067971233533086 13.9198
44.09199064718605 13.9141
44.11619977548961 13.8807
44.14022328470671 13.812000000000001
44.16424883610785 13.8323
44.18827643127035 13.8251
44.21249381139513 13.8178
44.236525514814076 13.755
44.26055926674478 13.7199
44.28459506876863 13.7231
44.3088207262813 13.6529
44.33286064928722 13.6938
44.35690262714919 13.6324
44.38094666145278 13.5535
44.4051806219871 13.5829
44.42922879003185 13.5661
44.45327901929361 13.4907
44.477331311362136 13.4948
44.501573600619416 13.5051
44.525630039221795 13.4527
44.54968854541895 13.4172
44.573937102200176 13.4224
44.5979997645541 13.3729
44.622064499300315 13.3443
44.64613130803592 13.3233
44.67038823869318 13.2864
44.69445921643748 13.2511
44.718532272981385 13.2514
44.742607409926194 13.2384
44.76687274034801 13.2641
44.79095205918753 13.1428
44.81503346325094 13.1737
44.839116954143876 13.1568
44.86339071028742 13.1054
44.88747839599524 13.1049
44.91156817336837 13.0827
44.93566004401666 13.0352
44.959942251908146 13.0319
44.984038330325966 13.0047
45.00813650686762 12.9749
45.03223678314731 12.9533
45.05652746888232 12.9543
45.08063196592069 12.9011
45.104738567558705 12.9265
45.128847275414856 12.8366
45.15314646515866 12.8245
45.17725940679741 12.8141
45.20137445952892 12.7682
45.22568004865265 12.7516
45.24979934496396 12.7671
45.27392075725247 12.7288
45.29804428714431 12.7109
45.322358426247604 12.7189
45.346486212804315 12.6543
45.370616121861914 12.6535
45.39474815505086 12.6256
45.41907087049246 12.5554
45.4432071734666 12.5429
45.46734560548283 12.5572
45.49148616817604 12.5132
45.51581748638564 12.4978
45.5399623320197 12.4903
45.56410931325473 12.4511
45.58825843173002 12.4758
45.61259837920865 12.427999999999999
45.636751793816 12.4503
45.66090735060093 12.3677
45.68506505120716 12.3301
45.7094136545275 12.3311
45.73357566449271 12.2771
45.75773982322992 12.3068
45.78190613238733 12.2959
45.806263418194064 12.2555
45.83043404997326 12.1926
45.85460683713677 12.2377
45.87897065658495 12.1816
45.90314777634752 12.0912
45.92732705646868 12.0966
45.9515084986045 12.0811
45.97588104735473 12.0666
46.00006683541565 12.0656
46.02425479047904 12.0671
46.04844491420549 12.0608
46.0728262191024 12.0095
46.09702070211635 11.9584
46.12121735879483 11.9736
46.14541619080294 11.9647
46.169806278764455 11.9384
46.194009483459034 11.8997
46.21821486849841 11.8635
46.24242243555223 11.8611
46.266821333570014 11.8158
46.29103328674601 11.7882
46.31524742696538 11.8093
46.33946375590237 11.7541
46.36387149104216 11.7583
46.38809221957392 11.7256
46.41231514186606 11.7366
46.436540259597464 11.6824
46.460956858999374 11.6613
46.48518638983522 11.6466
46.509418121166966 11.6141
46.533652054678114 11.5985
46.55807754555709 11.582
46.58231590571962 11.5742
46.60655647313217 11.5485
46.630988654873654 11.5151
46.655233659129024 11.4487
46.67948087571551 11.4187
46.70373030632484 11.4012
46.72817142736393 11.4366
46.752425308428684 11.3816
46.77668140861147 11.4098
46.80093972960865 11.3096
46.82538981736788 11.3378
46.849652602470904 11.3087
46.87391761349769 11.3103
46.8981848521493 11.2707
46.9226439341274 11.2401
46.946915650573224 11.218
46.97118959976749 11.187999999999999
46.99546578341598 11.182
47.019933887188216 11.183
47.04421456235744 11.1598
47.06849747711879 11.1121
47.09278263318286 11.0744
47.11725978640143 11.09
47.14154944775105 11.0583
47.165841355555656 11.0648
47.1901355115306 11.002
47.214621741924994 11.0242
47.23892041698887 10.9692
47.26322134538975 10.9624
47.28771440635075 10.927999999999999
47.31201986422527 10.9312
47.33632758061436 10.9216
47.360637557241866 10.9086
47.38513974410611 10.8823
47.40945426407847 10.833
47.43377104948137 10.8238
47.45809010204344 10.7783
47.48260144275502 10.7889
47.506925052572285 10.7744
47.53125093475548 10.72
47.55557909103813 10.7205
47.58009961361992 10.7161
47.60443234110732 10.67
47.62876734791564 10.6575
47.65310463578333 10.6278
47.6776343683373 10.6003
47.7019762413987 10.6092
47.72632040075572 10.577
47.75066684815169 10.5576
47.77520581885936 10.5066
47.799556865477655 10.4922
47.823910205386 10.5123
47.84826584033272 10.5079
47.87281407745551 10.469000000000001
47.89717432569297 10.4618
47.92153687423484 10.4625
47.94609208429692 10.4248
47.97045925671401 10.3738
47.99482873471275 10.3354
48.01920052005013 10.3453
48.04376504619224 10.3281
48.068141469543484 10.3526
48.09252020552573 10.3003
48.11690125590099 10.3107
48.1414751266064 10.2688
48.16586082917454 10.2145
48.19024885144316 10.2017
48.2146391951793 10.2212
48.239222439012764 10.2072
48.26361744916137 10.1712
48.28801478610016 10.1872
48.31241445160131 10.1725
48.337007097209366 10.1366
48.36141144338331 10.078
48.38581812345755 10.0546
48.41022713920929 10.1138
48.434829215320704 10.038
48.45924292604658 10.0181
48.48365897780325 10.0179
48.50807737237308 10.002
48.532688907799276 9.985330000000001
48.55711201168574 9.98301
48.581537463754074 9.959389999999999
48.60615611725119 9.93786
48.63058628942721 9.9387
48.65501881516546 9.891810000000001
48.6794536962573 9.88062
48.70408185970339 9.8497
48.72852147531801 9.8259
48.75296345168211 9.7853
48.77740779059232 9.81307
48.80204549302823 9.79539
48.82649458091802 9.770489999999999
48.85094603676547 9.75027
48.87539986237231 9.71355
48.90004713292306 9.69689
48.92450572200832 9.68928
48.94896668628025 9.67948
48.97343002754588 9.64604
48.99808689542115 9.64194
49.02255501470614 9.625160000000001
49.04702551642794 9.62144
49.0714984023988 9.59953
49.096164896893235 9.56437
49.120642575466796 9.568019999999999
49.145122643748394 9.55573
49.16960510355558 9.48204
49.19428125404938 9.491710000000001
49.2187685210852 9.4963
49.243258185121555 9.48955
49.26794160167084 9.46345
49.2924360839405 9.394969999999999
49.31693296869764 9.385539999999999
49.34143225776915 9.36433
49.36612538195438 9.34388
49.39062950396021 9.37728
49.41513603578346 9.35722
49.4396449792564 9.31588
49.46434784069503 9.29848
49.488861631846454 9.265
49.513377840166804 9.264569999999999
49.537896467493745 9.22973
49.56260909589029 9.20407
49.587132585683285 9.21499
49.611658500018365 9.19383
49.636186840738596 9.14589
49.66090926588511 9.175360000000001
49.685442483902584 9.14326
49.70997813385706 9.10069
49.734516217597076 9.06971
49.75924846937352 9.07981
49.7837914452858 9.05683
49.80833686055187 9.03328
49.83288471702571 9.0184
49.85762682540054 8.9559
49.882179588965734 8.99195
49.9067347993235 8.96058
49.93129245833333 8.95693
49.95604445336378 8.949
49.98060703442832 8.901860000000001
50.005172069746266 8.911539999999999
50.02993150438364 8.89212
50.05450147301533 8.86474
50.07907390151433 8.861180000000001
50.10364879174981 8.822339999999999
50.12841816587289 8.78272
50.1529980044635 8.7891
50.17758031042124 8.793989999999999
50.20216508562089 8.77699
50.22694442953363 8.73546
50.25153416817468 8.71388
50.27612638170508 8.72799
50.300721072005196 8.66442
50.325510416102105 8.64983
50.350110084975064 8.65456
50.37471223628208 8.671439999999999
50.39931687190919 8.63822
50.424116246675766 8.59884
50.44872587605249 8.58864
50.47333799543065 8.61595
50.49795260670191 8.595139999999999
50.52276204271512 8.53474
50.54738166295838 8.50323
50.57200378079314 8.498669999999999
50.596628398116835 8.49997
50.62144792604559 8.49423
50.646077567609396 8.49147
50.670709714377715 8.448260000000001
50.69553683636198 8.43427
50.72017401885922 8.44842
50.7448137122895 8.381039999999999
50.76945591856022 8.37093
50.79429318636823 8.37982
50.818940443716784 8.38117
50.84359021965163 8.34378
50.868242516085964 8.30433
50.893089960641895 8.26332
50.917747323549435 8.30198
50.94240721271973 8.314589999999999
50.96706963007175 8.22612
50.99192728239342 8.197410000000001
51.01659478166073 8.24879
51.04126481489051 8.19857
51.06593738400761 8.204180000000001
51.090805275207074 8.18055
51.11548294172845 8.156419999999999
51.14016314993547 8.13551
51.164845901758845 8.16027
51.18972406304274 8.14855
51.21441192780656 8.05841
51.23910234200271 8.07868
51.2637953075678 8.077910000000001
51.288683770237945 8.05542
51.31338186432707 8.02229
51.33808251561888 7.98527
51.362978729967345 8.00503
51.387684521509755 7.996169999999999
51.41239287610203 7.97843
51.437103795691165 7.9413100000000005
51.46201036644977 7.89963
51.486726441956634 7.90107
51.51144508832545 7.918139999999999
51.536166307509156 7.85992
51.56108326624387 7.84467
51.58580965706056 7.833810000000001
51.61053862657523 7.80483
51.635270176746864 7.78822
51.66019755512065 7.785010000000001
51.68493429268881 7.795789999999999
51.70967361681515 7.7854
51.73441552946465 7.7351
51.759353359237934 7.72209
51.7841004750961 7.719110000000001
51.80885018539685 7.71236
51.833602492111254 7.6635100000000005
51.8585508051424 7.69141
51.883308330926425 7.67868
51.90806845906181 7.64625
51.932831191525715 7.6431
51.95779001977161 7.61565
51.98255798721516 7.577000000000001
52.00732856494335 7.5825
52.03229530577543 7.553960000000001
52.057071130455945 7.51973
52.081849571391054 7.5128699999999995
52.106630630568695 7.5193
52.13160794279417 7.50024
52.15639426492067 7.51053
52.18118321127822 7.48762
52.205974783860896 7.420719999999999
52.23096269971011 7.44941
52.255759551287994 7.43956
52.280559035098186 7.3695699999999995
52.30536115314103 7.40055
52.33035970494467 7.40228
52.35516711807904 7.374689999999999
52.37997717147198 7.347160000000001
52.40478986713005 7.341289999999999
52.42979908731974 7.2889
52.454617094216 7.30633
52.47943774942214 7.2751600000000005
52.50426105495102 7.26352
52.529280976059844 7.28212
52.554109609024096 7.22214
52.57894089837482 7.216819999999999
52.60377484613117 7.1797699999999995
52.62880550079408 7.1749
52.65364479223379 7.17471
52.67848674816189 7.1492
52.70352547971946 7.13214
52.72837279155837 7.16788
52.753222773982785 7.12375
52.778075429022984 7.113339999999999
52.80312495150885 7.084980000000001
52.827982978797436 7.062639999999999
52.85284368481815 7.019610000000001
52.87770707160767 7.00275
52.90276741793998 7.00386
52.92763619336701 7.02032
52.952507655698504 6.9861699999999995
52.977381806977576 6.982710000000001
53.00245301017842 6.951860000000001
53.02733256653592 6.946439999999999
53.052214817996074 6.937689999999999
53.077099766608484 6.960489999999999
53.102181859804446 6.92738
53.127072229988265 6.91724
53.15196530349892 6.90354
53.17686108239249 6.879519999999999
53.20195409881522 6.845260000000001
53.22685531582556 6.861610000000001
53.25175924441303 6.796
53.27666588664027 6.82063
53.30176985962693 6.797839999999999
53.3266819565689 6.768
53.35159677336455 6.76565
53.376514312083096 6.73929
53.40162927507703 6.74608
53.42655228516116 6.74764
53.45147802340193 6.719130000000001
53.47660125628886 6.7057899999999995
53.50153247842639 6.6947600000000005
53.52646643496923 6.60873
53.55140312799818 6.647530000000001
53.576537409691696 6.600219999999999
53.60147960336152 6.619160000000001
53.626424539786164 6.59854
53.65137222105307 6.55197
53.67651758529126 6.55156
53.70147078399681 6.54289
53.72642673383343 6.5876
53.75138543689533 6.5405
53.776541917524526 6.516859999999999
53.801506154876755 6.46895
53.826473151763246 6.48119
53.851442910284916 6.4783800000000005
53.87661054126026 6.4724
53.9015858509782 6.43342
53.92656392866066 6.43454
53.95154477641532 6.42992
53.976723591801296 6.374219999999999
54.00171000771266 6.40308
54.02669920004598 6.37105
54.051691170915745 6.344930000000001
54.076881204886796 6.3328
54.101878760928514 6.292619999999999
54.12687910187696 6.33617
54.152077577768296 6.3295
54.1770835166946 6.2767599999999995
54.20209224691339 6.24431
54.22710377055121 6.22739
54.25231352511594 6.22487
54.27733066384342 6.18553
54.30235060239643 6.20319
54.32737334290836 6.15826
54.35259441062629 6.11076
54.377622783395324 6.07895
54.40265396455061 6.1282
54.42768795623251 6.12108
54.45292037169559 6.08246
54.477960012857906 6.08946
54.50300247099511 6.070819999999999
54.52804774825457 6.10505
54.55329154616743 5.997330000000001
54.57834249018678 5.97535
54.6033962597977 5.92455
54.6284528571545 5.95271
54.653708072335164 5.88807
54.67877035378786 5.855180000000001
54.70383546947698 5.832730000000001
54.72890342156389 5.8604199999999995
54.7541700889442 5.81818
54.77924374251975 5.817740000000001
54.8043202390049 5.76239
54.82959552413022 5.74198
54.8546777351945 5.74735
54.87976279569621 5.70191
54.90485070780914 5.73632
54.930137506558005 5.69359
54.95523115074295 5.695819999999999
54.98032765308844 5.65837
55.005427015775496 5.59846
55.03072536339621 5.633830000000001
55.05583047570572 5.59693
55.080938454927676 5.56417
55.10604930325027 5.55337
55.131359235107396 5.5679
55.15647585066083 5.45673
55.181595341907496 5.47855
55.20671771104285 5.4320699999999995
55.232039262617704 5.4352
55.25716741665048 5.39899
55.28229845518636 5.43038
55.30743238042802 5.3712
55.33276558731939 5.31511
55.357905315183636 5.29565
55.383047936390035 5.2251199999999995
55.40819345314859 5.26527
55.433538351073295 5.22346
55.458689688238415 5.18289
55.483843927614096 5.1799599999999995
55.509197623043605 5.1837
55.53435769621134 5.12154
55.55952067826466 5.10984
55.5846865714265 5.09103
55.61005202069737 5.04128
55.63522376553902 5.0492
55.66039842818645 5.044569999999999
55.68557601087004 5.04248
55.7109532500271 4.94787
55.73613670233794 4.96672
