TT I
1.2716486653135266 7.7942
1.2939594142134223 7.14623
1.3162702121660406 7.35377
1.3385810600174564 7.28012
1.3608919586137629 6.6417600000000006
1.383202908801069 6.70432
1.405513911425503 6.38701
1.4278249673332093 6.3926099999999995
1.4501343378461518 6.62385
1.4724455028545926 6.49185
1.4947567236847858 7.3272699999999995
1.517068001182951 6.90727
1.5393793361953272 6.19695
1.5616907295681737 5.88088
1.5840021821477681 5.62524
1.60631369478041 5.641769999999999
1.6286252683124185 5.47115
1.6509369035901333 5.3865
1.6732468618895553 5.38589
1.695558623192809 4.89424
1.7178704487808514 5.22809
1.7401823395001077 5.34092
1.7625012545597203 5.60687
1.7848028405262486 5.03356
1.8071218901122095 5.68139
1.8294236121921872 4.56747
1.8517427996910911 5.06465
1.8740620574440425 4.95376
1.8963639900671978 5.3552800000000005
1.9186833908139995 4.97785
1.9409854680117449 4.92943
1.9633050151394713 5.380719999999999
1.9856246367570705 4.3941300000000005
2.0079269371922672 5.07651
2.03024671027244 5.1864099999999995
2.0525491637446027 5.154059999999999
2.074869091674931 4.47461
2.097171701569106 4.49314
2.1194917877373847 5.30213
2.141811954326636 4.894819999999999
2.164114805233074 4.629919999999999
2.186435135143035 4.44726
2.208738150935709 4.6622
2.231058647554722 4.85534
2.2533792288321184 4.49252
2.275682498336085 4.7897
2.298003251406138 4.36483
2.3203066942619714 4.43851
2.3426276225136022 4.5107099999999996
2.3649486396617507 4.26578
2.387252348930071 4.8676900000000005
2.4095735463442893 4.87135
2.4318774374315884 4.2489300000000005
2.4541988185014043 3.8212300000000003
2.476502894794693 4.46454
2.498824462909887 4.43091
2.521146125856138 4.53204
2.5434504863470337 4.53032
2.5657723414244717 4.709980000000001
2.588076895590662 5.41259
2.610398946189713 4.93159
2.6327210958598384 5.02882
2.6550259469304716 5.43438
2.6773482972090137 5.51423
2.6996533504259 5.91305
2.7219759047039602 6.10544
2.744298562293959 6.3622
2.7666039251246595 6.46934
2.7889267918020164 6.50753
2.8112323652516555 7.10658
2.833555444408179 7.37212
2.8558786311183852 7.779210000000001
2.8781845268938557 8.299719999999999
2.9005079311721484 8.15807
2.9228140460410397 8.248389999999999
2.9451376712799635 8.88147
2.967444008632326 9.239310000000001
2.9897678582247247 10.1665
3.0120918213106695 10.4883
3.0343984987899373 11.0133
3.0567226913198637 11.2487
3.079029599759726 11.8401
3.101354025127254 12.3433
3.123678568232338 14.7425
3.145985829517914 13.9473
3.16831061055229 13.7565
3.1906181112775593 14.3585
3.212943133635653 15.0386
3.2352682779763207 15.0319
3.2575761442691227 15.0341
3.2799015350264273 15.7089
3.302209649240067 16.5578
3.3245352898092655 16.9498
3.3468436553365257 17.4191
3.369169549113219 18.2325
3.3914955708171384 18.8695
3.413804319727358 18.6289
3.4361305997334863 18.9289
3.4584396084414553 19.4804
3.4807661501462652 20.352
3.503092824025881 20.047
3.5254022288463154 20.552
3.5477291695206588 21.2295
3.5700388426251948 21.5132
3.5923660534916446 21.9826
3.6146934007816114 22.2046
3.637003482731501 22.5092
3.6593311053109985 22.7728
3.681641464033634 23.3073
3.7039693653009733 23.7073
3.726297407241705 24.4432
3.7486081875460804 24.357
3.7709365132734978 24.8145
3.793247578841633 25.5187
3.8155761917550093 26.354
3.8378875459837216 26.3379
3.8602164494827234 26.9131
3.882545499606844 27.7797
3.9048572932539183 27.8432
3.9271866390645718 28.2803
3.9494987298666713 28.9976
3.971828374764527 29.4805
3.9941581705403255 29.7189
4.016470713506008 30.1783
4.038800813471445 30.9884
4.061113662089144 31.1894
4.0834440696459176 31.7873
4.105774632334751 32.5414
4.128087945865126 32.6916
4.150418821249301 33.6115
4.172732448931298 34.2537
4.195063640413578 34.7603
4.2173775856475215 35.8453
4.239709096631102 36.3467
4.262040768704612 36.9358
4.284355196706267 37.7054
4.306687193387355 38.0635
4.329001947444346 39.0633
4.35133427213731 40.0154
4.373666762177566 40.6835
4.395982011761091 41.2671
4.418314834921175 42.6675
4.44063041906622 43.2438
4.4629635787515625 44.0661
4.4852969080429785 45.4121
4.5076130004776225 46.9307
4.529946671403969 47.4478
4.552263106909177 48.4094
4.574597122877047 49.4401
4.596931312711224 50.1581
4.619248269273446 51.3493
4.6415828092605835 52.8153
4.663900117405352 53.9142
4.686235010953232 55.2756
4.708552674085913 57.4755
4.730887924602802 58.8414
4.753223354952695 60.3069
4.775541557023902 61.2832
4.797877349456786 62.9383
4.820195915032126 65.0185
4.842532072957498 66.8475
4.864868414979744 69.0632
4.88718753227192 70.6924
4.909524244902505 73.355
4.931843734218147 75.4306
4.954180820867835 78.8342
4.976518095879839 82.48299999999999
4.998838149695359 86.4224
5.021175803844231 90.95299999999999
5.043496238205739 95.5524
5.065834274903528 101.205
5.088172504230693 107.89
5.1104935158799565 117.61
5.132832132875765 131.683
5.155153533596801 153.839
5.1774925416746225 206.988
5.199814334878411 536.502
5.2221537374521505 1908.06
5.244493338631803 3773.76
5.266815727034316 5551.29
5.289155727832427 8502.91
5.311478517248165 9649.49
5.333818921080011 6174.7
5.356159527788849 1837.71
5.3784829252032536 420.245
5.400823940070432 206.86900000000003
5.423147747031976 160.82
5.445489173474152 138.977
5.467830807066149 126.544
5.490155234831516 119.111
5.512497285125229 113.756
5.534822130975162 111.054
5.557164601388673 107.749
5.579489868738879 103.986
5.601832762690846 102.30799999999999
5.6241758697774475 100.30799999999999
5.646501775867269 98.9957
5.668845311622074 98.4786
5.691171647754637 97.7761
5.713515615597765 96.1711
5.735859800852677 96.0964
5.758186788542988 95.0312
5.780531411018185 94.7744
5.802858837297399 95.0795
5.825203900414495 95.4596
5.8475491852224 96.9209
5.869877275883075 98.7562
5.892223006467101 101.75200000000001
5.914551544266608 105.236
5.936897724049891 111.176
5.959244129804903 123.365
5.981573344815301 153.747
6.0039202049061 285.23900000000003
6.026249875609095 743.541
6.04859719346037 1381.87
6.070927323278297 1960.67
6.093275102315365 2825.05
6.115623113320588 3987.17
6.137953938319995 4063.3
6.160302415650845 2167.29
6.182633708324452 662.88
6.2049826554078376 209.007
6.227331838745022 120.965
6.249663839443684 98.9497
6.27201349767565 88.8355
6.294345974611799 83.3165
6.316696111167083 78.7086
6.339046488263839 75.3913
6.361379686074702 72.6704
6.383730546639482 70.5354
6.406064229255215 68.6499
6.428415576718203 67.9956
6.450749747566656 66.6535
6.47310158535871 65.4828
6.495453669698332 64.7883
6.517788579421056 63.995
6.540141159237969 62.8103
6.562476565766648 62.2312
6.5848296444934045 61.4547
6.607182974060425 60.4336
6.6295191323281015 60.0605
6.651872965955752 59.5416
6.6742096296068985 58.7002
6.6965639707294615 58.7008
6.71891856698715 57.9894
6.741255995248479 57.1615
6.763611104154477 57.3031
6.785949046381137 56.6801
6.808304671371482 55.7566
6.8306605557940046 55.945
6.852999275508618 55.2154
6.875355681171544 54.7405
6.897694923437771 55.2729
6.92005185377892 54.7413
6.9423916220322655 54.4725
6.964749080490181 53.8492
6.987106804399774 53.7907
7.009447368180821 53.527
7.031805625367033 53.3991
7.054146723727803 53.5299
7.076505517631004 53.2756
7.098864581288365 52.8986
7.121206488070854 52.7902
7.143566093607822 52.7823
7.165908543567245 52.8803
7.188268694426048 52.875
7.2106291193438095 51.9443
7.232972390625943 52.1145
7.255333366030969 51.9516
7.277677189091925 51.9145
7.300038718428332 52.2871
7.322400526130865 51.9775
7.344745183422596 52.4556
7.367107550224791 52.1684
7.389452767901992 52.299
7.411815697249891 52.0806
7.434161478756298 51.7541
7.456524974096713 51.9925
7.478888753837185 51.9577
7.501235387657368 53.153
7.523599738562711 56.082
7.545946944825532 61.15
7.568311870344528 62.6957
7.5906770845765665 58.9455
7.613025156078678 55.6301
7.635390950099687 54.4493
7.657739602662809 53.5983
7.680105979923558 53.4994
7.702472650212829 54.2735
7.724822180948224 54.4921
7.747189439655568 54.5341
7.769539560075357 54.5952
7.791907410653562 54.8961
7.81425812420825 54.9144
7.836626570110925 55.5867
7.858995315087906 56.2968
7.881346924933401 56.4718
7.903716270417482 56.8487
7.926068482028405 57.4
7.948438431475253 57.8978
7.9708086843180235 58.4941
7.993161805171116 59.0692
8.015532667162402 59.4417
8.037886398416653 60.4624
8.060257873014221 60.7321
8.082629655331942 61.6139
8.104984308787587 62.298
8.127356708900503 63.1547
8.149711981398308 63.976000000000006
8.172085002766314 64.9924
8.194458336181368 65.8481
8.216814543847752 66.9142
8.23918850371002 68.4006
8.26154533906492 69.1891
8.283919928836452 70.9269
8.306277395339652 72.1518
8.328652618483376 73.5648
8.351028159736202 75.9685
8.373386579575245 78.7254
8.395762759396959 80.8704
8.418121819038275 84.1624
8.440498640894003 88.7106
8.462875785192262 95.2857
8.485235811156207 110.2
8.507613602688501 172.42700000000002
8.529974277114228 364.89099999999996
8.552352719347912 597.4780000000001
8.574731488360351 773.643
8.59709314210385 907.648
8.619472567021075 1141.21
8.64183487789147 1534.05
8.664214962183097 1883.03
8.686577933647762 1624.72
8.708958680784317 899.148
8.731339760774953 393.776
8.753703729764451 170.79
8.77608547780821 115.561
8.798450116065078 103.85700000000001
8.820832535634787 96.8008
8.843215292401656 93.5093
8.865580941199045 91.4521
8.887964374703538 89.465
8.910330701447199 87.9862
8.932714815164482 87.0256
8.955099270424924 85.5767
8.977466620733543 84.8278
8.999851761421976 84.1938
9.022219798361645 83.5174
9.04460562795561 83.5712
9.066991803441677 82.9116
9.089360876979615 82.9818
9.111747746589993 82.4626
9.13411751544971 81.9626
9.156505082664324 81.4799
9.178875550323522 81.8396
9.20126381862328 82.2362
9.223652438908596 86.8382
9.246023961427412 94.8983
9.26841328802173 95.5896
9.290785518039224 91.1819
9.313175554425882 86.2723
9.335565947154315 83.27
9.357939245086508 82.8541
9.380330352834827 82.5937
9.40270436697103 82.5859
9.425096193225055 82.50299999999999
9.447488380180165 83.1929
9.469863475295412 83.5099
9.492256385987508 84.0489
9.514632206018318 84.755
9.537025843935714 85.1874
9.559402392368193 85.4617
9.581796761000229 86.1521
9.604191496441521 86.6431
9.626569144158516 87.729
9.648964615551032 88.2094
9.671343000390081 89.1747
9.693739211225699 90.0612
9.716135793237463 91.1202
9.738515290448102 92.2078
9.760912617143402 93.39299999999999
9.783292860202891 94.679
9.805690935076182 96.4699
9.828089385495742 97.095
9.850470754023561 98.9145
9.872869957865444 100.947
9.89525208097539 104.368
9.917652041736662 108.10700000000001
9.940052382417589 114.21799999999999
9.962435644102392 130.405
9.984836746950979 185.11599999999999
10.007220771957746 340.42900000000003
10.029622640473708 541.439
10.052007432299963 677.8810000000001
10.074410069984072 745.9810000000001
10.096813093716005 848.813
10.119199042482517 1067.58
10.141602840636468 1411.3
10.163989564971628 1690.35
10.186394141051062 1541.22
10.208799107559706 958.715
10.231187001965623 469.207
10.253592751657669 210.30700000000002
10.275981430388155 133.22799999999998
10.298387966769793 116.15299999999999
10.320794897965431 111.54
10.343184759907361 108.118
10.36559248305461 105.29799999999999
10.387983138083852 105.176
10.410391656691655 106.90899999999999
10.432800574501677 121.70299999999999
10.455192425893369 163.605
10.47760214443012 214.287
10.499994797678786 247.80599999999998
10.522405320453982 264.49
10.54479877906917 289.633
10.567210109595656 342.147
10.5896218454736 420.31
10.612016518879773 502.93699999999995
10.634429067781074 492.86199999999997
10.656824555333241 366.596
10.679237920773568 227.06
10.701651695961992 133.054
10.724048411481384 100.083
10.746463008485165 90.4297
10.768860546937125 86.8101
10.791275969274796 84.48
10.81369180576079 82.5284
10.836090585366925 81.1982
10.858507252467449 79.6403
10.88090686379991 78.3016
10.903324365036394 77.4345
10.925724811614439 76.1086
10.948143150509463 75.7627
10.970561909719066 74.8243
10.992963615930844 74.122
11.015383218085756 73.2744
11.037785768347074 72.2886
11.06020621697282 71.8743
11.082627090322113 71.2101
11.105030913430326 70.3676
11.12745263854165 69.8809
11.149857314510728 69.1588
11.172279894912576 69.2733
11.194702904450653 67.9864
11.217108866490921 67.4889
11.239532736615194 67.2189
11.26193956033512 66.7161
11.284364294577085 66.7171
11.306789462371718 66.0468
11.329197585398376 65.7899
11.351623622610898 65.6735
11.37403261614354 64.9516
11.396459526308487 64.922
11.418869393879497 64.5117
11.441297180532617 64.0793
11.463725406927658 63.9025
11.486136592353875 63.479
11.508565700543707 63.0755
11.530977768845315 62.9254
11.553407762368774 62.6216
11.575838200059769 62.4507
11.598251599479612 62.6
11.620682927815501 62.3602
11.64309721895548 62.5257
11.665529441478206 62.0516
11.687962112597958 61.9726
11.710377748130886 62.0204
11.732811318753434 61.7548
11.755227854859067 61.7893
11.777662328529495 61.3989
11.800079768750786 61.4023
11.822515149015453 61.6333
11.844950984084935 61.7727
11.867369787303163 61.551
11.889806534289491 61.5968
11.912226250487029 62.7163
11.934663912939751 64.2701
11.9571020346363 65.9321
11.979523127133968 65.6574
12.001962169624331 65.4377
12.024384183972964 65.2256
12.046824150809913 67.9185
12.069264581333726 77.6719
12.091687985297767 90.7565
12.11412934550045 101.62299999999999
12.136553680195208 108.505
12.158995973632788 113.41799999999999
12.181438735204349 120.319
12.20386447284199 132.784
12.226308172985636 153.596
12.24873485024193 183.3
12.271179492516982 196.438
12.293607112949127 180.325
12.316052700916226 138.847
12.338498763250042 97.9648
12.360927805303868 74.7012
12.383374818673879 66.6361
12.405804812803074 64.1646
12.428252780773262 63.7221
12.45070122756722 63.5162
12.473132656675375 63.2932
12.49558206341869 63.4278
12.518014453510101 63.428000000000004
12.540464823770117 63.4443
12.562915677315177 63.4563
12.58534951575545 63.9674
12.607801338171472 63.79600000000001
12.630236146511358 64.3134
12.652688941369085 64.7138
12.675124723177234 64.8597
12.697578494048786 65.444
12.720032754458185 65.5211
12.742470003354093 66.0584
12.764925245138771 66.388
12.787363476431278 67.0925
12.809819703166806 67.1708
12.83227642391173 67.8993
12.854716135692716 68.4745
12.877173846755147 69.8247
12.899614549869717 70.3785
12.9220732548287 71.0006
12.94453245827299 71.5928
12.966974655289818 72.6336
12.989434858002571 73.4559
13.011878055298721 73.9598
13.034339260862497 75.3499
13.056800969391883 76.9889
13.079245674017244 79.2423
13.101708390774869 81.5474
13.12415410463411 86.5862
13.146617833206086 103.186
13.169064559883248 132.591
13.191529303857127 163.592
13.213994557076367 186.622
13.236442809902437 198.71
13.258909083908291 208.351
13.28135835851934 223.385
13.30382565690295 251.97099999999998
13.326293469022952 299.902
13.348744283242008 355.14
13.371213125129904 396.566
13.39366497011003 376.014
13.416134845360597 298.413
13.438605238843131 205.50099999999998
13.46105863690397 140.982
13.483530069144786 118.803
13.505984506951902 129.609
13.528456981549432 153.83100000000002
13.550929978879088 172.61599999999999
13.573385983253365 182.407
13.595860028340867 187.359
13.618317081455832 196.707
13.64079217790333 214.38299999999998
13.663250283359057 244.895
13.685726434770173 287.97700000000003
13.708203115221277 336.556
13.730662806148091 347.593
13.75314054697177 303.971
13.775601299246777 229.312
13.798080104050406 155.195
13.820559442405358 106.311
13.843021793671388 88.444
13.865502201420897 82.4317
13.887965623051947 80.8041
13.910447103807167 79.6327
13.932929122629764 77.9272
13.955394156785959 77.4475
13.977877254034569 76.455
14.000343367582113 75.3409
14.022827546871707 74.6231
14.045294743423524 73.8986
14.06778000837062 73.2766
14.090265817715476 72.9054
14.112734645763819 73.2011
14.13522154619454 73.6377
14.157691466286913 74.0859
14.180179461423874 73.7961
14.202668005486178 72.7011
14.22513957064374 71.6413
14.247629214846473 70.827
14.270101881097517 70.1497
14.29259262906496 69.717
14.315083930490205 69.637
14.337558255389705 69.2527
14.360050666019726 69.3316
14.382526101071944 69.0251
14.405019624534942 68.8221
14.427513705993134 68.4933
14.449990813291825 68.8002
14.47248601302899 68.4244
14.49496423954951 68.4122
14.517460561197822 68.6217
14.539939910570322 68.4692
14.562437357763558 68.4731
14.58493536931253 68.9792
14.607416409993311 69.1444
14.62991555254159 69.3298
14.652397725157423 69.4513
14.674898002342799 69.8405
14.697398848433282 70.1979
14.719882725991326 70.9886
14.74238471217934 71.9493
14.764869730765593 74.3161
14.787372860692983 80.988
14.809876564079925 93.7061
14.83236330125751 106.90899999999999
14.854868153850365 116.135
14.877356041159485 121.42
14.899862046604186 124.124
14.922351087688757 128.76
14.944858249632887 137.709
14.967365991421232 151.809
14.989856770231246 171.268
15.012365673994204 197.017
15.03485761569738 213.833
15.05736768508665 205.446
15.07987833888692 176.429
15.102372032001655 137.66299999999998
15.124883856909658 100.708
15.14737872204565 81.9317
15.169891721717274 74.1741
15.192405310371893 71.4893
15.214901940621196 70.2041
15.237416709527137 68.9995
15.259914520936249 68.7223
15.282430473753607 68.2657
15.304947020131227 67.7393
15.327446610371178 67.2683
15.349964346154254 66.8303
15.372465126703139 66.8413
15.394984055556009 66.6827
15.417486030076159 66.6285
15.44000615566487 65.8413
15.462526881230803 65.7969
15.485030653812652 65.9877
15.507552581617434 65.5646
15.530057557334603 65.5089
15.55258069104857 65.6306
15.575104429329837 66.1697
15.597611216864632 65.8876
15.620136166564563 66.3906
15.6426441664095 66.8198
15.665170331202765 68.539
15.687697105158826 73.8818
15.710206930593545 84.088
15.732734925158933 94.8634
15.755245972089478 102.57799999999999
15.77777519094324 107.441
15.800287463046663 109.56
15.822817909869592 112.473
15.84534897229804 117.545
15.867863089299354 127.191
15.890395385222186 140.07399999999998
15.912910736597423 157.705
15.935444269699861 176.958
15.957978423016485 186.093
15.980495633101265 175.47799999999998
16.003031029129367 148.952
16.02554948280019 114.839
16.048086125229432 87.8214
16.070623392487107 72.7062
16.09314371869582 66.2521
16.11568223789321 63.1717
16.13820381691126 61.7536
16.160743591742527 61.1254
16.183283996022084 60.772
16.205807461423195 59.7024
16.228349126881973 59.211999999999996
16.25087385432698 59.0203
16.27341678466365 58.2307
16.29594277784926 58.2367
16.31848697676433 57.7359
16.341031811604868 57.1513
16.36355971058487 56.9371
16.3861058195587 56.6169
16.40863499352978 56.0988
16.431182380342005 56.0388
16.453730407713202 55.7337
16.476261501364792 55.4652
16.498810812136167 55.4086
16.52134319004079 55.4123
16.54389378792203 55.3062
16.566445031001553 55.2276
16.588979342490088 54.8746
16.61153187824822 54.5609
16.634067483263312 54.683
16.656621315414416 54.625
16.679175797408888 54.3243
16.701713349928728 54.3257
16.72426913389191 54.3877
16.74680798922351 54.4757
16.76936507887444 54.4603
16.791905240734874 54.6121
16.814463639794468 54.3596
16.837022695210294 54.5513
16.859564824093756 54.5611
16.882125194503903 54.5077
16.904668639217885 54.9075
16.927230328348003 54.8205
16.949792678493612 55.3277
16.972338104193863 55.2916
16.994901778652235 54.9618
17.017448529496576 55.2791
17.040013531998152 55.5251
17.06257920018044 55.7277
17.0851279459922 56.8706
17.107694947817667 59.1442
17.130245028099072 61.3238
17.15281336730298 63.3931
17.17536478578733 64.4829
17.19793446610687 65.2178
17.220504818648422 65.6158
17.243058251703697 66.1394
17.265629950971032 67.6882
17.288184731571736 69.9865
17.310757781306908 73.4267
17.33333150794385 76.8102
17.355888317140174 80.4543
17.37846339986244 82.7309
17.401021565958885 81.0053
17.42359800851343 77.0503
17.44617513265564 71.229
17.468735341390783 65.5517
17.491261035594565 61.8036
17.51396340099364 59.8327
17.536490463869136 59.4311
17.559018209820174 59.34
17.58154663977963 59.4495
17.604251766089718 59.6
17.626781572227713 59.4826
17.64931206518155 59.7028
17.671843245885103 60.2277
17.69455114821572 60.1197
17.717083712612634 60.4538
17.739616967569667 60.9731
17.762150914021706 61.5068
17.78486160749854 61.7163
17.807396945166804 62.5107
17.829932977143503 62.8651
17.85246970436452 64.0883
17.875183204129467 66.7672
17.897721330097664 72.3828
17.920260154126645 78.6449
17.942799677153296 83.70200000000001
17.9655159983646 87.0885
17.988056927677544 88.7189
18.010598558807683 90.1316
18.033140892692916 92.0303
18.05586005052525 94.7738
18.07840379824407 99.9264
18.10094825154059 107.162
18.12366954819864 116.821
18.146215420998306 129.94299999999998
18.16876200220057 142.141
18.191309292745153 145.94299999999998
18.214033452627167 141.247
18.236582170236648 127.465
18.259131600016456 109.727
18.281681742907335 95.9773
18.304408781233683 88.7482
18.32696035875955 86.8441
18.349512652227624 87.5524
18.372065662579683 91.3827
18.394795594587553 96.4214
18.41735004715306 101.631
18.43990521943684 103.823
18.46246111238171 101.637
18.485193953325208 94.8444
18.507751296070428 84.9422
18.530309362314178 75.6857
18.552868153000343 69.0124
18.57560391815056 64.9252
18.59816416623245 63.3328
18.620725141597372 62.3546
18.643286845190268 61.7141
18.666025549835414 61.2126
18.688588718427933 60.4862
18.711152618092243 60.284
18.73389353884365 59.9842
18.75645890921984 59.3879
18.77902501351406 59.1257
18.801591852673102 59.0364
18.824335739722738 58.6063
18.846904057212626 58.4593
18.8694731124168 58.2138
18.89204290628315 58.2238
18.914789774966803 57.9116
18.937361054791623 57.6307
18.959933076131318 57.3163
18.982505839934877 57.266000000000005
19.00525570560582 57.1502
19.027829963004184 57.0221
19.05040496572238 57.02
19.072980714710468 57.0475
19.095733592739563 57.034
19.11831084296757 57.6037
19.140888842324735 58.596000000000004
19.16346759176222 60.0178
19.18622349753803 60.7204
19.208803755869358 61.9429
19.231384767143577 62.3885
19.253966532312948 62.6171
19.276725481241822 63.0376
19.29930876296784 63.8401
19.3218928014549 64.5022
19.34465404436217 65.7047
19.36723960516257 67.5906
19.389825925592426 69.9481
19.412413006605938 72.4012
19.43517731967805 74.5505
19.457765930683355 74.738
19.48035530514408 72.3582
19.50294544401556 68.3419
19.525712842708348 63.5779
19.54830451925909 59.4912
19.570896963095727 56.4066
19.593490175174704 54.8781
19.616260674962184 54.367
19.638855432416964 53.9756
19.661450960992624 54.158
19.68404726164677 53.8083
19.706820878021247 53.8101
19.729418731756834 53.818999999999996
19.752017360452857 53.6316
19.77461676506804 53.6712
19.797393513540218 53.799
19.819994478951667 54.0422
19.84259622316767 55.0103
19.8651987471481 56.2392
19.887978643247177 57.1676
19.91058273574792 57.8611
19.933187610901943 58.4296
19.955969879466828 58.9276
19.97857632894404 59.0121
20.00118356396599 59.1683
20.023791585494575 59.6818
20.046577028914875 61.0213
20.069186632506966 62.718999999999994
20.091797025500632 65.1857
20.114408208858933 67.6953
20.137196842715273 70.5224
20.159809615886765 73.0181
20.18242318232135 72.7753
20.20503754298326 71.2912
20.227829382875154 68.411
20.250445341109344 65.382
20.27306209647285 62.8912
20.29567964993108 61.5375
20.31847471147704 61.3375
20.34109387027612 62.2903
20.363713830075454 63.7186
20.386334591841646 65.3127
20.409132890679302 65.7334
20.431755265564437 64.4882
20.454378445325528 62.2369
20.477002430930366 59.0735
20.499803982716553 55.9329
20.522429589228004 53.4383
20.54505600449589 51.7184
20.567683229489194 51.2989
20.590488049900088 50.9058
20.61311690359731 50.5409
20.63574656993626 50.3753
20.658553853717297 49.9198
20.681185154618298 49.9299
20.703817271080066 49.9504
20.72645020407368 49.6478
20.749260783967177 49.4774
20.771895359337133 49.4574
20.794530754161617 49.28
20.817166969412938 49.2679
20.83998086114876 49.1458
20.86261872660049 49.0085
20.885257415405402 48.9855
20.90789692853701 49.0427
20.930714147864748 48.8735
20.953355319030678 48.8822
20.97599731745334 49.053999999999995
20.99864014410749 49.0251
21.021460706796564 49.2181
21.044105199328826 49.3732
21.06675052302631 49.693999999999996
21.089396678865015 49.6063
21.112220600704806 49.6506
21.134868430275347 49.887
21.15751709492456 49.7608
21.180166595629693 49.799
21.202993892429635 50.0316
21.22564507473034 50.3784
21.24829709602816 50.7223
21.27112693608965 51.1324
21.293780644891275 51.7697
21.316435195634053 51.8843
21.339090589297417 51.6476
21.361923832041875 51.5624
21.384580921090404 50.7542
21.407238856007325 50.0651
21.429897637773326 49.5893
21.45273429906592 49.0012
21.475394784108598 48.8479
21.498056118951983 48.7128
21.520718304578022 48.9836
21.543558400304388 49.1203
21.566222297108816 49.2032
21.58888704765135 49.1914
21.61155265291521 49.5923
21.63439619898156 50.7179
21.657063523335786 51.6086
21.67973170537063 52.5308
21.7024007460706 53.3318
21.72524775840385 54.0303
21.747918526116475 54.3348
21.770590155457388 54.56
21.79326264741238 54.8346
21.816113141960237 55.4543
21.838787368860547 56.2996
21.861462461341976 57.4501
21.884315579735777 59.1701
21.90699241312273 60.8009
21.92967011506078 62.7653
21.95234868653799 64.7686
21.9752053151131 66.5264
21.997885635446785 66.7295
22.020566828293532 65.7353
22.04324889464272 63.5433
22.066109049404666 60.7042
22.088792872571794 58.0902
22.111477572219204 56.4683
22.1341631493376 55.9113
22.157026846313123 55.9508
22.179714188221507 56.3104
22.202402410582668 56.7903
22.22509151438863 56.2592
22.24795876962584 55.2131
22.270649646204486 53.9361
22.293341407213727 52.6127
22.316034053646906 51.382
22.338904883215342 50.2584
22.36159931041458 49.7053
22.38429462602756 49.4884
22.40699083104897 49.1722
22.429865251039757 49.1399
22.452563244831367 48.97
22.47526213102522 49.0757
22.49813925616515 49.1542
22.520839937143307 48.9616
22.543541513520587 49.2253
22.56624398629403 48.8549
22.589124730075895 49.1255
22.611829005656723 49.1566
22.63453418063466 48.928999999999995
22.657240256008077 49.2249
22.680124634582935 49.794
22.70283252079775 50.6073
22.725541310413075 51.2501
22.74825100442868 51.5202
22.771139033969575 52.0278
22.79385054687155 52.0417
22.81656296718292 52.1768
22.83927629590484 52.4299
22.862167992606945 52.7202
22.88488314827121 53.1136
22.907599215359284 53.3057
22.93031619487366 53.8901
22.953211574954405 54.4001
22.975930389478226 55.5436
22.998650119445763 56.6772
23.02137076586092 57.6292
23.044269845560063 58.5438
23.06699233506288 58.7001
23.089715744034912 57.8396
23.112617610931565 56.1212
23.135342869061212 54.3129
23.158069049684816 52.2761
23.1807961538087 50.8938
23.20370174880544 50.0433
23.226430710184808 49.6815
23.249160598093425 49.4797
23.271891413539002 49.6267
23.294800752937697 49.9906
23.31753343374794 50.8724
23.340267045128353 51.1795
23.36300158808808 51.9313
23.38591468821339 52.1869
23.408651104658304 52.0906
23.431388455719986 52.1146
23.454126742409 52.0863
23.4770436196085 52.2566
23.499783787914662 52.6257
23.522524894889884 52.9258
23.54526694154616 53.3168
23.56818761219047 54.0459
23.59093154860734 54.8119
23.613676427751283 56.3231
23.636422250635754 57.4334
23.659346731118656 58.1449
23.68209445191868 58.2796
23.704843119509587 57.2675
23.72759273490623 55.3455
23.750521041644767 53.306999999999995
23.77327256312355 51.0408
23.796025035462787 49.1642
23.818956224555475 47.7669
23.841710609113413 47.0824
23.86446594758979 46.5889
23.887222241002014 46.3217
23.910157285144578 45.8384
23.932915498962537 45.8751
23.955674670778713 45.6652
23.978434801611975 45.4126
24.001373717286125 45.2263
24.024135776723917 45.3108
24.046898798245582 45.2719
24.06966278287146 45.1291
24.092605586582614 44.7332
24.115371508023642 44.4894
24.1381383956401 44.5681
24.16090625045381 44.3805
24.183852958731244 44.3218
24.206622758582608 44.1543
24.229393528706886 43.9966
24.252165270127392 44.0671
24.27511589952438 44.06100000000001
24.297889594216997 43.8329
24.32066426328598 43.6909
24.34343990775613 43.8335
24.36639447485003 43.7086
24.38917208083877 43.6421
24.41195066531332 43.5651
24.43490819850244 43.6043
24.457688750692377 43.3204
24.48047028445616 43.2793
24.503252800821233 43.4045
24.526214300784112 43.3161
24.548998793132213 43.3249
24.57178427117417 43.1729
24.59457073593893 43.2802
24.617536219319863 43.3365
24.64032466834748 43.4262
24.663114107195035 43.3662
24.685904536893013 43.1784
24.708874020360852 43.1232
24.731666442613744 43.1276
24.754459858818787 42.9019
24.777254270007962 42.7863
24.80022777025625 42.6394
24.82302418230472 42.7772
24.845821592443674 42.7229
24.86862000170663 42.7064
24.891597535453727 42.8025
24.914397953892728 43.0166
24.93719937456671 42.8562
24.96000179851076 42.9389
24.98298338249997 43.089
25.00578782394922 43.2324
25.028593271784167 43.2229
25.05157790644186 43.7606
25.07438537804115 43.8862
25.097193859145293 44.1643
25.120003350792075 44.1381
25.142992065061257 44.3494
25.165803588823465 44.5818
25.18861612625217 44.744
25.211429678386736 44.8836
25.234422489079968 45.0833
25.257238081693636 45.401
25.280054692141732 45.3467
25.3028723214652 45.181999999999995
25.325869245420463 45.1942
25.348688923599397 45.106
25.371509623787006 45.106
25.394331347025812 45.1622
25.41733240110666 45.2451
25.440156181590016 45.2972
25.46298098826268 45.1695
25.48580682216873 44.6105
25.50881202326435 43.8875
25.53163992281684 43.2582
25.55446885274561 42.617
25.577298814096377 41.8933
25.600308179121807 41.6157
25.623140214533745 41.5644
25.64597328451537 41.3072
25.66898578564376 41.1368
25.691820936010206 41.1358
25.714657124097695 41.0766
25.737494350954734 41.0975
25.760511045684957 41.0478
25.783350361364224 41.0192
25.806190718969255 41.1943
25.82903211955018 41.3877
25.852053024868923 41.2185
25.874896522722523 41.4166
25.897741066713106 41.2074
25.920586657892454 41.3203
25.943611790812668 41.1788
25.966459487728237 41.2759
25.989308234998564 41.2573
26.01215803367705 41.5248
26.03518741123814 41.4263
26.05803932412957 41.3986
26.080892291600094 41.4149
26.10374631470478 41.6246
26.12677995397268 41.8646
26.14963609978026 42.2315
26.172493304397875 42.1884
26.19535156888223 42.4675
26.218389486949604 42.1776
26.241249882640123 41.9544
26.26411134137826 41.5538
26.28715248187403 41.4178
26.31001607820869 41.1546
26.3328807407756 40.8191
26.35574647063438 40.9917
26.37879191991473 40.9922
26.401659795896734 41.0039
26.424528742360263 41.0225
26.447398760366614 41.1626
26.470448535598294 41.0846
26.49332070826805 41.1897
26.516193955675355 41.3607
26.53906827888316 41.4445
26.562122397260108 41.6511
26.584998883685063 41.808
26.607876449110325 42.0312
26.63075509460056 42.0833
26.65381357334404 42.1279
26.67669439061878 42.3171
26.699576291163382 42.6777
26.722459276044212 43.0075
26.745522132402975 43.0122
26.768407297649354 42.8439
26.791293550442003 42.592
26.814180891848974 42.2962
26.837248143099337 41.7715
26.860137673466657 41.5013
26.88302829566349 41.1967
26.90592001075963 41.1119
26.92899167420566 41.0059
26.951885586870763 40.5785
26.974780595655517 40.3366
26.99785558178161 40.1982
27.020752794605112 40.0118
27.043651106772522 39.6629
27.06655051935668 39.5759
27.089629948036183 39.4073
27.112531573292053 39.2115
27.135434302194138 39.3653
27.158338135817015 39.1974
27.181422024430987 39.1998
27.204328079372566 39.0322
27.22723524226965 39.1714
27.250143514198573 39.1618
27.273231880156334 39.2258
27.296142382065014 39.0362
27.319053996245536 38.9128
27.341966723775965 38.9397
27.365059584515222 39.1028
27.38797455070062 38.8852
27.410890633481237 38.9326
27.433807833936918 38.7598
27.456905206923906 38.8015
27.47982465472398 38.8089
27.502745223449743 38.8147
27.525666914182825 39.021
27.548768816912457 39.1502
27.571692763693633 38.9432
27.59461783573812 38.9618
27.617723149491244 39.0061
27.640650484125285 38.939
27.66357894728264 39.0427
27.686508540048052 38.9044
27.709618414237887 38.8683
27.732550278321757 38.6578
27.755483275279115 38.7481
27.778417406196485 38.6289
27.801531858397514 38.6469
27.824468269376716 38.6029
27.847405817586786 38.4381
27.870344504116094 38.5175
27.893463551932008 38.6262
27.916404527281053 38.7317
27.93934664422563 38.7308
27.962289903855886 38.8412
27.98541356491974 38.9073
28.00835912214229 38.8648
28.03130582533231 39.1156
28.054253675581805 39.2066
28.077381967556104 39.3184
28.100332124185126 39.2661
28.123283431160893 39.6128
28.146235889577238 39.5768
28.169368830154156 39.6392
28.192323603752033 39.4965
28.215279532083304 39.1957
28.238415973016764 39.0993
28.261374223145094 38.7932
28.284333631303806 38.6368
28.307294198589954 38.4997
28.330435319167677 38.0707
28.353398217078915 38.0093
28.376362277420153 37.7682
28.39932750129032 37.5702
28.422473319286713 37.3558
28.44544088262495 37.1537
28.468409612800283 36.9248
28.491379510913497 36.6767
28.51453004413313 36.5303
28.53750229057244 36.5574
28.56047570826344 36.4814
28.583450298308804 36.3847
28.606605564586562 36.2889
28.629582511831156 36.3276
28.65256063474956 36.189
28.675539934446338 36.1857
28.698699951647605 36.1082
28.72168161743193 35.9474
28.74466446331978 35.9184
28.767648490417624 35.856
28.790813276438353 35.79
28.813799678527303 35.7295
28.836787265157085 35.6974
28.859955641890075 35.622
28.882945610203045 35.6918
28.905936766392035 35.6604
28.928929111566863 35.7941
28.952102288520145 35.8693
28.975097024308607 35.6951
28.998092952423807 35.4411
29.021090073977508 35.5564
29.04426806913204 35.4547
29.067267590245258 35.2312
29.090268308143695 35.2256
29.11327022394099 35.2601
29.13645305530891 35.2174
29.159457379627167 34.9959
29.18246290519685 34.8602
29.20546963313352 34.7278
29.22865731875826 34.8138
29.25166646419296 34.7321
29.27467681535305 34.5375
29.29768837335608 34.6724
29.320880931312562 34.5348
29.34389491580634 34.4818
29.366910110507334 34.4032
29.38992651653503 34.5639
29.41312396492981 34.5505
29.436142806456754 34.4625
29.45916286268059 34.4749
29.48236399319994 34.4695
29.50538649169417 34.4005
29.528410208259935 34.495
29.55143514402014 34.2301
29.574641196749695 34.1658
29.597668583816574 34.0147
29.6206971934585 33.812
29.64372702680042 33.7916
29.666938019934474 33.6988
29.689970313635285 33.5174
29.713003834422636 33.3445
29.73603858342347 33.3503
29.759254535188578 33.3259
29.78229175361658 33.1582
29.80533020365064 33.282
29.82836988641968 33.2662
29.85159081507472 33.1266
29.874632976355343 33.0247
29.89767637376955 33.1176
29.920721008448314 33.088
29.9439469322847 33.0078
29.96699405457564 32.9487
29.9900424175358 32.9922
30.013092022298157 32.9212
30.03632295963995 32.9011
30.059375061131373 32.8766
30.08242840783577 32.8492
30.105483000888153 32.919000000000004
30.128718970092244 32.7575
30.151776069006917 32.7623
30.17483441768648 32.7751
30.198074175317235 32.6431
30.221135036724256 32.7852
30.24419715131772 32.7079
30.267260520236203 32.6744
30.290505341942243 32.7461
30.313571232750228 32.8226
30.336638381310948 32.8959
30.35970678876503 32.759
30.38295669299435 32.734
30.40602763151657 32.6436
30.429099832366074 32.6683
30.452173296685572 32.6085
30.47542830191959 32.6075
30.498504306502497 32.5497
30.521581577995562 32.5461
30.544660117543582 32.5631
30.56792024229725 32.567
30.59100133132069 32.4504
30.614083691845494 32.5699
30.637167325018545 32.5331
30.660432587840603 32.5903
30.683518779717886 32.495
30.70660624769615 32.6064
30.729694992924372 32.5635
30.75296541239743 32.6236
30.77605672557558 32.6142
30.799149319462742 32.6825
30.8224236211637 32.6542
30.845518789950724 32.5366
30.868615242910597 32.5136
30.891712981195973 32.4256
30.91499247215866 32.2657
30.938092794619365 32.2825
30.96119440587579 32.1319
30.984297307082752 32.0181
31.00758200598383 31.8013
31.030687500658694 31.8616
31.053794288760695 31.714000000000002
31.076902371446767 31.6296
31.100192296997445 31.712
31.12330298246119 31.614
31.14641496599209 31.456
31.169528248749216 31.5527
31.19282341969534 31.4382
31.215939314557186 31.4485
31.239056512134788 31.4506
31.262175013589378 31.3497
31.28547544871168 31.2928
31.30859657161541 31.1908
31.331719001892175 31.2696
31.35484274070538 31.3979
31.378148458819545 31.3218
31.401274828443725 31.2629
31.424402510106933 31.2049
31.447712205419993 31.3153
31.470842524931633 31.0974
31.493974159989783 31.1516
31.51710711176168 31.1762
31.54042212308802 31.1656
31.563557722100917 31.2831
31.586694641341655 31.255
31.609832881979628 31.1968
31.63315322823208 31.1666
31.656294125521327 31.1264
31.679436347728515 31.0064
31.70257989602529 30.8137
31.725905596152327 30.7394
31.74905181052835 30.6507
31.772199354521323 30.5766
31.79534822930507 30.6424
31.818679302290967 30.541999999999998
31.84183085259981 30.5313
31.864983737233473 30.4721
31.88813795736804 30.5254
31.911474422233013 30.3762
31.934631327356435 30.4219
31.9577895715215 30.4023
31.980949155906522 30.4529
32.004291031706956 30.4691
32.027453310562606 30.4
32.05061693318573 30.3401
32.07396288236386 30.393
32.09712920658542 30.2837
32.12029687812702 30.1542
32.14346589817093 30.0936
32.166817291729984 30.1058
32.18998902288583 29.9945
32.21316210610336 29.8718
32.23633654256711 29.75
32.259693399663725 29.7985
32.282870556771144 29.6276
32.30604907069099 29.6837
32.329228942610065 29.6584
32.35259128243769 29.4643
32.375773884550505 29.3974
32.398957848235646 29.2839
32.422143174682176 29.294
32.445511016471215 29.2296
32.468699082679954 29.1579
32.49188851523011 29.0638
32.51507931531304 28.9199
32.538452678331 28.963
32.56164622776311 28.9986
32.58484114831493 28.8988
32.60803744118015 28.9683
32.631416344731896 28.894000000000002
32.654615396551876 28.8645
32.67781582427913 28.869
32.701198898634416 28.7453
32.72440209253756 28.6523
32.747606665947124 28.6796
32.77081262006088 28.513
32.79420126883317 28.5416
32.81740999876112 28.4781
32.840620112999424 28.3745
32.86383161274818 28.3451
32.88722585534586 28.4004
32.91044014056596 28.5441
32.933655814909734 28.4172
32.95687287957963 28.4199
32.98027273544904 28.3353
33.00349259526636 28.3324
33.026713849030116 28.2832
33.04993649794511 28.285
33.073341986570746 28.1731
33.09656744032826 28.1739
33.11979429286444 28.1325
33.14302254538647 28.0746
33.166433686291185 27.9971
33.18966475336992 28.0765
33.212897224069096 27.943
33.23613109959831 27.9504
33.259547912343415 27.8579
33.2827846121627 28.0216
33.306022720453775 27.9539
33.32926223842861 27.7556
33.352684742614166 27.824
33.37592709463173 27.7899
33.399170859982064 27.8096
33.422597648419426 27.6994
33.44584425514446 27.6148
33.46909227885668 27.5192
33.4923417207723 27.4331
33.51577423505344 27.4427
33.539026528130385 27.4004
33.56228024307245 27.3344
33.585535381098246 27.1966
33.60897364093058 27.1008
33.63223163992385 27.1197
33.6554910656699 26.9888
33.678751919389796 27.0301
33.702195944520106 26.895
33.72545966903325 26.8882
33.74872482519663 26.8859
33.771991414233746 26.8799
33.79544122444841 26.7808
33.81871069412428 26.7598
33.84198160035767 26.6461
33.86525394437455 26.6288
33.88870955949969 26.6559
33.911984794020626 26.6101
33.93526147001624 26.5352
33.958539588715006 26.5191
33.98200102861669 26.4818
34.0052820477047 26.4198
34.02856451319451 26.4597
34.05203033759056 26.4029
34.07531571090147 26.3672
34.09860253431845 26.2809
34.121890809074316 26.2607
34.145362493118924 26.2522
34.16865368561615 26.116
34.191946333164054 26.1391
34.21524043699793 26.0972
34.23871800066799 26.1205
34.26201503218366 26.0159
34.28531352370466 25.9269
34.30861347646881 25.8369
34.33209693978188 25.8469
34.3553998301885 25.8529
34.378704185565205 25.7403
34.402010007152356 25.6912
34.42549939016683 25.7597
34.44880815937748 25.6128
34.472118398533134 25.6593
34.49543010887669 25.6492
34.51892543169198 25.5036
34.54224009966052 25.4871
34.56555624255917 25.4832
34.58887386163339 25.3627
34.61237514439016 25.269000000000002
34.6356957311114 25.2566
34.65901779775809 25.2397
34.68252356662995 25.248
34.705848608458616 25.221999999999998
34.72917513396849 25.1647
34.75250314440949 25.1366
34.77601490857862 25.0767
34.799345904259795 25.0021
34.82267838863559 24.9884
34.846012362958525 24.9912
34.869530142679984 24.951999999999998
34.89286711232212 24.9415
34.91620557568269 24.8679
34.93954553401677 24.8772
34.9630693495876 24.7641
34.986412313340814 24.8331
35.00975677584668 24.7729
35.033102738362956 24.6747
35.05663261012228 24.6258
35.0799815881786 24.7153
35.10333207003229 24.6385
35.12668405694369 24.6191
35.150220005273056 24.6088
35.17357501786656 24.5502
35.19693153931268 24.5437
35.220289570874385 24.5093
35.24383161619786 24.4161
35.267192683604904 24.4052
35.290555264930376 24.3533
35.314101899412165 24.3322
35.33746752422433 24.3362
35.36083466676374 24.357
35.38420332829803 24.2186
35.407756095629054 24.3301
35.43112781085063 24.2257
35.45450104888391 24.1371
35.477875810999194 24.2172
35.50143473172161 24.2038
35.52481255774625 24.2459
35.54819191167777 24.0908
35.57157279478914 24.0635
35.595137889488406 24.053
35.61852184675279 24.0709
35.641907337029984 24.03
35.665294361595684 24.0288
35.68886565090076 23.9006
35.7122557598848 23.9012
35.73564740699838 23.8605
35.759040593519934 23.8147
35.78261809810353 23.8
35.80601437933051 23.774
35.829412203814705 23.6051
35.85281157283719 23.5448
35.876395313415884 23.5962
35.8997977874528 23.5711
35.92320180988546 23.554000000000002
35.946790244133936 23.3876
35.97019737933222 23.3758
35.993606066789866 23.435
36.01701630779276 23.3579
36.04061101440684 23.3534
36.06402437852291 23.4059
36.08743930005611 23.328000000000003
36.1108557802951 23.245
36.13445678011326 23.1936
36.15787639383515 23.1816
36.18129757014299 23.1171
36.20472031032821 23.0535
36.22832762423364 22.8997
36.25175350829375 23.0062
36.275180960119776 22.9155
36.298609981005924 22.9363
36.32222362992669 22.980999999999998
36.34565580510207 22.9501
36.36908955323448 22.8555
36.39252487562093 22.7831
36.416144880530226 22.783
36.43958336764275 22.7861
36.463023432914625 22.7812
36.486465077645676 22.7414
36.51009145956204 22.7313
36.53353627947859 22.6974
36.55698268276811 22.6449
36.58043067073321 22.5518
36.60406345072071 22.4654
36.62751462435344 22.4496
36.65096738658405 22.4745
36.67460498210655 22.4736
36.69806093788647 22.4209
36.72151848619297 22.384
36.744977628333636 22.3239
36.76862165890998 22.2784
36.79208400512205 22.3328
36.81554794910557 22.2465
36.83901349217101 22.1826
36.862663978991606 22.1606
36.88613273667352 22.0447
36.90960309738324 22.1048
36.933075062434064 22.0641
36.95673202673572 22.018
36.98020721697122 21.9478
37.003684015502365 21.899
37.027162423645365 21.8448
37.050825886711465 21.8699
37.07430753063053 21.7703
37.09779078812467 21.8142
37.121275660513014 21.7826
37.144945643673694 21.7234
37.16843376245278 21.66
37.19192350009803 21.7146
37.215414857931435 21.6242
37.239091382563885 21.4613
37.262585997426164 21.5316
37.28608223645736 21.6444
37.309763684451696 21.496
37.33326318851098 21.4164
37.356764320726555 21.4403
37.380267082425526 21.4749
37.40395510942588 21.4095
37.42746114683234 21.3447
37.45096881771841 21.2981
37.474478123414166 21.1956
37.49817275092816 21.2452
37.52168534303452 21.2428
37.54519957395567 21.1502
37.568715445024665 21.1528
37.592416694607714 21.0879
37.61593586281424 21.1031
37.63945667518264 21.0514
37.66297913304891 20.9706
37.68668702630454 20.9505
37.710212792059274 20.9247
37.733740207334854 20.8293
37.757269273470364 20.7869
37.780983832050374 20.8202
37.80451621684926 20.7371
37.82805025654007 20.7983
37.851585952464795 20.677
37.8753071980695 20.7033
37.89884622345676 20.6398
37.92238690911902 20.5676
37.94611318753442 20.5726
37.969657210779765 20.5941
37.99320289834801 20.5777
38.016750251586465 20.505
38.04048325513017 20.4479
38.06403395679343 20.4786
38.087586328183946 20.3195
38.11114037065203 20.3576
38.13488012115898 20.4237
38.1584375229181 20.2945
38.181996599821 20.2654
38.205557353221124 20.2381
38.229303872575656 20.2015
38.2528679961576 20.1477
38.27643380031219 20.0959
38.30000128639589 20.0652
38.32375459653193 20.1081
38.34732546371299 20.0281
38.37089801690786 19.9663
38.39447225747609 19.9835
38.418232380377425 19.93
38.441810012983396 19.9114
38.46538933705673 19.847
38.488970353960084 19.791
38.51273731166058 19.7637
38.536321731567014 19.7476
38.55990784840681 19.7309
38.58367995004091 19.7073
38.60726947812959 19.6312
38.63086070726198 19.6116
38.654453638806274 19.6516
38.678232613930824 19.5838
38.70182896773327 19.5253
38.72542702806741 19.5008
38.7490267963045 19.4785
38.77281266709232 19.4352
38.79641586862214 19.4472
38.8200207821842 19.3685
38.843627409152944 19.3995
38.86742019782782 19.4019
38.891030269149255 19.2692
38.914642058016156 19.3061
38.938255565806124 19.2953
38.96205529464307 19.227
38.98567225787121 19.1499
39.00929094417078 19.1472
39.03291135492255 19.1404
39.05671804624804 19.0543
39.080341923549106 19.0999
39.103967529460334 19.0667
39.127594865365744 18.9699
39.15140854155791 18.9407
39.17503935514948 18.9323
39.19867190290282 18.8842
39.22249083587951 18.909000000000002
39.24612686969409 18.9021
39.269764641845306 18.8502
39.293404153722804 18.7611
39.317230110864074 18.7433
39.34087311998506 18.6811
39.36451787301696 18.7029
39.388164371352595 18.621
39.41199737518003 18.5928
39.43564738196752 18.5876
39.45929913825317 18.5845
39.48295264543308 18.5705
39.506792718520884 18.502
39.530449745387216 18.4371
39.55410852735203 18.4932
39.57776906581474 18.4966
39.60161623079 18.401
39.625280300200025 18.3845
39.64894613032202 18.2955
39.67261372255866 18.3352
39.6964680021016 18.3462
39.72013913657293 18.287
39.74381203738292 18.2979
39.76748670593756 18.2867
39.79134812278169 18.1981
39.81502634488497 18.1578
39.83870633896685 18.1532
39.862388106436654 18.1165
39.88625668336918 17.9987
39.90994201572829 18.0359
39.933629125719285 18.0109
39.957503091207826 17.9356
39.9811937746168 17.9872
40.00488623990914 17.9561
40.02858048850006 17.9073
40.05246165409549 17.7979
40.076159487492085 17.7964
40.099859108448875 17.7963
40.123560518384345 17.7741
40.1474489070226 17.7563
40.171153913178564 17.7244
40.194860712584955 17.7138
40.2185693066637 17.6984
40.242464941335314 17.6583
40.26617714307655 17.5939
40.289891143772046 17.5951
40.3136069448471 17.5517
40.33750984859743 17.5424
40.3612292688043 17.4298
40.3849504936829 17.4536
40.40867352466194 17.467
40.43258372059144 17.4319
40.45631038219906 17.3912
40.48003885420956 17.3303
40.503769138055105 17.3471
40.52768664931955 17.3409
40.55142057531802 17.3347
40.57515631746428 17.3061
40.599079334038514 17.1931
40.62281872700477 17.1407
40.64655994043941 17.158
40.67030297578061 17.1601
40.69423334835778 17.1325
40.71798004609188 17.009
40.74172857006355 17.0255
40.76547892171441 17.0097
40.7894166736039 16.9693
40.813170699248566 16.9578
40.83692655691388 16.9406
40.86068424804498 16.9186
40.884629402612525 16.9498
40.908390779366385 16.9331
40.932153993938 16.8633
40.95591904777605 16.8226
40.979871628443995 16.8354
41.003640379561936 16.8019
41.02741097430883 16.7359
41.05118341413683 16.6958
41.075143444384416 16.653
41.098919593177826 16.6771
41.1226975914255 16.6522
41.14647744058318 16.5927
41.170444943946755 16.5417
41.19422851378379 16.5769
41.218013938914645 16.4955
41.24198706625173 16.4452
41.26577622087193 16.4884
41.289567235177785 16.4565
41.31336011063129 16.4492
41.337340752422875 16.4308
41.361137369129835 16.3807
41.38493585138705 16.29
41.40873620066004 16.2588
41.43272438060107 16.2615
41.45652848292052 16.2096
41.48033445666918 16.2319
41.50414230331616 16.1647
41.528138045159764 16.1781
41.551949656675205 16.1052
41.575763145513235 16.1099
41.59957851314666 16.0562
41.62358184070442 16.0685
41.64740098505737 16.0351
41.6712220126409 16.0297
41.69504492493139 15.9382
41.71905586207357 15.9687
41.74288256296395 15.9401
41.766711153007456 15.8446
41.79054163368412 15.8348
41.814560204340054 15.8661
41.838394485526365 15.869000000000002
41.86223066180303 15.7627
41.88625497706819 15.7569
41.910094962812 15.8013
41.93393684811168 15.7459
41.95778063445365 15.6599
41.981812625263366 15.628
42.00566023303407 15.6279
42.029509746323676 15.5809
42.05336116662236 15.6071
42.077400857069705 15.5656
42.10125611078846 15.5211
42.12511327600405 15.4457
42.14897235421036 15.4511
42.173019768448455 15.4368
42.19688269209613 15.419
42.22074753323349 15.4419
42.24461429335818 15.4254
42.268669455600495 15.3316
42.292540073217886 15.3417
42.31641261433284 15.3353
42.34028708044675 15.220999999999998
42.36435001496739 15.2124
42.38822835065557 15.2385
42.41210861586426 15.2188
42.4359908120986 15.1639
42.46006154323262 15.1137
42.48394762115317 15.0814
42.507835634632315 15.1422
42.531912233047436 15.0736
42.55580413732265 15.0426
42.579697981698 14.9859
42.60359376768525 15.0159
42.62767820545945 14.9574
42.65157789440821 14.9802
42.67547952952185 14.9303
42.699383112316 14.9193
42.72347541395347 14.8655
42.74738291190531 14.808
42.771292362102166 14.8014
42.795203766063516 14.7927
42.819303956130405 14.7345
42.843219287476536 14.709000000000001
42.86713657716324 14.6351
42.89105582671383 14.6646
42.91516392983864 14.6536
42.939087119032166 14.6424
42.963012272677304 14.5377
42.98693939230129 14.5456
43.01105543317513 14.5294
43.034986504731386 14.5541
43.05891954686589 14.4884
43.08285456110972 14.4499
43.10697856448665 14.3967
43.130917542983475 14.385
43.15485849820081 14.3891
43.17880143167367 14.3094
43.20293342237094 14.3449
43.226880332449 14.3343
43.25082922540554 14.2965
43.27496722682525 14.2657
43.29892010567796 14.2429
43.32287497204102 14.2419
43.34683182745632 14.2178
43.370977859791836 14.2103
43.39493871351105 14.1544
43.41890156092628 14.1383
43.44286640358341 14.0888
43.46702049182749 14.0751
43.49098934522816 14.0607
43.51496019852649 13.9975
43.5389330532723 14.0021
43.56309522248204 13.9914
43.58707210044314 13.9134
43.61105098451946 13.8797
43.63503187626491 13.854000000000001
43.659202151562134 13.8932
43.68318707902681 13.8995
43.70717401884041 13.8133
43.731162972560874 13.8378
43.75534137913236 13.7942
43.779334381108384 13.814
43.803329401683186 13.7322
43.82732644241872 13.7666
43.8515130055166 13.712
43.87551410707659 13.67
43.89951723350145 13.6557
43.923709934595614 13.6143
43.94771713129917 13.5732
43.97172635758096 13.5602
43.99573761501002 13.5527
44.0199385169922 13.5342
44.04395385732619 13.5315
44.067971233533086 13.5092
44.09199064718605 13.4836
44.11619977548961 13.4162
44.14022328470671 13.4126
44.16424883610785 13.4109
44.18827643127035 13.4103
44.21249381139513 13.3774
44.236525514814076 13.3171
44.26055926674478 13.3407
44.28459506876863 13.2906
44.3088207262813 13.2022
44.33286064928722 13.2452
44.35690262714919 13.2062
44.38094666145278 13.1711
44.4051806219871 13.14
44.42922879003185 13.1317
44.45327901929361 13.1213
44.477331311362136 13.0935
44.501573600619416 13.0387
44.525630039221795 13.0282
44.54968854541895 13.0368
44.573937102200176 13.0089
44.5979997645541 12.9845
44.622064499300315 12.9675
44.64613130803592 12.9347
44.67038823869318 12.9295
44.69445921643748 12.8687
44.718532272981385 12.8269
44.742607409926194 12.8234
44.76687274034801 12.8291
44.79095205918753 12.7771
44.81503346325094 12.769
44.839116954143876 12.7608
44.86339071028742 12.7239
44.88747839599524 12.7153
44.91156817336837 12.6926
44.93566004401666 12.661
44.959942251908146 12.6761
44.984038330325966 12.6226
45.00813650686762 12.5531
45.03223678314731 12.5431
45.05652746888232 12.5443
45.08063196592069 12.5476
45.104738567558705 12.4985
45.128847275414856 12.4762
45.15314646515866 12.4323
45.17725940679741 12.4405
45.20137445952892 12.4115
45.22568004865265 12.3894
45.24979934496396 12.3807
45.27392075725247 12.3476
45.29804428714431 12.3616
45.322358426247604 12.3071
45.346486212804315 12.2857
45.370616121861914 12.2629
45.39474815505086 12.2706
45.41907087049246 12.2175
45.4432071734666 12.2217
45.46734560548283 12.1677
45.49148616817604 12.2055
45.51581748638564 12.1231
45.5399623320197 12.1325
45.56410931325473 12.1168
45.58825843173002 12.0744
45.61259837920865 12.0369
45.636751793816 12.0488
45.66090735060093 12.0085
45.68506505120716 11.9877
45.7094136545275 11.9545
45.73357566449271 11.9301
45.75773982322992 11.9287
45.78190613238733 11.8976
45.806263418194064 11.8428
45.83043404997326 11.8676
45.85460683713677 11.8291
45.87897065658495 11.7876
45.90314777634752 11.8098
45.92732705646868 11.7766
45.9515084986045 11.7196
45.97588104735473 11.7371
46.00006683541565 11.7135
46.02425479047904 11.6762
46.04844491420549 11.6882
46.0728262191024 11.6801
46.09702070211635 11.6034
46.12121735879483 11.6476
46.14541619080294 11.5801
46.169806278764455 11.5917
46.194009483459034 11.5484
46.21821486849841 11.5317
46.24242243555223 11.5295
46.266821333570014 11.4855
46.29103328674601 11.4627
46.31524742696538 11.4701
46.33946375590237 11.3811
46.36387149104216 11.397
46.38809221957392 11.3553
46.41231514186606 11.3183
46.436540259597464 11.3476
46.460956858999374 11.3588
46.48518638983522 11.3284
46.509418121166966 11.2752
46.533652054678114 11.285
46.55807754555709 11.2447
46.58231590571962 11.1742
46.60655647313217 11.1748
46.630988654873654 11.1352
46.655233659129024 11.1443
46.67948087571551 11.1086
46.70373030632484 11.0778
46.72817142736393 11.0472
46.752425308428684 11.0582
46.77668140861147 11.0255
46.80093972960865 10.9637
46.82538981736788 10.9697
46.849652602470904 10.9774
46.87391761349769 10.9417
46.8981848521493 10.9094
46.9226439341274 10.9394
46.946915650573224 10.8679
46.97118959976749 10.8829
46.99546578341598 10.8187
47.019933887188216 10.8258
47.04421456235744 10.8172
47.06849747711879 10.8175
47.09278263318286 10.776
47.11725978640143 10.7165
47.14154944775105 10.7015
47.165841355555656 10.7119
47.1901355115306 10.692
47.214621741924994 10.6826
47.23892041698887 10.6547
47.26322134538975 10.6581
47.28771440635075 10.6096
47.31201986422527 10.6125
47.33632758061436 10.5714
47.360637557241866 10.5382
47.38513974410611 10.5081
47.40945426407847 10.5133
47.43377104948137 10.5278
47.45809010204344 10.4796
47.48260144275502 10.4527
47.506925052572285 10.4399
47.53125093475548 10.4505
47.55557909103813 10.4138
47.58009961361992 10.3553
47.60443234110732 10.3458
47.62876734791564 10.3293
47.65310463578333 10.3517
47.6776343683373 10.3138
47.7019762413987 10.26
47.72632040075572 10.2804
47.75066684815169 10.2738
47.77520581885936 10.2198
47.799556865477655 10.2029
47.823910205386 10.198
47.84826584033272 10.1844
47.87281407745551 10.129
47.89717432569297 10.147
47.92153687423484 10.1315
47.94609208429692 10.1005
47.97045925671401 10.1259
47.99482873471275 10.0372
48.01920052005013 10.0405
48.04376504619224 10.0067
48.068141469543484 10.0109
48.09252020552573 9.99575
48.11690125590099 10.0091
48.1414751266064 9.97828
48.16586082917454 9.945730000000001
48.19024885144316 9.91226
48.2146391951793 9.91859
48.239222439012764 9.94236
48.26361744916137 9.88238
48.28801478610016 9.87218
48.31241445160131 9.85432
48.337007097209366 9.8295
48.36141144338331 9.802810000000001
48.38581812345755 9.817969999999999
48.41022713920929 9.7847
48.434829215320704 9.75855
48.45924292604658 9.75937
48.48365897780325 9.75239
48.50807737237308 9.71922
48.532688907799276 9.69844
48.55711201168574 9.65213
48.581537463754074 9.69029
48.60615611725119 9.65593
48.63058628942721 9.6273
48.65501881516546 9.583169999999999
48.6794536962573 9.5828
48.70408185970339 9.586030000000001
48.72852147531801 9.535630000000001
48.75296345168211 9.52347
48.77740779059232 9.48782
48.80204549302823 9.52243
48.82649458091802 9.48864
48.85094603676547 9.45538
48.87539986237231 9.424339999999999
48.90004713292306 9.38968
48.92450572200832 9.41635
48.94896668628025 9.37228
48.97343002754588 9.38256
48.99808689542115 9.368739999999999
49.02255501470614 9.343010000000001
49.04702551642794 9.337010000000001
49.0714984023988 9.28913
49.096164896893235 9.28505
49.120642575466796 9.26249
49.145122643748394 9.24801
49.16960510355558 9.24727
49.19428125404938 9.22509
49.2187685210852 9.157160000000001
49.243258185121555 9.15156
49.26794160167084 9.15422
49.2924360839405 9.17652
49.31693296869764 9.143510000000001
49.34143225776915 9.10667
49.36612538195438 9.07207
49.39062950396021 9.077110000000001
49.41513603578346 9.03708
49.4396449792564 9.01248
49.46434784069503 8.999989999999999
49.488861631846454 8.98659
49.513377840166804 8.99243
49.537896467493745 8.9334
49.56260909589029 8.94637
49.587132585683285 8.8915
49.611658500018365 8.89252
49.636186840738596 8.88547
49.66090926588511 8.903319999999999
49.685442483902584 8.9042
49.70997813385706 8.82479
49.734516217597076 8.861930000000001
49.75924846937352 8.83958
49.7837914452858 8.82457
49.80833686055187 8.75174
49.83288471702571 8.74883
49.85762682540054 8.76845
49.882179588965734 8.693539999999999
49.9067347993235 8.69834
49.93129245833333 8.67508
49.95604445336378 8.682030000000001
49.98060703442832 8.663039999999999
50.005172069746266 8.64475
50.02993150438364 8.64209
50.05450147301533 8.624089999999999
50.07907390151433 8.57405
50.10364879174981 8.5275
50.12841816587289 8.55963
50.1529980044635 8.5459
50.17758031042124 8.56339
50.20216508562089 8.51478
50.22694442953363 8.497110000000001
50.25153416817468 8.48218
50.27612638170508 8.47482
50.300721072005196 8.45379
50.325510416102105 8.41875
50.350110084975064 8.40629
50.37471223628208 8.40215
50.39931687190919 8.38415
50.424116246675766 8.38065
50.44872587605249 8.35285
50.47333799543065 8.3461
50.49795260670191 8.32678
50.52276204271512 8.27805
50.54738166295838 8.25298
50.57200378079314 8.25935
50.596628398116835 8.259780000000001
50.62144792604559 8.25513
50.646077567609396 8.21402
50.670709714377715 8.20963
50.69553683636198 8.2085
50.72017401885922 8.18973
50.7448137122895 8.16825
50.76945591856022 8.13245
50.79429318636823 8.156080000000001
50.818940443716784 8.10968
50.84359021965163 8.08512
50.868242516085964 8.08164
50.893089960641895 8.05927
50.917747323549435 8.02404
50.94240721271973 8.01844
50.96706963007175 8.01678
50.99192728239342 8.023719999999999
51.01659478166073 8.01721
51.04126481489051 8.00947
51.06593738400761 7.92737
51.090805275207074 7.94515
51.11548294172845 7.912489999999999
51.14016314993547 7.93732
51.164845901758845 7.92088
51.18972406304274 7.86067
51.21441192780656 7.8510800000000005
51.23910234200271 7.84965
51.2637953075678 7.83223
51.288683770237945 7.79433
51.31338186432707 7.808860000000001
51.33808251561888 7.78217
51.362978729967345 7.74892
51.387684521509755 7.734789999999999
51.41239287610203 7.72195
51.437103795691165 7.70558
51.46201036644977 7.681089999999999
51.486726441956634 7.650939999999999
51.51144508832545 7.6738100000000005
51.536166307509156 7.6706
51.56108326624387 7.630539999999999
51.58580965706056 7.6227
51.61053862657523 7.621
51.635270176746864 7.582389999999999
51.66019755512065 7.56267
51.68493429268881 7.5662
51.70967361681515 7.5392600000000005
51.73441552946465 7.513889999999999
51.759353359237934 7.518839999999999
51.7841004750961 7.524830000000001
51.80885018539685 7.493460000000001
51.833602492111254 7.49207
51.8585508051424 7.45793
51.883308330926425 7.44822
51.90806845906181 7.397360000000001
51.932831191525715 7.3979800000000004
51.95779001977161 7.35727
51.98255798721516 7.371689999999999
52.00732856494335 7.3594100000000005
52.03229530577543 7.368860000000001
52.057071130455945 7.32472
52.081849571391054 7.308669999999999
52.106630630568695 7.29758
52.13160794279417 7.299869999999999
52.15639426492067 7.2527
52.18118321127822 7.246919999999999
52.205974783860896 7.2447
52.23096269971011 7.2327699999999995
52.255759551287994 7.218310000000001
52.280559035098186 7.169010000000001
52.30536115314103 7.16051
52.33035970494467 7.128819999999999
52.35516711807904 7.1463
52.37997717147198 7.1489199999999995
52.40478986713005 7.142110000000001
52.42979908731974 7.13077
52.454617094216 7.09244
52.47943774942214 7.09285
52.50426105495102 7.07189
52.529280976059844 7.05823
52.554109609024096 7.070189999999999
52.57894089837482 7.0048699999999995
52.60377484613117 6.99578
52.62880550079408 6.990539999999999
52.65364479223379 6.96518
52.67848674816189 6.9423
52.70352547971946 6.9425
52.72837279155837 6.93922
52.753222773982785 6.935160000000001
52.778075429022984 6.90353
52.80312495150885 6.909510000000001
52.827982978797436 6.86335
52.85284368481815 6.855510000000001
52.87770707160767 6.8182100000000005
52.90276741793998 6.8104
52.92763619336701 6.818910000000001
52.952507655698504 6.79173
52.977381806977576 6.772660000000001
53.00245301017842 6.77565
53.02733256653592 6.743810000000001
53.052214817996074 6.74797
53.077099766608484 6.71643
53.102181859804446 6.683669999999999
53.127072229988265 6.68359
53.15196530349892 6.687239999999999
53.17686108239249 6.679530000000001
53.20195409881522 6.65948
53.22685531582556 6.65689
53.25175924441303 6.642530000000001
53.27666588664027 6.61482
53.30176985962693 6.59578
53.3266819565689 6.58863
53.35159677336455 6.58555
53.376514312083096 6.5774
53.40162927507703 6.590330000000001
53.42655228516116 6.55905
53.45147802340193 6.53868
53.47660125628886 6.524430000000001
53.50153247842639 6.45896
53.52646643496923 6.4888
53.55140312799818 6.47626
53.576537409691696 6.47242
53.60147960336152 6.44576
53.626424539786164 6.42523
53.65137222105307 6.40917
53.67651758529126 6.38622
53.70147078399681 6.40135
53.72642673383343 6.37081
53.75138543689533 6.354080000000001
53.776541917524526 6.38921
53.801506154876755 6.33256
53.826473151763246 6.29179
53.851442910284916 6.27565
53.87661054126026 6.26546
53.9015858509782 6.2378599999999995
53.92656392866066 6.23599
53.95154477641532 6.20465
53.976723591801296 6.22976
54.00171000771266 6.23024
54.02669920004598 6.228680000000001
54.051691170915745 6.18872
54.076881204886796 6.16651
54.101878760928514 6.15304
54.12687910187696 6.13818
54.152077577768296 6.12931
54.1770835166946 6.15135
54.20209224691339 6.07561
54.22710377055121 6.1029599999999995
54.25231352511594 6.06621
54.27733066384342 6.024369999999999
54.30235060239643 6.01849
54.32737334290836 6.00563
54.35259441062629 5.92248
54.377622783395324 5.9926699999999995
54.40265396455061 5.91378
54.42768795623251 5.88541
54.45292037169559 5.88508
54.477960012857906 5.85346
54.50300247099511 5.85955
54.52804774825457 5.86057
54.55329154616743 5.80225
54.57834249018678 5.75508
54.6033962597977 5.72084
54.6284528571545 5.73629
54.653708072335164 5.74293
54.67877035378786 5.73608
54.70383546947698 5.69525
54.72890342156389 5.68724
54.7541700889442 5.63584
54.77924374251975 5.62614
54.8043202390049 5.55711
54.82959552413022 5.50901
54.8546777351945 5.557840000000001
54.87976279569621 5.5476
54.90485070780914 5.57362
54.930137506558005 5.50536
54.95523115074295 5.49929
54.98032765308844 5.407019999999999
55.005427015775496 5.41505
55.03072536339621 5.46063
55.05583047570572 5.36485
55.080938454927676 5.35312
55.10604930325027 5.324380000000001
55.131359235107396 5.34272
55.15647585066083 5.28095
55.181595341907496 5.27838
55.20671771104285 5.24982
55.232039262617704 5.225219999999999
55.25716741665048 5.17632
55.28229845518636 5.19729
55.30743238042802 5.11466
55.33276558731939 5.15495
55.357905315183636 5.1250800000000005
55.383047936390035 5.09924
55.40819345314859 5.049519999999999
55.433538351073295 5.05591
55.458689688238415 5.02145
55.483843927614096 4.9844
55.509197623043605 4.95625
55.53435769621134 4.92096
55.55952067826466 4.93015
55.5846865714265 4.84387
55.61005202069737 4.81853
55.63522376553902 4.86733
55.66039842818645 4.8677
55.68557601087004 4.89648
55.7109532500271 4.78068
55.73613670233794 4.81695
