TT I
1.2716486653135266 7.170489999999999
1.2939594142134223 7.14619
1.3162702121660406 6.324330000000001
1.3385810600174564 6.320130000000001
1.3608919586137629 7.01616
1.383202908801069 6.22139
1.405513911425503 5.34932
1.4278249673332093 6.11287
1.4501343378461518 5.56224
1.4724455028545926 5.45434
1.4947567236847858 6.03811
1.517068001182951 5.48146
1.5393793361953272 5.67126
1.5616907295681737 5.72312
1.5840021821477681 5.2733300000000005
1.60631369478041 4.98226
1.6286252683124185 5.28855
1.6509369035901333 4.61876
1.6732468618895553 4.6942
1.695558623192809 5.060230000000001
1.7178704487808514 4.7596
1.7401823395001077 4.96605
1.7625012545597203 4.47927
1.7848028405262486 4.87785
1.8071218901122095 4.53629
1.8294236121921872 4.64844
1.8517427996910911 4.4212
1.8740620574440425 4.64264
1.8963639900671978 4.218459999999999
1.9186833908139995 4.7605699999999995
1.9409854680117449 5.020919999999999
1.9633050151394713 4.85918
1.9856246367570705 4.39764
2.0079269371922672 4.80881
2.03024671027244 4.91131
2.0525491637446027 4.4030000000000005
2.074869091674931 4.60348
2.097171701569106 4.36008
2.1194917877373847 4.9573
2.141811954326636 4.96922
2.164114805233074 5.21094
2.186435135143035 6.7385
2.208738150935709 13.8953
2.231058647554722 27.9663
2.2533792288321184 22.305
2.275682498336085 11.4451
2.298003251406138 6.11001
2.3203066942619714 5.6659
2.3426276225136022 5.3903
2.3649486396617507 5.45256
2.387252348930071 6.081930000000001
2.4095735463442893 6.3241
2.4318774374315884 6.13696
2.4541988185014043 6.89998
2.476502894794693 7.951239999999999
2.498824462909887 7.77889
2.521146125856138 7.078469999999999
2.5434504863470337 6.88835
2.5657723414244717 8.58196
2.588076895590662 8.910789999999999
2.610398946189713 8.82581
2.6327210958598384 9.08201
2.6550259469304716 7.74375
2.6773482972090137 8.62545
2.6996533504259 9.17339
2.7219759047039602 8.567169999999999
2.744298562293959 8.86307
2.7666039251246595 8.89212
2.7889267918020164 8.514619999999999
2.8112323652516555 8.111189999999999
2.833555444408179 8.43029
2.8558786311183852 8.56209
2.8781845268938557 8.88606
2.9005079311721484 9.61363
2.9228140460410397 9.12808
2.9451376712799635 9.44491
2.967444008632326 9.90617
2.9897678582247247 10.0979
3.0120918213106695 10.4355
3.0343984987899373 10.3706
3.0567226913198637 11.0881
3.079029599759726 11.8852
3.101354025127254 13.0347
3.123678568232338 13.9114
3.145985829517914 13.091
3.16831061055229 14.1733
3.1906181112775593 14.6276
3.212943133635653 15.3968
3.2352682779763207 15.0668
3.2575761442691227 15.4556
3.2799015350264273 15.9209
3.302209649240067 16.2934
3.3245352898092655 16.8903
3.3468436553365257 17.2908
3.369169549113219 17.6691
3.3914955708171384 18.4333
3.413804319727358 19.0481
3.4361305997334863 18.6661
3.4584396084414553 19.8142
3.4807661501462652 20.2105
3.503092824025881 20.6892
3.5254022288463154 21.0077
3.5477291695206588 21.5907
3.5700388426251948 22.3987
3.5923660534916446 23.6924
3.6146934007816114 38.4969
3.637003482731501 87.4563
3.6593311053109985 98.2821
3.681641464033634 57.2621
3.7039693653009733 31.296
3.726297407241705 26.1492
3.7486081875460804 25.6475
3.7709365132734978 26.2002
3.793247578841633 26.927
3.8155761917550093 26.4352
3.8378875459837216 27.0012
3.8602164494827234 27.3086
3.882545499606844 28.2781
3.9048572932539183 28.4625
3.9271866390645718 28.7986
3.9494987298666713 29.8114
3.971828374764527 30.0912
3.9941581705403255 30.5695
4.016470713506008 31.2171
4.038800813471445 32.0913
4.061113662089144 32.3776
4.0834440696459176 33.3073
4.105774632334751 33.5697
4.128087945865126 34.1951
4.150418821249301 35.7583
4.172732448931298 36.5526
4.195063640413578 38.3377
4.2173775856475215 42.542
4.239709096631102 73.6777
4.262040768704612 235.44
4.284355196706267 316.166
4.306687193387355 207.52900000000002
4.329001947444346 81.3989
4.35133427213731 48.0975
4.373666762177566 44.2044
4.395982011761091 43.6288
4.418314834921175 45.2706
4.44063041906622 53.7149
4.4629635787515625 64.3173
4.4852969080429785 63.821000000000005
4.5076130004776225 53.7012
4.529946671403969 49.7751
4.552263106909177 49.6281
4.574597122877047 50.699
4.596931312711224 51.4839
4.619248269273446 52.2895
4.6415828092605835 53.3344
4.663900117405352 54.6411
4.686235010953232 55.7972
4.708552674085913 57.6113
4.730887924602802 58.7525
4.753223354952695 60.0232
4.775541557023902 61.3162
4.797877349456786 62.6814
4.820195915032126 64.9126
4.842532072957498 65.825
4.864868414979744 67.846
4.88718753227192 69.7771
4.909524244902505 71.1335
4.931843734218147 73.2445
4.954180820867835 75.5946
4.976518095879839 78.5968
4.998838149695359 81.3347
5.021175803844231 84.764
5.043496238205739 87.492
5.065834274903528 90.979
5.088172504230693 95.5955
5.1104935158799565 100.78399999999999
5.132832132875765 120.946
5.155153533596801 161.593
5.1774925416746225 189.105
5.199814334878411 277.82
5.2221537374521505 741.801
5.244493338631803 2376.63
5.266815727034316 7526.76
5.289155727832427 13637.2
5.311478517248165 9147.57
5.333818921080011 2866.63
5.356159527788849 527.193
5.3784829252032536 172.83900000000003
5.400823940070432 137.458
5.423147747031976 123.795
5.445489173474152 115.243
5.467830807066149 110.45
5.490155234831516 106.645
5.512497285125229 103.19
5.534822130975162 102.14200000000001
5.557164601388673 99.7956
5.579489868738879 96.8871
5.601832762690846 96.1293
5.6241758697774475 95.6588
5.646501775867269 94.4676
5.668845311622074 92.6148
5.691171647754637 92.3362
5.713515615597765 91.1911
5.735859800852677 90.1291
5.758186788542988 88.8767
5.780531411018185 88.8946
5.802858837297399 89.0845
5.825203900414495 88.6343
5.8475491852224 88.7924
5.869877275883075 89.145
5.892223006467101 90.3963
5.914551544266608 90.5302
5.936897724049891 92.2273
5.959244129804903 96.20700000000001
5.981573344815301 107.791
6.0039202049061 171.666
6.026249875609095 360.792
6.04859719346037 802.3389999999999
6.070927323278297 2131.57
6.093275102315365 4615.78
6.115623113320588 5461.91
6.137953938319995 3188.91
6.160302415650845 928.176
6.182633708324452 217.106
6.2049826554078376 107.345
6.227331838745022 88.7286
6.249663839443684 82.58
6.27201349767565 80.4074
6.294345974611799 86.8697
6.316696111167083 98.5565
6.339046488263839 93.6264
6.361379686074702 78.7951
6.383730546639482 70.855
6.406064229255215 67.7867
6.428415576718203 67.153
6.450749747566656 65.7237
6.47310158535871 65.2374
6.495453669698332 64.423
6.517788579421056 63.9487
6.540141159237969 62.7033
6.562476565766648 62.37
6.5848296444934045 61.8903
6.607182974060425 61.7361
6.6295191323281015 61.7661
6.651872965955752 65.3998
6.6742096296068985 91.6387
6.6965639707294615 137.589
6.71891856698715 137.873
6.741255995248479 94.0591
6.763611104154477 67.5823
6.785949046381137 59.5307
6.808304671371482 57.3674
6.8306605557940046 57.2743
6.852999275508618 56.70399999999999
6.875355681171544 56.1986
6.897694923437771 56.4202
6.92005185377892 56.1467
6.9423916220322655 55.6147
6.964749080490181 55.0575
6.987106804399774 54.9876
7.009447368180821 54.7876
7.031805625367033 54.6543
7.054146723727803 54.9524
7.076505517631004 54.3076
7.098864581288365 54.7509
7.121206488070854 54.3696
7.143566093607822 54.2237
7.165908543567245 54.5643
7.188268694426048 54.4467
7.2106291193438095 54.8343
7.232972390625943 56.3928
7.255333366030969 69.1812
7.277677189091925 123.96
7.300038718428332 170.14
7.322400526130865 143.445
7.344745183422596 88.9759
7.367107550224791 61.1979
7.389452767901992 55.3474
7.411815697249891 54.7052
7.434161478756298 53.4668
7.456524974096713 53.6447
7.478888753837185 53.4548
7.501235387657368 53.8847
7.523599738562711 54.2533
7.545946944825532 54.3001
7.568311870344528 54.8153
7.5906770845765665 54.6712
7.613025156078678 55.9667
7.635390950099687 57.0092
7.657739602662809 56.425
7.680105979923558 55.0432
7.702472650212829 55.3989
7.724822180948224 54.9335
7.747189439655568 55.3369
7.769539560075357 55.376000000000005
7.791907410653562 55.8117
7.81425812420825 55.7606
7.836626570110925 55.8033
7.858995315087906 56.7634
7.881346924933401 56.9534
7.903716270417482 57.4014
7.926068482028405 57.4009
7.948438431475253 58.1526
7.9708086843180235 58.6951
7.993161805171116 59.3149
8.015532667162402 59.5581
8.037886398416653 60.9622
8.060257873014221 61.4361
8.082629655331942 61.8846
8.104984308787587 63.0184
8.127356708900503 66.2599
8.149711981398308 71.703
8.172085002766314 73.707
8.194458336181368 70.6206
8.216814543847752 68.0521
8.23918850371002 68.0271
8.26154533906492 69.082
8.283919928836452 70.3005
8.306277395339652 71.2438
8.328652618483376 72.6881
8.351028159736202 74.4928
8.373386579575245 76.5913
8.395762759396959 78.1273
8.418121819038275 82.7883
8.440498640894003 95.4277
8.462875785192262 108.31700000000001
8.485235811156207 115.795
8.507613602688501 142.553
8.529974277114228 213.601
8.552352719347912 331.39
8.574731488360351 580.26
8.59709314210385 1144.37
8.619472567021075 1891.69
8.64183487789147 2279.72
8.664214962183097 1812.27
8.686577933647762 927.54
8.708958680784317 353.30800000000005
8.731339760774953 159.442
8.753703729764451 108.21600000000001
8.77608547780821 96.3781
8.798450116065078 93.1837
8.820832535634787 90.6125
8.843215292401656 89.3166
8.865580941199045 87.90299999999999
8.887964374703538 86.5633
8.910330701447199 88.041
8.932714815164482 90.1404
8.955099270424924 89.5884
8.977466620733543 86.2047
8.999851761421976 83.6139
9.022219798361645 82.111
9.04460562795561 81.7778
9.066991803441677 81.5774
9.089360876979615 81.0882
9.111747746589993 80.7052
9.13411751544971 80.3262
9.156505082664324 80.3746
9.178875550323522 80.3294
9.20126381862328 81.0297
9.223652438908596 81.1021
9.246023961427412 81.1146
9.26841328802173 80.6651
9.290785518039224 80.3748
9.313175554425882 80.993
9.335565947154315 80.5412
9.357939245086508 81.0811
9.380330352834827 81.5165
9.40270436697103 81.493
9.425096193225055 81.319
9.447488380180165 82.2824
9.469863475295412 82.5281
9.492256385987508 83.1188
9.514632206018318 83.6385
9.537025843935714 83.9135
9.559402392368193 84.5334
9.581796761000229 85.4294
9.604191496441521 86.62299999999999
9.626569144158516 90.1816
9.648964615551032 94.7386
9.671343000390081 96.5486
9.693739211225699 93.9247
9.716135793237463 92.0
9.738515290448102 91.1677
9.760912617143402 91.9368
9.783292860202891 92.8058
9.805690935076182 94.3515
9.828089385495742 95.412
9.850470754023561 97.6804
9.872869957865444 105.051
9.89525208097539 119.969
9.917652041736662 131.754
9.940052382417589 130.21
9.962435644102392 131.281
9.984836746950979 155.349
10.007220771957746 208.923
10.029622640473708 298.007
10.052007432299963 471.32800000000003
10.074410069984072 769.0169999999999
10.096813093716005 1268.15
10.119199042482517 1795.89
10.141602840636468 1991.91
10.163989564971628 1532.22
10.186394141051062 843.3489999999999
10.208799107559706 360.455
10.231187001965623 175.044
10.253592751657669 121.81299999999999
10.275981430388155 110.479
10.298387966769793 110.109
10.320794897965431 112.542
10.343184759907361 111.38
10.36559248305461 106.039
10.387983138083852 101.48899999999999
10.410391656691655 102.971
10.432800574501677 110.711
10.455192425893369 124.01
10.47760214443012 148.143
10.499994797678786 190.157
10.522405320453982 272.056
10.54479877906917 404.29900000000004
10.567210109595656 523.385
10.5896218454736 587.808
10.612016518879773 497.181
10.634429067781074 343.49800000000005
10.656824555333241 194.717
10.679237920773568 120.868
10.701651695961992 94.164
10.724048411481384 87.6865
10.746463008485165 84.4557
10.768860546937125 83.1667
10.791275969274796 81.6424
10.81369180576079 80.3972
10.836090585366925 79.3918
10.858507252467449 78.1959
10.88090686379991 77.1758
10.903324365036394 76.8363
10.925724811614439 76.785
10.948143150509463 78.2012
10.970561909719066 77.4168
10.992963615930844 75.1677
11.015383218085756 73.2281
11.037785768347074 72.1358
11.06020621697282 71.2244
11.082627090322113 71.1203
11.105030913430326 70.5633
11.12745263854165 70.9893
11.149857314510728 74.5168
11.172279894912576 80.5395
11.194702904450653 81.3096
11.217108866490921 76.9872
11.239532736615194 72.7689
11.26193956033512 70.2661
11.284364294577085 69.1732
11.306789462371718 67.0989
11.329197585398376 65.8106
11.351623622610898 65.6683
11.37403261614354 64.6677
11.396459526308487 64.6993
11.418869393879497 64.3354
11.441297180532617 63.9366
11.463725406927658 63.4707
11.486136592353875 63.6532
11.508565700543707 64.4562
11.530977768845315 66.173
11.553407762368774 66.9269
11.575838200059769 66.4087
11.598251599479612 64.3017
11.620682927815501 62.8367
11.64309721895548 62.3747
11.665529441478206 61.8703
11.687962112597958 61.8455
11.710377748130886 61.9512
11.732811318753434 61.8211
11.755227854859067 61.7076
11.777662328529495 61.3805
11.800079768750786 61.2286
11.822515149015453 61.3284
11.844950984084935 61.2299
11.867369787303163 61.2235
11.889806534289491 61.2455
11.912226250487029 61.6951
11.934663912939751 61.6441
11.9571020346363 61.6163
11.979523127133968 61.3892
12.001962169624331 62.0821
12.024384183972964 62.9233
12.046824150809913 65.2049
12.069264581333726 69.1827
12.091687985297767 74.8386
12.11412934550045 83.4758
12.136553680195208 97.8556
12.158995973632788 123.102
12.181438735204349 153.458
12.20386447284199 188.23
12.226308172985636 207.959
12.24873485024193 198.107
12.271179492516982 160.726
12.293607112949127 123.12299999999999
12.316052700916226 94.8474
12.338498763250042 77.0178
12.360927805303868 69.1216
12.383374818673879 65.3729
12.405804812803074 63.3402
12.428252780773262 63.0636
12.45070122756722 62.9122
12.473132656675375 62.9021
12.49558206341869 62.9139
12.518014453510101 63.0469
12.540464823770117 63.2104
12.562915677315177 63.3518
12.58534951575545 64.2418
12.607801338171472 66.2589
12.630236146511358 71.7552
12.652688941369085 76.2647
12.675124723177234 76.499
12.697578494048786 72.7925
12.720032754458185 68.5719
12.742470003354093 66.6529
12.764925245138771 66.2293
12.787363476431278 66.6235
12.809819703166806 66.6658
12.83227642391173 67.8122
12.854716135692716 68.2811
12.877173846755147 69.0438
12.899614549869717 69.3478
12.9220732548287 70.182
12.94453245827299 70.7111
12.966974655289818 71.4964
12.989434858002571 72.0185
13.011878055298721 72.953
13.034339260862497 73.9319
13.056800969391883 75.1803
13.079245674017244 76.9172
13.101708390774869 78.56
13.12415410463411 83.6233
13.146617833206086 93.4198
13.169064559883248 103.736
13.191529303857127 117.193
13.213994557076367 138.255
13.236442809902437 174.826
13.258909083908291 233.202
13.28135835851934 306.051
13.30382565690295 379.767
13.326293469022952 433.658
13.348744283242008 425.039
13.371213125129904 344.055
13.39366497011003 245.52900000000002
13.416134845360597 166.99599999999998
13.438605238843131 118.978
13.46105863690397 101.19200000000001
13.483530069144786 99.7244
13.505984506951902 103.779
13.528456981549432 112.421
13.550929978879088 126.53200000000001
13.573385983253365 149.565
13.595860028340867 190.02900000000002
13.618317081455832 247.262
13.64079217790333 310.987
13.663250283359057 359.055
13.685726434770173 374.00199999999995
13.708203115221277 328.441
13.730662806148091 249.764
13.75314054697177 176.555
13.775601299246777 123.551
13.798080104050406 94.5424
13.820559442405358 83.6931
13.843021793671388 80.0018
13.865502201420897 78.4442
13.887965623051947 77.9207
13.910447103807167 76.8707
13.932929122629764 75.3752
13.955394156785959 74.9689
13.977877254034569 74.0415
14.000343367582113 73.6018
14.022827546871707 72.7008
14.045294743423524 72.1684
14.06778000837062 71.4764
14.090265817715476 71.3951
14.112734645763819 71.2401
14.13522154619454 71.1653
14.157691466286913 70.8663
14.180179461423874 70.6352
14.202668005486178 69.9952
14.22513957064374 69.4619
14.247629214846473 68.9207
14.270101881097517 68.7674
14.29259262906496 69.1029
14.315083930490205 69.8287
14.337558255389705 70.0571
14.360050666019726 69.8111
14.382526101071944 68.6583
14.405019624534942 68.0043
14.427513705993134 67.2013
14.449990813291825 67.3649
14.47248601302899 66.9038
14.49496423954951 67.6197
14.517460561197822 67.3593
14.539939910570322 67.0221
14.562437357763558 67.5674
14.58493536931253 68.7143
14.607416409993311 69.7321
14.62991555254159 70.402
14.652397725157423 69.9524
14.674898002342799 69.4803
14.697398848433282 68.958
14.719882725991326 69.2998
14.74238471217934 69.7931
14.764869730765593 72.305
14.787372860692983 74.8923
14.809876564079925 78.8465
14.83236330125751 84.0772
14.854868153850365 92.2476
14.877356041159485 106.079
14.899862046604186 124.557
14.922351087688757 151.906
14.944858249632887 184.623
14.967365991421232 213.28799999999998
14.989856770231246 228.486
15.012365673994204 216.563
15.03485761569738 184.53599999999997
15.05736768508665 146.25
15.07987833888692 111.046
15.102372032001655 87.8165
15.124883856909658 75.1949
15.14737872204565 70.785
15.169891721717274 69.1189
15.192405310371893 68.8004
15.214901940621196 69.1019
15.237416709527137 69.5049
15.259914520936249 69.5756
15.282430473753607 68.7061
15.304947020131227 67.6759
15.327446610371178 66.7525
15.349964346154254 65.7845
15.372465126703139 65.396
15.394984055556009 64.96600000000001
15.417486030076159 65.0875
15.44000615566487 64.7007
15.462526881230803 64.5779
15.485030653812652 64.8334
15.507552581617434 64.7964
15.530057557334603 64.8592
15.55258069104857 64.7884
15.575104429329837 64.8538
15.597611216864632 64.4287
15.620136166564563 64.1724
15.6426441664095 64.6553
15.665170331202765 66.2049
15.687697105158826 68.7538
15.710206930593545 71.9683
15.732734925158933 76.0076
15.755245972089478 81.8651
15.77777519094324 90.6403
15.800287463046663 103.807
15.822817909869592 124.431
15.84534897229804 148.30100000000002
15.867863089299354 174.813
15.890395385222186 191.905
15.912910736597423 196.917
15.935444269699861 181.377
15.957978423016485 151.425
15.980495633101265 120.25200000000001
16.003031029129367 94.2289
16.02554948280019 75.7848
16.048086125229432 66.8566
16.070623392487107 63.9672
16.09314371869582 63.1053
16.11568223789321 62.4435
16.13820381691126 61.6391
16.160743591742527 60.323
16.183283996022084 59.3944
16.205807461423195 58.4334
16.228349126881973 57.7097
16.25087385432698 57.6192
16.27341678466365 57.1927
16.29594277784926 57.1136
16.31848697676433 57.4859
16.341031811604868 57.9478
16.36355971058487 58.1463
16.3861058195587 57.7809
16.40863499352978 56.5278
16.431182380342005 55.8137
16.453730407713202 55.0547
16.476261501364792 54.6472
16.498810812136167 54.323
16.52134319004079 54.4637
16.54389378792203 54.4692
16.566445031001553 54.4678
16.588979342490088 53.9731
16.61153187824822 54.0196
16.634067483263312 53.7221
16.656621315414416 53.5855
16.679175797408888 53.4478
16.701713349928728 53.702
16.72426913389191 53.8855
16.74680798922351 54.0069
16.76936507887444 53.9172
16.791905240734874 53.9175
16.814463639794468 53.4822
16.837022695210294 53.7206
16.859564824093756 54.2173
16.882125194503903 54.7773
16.904668639217885 55.6206
16.927230328348003 55.4769
16.949792678493612 55.6859
16.972338104193863 55.0239
16.994901778652235 54.6482
17.017448529496576 54.526
17.040013531998152 54.7431
17.06257920018044 54.6043
17.0851279459922 55.441
17.107694947817667 56.1098
17.130245028099072 57.0208
17.15281336730298 58.2882
17.17536478578733 59.8862
17.19793446610687 62.2275
17.220504818648422 65.1555
17.243058251703697 68.8598
17.265629950971032 73.6775
17.288184731571736 78.5552
17.310757781306908 82.5355
17.33333150794385 82.5561
17.355888317140174 80.2621
17.37846339986244 74.9259
17.401021565958885 68.833
17.42359800851343 64.0843
17.44617513265564 60.8073
17.468735341390783 58.9482
17.491261035594565 57.8882
17.51396340099364 57.6605
17.536490463869136 57.8989
17.559018209820174 58.074
17.58154663977963 58.0613
17.604251766089718 58.0739
17.626781572227713 58.4211
17.64931206518155 58.6397
17.671843245885103 59.2747
17.69455114821572 59.2676
17.717083712612634 59.4389
17.739616967569667 59.7123
17.762150914021706 59.9043
17.78486160749854 59.8529
17.807396945166804 60.4251
17.829932977143503 61.1604
17.85246970436452 62.2071
17.875183204129467 63.7011
17.897721330097664 65.759
17.920260154126645 68.0664
17.942799677153296 70.9502
17.9655159983646 74.4084
17.988056927677544 79.4246
18.010598558807683 87.2284
18.033140892692916 98.1341
18.05586005052525 110.575
18.07840379824407 123.08
18.10094825154059 132.512
18.12366954819864 137.21200000000002
18.146215420998306 135.469
18.16876200220057 125.039
18.191309292745153 111.855
18.214033452627167 98.9235
18.236582170236648 88.1916
18.259131600016456 83.8018
18.281681742907335 84.5617
18.304408781233683 89.5669
18.32696035875955 95.6298
18.349512652227624 100.75200000000001
18.372065662579683 104.92
18.394795594587553 106.012
18.41735004715306 100.889
18.43990521943684 93.8242
18.46246111238171 84.3194
18.485193953325208 75.085
18.507751296070428 68.4486
18.530309362314178 64.45
18.552868153000343 62.2349
18.57560391815056 60.9849
18.59816416623245 60.4182
18.620725141597372 60.0512
18.643286845190268 59.5968
18.666025549835414 59.0864
18.688588718427933 58.4956
18.711152618092243 58.3995
18.73389353884365 58.0842
18.75645890921984 57.6655
18.77902501351406 57.4436
18.801591852673102 57.522
18.824335739722738 56.9699
18.846904057212626 56.8039
18.8694731124168 56.5623
18.89204290628315 56.498000000000005
18.914789774966803 56.4231
18.937361054791623 55.93600000000001
18.959933076131318 55.81399999999999
18.982505839934877 55.9324
19.00525570560582 55.9762
19.027829963004184 55.7117
19.05040496572238 55.7968
19.072980714710468 55.626999999999995
19.095733592739563 55.6216
19.11831084296757 56.0386
19.140888842324735 56.4233
19.16346759176222 56.591
19.18622349753803 57.1978
19.208803755869358 58.0597
19.231384767143577 59.0466
19.253966532312948 60.511
19.276725481241822 62.6849
19.29930876296784 65.6186
19.3218928014549 68.973
19.34465404436217 71.8655
19.36723960516257 74.6515
19.389825925592426 74.9651
19.412413006605938 73.888
19.43517731967805 70.1898
19.457765930683355 65.7443
19.48035530514408 61.3658
19.50294544401556 58.0312
19.525712842708348 55.3148
19.54830451925909 54.1193
19.570896963095727 53.0716
19.593490175174704 52.6674
19.616260674962184 52.6744
19.638855432416964 52.3065
19.661450960992624 52.5673
19.68404726164677 52.3719
19.706820878021247 52.2709
19.729418731756834 52.5276
19.752017360452857 52.2613
19.77461676506804 52.2777
19.797393513540218 52.455
19.819994478951667 52.7012
19.84259622316767 53.1682
19.8651987471481 53.4475
19.887978643247177 53.6362
19.91058273574792 54.1234
19.933187610901943 54.8105
19.955969879466828 55.8765
19.97857632894404 57.5734
20.00118356396599 59.1861
20.023791585494575 61.6502
20.046577028914875 64.459
20.069186632506966 66.7937
20.091797025500632 68.2212
20.114408208858933 68.7217
20.137196842715273 67.9537
20.159809615886765 66.0775
20.18242318232135 63.7898
20.20503754298326 62.0135
20.227829382875154 61.0707
20.250445341109344 61.101000000000006
20.27306209647285 62.2429
20.29567964993108 63.402
20.31847471147704 64.2259
20.34109387027612 65.2262
20.363713830075454 64.6338
20.386334591841646 62.7253
20.409132890679302 59.7974
20.431755265564437 57.0628
20.454378445325528 54.2446
20.477002430930366 52.4578
20.499803982716553 51.2224
20.522429589228004 50.5025
20.54505600449589 50.2044
20.567683229489194 50.1682
20.590488049900088 49.6662
20.61311690359731 49.2475
20.63574656993626 49.0689
20.658553853717297 48.6933
20.681185154618298 48.9091
20.703817271080066 48.4741
20.72645020407368 48.1222
20.749260783967177 48.1196
20.771895359337133 48.1769
20.794530754161617 48.1848
20.817166969412938 48.0195
20.83998086114876 47.9021
20.86261872660049 47.82899999999999
20.885257415405402 47.9454
20.90789692853701 47.6491
20.930714147864748 47.6559
20.953355319030678 47.7088
20.97599731745334 47.7665
20.99864014410749 47.6483
21.021460706796564 47.5717
21.044105199328826 47.6206
21.06675052302631 47.9267
21.089396678865015 48.1481
21.112220600704806 48.4665
21.134868430275347 48.8574
21.15751709492456 48.9496
21.180166595629693 49.5932
21.202993892429635 50.0965
21.22564507473034 50.4153
21.24829709602816 50.5316
21.27112693608965 50.456
21.293780644891275 50.3537
21.316435195634053 49.5971
21.339090589297417 49.0234
21.361923832041875 48.5368
21.384580921090404 47.9026
21.407238856007325 47.5007
21.429897637773326 47.5045
21.45273429906592 47.4287
21.475394784108598 47.3301
21.498056118951983 47.2571
21.520718304578022 47.5892
21.543558400304388 47.7195
21.566222297108816 47.8876
21.58888704765135 47.7695
21.61155265291521 48.006
21.63439619898156 48.4592
21.657063523335786 48.5215
21.67973170537063 49.1365
21.7024007460706 49.5089
21.72524775840385 50.1589
21.747918526116475 51.2776
21.770590155457388 52.5466
21.79326264741238 54.3173
21.816113141960237 56.2811
21.838787368860547 58.2594
21.861462461341976 60.3104
21.884315579735777 62.1161
21.90699241312273 63.3862
21.92967011506078 63.5798
21.95234868653799 63.041000000000004
21.9752053151131 61.6323
21.997885635446785 59.4992
22.020566828293532 58.0668
22.04324889464272 56.4687
22.066109049404666 55.6632
22.088792872571794 55.0903
22.111477572219204 55.1439
22.1341631493376 55.2053
22.157026846313123 54.9667
22.179714188221507 53.9589
22.202402410582668 52.8671
22.22509151438863 51.5246
22.24795876962584 50.3426
22.270649646204486 49.5114
22.293341407213727 49.0147
22.316034053646906 48.4216
22.338904883215342 48.181000000000004
22.36159931041458 48.113
22.38429462602756 48.0316
22.40699083104897 48.0184
22.429865251039757 48.1089
22.452563244831367 47.979
22.47526213102522 47.8827
22.49813925616515 47.7033
22.520839937143307 47.6384
22.543541513520587 47.583
22.56624398629403 47.5055
22.589124730075895 47.5669
22.611829005656723 47.6301
22.63453418063466 47.5635
22.657240256008077 47.8858
22.680124634582935 47.8879
22.70283252079775 47.9569
22.725541310413075 48.4786
22.74825100442868 48.4643
22.771139033969575 49.0319
22.79385054687155 49.1362
22.81656296718292 49.769
22.83927629590484 50.6465
22.862167992606945 51.8664
22.88488314827121 53.1493
22.907599215359284 54.4289
22.93031619487366 55.4384
22.953211574954405 56.2712
22.975930389478226 56.9741
22.998650119445763 56.9806
23.02137076586092 56.0243
23.044269845560063 54.6917
23.06699233506288 53.1381
23.089715744034912 51.4996
23.112617610931565 49.885
23.135342869061212 48.8682
23.158069049684816 48.1378
23.1807961538087 47.7904
23.20370174880544 47.86600000000001
23.226430710184808 47.7443
23.249160598093425 47.7075
23.271891413539002 47.8099
23.294800752937697 47.8302
23.31753343374794 48.0104
23.340267045128353 47.9669
23.36300158808808 48.2317
23.38591468821339 48.6016
23.408651104658304 48.9687
23.431388455719986 49.6546
23.454126742409 50.6267
23.4770436196085 51.5334
23.499783787914662 52.97
23.522524894889884 54.29600000000001
23.54526694154616 55.4719
23.56818761219047 56.5183
23.59093154860734 56.9152
23.613676427751283 56.9329
23.636422250635754 55.9098
23.659346731118656 54.3701
23.68209445191868 52.306000000000004
23.704843119509587 50.5185
23.72759273490623 48.7753
23.750521041644767 47.4173
23.77327256312355 46.2942
23.796025035462787 45.7393
23.818956224555475 45.2628
23.841710609113413 45.1615
23.86446594758979 44.9661
23.887222241002014 44.7012
23.910157285144578 44.4423
23.932915498962537 44.4503
23.955674670778713 44.2307
23.978434801611975 44.0076
24.001373717286125 43.8024
24.024135776723917 43.8729
24.046898798245582 43.7545
24.06966278287146 43.5876
24.092605586582614 43.3607
24.115371508023642 43.24
24.1381383956401 43.213
24.16090625045381 43.1459
24.183852958731244 43.0988
24.206622758582608 43.0657
24.229393528706886 42.8891
24.252165270127392 42.9526
24.27511589952438 42.7249
24.297889594216997 42.5753
24.32066426328598 42.5455
24.34343990775613 42.5631
24.36639447485003 42.4285
24.38917208083877 42.4268
24.41195066531332 42.2978
24.43490819850244 42.4476
24.457688750692377 42.2322
24.48047028445616 42.203
24.503252800821233 42.3817
24.526214300784112 42.253
24.548998793132213 42.3929
24.57178427117417 42.1808
24.59457073593893 42.1532
24.617536219319863 42.1434
24.64032466834748 42.056000000000004
24.663114107195035 42.0246
24.685904536893013 41.7513
24.708874020360852 41.74100000000001
24.731666442613744 41.65
24.754459858818787 41.7288
24.777254270007962 41.5899
24.80022777025625 41.5072
24.82302418230472 41.5079
24.845821592443674 41.4622
24.86862000170663 41.3715
24.891597535453727 41.369
24.914397953892728 41.5788
24.93719937456671 41.2527
24.96000179851076 41.4161
24.98298338249997 41.6327
25.00578782394922 41.8881
25.028593271784167 41.9435
25.05157790644186 42.2731
25.07438537804115 42.4641
25.097193859145293 42.7796
25.120003350792075 43.0435
25.142992065061257 43.3757
25.165803588823465 43.4557
25.18861612625217 43.6692
25.211429678386736 43.8716
25.234422489079968 43.9013
25.257238081693636 44.1273
25.280054692141732 44.2292
25.3028723214652 44.2022
25.325869245420463 44.2898
25.348688923599397 44.2363
25.371509623787006 44.1243
25.394331347025812 43.6576
25.41733240110666 43.1855
25.440156181590016 42.5228
25.46298098826268 42.1159
25.48580682216873 41.5796
25.50881202326435 41.0477
25.53163992281684 40.6953
25.55446885274561 40.4542
25.577298814096377 40.2957
25.600308179121807 40.1359
25.623140214533745 40.0586
25.64597328451537 39.9632
25.66898578564376 39.6513
25.691820936010206 39.7991
25.714657124097695 39.7622
25.737494350954734 39.77
25.760511045684957 39.7722
25.783350361364224 39.8393
25.806190718969255 39.7282
25.82903211955018 39.8618
25.852053024868923 39.7641
25.874896522722523 39.8089
25.897741066713106 39.6909
25.920586657892454 39.9159
25.943611790812668 40.1163
25.966459487728237 40.2634
25.989308234998564 40.1938
26.01215803367705 40.601
26.03518741123814 40.928000000000004
26.05803932412957 40.9468
26.080892291600094 40.7421
26.10374631470478 40.8396
26.12677995397268 40.8551
26.14963609978026 40.8275
26.172493304397875 40.5133
26.19535156888223 40.2856
26.218389486949604 40.0226
26.241249882640123 39.7213
26.26411134137826 39.5122
26.28715248187403 39.422
26.31001607820869 39.3271
26.3328807407756 39.2179
26.35574647063438 39.2685
26.37879191991473 39.234
26.401659795896734 39.259
26.424528742360263 39.3473
26.447398760366614 39.617
26.470448535598294 39.7084
26.49332070826805 39.9176
26.516193955675355 40.3065
26.53906827888316 40.4503
26.562122397260108 40.6563
26.584998883685063 41.0123
26.607876449110325 41.2071
26.63075509460056 41.4179
26.65381357334404 41.5211
26.67669439061878 41.4175
26.699576291163382 41.367
26.722459276044212 41.1878
26.745522132402975 40.8561
26.768407297649354 40.6445
26.791293550442003 40.2082
26.814180891848974 40.0844
26.837248143099337 39.7792
26.860137673466657 39.6681
26.88302829566349 39.3714
26.90592001075963 39.19
26.92899167420566 39.2091
26.951885586870763 38.7111
26.974780595655517 38.5343
26.99785558178161 38.3843
27.020752794605112 38.3581
27.043651106772522 38.1229
27.06655051935668 38.0689
27.089629948036183 38.0357
27.112531573292053 37.8954
27.135434302194138 37.8488
27.158338135817015 37.8815
27.181422024430987 37.8499
27.204328079372566 37.7761
27.22723524226965 37.852
27.250143514198573 37.7875
27.273231880156334 37.9036
27.296142382065014 37.7675
27.319053996245536 37.7027
27.341966723775965 37.7533
27.365059584515222 37.6851
27.38797455070062 37.8056
27.410890633481237 37.5871
27.433807833936918 37.6648
27.456905206923906 37.7824
27.47982465472398 37.8146
27.502745223449743 37.8231
27.525666914182825 38.0163
27.548768816912457 37.8301
27.571692763693633 37.7356
27.59461783573812 37.5708
27.617723149491244 37.5485
27.640650484125285 37.37
27.66357894728264 37.2283
27.686508540048052 37.3485
27.709618414237887 37.2244
27.732550278321757 37.0894
27.755483275279115 37.0672
27.778417406196485 37.0078
27.801531858397514 37.0567
27.824468269376716 36.9649
27.847405817586786 37.1463
27.870344504116094 37.2639
27.893463551932008 37.4214
27.916404527281053 37.5936
27.93934664422563 37.656
27.962289903855886 37.8017
27.98541356491974 37.9888
28.00835912214229 38.1497
28.03130582533231 38.2724
28.054253675581805 38.4774
28.077381967556104 38.36
28.100332124185126 38.315
28.123283431160893 38.1829
28.146235889577238 38.0504
28.169368830154156 37.9106
28.192323603752033 37.707
28.215279532083304 37.4669
28.238415973016764 37.26
28.261374223145094 37.1902
28.284333631303806 36.8556
28.307294198589954 36.7862
28.330435319167677 36.5603
28.353398217078915 36.3007
28.376362277420153 36.0615
28.39932750129032 35.7901
28.422473319286713 35.7913
28.44544088262495 35.8738
28.468409612800283 35.6325
28.491379510913497 35.4327
28.51453004413313 35.1719
28.53750229057244 35.2408
28.56047570826344 35.1647
28.583450298308804 35.1625
28.606605564586562 35.0609
28.629582511831156 35.1266
28.65256063474956 34.933
28.675539934446338 35.0248
28.698699951647605 34.8787
28.72168161743193 34.7728
28.74466446331978 34.8117
28.767648490417624 34.8235
28.790813276438353 34.8415
28.813799678527303 34.8648
28.836787265157085 34.8336
28.859955641890075 34.8513
28.882945610203045 34.7733
28.905936766392035 34.7275
28.928929111566863 34.7188
28.952102288520145 34.5802
28.975097024308607 34.4992
28.998092952423807 34.3549
29.021090073977508 34.3294
29.04426806913204 34.2025
29.067267590245258 34.0746
29.090268308143695 34.0277
29.11327022394099 33.9393
29.13645305530891 33.8105
29.159457379627167 33.7583
29.18246290519685 33.661
29.20546963313352 33.6538
29.22865731875826 33.7269
29.25166646419296 33.7453
29.27467681535305 33.626
29.29768837335608 33.7542
29.320880931312562 33.6247
29.34389491580634 33.6098
29.366910110507334 33.672
29.38992651653503 33.7116
29.41312396492981 33.6496
29.436142806456754 33.5417
29.45916286268059 33.4223
29.48236399319994 33.3024
29.50538649169417 33.199
29.528410208259935 33.0951
29.55143514402014 32.8308
29.574641196749695 32.7735
29.597668583816574 32.7036
29.6206971934585 32.510999999999996
29.64372702680042 32.5555
29.666938019934474 32.4218
29.689970313635285 32.3431
29.713003834422636 32.2692
29.73603858342347 32.3403
29.759254535188578 32.2261
29.78229175361658 32.1952
29.80533020365064 32.2438
29.82836988641968 32.2404
29.85159081507472 32.2834
29.874632976355343 32.1356
29.89767637376955 32.1567
29.920721008448314 32.0276
29.9439469322847 31.9226
29.96699405457564 31.9139
29.9900424175358 31.8889
30.013092022298157 31.9652
30.03632295963995 31.7974
30.059375061131373 31.853
30.08242840783577 31.9201
30.105483000888153 31.9492
30.128718970092244 31.872
30.151776069006917 31.7998
30.17483441768648 31.8599
30.198074175317235 31.7489
30.221135036724256 31.789
30.24419715131772 31.8002
30.267260520236203 31.63
30.290505341942243 31.7932
30.313571232750228 31.8112
30.336638381310948 31.649
30.35970678876503 31.6719
30.38295669299435 31.6174
30.40602763151657 31.546
30.429099832366074 31.5747
30.452173296685572 31.4765
30.47542830191959 31.5144
30.498504306502497 31.4499
30.521581577995562 31.56
30.544660117543582 31.6114
30.56792024229725 31.6652
30.59100133132069 31.5321
30.614083691845494 31.5755
30.637167325018545 31.6168
30.660432587840603 31.7404
30.683518779717886 31.6484
30.70660624769615 31.6374
30.729694992924372 31.6646
30.75296541239743 31.6463
30.77605672557558 31.6969
30.799149319462742 31.5654
30.8224236211637 31.3938
30.845518789950724 31.3519
30.868615242910597 31.3321
30.891712981195973 31.1069
30.91499247215866 31.0533
30.938092794619365 31.0215
30.96119440587579 30.8771
30.984297307082752 30.9876
31.00758200598383 30.7691
31.030687500658694 30.6654
31.053794288760695 30.6603
31.076902371446767 30.4709
31.100192296997445 30.4877
31.12330298246119 30.4195
31.14641496599209 30.3822
31.169528248749216 30.5203
31.19282341969534 30.3325
31.215939314557186 30.3636
31.239056512134788 30.3724
31.262175013589378 30.2964
31.28547544871168 30.2484
31.30859657161541 30.2561
31.331719001892175 30.3214
31.35484274070538 30.453000000000003
31.378148458819545 30.3902
31.401274828443725 30.362
31.424402510106933 30.2837
31.447712205419993 30.3394
31.470842524931633 30.2313
31.493974159989783 30.3217
31.51710711176168 30.3504
31.54042212308802 30.2676
31.563557722100917 30.1816
31.586694641341655 30.0679
31.609832881979628 29.9037
31.63315322823208 29.9549
31.656294125521327 29.8159
31.679436347728515 29.7946
31.70257989602529 29.737
31.725905596152327 29.6403
31.74905181052835 29.5355
31.772199354521323 29.5859
31.79534822930507 29.5894
31.818679302290967 29.601999999999997
31.84183085259981 29.5163
31.864983737233473 29.5254
31.88813795736804 29.6084
31.911474422233013 29.4824
31.934631327356435 29.5289
31.9577895715215 29.4989
31.980949155906522 29.5326
32.004291031706956 29.4449
32.027453310562606 29.372
32.05061693318573 29.2777
32.07396288236386 29.2031
32.09712920658542 29.1869
32.12029687812702 29.1218
32.14346589817093 29.0402
32.166817291729984 28.9375
32.18998902288583 28.9225
32.21316210610336 28.8518
32.23633654256711 28.7663
32.259693399663725 28.6955
32.282870556771144 28.6364
32.30604907069099 28.6525
32.329228942610065 28.6323
32.35259128243769 28.4971
32.375773884550505 28.5114
32.398957848235646 28.4438
32.422143174682176 28.3843
32.445511016471215 28.3064
32.468699082679954 28.1975
32.49188851523011 28.1261
32.51507931531304 28.1464
32.538452678331 28.1651
32.56164622776311 27.9941
32.58484114831493 28.0292
32.60803744118015 27.9742
32.631416344731896 27.9678
32.654615396551876 27.8537
32.67781582427913 27.9538
32.701198898634416 27.8197
32.72440209253756 27.7709
32.747606665947124 27.781999999999996
32.77081262006088 27.5646
32.79420126883317 27.6504
32.81740999876112 27.7321
32.840620112999424 27.4992
32.86383161274818 27.5104
32.88722585534586 27.4966
32.91044014056596 27.5402
32.933655814909734 27.5011
32.95687287957963 27.4552
32.98027273544904 27.3964
33.00349259526636 27.4018
33.026713849030116 27.3465
33.04993649794511 27.3482
33.073341986570746 27.2625
33.09656744032826 27.3049
33.11979429286444 27.3111
33.14302254538647 27.2929
33.166433686291185 27.2628
33.18966475336992 27.254
33.212897224069096 27.1271
33.23613109959831 27.0612
33.259547912343415 27.0419
33.2827846121627 27.079
33.306022720453775 26.9828
33.32926223842861 26.833000000000002
33.352684742614166 26.8745
33.37592709463173 26.8527
33.399170859982064 26.8392
33.422597648419426 26.7214
33.44584425514446 26.6801
33.46909227885668 26.6071
33.4923417207723 26.4759
33.51577423505344 26.5565
33.539026528130385 26.4216
33.56228024307245 26.3688
33.585535381098246 26.2606
33.60897364093058 26.2294
33.63223163992385 26.1669
33.6554910656699 26.2129
33.678751919389796 26.2449
33.702195944520106 26.063000000000002
33.72545966903325 26.1623
33.74872482519663 26.0566
33.771991414233746 26.0469
33.79544122444841 26.0473
33.81871069412428 25.925
33.84198160035767 25.9389
33.86525394437455 25.9188
33.88870955949969 25.8683
33.911984794020626 25.8188
33.93526147001624 25.7528
33.958539588715006 25.7509
33.98200102861669 25.6984
34.0052820477047 25.5471
34.02856451319451 25.5816
34.05203033759056 25.5646
34.07531571090147 25.5944
34.09860253431845 25.4019
34.121890809074316 25.436
34.145362493118924 25.4757
34.16865368561615 25.4253
34.191946333164054 25.2917
34.21524043699793 25.3038
34.23871800066799 25.2942
34.26201503218366 25.0786
34.28531352370466 25.1463
34.30861347646881 25.1017
34.33209693978188 25.0965
34.3553998301885 25.0606
34.378704185565205 24.9233
34.402010007152356 24.9567
34.42549939016683 25.0053
34.44880815937748 24.7998
34.472118398533134 24.7494
34.49543010887669 24.7313
34.51892543169198 24.688000000000002
34.54224009966052 24.7205
34.56555624255917 24.7694
34.58887386163339 24.6054
34.61237514439016 24.5364
34.6356957311114 24.5723
34.65901779775809 24.5598
34.68252356662995 24.4403
34.705848608458616 24.4694
34.72917513396849 24.3894
34.75250314440949 24.3595
34.77601490857862 24.2947
34.799345904259795 24.2508
34.82267838863559 24.248
34.846012362958525 24.27
34.869530142679984 24.2389
34.89286711232212 24.1456
34.91620557568269 24.1638
34.93954553401677 24.1243
34.9630693495876 24.066999999999997
34.986412313340814 24.0567
35.00975677584668 24.0154
35.033102738362956 23.933000000000003
35.05663261012228 23.9145
35.0799815881786 23.9263
35.10333207003229 23.8423
35.12668405694369 23.8574
35.150220005273056 23.853
35.17357501786656 23.8151
35.19693153931268 23.7735
35.220289570874385 23.7394
35.24383161619786 23.7699
35.267192683604904 23.7045
35.290555264930376 23.6067
35.314101899412165 23.7087
35.33746752422433 23.572
35.36083466676374 23.5989
35.38420332829803 23.5799
35.407756095629054 23.596
35.43112781085063 23.5433
35.45450104888391 23.5237
35.477875810999194 23.5132
35.50143473172161 23.4651
35.52481255774625 23.4719
35.54819191167777 23.3721
35.57157279478914 23.3683
35.595137889488406 23.3419
35.61852184675279 23.3101
35.641907337029984 23.2561
35.665294361595684 23.2005
35.68886565090076 23.1811
35.7122557598848 23.1602
35.73564740699838 23.1358
35.759040593519934 23.1011
35.78261809810353 23.0268
35.80601437933051 22.9944
35.829412203814705 22.9411
35.85281157283719 22.7857
35.876395313415884 22.8678
35.8997977874528 22.8195
35.92320180988546 22.8032
35.946790244133936 22.715
35.97019737933222 22.7373
35.993606066789866 22.6353
36.01701630779276 22.636
36.04061101440684 22.5629
36.06402437852291 22.6484
36.08743930005611 22.5787
36.1108557802951 22.4755
36.13445678011326 22.5041
36.15787639383515 22.4317
36.18129757014299 22.3458
36.20472031032821 22.3446
36.22832762423364 22.3321
36.25175350829375 22.2527
36.275180960119776 22.1894
36.298609981005924 22.3101
36.32222362992669 22.287
36.34565580510207 22.2155
36.36908955323448 22.146
36.39252487562093 22.0484
36.416144880530226 22.0526
36.43958336764275 22.0358
36.463023432914625 22.0471
36.486465077645676 22.0335
36.51009145956204 22.0177
36.53353627947859 21.9862
36.55698268276811 21.9576
36.58043067073321 21.930999999999997
36.60406345072071 21.8013
36.62751462435344 21.7543
36.65096738658405 21.7774
36.67460498210655 21.8005
36.69806093788647 21.8121
36.72151848619297 21.7011
36.744977628333636 21.6796
36.76862165890998 21.6053
36.79208400512205 21.5779
36.81554794910557 21.6198
36.83901349217101 21.5161
36.862663978991606 21.4482
36.88613273667352 21.4548
36.90960309738324 21.4141
36.933075062434064 21.3315
36.95673202673572 21.3093
36.98020721697122 21.2443
37.003684015502365 21.1743
37.027162423645365 21.2498
37.050825886711465 21.1999
37.07430753063053 21.086
37.09779078812467 21.1823
37.121275660513014 21.0712
37.144945643673694 20.9719
37.16843376245278 21.0426
37.19192350009803 21.0313
37.215414857931435 20.959
37.239091382563885 20.8569
37.262585997426164 20.8543
37.28608223645736 20.816999999999997
37.309763684451696 20.8615
37.33326318851098 20.8177
37.356764320726555 20.7231
37.380267082425526 20.7583
37.40395510942588 20.7299
37.42746114683234 20.6458
37.45096881771841 20.6867
37.474478123414166 20.6073
37.49817275092816 20.5836
37.52168534303452 20.5623
37.54519957395567 20.4636
37.568715445024665 20.4419
37.592416694607714 20.3683
37.61593586281424 20.4394
37.63945667518264 20.4462
37.66297913304891 20.3848
37.68668702630454 20.3265
37.710212792059274 20.2315
37.733740207334854 20.2066
37.757269273470364 20.1851
37.780983832050374 20.2292
37.80451621684926 20.1406
37.82805025654007 20.0695
37.851585952464795 20.0339
37.8753071980695 20.0081
37.89884622345676 19.995
37.92238690911902 19.9966
37.94611318753442 19.9371
37.969657210779765 19.886
37.99320289834801 19.9044
38.016750251586465 19.8582
38.04048325513017 19.7907
38.06403395679343 19.7906
38.087586328183946 19.717
38.11114037065203 19.6936
38.13488012115898 19.7155
38.1584375229181 19.6949
38.181996599821 19.6028
38.205557353221124 19.5746
38.229303872575656 19.5797
38.2528679961576 19.5338
38.27643380031219 19.5403
38.30000128639589 19.5043
38.32375459653193 19.4692
38.34732546371299 19.3982
38.37089801690786 19.3135
38.39447225747609 19.3557
38.418232380377425 19.3988
38.441810012983396 19.3466
38.46538933705673 19.2486
38.488970353960084 19.2801
38.51273731166058 19.1945
38.536321731567014 19.2053
38.55990784840681 19.1662
38.58367995004091 19.0678
38.60726947812959 19.0649
38.63086070726198 19.054000000000002
38.654453638806274 19.0488
38.678232613930824 18.9474
38.70182896773327 18.89
38.72542702806741 18.9424
38.7490267963045 18.8842
38.77281266709232 18.9102
38.79641586862214 18.8289
38.8200207821842 18.8074
38.843627409152944 18.8323
38.86742019782782 18.8006
38.891030269149255 18.7108
38.914642058016156 18.6983
38.938255565806124 18.6713
38.96205529464307 18.5431
38.98567225787121 18.6589
39.00929094417078 18.6341
39.03291135492255 18.6168
39.05671804624804 18.4923
39.080341923549106 18.4702
39.103967529460334 18.5029
39.127594865365744 18.4561
39.15140854155791 18.3942
39.17503935514948 18.3127
39.19867190290282 18.3347
39.22249083587951 18.2825
39.24612686969409 18.3358
39.269764641845306 18.2619
39.293404153722804 18.2448
39.317230110864074 18.1826
39.34087311998506 18.1453
39.36451787301696 18.135
39.388164371352595 18.052
39.41199737518003 18.0743
39.43564738196752 18.0119
39.45929913825317 18.0339
39.48295264543308 17.964000000000002
39.506792718520884 17.9257
39.530449745387216 17.9442
39.55410852735203 17.926
39.57776906581474 17.8958
39.60161623079 17.8521
39.625280300200025 17.8247
39.64894613032202 17.6729
39.67261372255866 17.7204
39.6964680021016 17.8067
39.72013913657293 17.7644
39.74381203738292 17.7054
39.76748670593756 17.7146
39.79134812278169 17.6579
39.81502634488497 17.6056
39.83870633896685 17.5263
39.862388106436654 17.5555
39.88625668336918 17.5306
39.90994201572829 17.47
39.933629125719285 17.4892
39.957503091207826 17.4168
39.9811937746168 17.4279
40.00488623990914 17.3769
40.02858048850006 17.3429
40.05246165409549 17.2387
40.076159487492085 17.2749
40.099859108448875 17.2704
40.123560518384345 17.2296
40.1474489070226 17.2185
40.171153913178564 17.1883
40.194860712584955 17.1851
40.2185693066637 17.117
40.242464941335314 17.0853
40.26617714307655 17.0511
40.289891143772046 17.0517
40.3136069448471 16.9921
40.33750984859743 17.0421
40.3612292688043 16.9869
40.3849504936829 16.9384
40.40867352466194 16.9237
40.43258372059144 16.9179
40.45631038219906 16.9304
40.48003885420956 16.7854
40.503769138055105 16.8245
40.52768664931955 16.8251
40.55142057531802 16.7524
40.57515631746428 16.7277
40.599079334038514 16.7097
40.62281872700477 16.666
40.64655994043941 16.6686
40.67030297578061 16.6346
40.69423334835778 16.6577
40.71798004609188 16.6346
40.74172857006355 16.5318
40.76547892171441 16.5185
40.7894166736039 16.4594
40.813170699248566 16.4075
40.83692655691388 16.3958
40.86068424804498 16.475
40.884629402612525 16.4107
40.908390779366385 16.3459
40.932153993938 16.3127
40.95591904777605 16.3341
40.979871628443995 16.2964
41.003640379561936 16.2571
41.02741097430883 16.2745
41.05118341413683 16.2393
41.075143444384416 16.1888
41.098919593177826 16.1757
41.1226975914255 16.18
41.14647744058318 16.0852
41.170444943946755 16.0695
41.19422851378379 16.0404
41.218013938914645 16.0566
41.24198706625173 15.9677
41.26577622087193 15.9341
41.289567235177785 15.9655
41.31336011063129 15.9307
41.337340752422875 15.8895
41.361137369129835 15.8619
41.38493585138705 15.8392
41.40873620066004 15.807
41.43272438060107 15.8131
41.45652848292052 15.7378
41.48033445666918 15.6832
41.50414230331616 15.6845
41.528138045159764 15.649000000000001
41.551949656675205 15.5905
41.575763145513235 15.6207
41.59957851314666 15.5536
41.62358184070442 15.5619
41.64740098505737 15.53
41.6712220126409 15.5204
41.69504492493139 15.5163
41.71905586207357 15.4718
41.74288256296395 15.4195
41.766711153007456 15.3909
41.79054163368412 15.3787
41.814560204340054 15.3778
41.838394485526365 15.3329
41.86223066180303 15.2392
41.88625497706819 15.2548
41.910094962812 15.257
41.93393684811168 15.2416
41.95778063445365 15.1646
41.981812625263366 15.1742
42.00566023303407 15.1366
42.029509746323676 15.142000000000001
42.05336116662236 15.0926
42.077400857069705 15.1083
42.10125611078846 15.0929
42.12511327600405 15.0912
42.14897235421036 15.0297
42.173019768448455 15.0274
42.19688269209613 14.9805
42.22074753323349 14.9895
42.24461429335818 14.9267
42.268669455600495 14.8696
42.292540073217886 14.8382
42.31641261433284 14.8492
42.34028708044675 14.818
42.36435001496739 14.7694
42.38822835065557 14.808
42.41210861586426 14.7654
42.4359908120986 14.7658
42.46006154323262 14.722000000000001
42.48394762115317 14.667
42.507835634632315 14.6573
42.531912233047436 14.6392
42.55580413732265 14.6105
42.579697981698 14.5607
42.60359376768525 14.5237
42.62767820545945 14.4908
42.65157789440821 14.4714
42.67547952952185 14.4385
42.699383112316 14.4564
42.72347541395347 14.3893
42.74738291190531 14.3765
42.771292362102166 14.3702
42.795203766063516 14.3188
42.819303956130405 14.3157
42.843219287476536 14.2507
42.86713657716324 14.2485
42.89105582671383 14.2856
42.91516392983864 14.2269
42.939087119032166 14.2124
42.963012272677304 14.1774
42.98693939230129 14.1862
43.01105543317513 14.1401
43.034986504731386 14.0969
43.05891954686589 14.0701
43.08285456110972 14.0856
43.10697856448665 14.0031
43.130917542983475 13.9287
43.15485849820081 13.9633
43.17880143167367 13.9327
43.20293342237094 13.9165
43.226880332449 13.8641
43.25082922540554 13.8992
43.27496722682525 13.8826
43.29892010567796 13.8812
43.32287497204102 13.7932
43.34683182745632 13.7765
43.370977859791836 13.7305
43.39493871351105 13.6554
43.41890156092628 13.7396
43.44286640358341 13.6666
43.46702049182749 13.6837
43.49098934522816 13.6195
43.51496019852649 13.6131
43.5389330532723 13.5749
43.56309522248204 13.5795
43.58707210044314 13.567
43.61105098451946 13.5229
43.63503187626491 13.4912
43.659202151562134 13.4803
43.68318707902681 13.4422
43.70717401884041 13.4285
43.731162972560874 13.4008
43.75534137913236 13.3932
43.779334381108384 13.345
43.803329401683186 13.3214
43.82732644241872 13.324000000000002
43.8515130055166 13.3199
43.87551410707659 13.2702
43.89951723350145 13.2461
43.923709934595614 13.2443
43.94771713129917 13.2013
43.97172635758096 13.1914
43.99573761501002 13.1179
44.0199385169922 13.0925
44.04395385732619 13.0557
44.067971233533086 13.1191
44.09199064718605 13.0906
44.11619977548961 13.0347
44.14022328470671 13.0397
44.16424883610785 12.9884
44.18827643127035 13.029000000000002
44.21249381139513 12.9699
44.236525514814076 12.9667
44.26055926674478 12.9683
44.28459506876863 12.9703
44.3088207262813 12.8693
44.33286064928722 12.8428
44.35690262714919 12.8253
44.38094666145278 12.825
44.4051806219871 12.7466
44.42922879003185 12.7863
44.45327901929361 12.7694
44.477331311362136 12.7177
44.501573600619416 12.6689
44.525630039221795 12.6333
44.54968854541895 12.6081
44.573937102200176 12.6064
44.5979997645541 12.6502
44.622064499300315 12.56
44.64613130803592 12.5419
44.67038823869318 12.5304
44.69445921643748 12.4894
44.718532272981385 12.5171
44.742607409926194 12.4527
44.76687274034801 12.4105
44.79095205918753 12.4064
44.81503346325094 12.3708
44.839116954143876 12.375
44.86339071028742 12.3609
44.88747839599524 12.3499
44.91156817336837 12.2917
44.93566004401666 12.2987
44.959942251908146 12.2416
44.984038330325966 12.2545
45.00813650686762 12.1572
45.03223678314731 12.1585
45.05652746888232 12.195
45.08063196592069 12.1762
45.104738567558705 12.1491
45.128847275414856 12.1271
45.15314646515866 12.079
45.17725940679741 12.0777
45.20137445952892 12.0926
45.22568004865265 12.0026
45.24979934496396 12.0306
45.27392075725247 12.0241
45.29804428714431 11.9728
45.322358426247604 11.9071
45.346486212804315 11.9403
45.370616121861914 11.9272
45.39474815505086 11.8532
45.41907087049246 11.824000000000002
45.4432071734666 11.8251
45.46734560548283 11.8531
45.49148616817604 11.8608
45.51581748638564 11.764000000000001
45.5399623320197 11.7519
45.56410931325473 11.7207
45.58825843173002 11.7221
45.61259837920865 11.7161
45.636751793816 11.7322
45.66090735060093 11.6667
45.68506505120716 11.6095
45.7094136545275 11.5905
45.73357566449271 11.584000000000001
45.75773982322992 11.6145
45.78190613238733 11.5486
45.806263418194064 11.5026
45.83043404997326 11.5206
45.85460683713677 11.4989
45.87897065658495 11.4578
45.90314777634752 11.4445
45.92732705646868 11.4406
45.9515084986045 11.401
45.97588104735473 11.3852
46.00006683541565 11.3532
46.02425479047904 11.327
46.04844491420549 11.3256
46.0728262191024 11.2868
46.09702070211635 11.2598
46.12121735879483 11.2885
46.14541619080294 11.2366
46.169806278764455 11.2521
46.194009483459034 11.22
46.21821486849841 11.1434
46.24242243555223 11.1718
46.266821333570014 11.1501
46.29103328674601 11.1505
46.31524742696538 11.1237
46.33946375590237 11.0657
46.36387149104216 11.0033
46.38809221957392 10.9986
46.41231514186606 11.0339
46.436540259597464 10.9742
46.460956858999374 10.9758
46.48518638983522 10.9339
46.509418121166966 10.9252
46.533652054678114 10.9175
46.55807754555709 10.8921
46.58231590571962 10.9321
46.60655647313217 10.8743
46.630988654873654 10.8983
46.655233659129024 10.8048
46.67948087571551 10.7612
46.70373030632484 10.7449
46.72817142736393 10.7818
46.752425308428684 10.7957
46.77668140861147 10.7266
46.80093972960865 10.7035
46.82538981736788 10.6957
46.849652602470904 10.6753
46.87391761349769 10.6391
46.8981848521493 10.6372
46.9226439341274 10.6073
46.946915650573224 10.6118
46.97118959976749 10.5717
46.99546578341598 10.5155
47.019933887188216 10.5161
47.04421456235744 10.4926
47.06849747711879 10.4625
47.09278263318286 10.4744
47.11725978640143 10.4592
47.14154944775105 10.4328
47.165841355555656 10.4461
47.1901355115306 10.3867
47.214621741924994 10.3636
47.23892041698887 10.3438
47.26322134538975 10.3459
47.28771440635075 10.3127
47.31201986422527 10.3171
47.33632758061436 10.2957
47.360637557241866 10.2886
47.38513974410611 10.243
47.40945426407847 10.1999
47.43377104948137 10.1995
47.45809010204344 10.1959
47.48260144275502 10.2013
47.506925052572285 10.1372
47.53125093475548 10.1222
47.55557909103813 10.1083
47.58009961361992 10.0995
47.60443234110732 10.0882
47.62876734791564 10.038
47.65310463578333 10.0356
47.6776343683373 10.0402
47.7019762413987 10.0173
47.72632040075572 9.96808
47.75066684815169 9.92862
47.77520581885936 9.89136
47.799556865477655 9.93238
47.823910205386 9.89973
47.84826584033272 9.872060000000001
47.87281407745551 9.84342
47.89717432569297 9.855369999999999
47.92153687423484 9.813460000000001
47.94609208429692 9.840489999999999
47.97045925671401 9.8138
47.99482873471275 9.74853
48.01920052005013 9.76626
48.04376504619224 9.74713
48.068141469543484 9.7503
48.09252020552573 9.70867
48.11690125590099 9.67143
48.1414751266064 9.70626
48.16586082917454 9.68107
48.19024885144316 9.654710000000001
48.2146391951793 9.63307
48.239222439012764 9.60973
48.26361744916137 9.58367
48.28801478610016 9.56237
48.31241445160131 9.59377
48.337007097209366 9.562710000000001
48.36141144338331 9.54425
48.38581812345755 9.50591
48.41022713920929 9.52497
48.434829215320704 9.4693
48.45924292604658 9.46005
48.48365897780325 9.48715
48.50807737237308 9.428189999999999
48.532688907799276 9.402239999999999
48.55711201168574 9.392710000000001
48.581537463754074 9.39673
48.60615611725119 9.39161
48.63058628942721 9.3594
48.65501881516546 9.33438
48.6794536962573 9.27473
48.70408185970339 9.28733
48.72852147531801 9.248510000000001
48.75296345168211 9.24903
48.77740779059232 9.2408
48.80204549302823 9.22521
48.82649458091802 9.18875
48.85094603676547 9.166960000000001
48.87539986237231 9.145760000000001
48.90004713292306 9.13234
48.92450572200832 9.11691
48.94896668628025 9.13007
48.97343002754588 9.08287
48.99808689542115 9.09488
49.02255501470614 9.07824
49.04702551642794 9.04856
49.0714984023988 9.03336
49.096164896893235 9.01872
49.120642575466796 8.993789999999999
49.145122643748394 8.95912
49.16960510355558 8.96743
49.19428125404938 8.93977
49.2187685210852 8.90617
49.243258185121555 8.91484
49.26794160167084 8.88238
49.2924360839405 8.86864
49.31693296869764 8.807160000000001
49.34143225776915 8.83216
49.36612538195438 8.82086
49.39062950396021 8.806000000000001
49.41513603578346 8.80373
49.4396449792564 8.74574
49.46434784069503 8.75125
49.488861631846454 8.74915
49.513377840166804 8.71931
49.537896467493745 8.65339
49.56260909589029 8.65963
49.587132585683285 8.6998
49.611658500018365 8.67065
49.636186840738596 8.59678
49.66090926588511 8.62247
49.685442483902584 8.5868
49.70997813385706 8.54846
49.734516217597076 8.56594
49.75924846937352 8.5457
49.7837914452858 8.53103
49.80833686055187 8.50575
49.83288471702571 8.49929
49.85762682540054 8.508569999999999
49.882179588965734 8.49571
49.9067347993235 8.43552
49.93129245833333 8.41409
49.95604445336378 8.42585
49.98060703442832 8.39987
50.005172069746266 8.36686
50.02993150438364 8.38134
50.05450147301533 8.37673
50.07907390151433 8.36464
50.10364879174981 8.31837
50.12841816587289 8.31471
50.1529980044635 8.31632
50.17758031042124 8.31701
50.20216508562089 8.30734
50.22694442953363 8.24503
50.25153416817468 8.24049
50.27612638170508 8.25216
50.300721072005196 8.18031
50.325510416102105 8.161610000000001
50.350110084975064 8.14627
50.37471223628208 8.15092
50.39931687190919 8.1413
50.424116246675766 8.12014
50.44872587605249 8.12915
50.47333799543065 8.088569999999999
50.49795260670191 8.05815
50.52276204271512 8.06225
50.54738166295838 8.0241
50.57200378079314 8.00692
50.596628398116835 7.978510000000001
50.62144792604559 7.996810000000001
50.646077567609396 7.979419999999999
50.670709714377715 7.984189999999999
50.69553683636198 7.958880000000001
50.72017401885922 7.9440100000000005
50.7448137122895 7.93222
50.76945591856022 7.89084
50.79429318636823 7.856319999999999
50.818940443716784 7.871460000000001
50.84359021965163 7.85032
50.868242516085964 7.82665
50.893089960641895 7.81248
50.917747323549435 7.80945
50.94240721271973 7.80695
50.96706963007175 7.760110000000001
50.99192728239342 7.75581
51.01659478166073 7.737369999999999
51.04126481489051 7.7208
51.06593738400761 7.737010000000001
51.090805275207074 7.72382
51.11548294172845 7.68497
51.14016314993547 7.701910000000001
51.164845901758845 7.6736
51.18972406304274 7.65258
51.21441192780656 7.59897
51.23910234200271 7.6176
51.2637953075678 7.6231
51.288683770237945 7.591939999999999
51.31338186432707 7.57885
51.33808251561888 7.53843
51.362978729967345 7.557980000000001
51.387684521509755 7.54243
51.41239287610203 7.49635
51.437103795691165 7.46278
51.46201036644977 7.46249
51.486726441956634 7.4428399999999995
51.51144508832545 7.43796
51.536166307509156 7.458939999999999
51.56108326624387 7.41869
51.58580965706056 7.406439999999999
51.61053862657523 7.365010000000001
51.635270176746864 7.36682
51.66019755512065 7.36516
51.68493429268881 7.314189999999999
51.70967361681515 7.321330000000001
51.73441552946465 7.291710000000001
51.759353359237934 7.28595
51.7841004750961 7.281289999999999
51.80885018539685 7.241689999999999
51.833602492111254 7.2596300000000005
51.8585508051424 7.24175
51.883308330926425 7.22468
51.90806845906181 7.22164
51.932831191525715 7.15752
51.95779001977161 7.1866699999999994
51.98255798721516 7.14102
52.00732856494335 7.14308
52.03229530577543 7.12305
52.057071130455945 7.108210000000001
52.081849571391054 7.100810000000001
52.106630630568695 7.10765
52.13160794279417 7.0624199999999995
52.15639426492067 7.06395
52.18118321127822 7.04404
52.205974783860896 7.00727
52.23096269971011 6.99154
52.255759551287994 6.97923
52.280559035098186 6.99397
52.30536115314103 6.9818
52.33035970494467 6.927639999999999
52.35516711807904 6.951339999999999
52.37997717147198 6.938960000000001
52.40478986713005 6.89418
52.42979908731974 6.84795
52.454617094216 6.8567
52.47943774942214 6.82545
52.50426105495102 6.88215
52.529280976059844 6.8815800000000005
52.554109609024096 6.823180000000001
52.57894089837482 6.76738
52.60377484613117 6.7867
52.62880550079408 6.8082899999999995
52.65364479223379 6.7605
52.67848674816189 6.76288
52.70352547971946 6.77088
52.72837279155837 6.741339999999999
52.753222773982785 6.7019
52.778075429022984 6.686960000000001
52.80312495150885 6.7199
52.827982978797436 6.66443
52.85284368481815 6.684710000000001
52.87770707160767 6.680439999999999
52.90276741793998 6.64624
52.92763619336701 6.59437
52.952507655698504 6.59784
52.977381806977576 6.58408
53.00245301017842 6.59276
53.02733256653592 6.59629
53.052214817996074 6.55492
53.077099766608484 6.5704199999999995
53.102181859804446 6.50323
53.127072229988265 6.5167
53.15196530349892 6.49924
53.17686108239249 6.4656400000000005
53.20195409881522 6.46575
53.22685531582556 6.47037
53.25175924441303 6.42744
53.27666588664027 6.4634
53.30176985962693 6.381469999999999
53.3266819565689 6.3928199999999995
53.35159677336455 6.3799
53.376514312083096 6.37858
53.40162927507703 6.36065
53.42655228516116 6.32678
53.45147802340193 6.32124
53.47660125628886 6.3082400000000005
53.50153247842639 6.298369999999999
53.52646643496923 6.33943
53.55140312799818 6.30789
53.576537409691696 6.26657
53.60147960336152 6.2527800000000004
53.626424539786164 6.23073
53.65137222105307 6.2338
53.67651758529126 6.21034
53.70147078399681 6.1795599999999995
53.72642673383343 6.1750300000000005
53.75138543689533 6.15379
53.776541917524526 6.16518
53.801506154876755 6.15025
53.826473151763246 6.11065
53.851442910284916 6.10765
53.87661054126026 6.103280000000001
53.9015858509782 6.05583
53.92656392866066 6.06032
53.95154477641532 6.1022300000000005
53.976723591801296 6.05675
54.00171000771266 6.079359999999999
54.02669920004598 6.0353
54.051691170915745 6.04766
54.076881204886796 6.00406
54.101878760928514 6.02541
54.12687910187696 5.9376
54.152077577768296 5.93624
54.1770835166946 5.92037
54.20209224691339 5.9036800000000005
54.22710377055121 5.89295
54.25231352511594 5.92298
54.27733066384342 5.87441
54.30235060239643 5.86731
54.32737334290836 5.81042
54.35259441062629 5.8472
54.377622783395324 5.798080000000001
54.40265396455061 5.81122
54.42768795623251 5.84002
54.45292037169559 5.74025
54.477960012857906 5.7323
54.50300247099511 5.76297
54.52804774825457 5.69091
54.55329154616743 5.67362
54.57834249018678 5.69475
54.6033962597977 5.6404
54.6284528571545 5.62945
54.653708072335164 5.58824
54.67877035378786 5.60582
54.70383546947698 5.60537
54.72890342156389 5.5700400000000005
54.7541700889442 5.51115
54.77924374251975 5.47802
54.8043202390049 5.45331
54.82959552413022 5.41155
54.8546777351945 5.4749
54.87976279569621 5.43656
54.90485070780914 5.46216
54.930137506558005 5.4332400000000005
54.95523115074295 5.44717
54.98032765308844 5.4051599999999995
55.005427015775496 5.32872
55.03072536339621 5.2913
55.05583047570572 5.30785
55.080938454927676 5.25352
55.10604930325027 5.22845
55.131359235107396 5.2767
55.15647585066083 5.23254
55.181595341907496 5.20669
55.20671771104285 5.15696
55.232039262617704 5.12216
55.25716741665048 5.05924
55.28229845518636 5.119269999999999
55.30743238042802 5.0803199999999995
55.33276558731939 5.05898
55.357905315183636 5.05582
55.383047936390035 4.99207
55.40819345314859 4.90725
55.433538351073295 4.93605
55.458689688238415 5.02209
55.483843927614096 4.949730000000001
55.509197623043605 4.92919
55.53435769621134 4.87984
55.55952067826466 4.84545
55.5846865714265 4.82482
55.61005202069737 4.84197
55.63522376553902 4.83904
55.66039842818645 4.78892
55.68557601087004 4.7433
55.7109532500271 4.68612
55.73613670233794 4.72979
