TT I
1.2716486653135266 7.13767
1.2939594142134223 7.18565
1.3162702121660406 6.60588
1.3385810600174564 6.43481
1.3608919586137629 6.894989999999999
1.383202908801069 6.56508
1.405513911425503 6.24518
1.4278249673332093 5.760680000000001
1.4501343378461518 6.0620199999999995
1.4724455028545926 5.7333099999999995
1.4947567236847858 5.87338
1.517068001182951 6.43864
1.5393793361953272 6.18211
1.5616907295681737 6.15266
1.5840021821477681 5.297540000000001
1.60631369478041 5.04141
1.6286252683124185 5.54845
1.6509369035901333 4.718459999999999
1.6732468618895553 4.98609
1.695558623192809 4.6597
1.7178704487808514 5.54548
1.7401823395001077 4.51809
1.7625012545597203 5.01299
1.7848028405262486 5.10268
1.8071218901122095 5.01405
1.8294236121921872 4.61585
1.8517427996910911 5.03078
1.8740620574440425 4.85354
1.8963639900671978 4.5612
1.9186833908139995 5.32913
1.9409854680117449 5.60348
1.9633050151394713 4.97778
1.9856246367570705 4.66985
2.0079269371922672 4.788959999999999
2.03024671027244 4.52798
2.0525491637446027 4.31921
2.074869091674931 4.43885
2.097171701569106 4.8061300000000005
2.1194917877373847 4.20984
2.141811954326636 4.54432
2.164114805233074 4.61661
2.186435135143035 5.63161
2.208738150935709 11.7445
2.231058647554722 23.0811
2.2533792288321184 18.2281
2.275682498336085 9.317160000000001
2.298003251406138 5.75519
2.3203066942619714 5.53449
2.3426276225136022 5.53638
2.3649486396617507 6.24571
2.387252348930071 6.00296
2.4095735463442893 5.6377
2.4318774374315884 6.18812
2.4541988185014043 6.67053
2.476502894794693 6.48295
2.498824462909887 6.59201
2.521146125856138 7.08864
2.5434504863470337 7.59115
2.5657723414244717 8.38752
2.588076895590662 8.71247
2.610398946189713 8.652660000000001
2.6327210958598384 8.78707
2.6550259469304716 8.52642
2.6773482972090137 8.56424
2.6996533504259 8.5935
2.7219759047039602 8.71872
2.744298562293959 8.25526
2.7666039251246595 8.07307
2.7889267918020164 8.34817
2.8112323652516555 8.57824
2.833555444408179 8.72747
2.8558786311183852 8.5706
2.8781845268938557 9.2742
2.9005079311721484 9.670630000000001
2.9228140460410397 9.28633
2.9451376712799635 9.47777
2.967444008632326 9.9869
2.9897678582247247 10.1843
3.0120918213106695 10.6268
3.0343984987899373 10.9959
3.0567226913198637 11.2565
3.079029599759726 12.0387
3.101354025127254 12.3362
3.123678568232338 12.6166
3.145985829517914 13.5679
3.16831061055229 13.8384
3.1906181112775593 14.0257
3.212943133635653 14.7891
3.2352682779763207 14.8081
3.2575761442691227 15.4684
3.2799015350264273 15.474
3.302209649240067 16.1161
3.3245352898092655 16.7891
3.3468436553365257 17.0874
3.369169549113219 17.2698
3.3914955708171384 18.5616
3.413804319727358 18.9082
3.4361305997334863 18.6965
3.4584396084414553 19.7546
3.4807661501462652 19.8138
3.503092824025881 20.4804
3.5254022288463154 20.9656
3.5477291695206588 21.5678
3.5700388426251948 22.1277
3.5923660534916446 23.241
3.6146934007816114 35.3033
3.637003482731501 73.6663
3.6593311053109985 80.7572
3.681641464033634 49.0213
3.7039693653009733 28.8785
3.726297407241705 25.9019
3.7486081875460804 25.4146
3.7709365132734978 26.287
3.793247578841633 26.7498
3.8155761917550093 26.3466
3.8378875459837216 26.9066
3.8602164494827234 27.0659
3.882545499606844 27.8756
3.9048572932539183 28.8403
3.9271866390645718 28.8114
3.9494987298666713 29.4514
3.971828374764527 30.1055
3.9941581705403255 30.6929
4.016470713506008 31.3346
4.038800813471445 31.8562
4.061113662089144 32.1579
4.0834440696459176 33.1638
4.105774632334751 33.4559
4.128087945865126 34.2407
4.150418821249301 34.3636
4.172732448931298 36.1331
4.195063640413578 37.0215
4.2173775856475215 40.7158
4.239709096631102 66.3872
4.262040768704612 190.695
4.284355196706267 253.3
4.306687193387355 168.69
4.329001947444346 71.5863
4.35133427213731 45.6595
4.373666762177566 43.5033
4.395982011761091 43.5742
4.418314834921175 44.5875
4.44063041906622 51.295
4.4629635787515625 59.6612
4.4852969080429785 59.9086
4.5076130004776225 52.6094
4.529946671403969 49.9015
4.552263106909177 50.6116
4.574597122877047 51.1305
4.596931312711224 51.7877
4.619248269273446 52.5294
4.6415828092605835 53.6071
4.663900117405352 55.0283
4.686235010953232 56.1718
4.708552674085913 57.4717
4.730887924602802 58.8504
4.753223354952695 60.3267
4.775541557023902 61.7885
4.797877349456786 63.3209
4.820195915032126 64.6702
4.842532072957498 66.2077
4.864868414979744 68.4199
4.88718753227192 70.5116
4.909524244902505 72.2992
4.931843734218147 74.2271
4.954180820867835 76.2094
4.976518095879839 79.0513
4.998838149695359 81.5943
5.021175803844231 85.5283
5.043496238205739 88.4079
5.065834274903528 92.6597
5.088172504230693 97.1538
5.1104935158799565 102.691
5.132832132875765 121.48899999999999
5.155153533596801 156.175
5.1774925416746225 189.81599999999997
5.199814334878411 321.937
5.2221537374521505 885.885
5.244493338631803 2658.87
5.266815727034316 7857.73
5.289155727832427 13733.7
5.311478517248165 9103.07
5.333818921080011 2562.63
5.356159527788849 451.843
5.3784829252032536 169.268
5.400823940070432 137.07299999999998
5.423147747031976 123.05799999999999
5.445489173474152 114.84700000000001
5.467830807066149 110.646
5.490155234831516 107.384
5.512497285125229 103.785
5.534822130975162 102.259
5.557164601388673 99.6479
5.579489868738879 97.2287
5.601832762690846 96.2028
5.6241758697774475 95.4177
5.646501775867269 94.4541
5.668845311622074 93.0368
5.691171647754637 92.3432
5.713515615597765 91.2352
5.735859800852677 90.0341
5.758186788542988 90.0887
5.780531411018185 90.3851
5.802858837297399 89.8377
5.825203900414495 89.7525
5.8475491852224 90.2874
5.869877275883075 90.6803
5.892223006467101 91.6782
5.914551544266608 92.4054
5.936897724049891 94.7734
5.959244129804903 100.191
5.981573344815301 117.633
6.0039202049061 195.877
6.026249875609095 414.80199999999996
6.04859719346037 892.763
6.070927323278297 2194.93
6.093275102315365 4552.83
6.115623113320588 5124.74
6.137953938319995 3070.79
6.160302415650845 834.074
6.182633708324452 195.62
6.2049826554078376 104.936
6.227331838745022 87.9691
6.249663839443684 82.0268
6.27201349767565 79.9739
6.294345974611799 84.2034
6.316696111167083 92.8085
6.339046488263839 88.544
6.361379686074702 76.5361
6.383730546639482 70.5235
6.406064229255215 67.5498
6.428415576718203 67.3322
6.450749747566656 66.0867
6.47310158535871 65.0192
6.495453669698332 64.0364
6.517788579421056 63.38
6.540141159237969 62.5302
6.562476565766648 62.0523
6.5848296444934045 61.4057
6.607182974060425 60.907
6.6295191323281015 61.3809
6.651872965955752 64.1221
6.6742096296068985 83.9905
6.6965639707294615 118.213
6.71891856698715 118.288
6.741255995248479 85.7659
6.763611104154477 64.83
6.785949046381137 59.1651
6.808304671371482 57.4895
6.8306605557940046 57.0986
6.852999275508618 56.4189
6.875355681171544 55.8825
6.897694923437771 55.5005
6.92005185377892 55.4488
6.9423916220322655 55.193000000000005
6.964749080490181 54.8083
6.987106804399774 55.0189
7.009447368180821 54.8493
7.031805625367033 54.9177
7.054146723727803 54.8465
7.076505517631004 54.1457
7.098864581288365 54.5166
7.121206488070854 54.2392
7.143566093607822 53.873000000000005
7.165908543567245 54.4739
7.188268694426048 54.5229
7.2106291193438095 54.3945
7.232972390625943 55.3453
7.255333366030969 65.5103
7.277677189091925 106.779
7.300038718428332 142.495
7.322400526130865 121.88799999999999
7.344745183422596 80.2567
7.367107550224791 59.5581
7.389452767901992 54.9232
7.411815697249891 53.953
7.434161478756298 53.5713
7.456524974096713 53.2486
7.478888753837185 53.3817
7.501235387657368 53.5402
7.523599738562711 53.9199
7.545946944825532 53.9111
7.568311870344528 54.201
7.5906770845765665 54.4796
7.613025156078678 55.8059
7.635390950099687 56.6649
7.657739602662809 55.6247
7.680105979923558 54.7917
7.702472650212829 55.1375
7.724822180948224 55.1149
7.747189439655568 55.3099
7.769539560075357 55.015
7.791907410653562 55.6004
7.81425812420825 55.8083
7.836626570110925 55.7803
7.858995315087906 56.4668
7.881346924933401 56.7833
7.903716270417482 57.4023
7.926068482028405 57.7279
7.948438431475253 58.2655
7.9708086843180235 58.9991
7.993161805171116 59.5829
8.015532667162402 59.8968
8.037886398416653 61.1517
8.060257873014221 61.0665
8.082629655331942 61.6309
8.104984308787587 62.538999999999994
8.127356708900503 65.1945
8.149711981398308 70.4008
8.172085002766314 72.13
8.194458336181368 69.7281
8.216814543847752 67.9336
8.23918850371002 68.2089
8.26154533906492 68.9472
8.283919928836452 70.7042
8.306277395339652 71.7315
8.328652618483376 73.0387
8.351028159736202 74.9958
8.373386579575245 77.0896
8.395762759396959 78.8088
8.418121819038275 83.0784
8.440498640894003 94.102
8.462875785192262 106.65799999999999
8.485235811156207 120.22200000000001
8.507613602688501 158.736
8.529974277114228 237.69299999999998
8.552352719347912 356.583
8.574731488360351 608.456
8.59709314210385 1186.75
8.619472567021075 1935.31
8.64183487789147 2297.89
8.664214962183097 1733.55
8.686577933647762 874.4939999999999
8.708958680784317 309.85
8.731339760774953 145.952
8.753703729764451 105.56700000000001
8.77608547780821 95.3541
8.798450116065078 92.3427
8.820832535634787 90.1643
8.843215292401656 89.0949
8.865580941199045 87.7571
8.887964374703538 86.7166
8.910330701447199 87.711
8.932714815164482 89.3909
8.955099270424924 88.5259
8.977466620733543 85.499
8.999851761421976 83.848
9.022219798361645 82.0852
9.04460562795561 81.6714
9.066991803441677 81.392
9.089360876979615 81.6512
9.111747746589993 81.3472
9.13411751544971 80.7903
9.156505082664324 80.249
9.178875550323522 80.4621
9.20126381862328 80.7665
9.223652438908596 81.1038
9.246023961427412 81.0076
9.26841328802173 80.4789
9.290785518039224 80.4226
9.313175554425882 81.3364
9.335565947154315 81.1493
9.357939245086508 81.4586
9.380330352834827 81.5958
9.40270436697103 81.8237
9.425096193225055 81.5134
9.447488380180165 82.8246
9.469863475295412 82.7537
9.492256385987508 83.0659
9.514632206018318 83.9138
9.537025843935714 84.0045
9.559402392368193 84.4796
9.581796761000229 85.8959
9.604191496441521 86.9226
9.626569144158516 89.6537
9.648964615551032 93.3309
9.671343000390081 94.39399999999999
9.693739211225699 93.4282
9.716135793237463 91.7194
9.738515290448102 91.3441
9.760912617143402 92.1356
9.783292860202891 93.455
9.805690935076182 94.7206
9.828089385495742 95.8968
9.850470754023561 98.1993
9.872869957865444 104.581
9.89525208097539 116.54700000000001
9.917652041736662 127.09100000000001
9.940052382417589 129.018
9.962435644102392 137.996
9.984836746950979 170.597
10.007220771957746 229.782
10.029622640473708 321.44599999999997
10.052007432299963 489.43300000000005
10.074410069984072 796.0239999999999
10.096813093716005 1295.59
10.119199042482517 1845.65
10.141602840636468 2007.57
10.163989564971628 1468.26
10.186394141051062 815.57
10.208799107559706 334.316
10.231187001965623 160.994
10.253592751657669 117.934
10.275981430388155 108.964
10.298387966769793 108.569
10.320794897965431 110.256
10.343184759907361 109.68700000000001
10.36559248305461 105.454
10.387983138083852 102.40700000000001
10.410391656691655 105.11
10.432800574501677 115.861
10.455192425893369 131.267
10.47760214443012 155.376
10.499994797678786 197.234
10.522405320453982 282.643
10.54479877906917 409.705
10.567210109595656 537.057
10.5896218454736 594.428
10.612016518879773 496.60400000000004
10.634429067781074 319.738
10.656824555333241 181.24900000000002
10.679237920773568 114.286
10.701651695961992 92.59899999999999
10.724048411481384 87.0494
10.746463008485165 84.1543
10.768860546937125 82.8833
10.791275969274796 81.2876
10.81369180576079 80.4385
10.836090585366925 79.3685
10.858507252467449 78.2423
10.88090686379991 77.2411
10.903324365036394 76.535
10.925724811614439 76.4582
10.948143150509463 77.3754
10.970561909719066 76.5601
10.992963615930844 75.2229
11.015383218085756 73.1023
11.037785768347074 71.671
11.06020621697282 71.3403
11.082627090322113 70.9545
11.105030913430326 70.3468
11.12745263854165 70.33800000000001
11.149857314510728 73.0445
11.172279894912576 77.7394
11.194702904450653 78.26
11.217108866490921 74.8021
11.239532736615194 71.3103
11.26193956033512 69.5843
11.284364294577085 68.0705
11.306789462371718 66.9484
11.329197585398376 65.8795
11.351623622610898 65.6364
11.37403261614354 64.7641
11.396459526308487 64.4588
11.418869393879497 64.3171
11.441297180532617 64.0586
11.463725406927658 63.6357
11.486136592353875 63.5994
11.508565700543707 64.015
11.530977768845315 65.4527
11.553407762368774 65.8371
11.575838200059769 65.2595
11.598251599479612 63.7108
11.620682927815501 62.7193
11.64309721895548 62.4763
11.665529441478206 61.6872
11.687962112597958 61.5399
11.710377748130886 61.8892
11.732811318753434 61.3129
11.755227854859067 61.4671
11.777662328529495 61.4879
11.800079768750786 61.4388
11.822515149015453 61.3645
11.844950984084935 61.4609
11.867369787303163 61.2446
11.889806534289491 61.09
11.912226250487029 61.3717
11.934663912939751 61.5947
11.9571020346363 61.8157
11.979523127133968 61.7152
12.001962169624331 62.5526
12.024384183972964 63.2404
12.046824150809913 66.2817
12.069264581333726 70.7159
12.091687985297767 76.3978
12.11412934550045 85.447
12.136553680195208 100.529
12.158995973632788 125.667
12.181438735204349 157.47299999999998
12.20386447284199 193.743
12.226308172985636 221.835
12.24873485024193 203.019
12.271179492516982 159.085
12.293607112949127 122.305
12.316052700916226 89.5228
12.338498763250042 73.8228
12.360927805303868 67.9308
12.383374818673879 64.7715
12.405804812803074 63.177
12.428252780773262 62.7464
12.45070122756722 62.8353
12.473132656675375 62.8345
12.49558206341869 63.1643
12.518014453510101 63.1122
12.540464823770117 63.4786
12.562915677315177 63.5791
12.58534951575545 64.1584
12.607801338171472 65.4233
12.630236146511358 69.6057
12.652688941369085 73.0937
12.675124723177234 73.781
12.697578494048786 71.1347
12.720032754458185 67.7144
12.742470003354093 66.306
12.764925245138771 66.3359
12.787363476431278 66.4776
12.809819703166806 66.9588
12.83227642391173 67.6903
12.854716135692716 68.1748
12.877173846755147 69.4698
12.899614549869717 69.5319
12.9220732548287 70.4041
12.94453245827299 70.9247
12.966974655289818 71.77600000000001
12.989434858002571 72.8567
13.011878055298721 73.4218
13.034339260862497 74.2888
13.056800969391883 75.5774
13.079245674017244 77.8203
13.101708390774869 79.9894
13.12415410463411 86.4528
13.146617833206086 97.4022
13.169064559883248 108.204
13.191529303857127 121.361
13.213994557076367 143.011
13.236442809902437 180.24
13.258909083908291 239.628
13.28135835851934 312.403
13.30382565690295 391.921
13.326293469022952 436.335
13.348744283242008 422.973
13.371213125129904 336.491
13.39366497011003 235.805
13.416134845360597 153.71200000000002
13.438605238843131 114.441
13.46105863690397 100.90100000000001
13.483530069144786 102.339
13.505984506951902 107.016
13.528456981549432 116.01299999999999
13.550929978879088 129.991
13.573385983253365 153.437
13.595860028340867 193.792
13.618317081455832 253.332
13.64079217790333 320.497
13.663250283359057 370.861
13.685726434770173 386.98800000000006
13.708203115221277 332.24300000000005
13.730662806148091 240.139
13.75314054697177 166.176
13.775601299246777 115.561
13.798080104050406 91.5878
13.820559442405358 82.5239
13.843021793671388 79.7753
13.865502201420897 78.4028
13.887965623051947 77.6042
13.910447103807167 76.7762
13.932929122629764 75.3135
13.955394156785959 75.1354
13.977877254034569 74.3015
14.000343367582113 73.2679
14.022827546871707 73.0801
14.045294743423524 72.2551
14.06778000837062 71.4945
14.090265817715476 71.5129
14.112734645763819 71.1226
14.13522154619454 70.6954
14.157691466286913 70.6465
14.180179461423874 70.5689
14.202668005486178 70.0904
14.22513957064374 69.1591
14.247629214846473 68.9028
14.270101881097517 68.6675
14.29259262906496 68.9552
14.315083930490205 69.4982
14.337558255389705 69.7854
14.360050666019726 69.3899
14.382526101071944 68.6672
14.405019624534942 68.0577
14.427513705993134 67.4355
14.449990813291825 67.2461
14.47248601302899 67.2351
14.49496423954951 67.5436
14.517460561197822 67.7081
14.539939910570322 67.3691
14.562437357763558 67.8114
14.58493536931253 68.7309
14.607416409993311 69.2417
14.62991555254159 69.959
14.652397725157423 69.919
14.674898002342799 69.7947
14.697398848433282 69.31
14.719882725991326 69.8999
14.74238471217934 70.6954
14.764869730765593 73.643
14.787372860692983 76.7982
14.809876564079925 80.9902
14.83236330125751 86.199
14.854868153850365 94.3471
14.877356041159485 108.00299999999999
14.899862046604186 128.10399999999998
14.922351087688757 155.57399999999998
14.944858249632887 189.408
14.967365991421232 219.05
14.989856770231246 232.78799999999998
15.012365673994204 217.13400000000001
15.03485761569738 179.192
15.05736768508665 136.458
15.07987833888692 104.631
15.102372032001655 84.1906
15.124883856909658 73.7485
15.14737872204565 70.1692
15.169891721717274 69.0144
15.192405310371893 68.8724
15.214901940621196 69.1044
15.237416709527137 69.0242
15.259914520936249 69.1075
15.282430473753607 68.2611
15.304947020131227 67.3281
15.327446610371178 66.4157
15.349964346154254 65.8982
15.372465126703139 65.5014
15.394984055556009 65.2997
15.417486030076159 65.0824
15.44000615566487 64.6666
15.462526881230803 64.5697
15.485030653812652 64.6889
15.507552581617434 64.572
15.530057557334603 64.5523
15.55258069104857 64.6099
15.575104429329837 64.6745
15.597611216864632 64.5944
15.620136166564563 64.9136
15.6426441664095 65.5035
15.665170331202765 67.5321
15.687697105158826 70.5996
15.710206930593545 73.6856
15.732734925158933 77.656
15.755245972089478 83.4849
15.77777519094324 92.3311
15.800287463046663 105.823
15.822817909869592 126.682
15.84534897229804 150.939
15.867863089299354 176.525
15.890395385222186 193.649
15.912910736597423 196.21200000000002
15.935444269699861 177.86599999999999
15.957978423016485 149.183
15.980495633101265 113.895
16.003031029129367 89.4542
16.02554948280019 72.1274
16.048086125229432 64.9994
16.070623392487107 62.9614
16.09314371869582 62.5706
16.11568223789321 61.6136
16.13820381691126 60.8118
16.160743591742527 60.1212
16.183283996022084 59.2117
16.205807461423195 58.1836
16.228349126881973 57.5906
16.25087385432698 57.6403
16.27341678466365 57.0938
16.29594277784926 56.8935
16.31848697676433 57.2895
16.341031811604868 57.2816
16.36355971058487 57.5996
16.3861058195587 57.2728
16.40863499352978 56.1938
16.431182380342005 55.4404
16.453730407713202 55.0477
16.476261501364792 54.8768
16.498810812136167 54.4435
16.52134319004079 54.4429
16.54389378792203 54.2679
16.566445031001553 54.2997
16.588979342490088 54.2061
16.61153187824822 53.9251
16.634067483263312 53.7546
16.656621315414416 53.8555
16.679175797408888 53.3989
16.701713349928728 53.4589
16.72426913389191 53.897
16.74680798922351 53.7907
16.76936507887444 53.8466
16.791905240734874 53.7436
16.814463639794468 53.7186
16.837022695210294 53.9241
16.859564824093756 54.1332
16.882125194503903 54.4542
16.904668639217885 55.196000000000005
16.927230328348003 55.2309
16.949792678493612 55.3384
16.972338104193863 54.9079
16.994901778652235 54.4303
17.017448529496576 54.5655
17.040013531998152 54.6985
17.06257920018044 55.13
17.0851279459922 55.6891
17.107694947817667 56.5628
17.130245028099072 57.4924
17.15281336730298 58.6101
17.17536478578733 60.1148
17.19793446610687 62.4542
17.220504818648422 65.5388
17.243058251703697 69.3379
17.265629950971032 74.4079
17.288184731571736 79.638
17.310757781306908 83.6775
17.33333150794385 83.2151
17.355888317140174 80.8927
17.37846339986244 74.8184
17.401021565958885 67.9154
17.42359800851343 62.8612
17.44617513265564 59.9145
17.468735341390783 58.4828
17.491261035594565 57.8377
17.51396340099364 57.6639
17.536490463869136 57.856
17.559018209820174 58.0152
17.58154663977963 57.6603
17.604251766089718 57.9795
17.626781572227713 58.18600000000001
17.64931206518155 58.2896
17.671843245885103 58.9688
17.69455114821572 59.3981
17.717083712612634 59.6937
17.739616967569667 59.852
17.762150914021706 59.961000000000006
17.78486160749854 60.1671
17.807396945166804 60.7495
17.829932977143503 61.5437
17.85246970436452 62.9015
17.875183204129467 64.8948
17.897721330097664 66.8449
17.920260154126645 68.7636
17.942799677153296 71.6809
17.9655159983646 75.3033
17.988056927677544 80.7272
18.010598558807683 88.9218
18.033140892692916 99.4759
18.05586005052525 111.86399999999999
18.07840379824407 125.24
18.10094825154059 134.732
18.12366954819864 139.67
18.146215420998306 137.08100000000002
18.16876200220057 125.741
18.191309292745153 111.105
18.214033452627167 96.5148
18.236582170236648 86.9266
18.259131600016456 83.0715
18.281681742907335 84.3346
18.304408781233683 90.2391
18.32696035875955 96.5056
18.349512652227624 102.1
18.372065662579683 106.038
18.394795594587553 105.897
18.41735004715306 100.35600000000001
18.43990521943684 91.7255
18.46246111238171 82.0678
18.485193953325208 73.4909
18.507751296070428 67.1745
18.530309362314178 63.8377
18.552868153000343 61.8493
18.57560391815056 60.85
18.59816416623245 60.5385
18.620725141597372 59.9906
18.643286845190268 59.533
18.666025549835414 58.8879
18.688588718427933 58.4598
18.711152618092243 58.3822
18.73389353884365 58.2076
18.75645890921984 57.8033
18.77902501351406 57.4813
18.801591852673102 57.415
18.824335739722738 56.9764
18.846904057212626 56.9399
18.8694731124168 56.6899
18.89204290628315 56.5975
18.914789774966803 56.3576
18.937361054791623 56.0504
18.959933076131318 55.8106
18.982505839934877 55.8178
19.00525570560582 55.9356
19.027829963004184 55.7865
19.05040496572238 55.8568
19.072980714710468 55.7009
19.095733592739563 56.0127
19.11831084296757 56.3222
19.140888842324735 56.6852
19.16346759176222 56.9588
19.18622349753803 57.2877
19.208803755869358 58.093999999999994
19.231384767143577 59.2219
19.253966532312948 60.8437
19.276725481241822 63.0639
19.29930876296784 65.8644
19.3218928014549 69.2672
19.34465404436217 72.5848
19.36723960516257 75.289
19.389825925592426 75.8225
19.412413006605938 74.1649
19.43517731967805 69.8531
19.457765930683355 65.1705
19.48035530514408 60.6393
19.50294544401556 57.1522
19.525712842708348 55.1351
19.54830451925909 53.9844
19.570896963095727 53.1629
19.593490175174704 52.9468
19.616260674962184 52.8441
19.638855432416964 52.4405
19.661450960992624 52.7786
19.68404726164677 52.5975
19.706820878021247 52.1317
19.729418731756834 52.3904
19.752017360452857 52.1646
19.77461676506804 52.5132
19.797393513540218 52.6352
19.819994478951667 52.9065
19.84259622316767 53.4113
19.8651987471481 53.6539
19.887978643247177 53.799
19.91058273574792 54.2666
19.933187610901943 55.22
19.955969879466828 56.2752
19.97857632894404 57.8471
20.00118356396599 59.7147
20.023791585494575 61.8972
20.046577028914875 65.0288
20.069186632506966 67.3518
20.091797025500632 69.3046
20.114408208858933 69.3307
20.137196842715273 68.1333
20.159809615886765 66.2171
20.18242318232135 63.6011
20.20503754298326 61.6664
20.227829382875154 60.8654
20.250445341109344 61.1219
20.27306209647285 62.4908
20.29567964993108 63.9509
20.31847471147704 65.0244
20.34109387027612 65.5782
20.363713830075454 64.805
20.386334591841646 62.5289
20.409132890679302 59.3268
20.431755265564437 56.1176
20.454378445325528 53.6406
20.477002430930366 52.195
20.499803982716553 50.8941
20.522429589228004 50.2832
20.54505600449589 49.9622
20.567683229489194 49.8817
20.590488049900088 49.5139
20.61311690359731 49.3141
20.63574656993626 49.0447
20.658553853717297 48.786
20.681185154618298 48.7594
20.703817271080066 48.4943
20.72645020407368 48.2175
20.749260783967177 48.0409
20.771895359337133 48.052
20.794530754161617 48.0747
20.817166969412938 47.8948
20.83998086114876 47.7658
20.86261872660049 47.7963
20.885257415405402 47.8012
20.90789692853701 47.7439
20.930714147864748 47.6648
20.953355319030678 47.6665
20.97599731745334 47.7215
20.99864014410749 47.6821
21.021460706796564 47.7856
21.044105199328826 47.8602
21.06675052302631 48.1466
21.089396678865015 48.38
21.112220600704806 48.6111
21.134868430275347 48.9095
21.15751709492456 49.1308
21.180166595629693 49.5379
21.202993892429635 50.1231
21.22564507473034 50.3585
21.24829709602816 50.538000000000004
21.27112693608965 50.5532
21.293780644891275 50.2863
21.316435195634053 49.7564
21.339090589297417 48.8654
21.361923832041875 48.55
21.384580921090404 47.9619
21.407238856007325 47.5061
21.429897637773326 47.6118
21.45273429906592 47.6542
21.475394784108598 47.4227
21.498056118951983 47.3579
21.520718304578022 47.596000000000004
21.543558400304388 47.8031
21.566222297108816 47.941
21.58888704765135 47.9766
21.61155265291521 48.3206
21.63439619898156 48.8623
21.657063523335786 49.0524
21.67973170537063 49.5506
21.7024007460706 49.8801
21.72524775840385 50.5632
21.747918526116475 51.5482
21.770590155457388 52.9933
21.79326264741238 54.7917
21.816113141960237 56.7009
21.838787368860547 58.9857
21.861462461341976 61.0443
21.884315579735777 62.9481
21.90699241312273 63.9584
21.92967011506078 64.1141
21.95234868653799 63.4056
21.9752053151131 61.5741
21.997885635446785 59.3604
22.020566828293532 57.4558
22.04324889464272 56.0925
22.066109049404666 55.4569
22.088792872571794 55.32
22.111477572219204 55.5337
22.1341631493376 55.467
22.157026846313123 55.1229
22.179714188221507 54.0374
22.202402410582668 52.7008
22.22509151438863 51.266000000000005
22.24795876962584 50.1911
22.270649646204486 49.3987
22.293341407213727 48.852
22.316034053646906 48.2311
22.338904883215342 48.1279
22.36159931041458 48.1372
22.38429462602756 48.1189
22.40699083104897 47.9966
22.429865251039757 47.8499
22.452563244831367 47.9158
22.47526213102522 47.9802
22.49813925616515 47.7318
22.520839937143307 47.5913
22.543541513520587 47.7322
22.56624398629403 47.6269
22.589124730075895 47.5216
22.611829005656723 47.8032
22.63453418063466 47.7033
22.657240256008077 47.9158
22.680124634582935 48.097
22.70283252079775 48.4954
22.725541310413075 48.5852
22.74825100442868 48.7784
22.771139033969575 49.2393
22.79385054687155 49.5784
22.81656296718292 50.2337
22.83927629590484 51.0928
22.862167992606945 52.2892
22.88488314827121 53.6222
22.907599215359284 54.6921
22.93031619487366 55.8073
22.953211574954405 56.7967
22.975930389478226 57.3607
22.998650119445763 57.4054
23.02137076586092 56.3457
23.044269845560063 54.7171
23.06699233506288 52.9044
23.089715744034912 51.1993
23.112617610931565 49.7622
23.135342869061212 48.7701
23.158069049684816 48.1841
23.1807961538087 47.8244
23.20370174880544 47.9702
23.226430710184808 48.0418
23.249160598093425 48.0075
23.271891413539002 47.9613
23.294800752937697 47.9343
23.31753343374794 48.0868
23.340267045128353 48.1286
23.36300158808808 48.5488
23.38591468821339 48.8876
23.408651104658304 49.3588
23.431388455719986 49.9104
23.454126742409 50.6591
23.4770436196085 51.9901
23.499783787914662 53.3504
23.522524894889884 54.6856
23.54526694154616 55.8085
23.56818761219047 56.8776
23.59093154860734 57.5256
23.613676427751283 57.3355
23.636422250635754 56.1405
23.659346731118656 54.3323
23.68209445191868 52.1289
23.704843119509587 50.0773
23.72759273490623 48.4132
23.750521041644767 47.0699
23.77327256312355 46.2372
23.796025035462787 45.6269
23.818956224555475 45.2091
23.841710609113413 45.1627
23.86446594758979 44.9703
23.887222241002014 44.7735
23.910157285144578 44.4162
23.932915498962537 44.3255
23.955674670778713 44.0852
23.978434801611975 44.0591
24.001373717286125 43.9007
24.024135776723917 43.7457
24.046898798245582 43.6627
24.06966278287146 43.6772
24.092605586582614 43.4128
24.115371508023642 43.2956
24.1381383956401 43.2678
24.16090625045381 43.2307
24.183852958731244 43.2206
24.206622758582608 43.0503
24.229393528706886 42.973
24.252165270127392 42.9497
24.27511589952438 42.8497
24.297889594216997 42.5009
24.32066426328598 42.4369
24.34343990775613 42.5371
24.36639447485003 42.4463
24.38917208083877 42.356
24.41195066531332 42.2349
24.43490819850244 42.4075
24.457688750692377 42.1767
24.48047028445616 42.1618
24.503252800821233 42.373000000000005
24.526214300784112 42.5241
24.548998793132213 42.3824
24.57178427117417 42.309
24.59457073593893 42.3273
24.617536219319863 42.1759
24.64032466834748 42.1899
24.663114107195035 42.083999999999996
24.685904536893013 41.7649
24.708874020360852 41.7731
24.731666442613744 41.8046
24.754459858818787 41.6186
24.777254270007962 41.5087
24.80022777025625 41.4593
24.82302418230472 41.4317
24.845821592443674 41.5435
24.86862000170663 41.4278
24.891597535453727 41.2858
24.914397953892728 41.5995
24.93719937456671 41.5353
24.96000179851076 41.6519
24.98298338249997 41.8444
25.00578782394922 42.0189
25.028593271784167 42.1026
25.05157790644186 42.5751
25.07438537804115 42.4816
25.097193859145293 42.8344
25.120003350792075 43.1179
25.142992065061257 43.5573
25.165803588823465 43.7618
25.18861612625217 43.9555
25.211429678386736 43.9496
25.234422489079968 43.9709
25.257238081693636 43.9663
25.280054692141732 44.2299
25.3028723214652 44.2806
25.325869245420463 44.3239
25.348688923599397 44.3977
25.371509623787006 44.1631
25.394331347025812 43.7823
25.41733240110666 43.1875
25.440156181590016 42.4473
25.46298098826268 42.0385
25.48580682216873 41.4536
25.50881202326435 40.9225
25.53163992281684 40.6215
25.55446885274561 40.3534
25.577298814096377 40.0506
25.600308179121807 39.9961
25.623140214533745 40.053000000000004
25.64597328451537 40.0301
25.66898578564376 39.8466
25.691820936010206 39.9863
25.714657124097695 39.9113
25.737494350954734 39.8037
25.760511045684957 39.6437
25.783350361364224 39.7689
25.806190718969255 39.6247
25.82903211955018 39.9117
25.852053024868923 39.9138
25.874896522722523 39.9543
25.897741066713106 39.7917
25.920586657892454 40.0014
25.943611790812668 40.1388
25.966459487728237 40.3754
25.989308234998564 40.4153
26.01215803367705 40.8023
26.03518741123814 40.8975
26.05803932412957 41.1344
26.080892291600094 41.0147
26.10374631470478 41.1059
26.12677995397268 41.0854
26.14963609978026 40.9966
26.172493304397875 40.5653
26.19535156888223 40.2844
26.218389486949604 39.8845
26.241249882640123 39.7418
26.26411134137826 39.4818
26.28715248187403 39.4865
26.31001607820869 39.336
26.3328807407756 39.0515
26.35574647063438 39.3311
26.37879191991473 39.3914
26.401659795896734 39.4439
26.424528742360263 39.5714
26.447398760366614 39.8147
26.470448535598294 39.7107
26.49332070826805 40.1236
26.516193955675355 40.439
26.53906827888316 40.6128
26.562122397260108 40.8453
26.584998883685063 41.1607
26.607876449110325 41.4613
26.63075509460056 41.5278
26.65381357334404 41.617
26.67669439061878 41.4952
26.699576291163382 41.3146
26.722459276044212 41.1248
26.745522132402975 40.789
26.768407297649354 40.7874
26.791293550442003 40.3184
26.814180891848974 40.1143
26.837248143099337 39.841
26.860137673466657 39.7765
26.88302829566349 39.4745
26.90592001075963 39.2004
26.92899167420566 39.1057
26.951885586870763 38.6953
26.974780595655517 38.5139
26.99785558178161 38.4573
27.020752794605112 38.3976
27.043651106772522 38.122
27.06655051935668 38.1798
27.089629948036183 38.0651
27.112531573292053 38.0085
27.135434302194138 38.0998
27.158338135817015 37.8132
27.181422024430987 37.9923
27.204328079372566 37.8099
27.22723524226965 37.8707
27.250143514198573 37.9778
27.273231880156334 37.9677
27.296142382065014 37.7614
27.319053996245536 37.7252
27.341966723775965 37.8296
27.365059584515222 37.747
27.38797455070062 37.887
27.410890633481237 37.8078
27.433807833936918 37.7873
27.456905206923906 37.8572
27.47982465472398 37.8013
27.502745223449743 37.8613
27.525666914182825 38.055
27.548768816912457 37.8911
27.571692763693633 37.845
27.59461783573812 37.6664
27.617723149491244 37.5012
27.640650484125285 37.5929
27.66357894728264 37.372
27.686508540048052 37.268
27.709618414237887 37.355
27.732550278321757 37.1609
27.755483275279115 37.1658
27.778417406196485 37.1361
27.801531858397514 37.2309
27.824468269376716 37.3261
27.847405817586786 37.0882
27.870344504116094 37.295
27.893463551932008 37.5859
27.916404527281053 37.6618
27.93934664422563 37.7101
27.962289903855886 37.8413
27.98541356491974 38.095
28.00835912214229 38.2709
28.03130582533231 38.5921
28.054253675581805 38.6313
28.077381967556104 38.5397
28.100332124185126 38.5062
28.123283431160893 38.253
28.146235889577238 38.0979
28.169368830154156 37.9776
28.192323603752033 37.8764
28.215279532083304 37.476
28.238415973016764 37.2252
28.261374223145094 37.1153
28.284333631303806 37.0412
28.307294198589954 36.7769
28.330435319167677 36.4842
28.353398217078915 36.255
28.376362277420153 36.0626
28.39932750129032 35.8317
28.422473319286713 35.7786
28.44544088262495 35.8355
28.468409612800283 35.5786
28.491379510913497 35.4393
28.51453004413313 35.4509
28.53750229057244 35.3341
28.56047570826344 35.2321
28.583450298308804 35.2383
28.606605564586562 35.0641
28.629582511831156 35.1855
28.65256063474956 35.0051
28.675539934446338 35.0691
28.698699951647605 34.9566
28.72168161743193 34.7774
28.74466446331978 34.9765
28.767648490417624 34.9604
28.790813276438353 34.7554
28.813799678527303 34.9013
28.836787265157085 34.8589
28.859955641890075 34.8872
28.882945610203045 34.8813
28.905936766392035 34.7883
28.928929111566863 34.7302
28.952102288520145 34.6114
28.975097024308607 34.5373
28.998092952423807 34.4076
29.021090073977508 34.3904
29.04426806913204 34.1612
29.067267590245258 33.9637
29.090268308143695 33.9823
29.11327022394099 33.9678
29.13645305530891 33.8786
29.159457379627167 33.7639
29.18246290519685 33.7713
29.20546963313352 33.7225
29.22865731875826 33.7016
29.25166646419296 33.868
29.27467681535305 33.5271
29.29768837335608 33.6916
29.320880931312562 33.6929
29.34389491580634 33.6419
29.366910110507334 33.6289
29.38992651653503 33.6927
29.41312396492981 33.7386
29.436142806456754 33.5629
29.45916286268059 33.4735
29.48236399319994 33.2886
29.50538649169417 33.1366
29.528410208259935 33.0501
29.55143514402014 32.8522
29.574641196749695 32.8089
29.597668583816574 32.8012
29.6206971934585 32.5929
29.64372702680042 32.6248
29.666938019934474 32.5182
29.689970313635285 32.454
29.713003834422636 32.4043
29.73603858342347 32.4104
29.759254535188578 32.3639
29.78229175361658 32.2564
29.80533020365064 32.3415
29.82836988641968 32.2127
29.85159081507472 32.2527
29.874632976355343 32.1755
29.89767637376955 32.1337
29.920721008448314 32.0011
29.9439469322847 31.9037
29.96699405457564 32.0143
29.9900424175358 32.067
30.013092022298157 31.9674
30.03632295963995 31.7981
30.059375061131373 31.968000000000004
30.08242840783577 32.0066
30.105483000888153 31.9172
30.128718970092244 31.8511
30.151776069006917 31.8347
30.17483441768648 31.8522
30.198074175317235 31.7877
30.221135036724256 31.8434
30.24419715131772 31.8409
30.267260520236203 31.7539
30.290505341942243 31.6954
30.313571232750228 31.7606
30.336638381310948 31.7985
30.35970678876503 31.6812
30.38295669299435 31.5182
30.40602763151657 31.680999999999997
30.429099832366074 31.5651
30.452173296685572 31.5325
30.47542830191959 31.4604
30.498504306502497 31.5232
30.521581577995562 31.6374
30.544660117543582 31.6976
30.56792024229725 31.5897
30.59100133132069 31.5513
30.614083691845494 31.643
30.637167325018545 31.5626
30.660432587840603 31.7067
30.683518779717886 31.6312
30.70660624769615 31.7592
30.729694992924372 31.6824
30.75296541239743 31.5943
30.77605672557558 31.5807
30.799149319462742 31.519000000000002
30.8224236211637 31.4226
30.845518789950724 31.3123
30.868615242910597 31.2533
30.891712981195973 31.1304
30.91499247215866 31.0353
30.938092794619365 31.0307
30.96119440587579 30.9471
30.984297307082752 30.8871
31.00758200598383 30.7588
31.030687500658694 30.6537
31.053794288760695 30.629
31.076902371446767 30.6083
31.100192296997445 30.6022
31.12330298246119 30.5185
31.14641496599209 30.3827
31.169528248749216 30.4256
31.19282341969534 30.4579
31.215939314557186 30.5072
31.239056512134788 30.4801
31.262175013589378 30.4077
31.28547544871168 30.2815
31.30859657161541 30.2819
31.331719001892175 30.3306
31.35484274070538 30.4602
31.378148458819545 30.5553
31.401274828443725 30.453000000000003
31.424402510106933 30.4155
31.447712205419993 30.4505
31.470842524931633 30.4224
31.493974159989783 30.289
31.51710711176168 30.2589
31.54042212308802 30.2897
31.563557722100917 30.2025
31.586694641341655 30.0262
31.609832881979628 29.9197
31.63315322823208 29.8577
31.656294125521327 29.7758
31.679436347728515 29.7214
31.70257989602529 29.7894
31.725905596152327 29.6506
31.74905181052835 29.5953
31.772199354521323 29.685
31.79534822930507 29.655
31.818679302290967 29.6173
31.84183085259981 29.5266
31.864983737233473 29.6219
31.88813795736804 29.6791
31.911474422233013 29.5919
31.934631327356435 29.5629
31.9577895715215 29.3762
31.980949155906522 29.4888
32.004291031706956 29.5468
32.027453310562606 29.3802
32.05061693318573 29.2759
32.07396288236386 29.3174
32.09712920658542 29.2465
32.12029687812702 29.1107
32.14346589817093 29.0847
32.166817291729984 28.9539
32.18998902288583 28.9009
32.21316210610336 28.8748
32.23633654256711 28.7851
32.259693399663725 28.7036
32.282870556771144 28.6831
32.30604907069099 28.6548
32.329228942610065 28.558000000000003
32.35259128243769 28.5029
32.375773884550505 28.3853
32.398957848235646 28.4212
32.422143174682176 28.4674
32.445511016471215 28.2957
32.468699082679954 28.160999999999998
32.49188851523011 28.2094
32.51507931531304 28.2483
32.538452678331 28.2011
32.56164622776311 28.1101
32.58484114831493 28.1206
32.60803744118015 28.035999999999998
32.631416344731896 28.0008
32.654615396551876 27.9938
32.67781582427913 28.0025
32.701198898634416 27.8071
32.72440209253756 27.8451
32.747606665947124 27.7959
32.77081262006088 27.6142
32.79420126883317 27.6819
32.81740999876112 27.6449
32.840620112999424 27.4964
32.86383161274818 27.4372
32.88722585534586 27.5091
32.91044014056596 27.5499
32.933655814909734 27.5064
32.95687287957963 27.3824
32.98027273544904 27.3347
33.00349259526636 27.3538
33.026713849030116 27.4244
33.04993649794511 27.5139
33.073341986570746 27.3452
33.09656744032826 27.3255
33.11979429286444 27.3291
33.14302254538647 27.3138
33.166433686291185 27.249000000000002
33.18966475336992 27.2348
33.212897224069096 27.1434
33.23613109959831 27.0879
33.259547912343415 27.0696
33.2827846121627 27.0968
33.306022720453775 26.9998
33.32926223842861 26.891
33.352684742614166 26.9537
33.37592709463173 26.8733
33.399170859982064 26.8996
33.422597648419426 26.774
33.44584425514446 26.679000000000002
33.46909227885668 26.5914
33.4923417207723 26.5271
33.51577423505344 26.511999999999997
33.539026528130385 26.4701
33.56228024307245 26.4509
33.585535381098246 26.2961
33.60897364093058 26.2681
33.63223163992385 26.3182
33.6554910656699 26.2658
33.678751919389796 26.1933
33.702195944520106 26.1917
33.72545966903325 26.2084
33.74872482519663 26.0276
33.771991414233746 26.0678
33.79544122444841 26.0622
33.81871069412428 26.0058
33.84198160035767 25.9975
33.86525394437455 25.9624
33.88870955949969 25.8655
33.911984794020626 25.8359
33.93526147001624 25.9077
33.958539588715006 25.7837
33.98200102861669 25.7809
34.0052820477047 25.6475
34.02856451319451 25.6648
34.05203033759056 25.5462
34.07531571090147 25.5371
34.09860253431845 25.4772
34.121890809074316 25.4537
34.145362493118924 25.4638
34.16865368561615 25.3871
34.191946333164054 25.383000000000003
34.21524043699793 25.3
34.23871800066799 25.3186
34.26201503218366 25.2061
34.28531352370466 25.1575
34.30861347646881 25.1154
34.33209693978188 25.1172
34.3553998301885 25.1408
34.378704185565205 25.0326
34.402010007152356 25.0658
34.42549939016683 25.0227
34.44880815937748 24.8954
34.472118398533134 24.8189
34.49543010887669 24.8523
34.51892543169198 24.7817
34.54224009966052 24.6759
34.56555624255917 24.7854
34.58887386163339 24.6595
34.61237514439016 24.5879
34.6356957311114 24.5198
34.65901779775809 24.4692
34.68252356662995 24.568
34.705848608458616 24.4791
34.72917513396849 24.3795
34.75250314440949 24.3719
34.77601490857862 24.3019
34.799345904259795 24.2392
34.82267838863559 24.1894
34.846012362958525 24.1711
34.869530142679984 24.2052
34.89286711232212 24.201
34.91620557568269 24.2054
34.93954553401677 24.1494
34.9630693495876 24.0535
34.986412313340814 24.0922
35.00975677584668 24.1276
35.033102738362956 23.9843
35.05663261012228 23.8634
35.0799815881786 23.9262
35.10333207003229 23.7989
35.12668405694369 23.8532
35.150220005273056 23.8176
35.17357501786656 23.8039
35.19693153931268 23.7886
35.220289570874385 23.7564
35.24383161619786 23.7022
35.267192683604904 23.8043
35.290555264930376 23.7069
35.314101899412165 23.7219
35.33746752422433 23.7092
35.36083466676374 23.5594
35.38420332829803 23.5784
35.407756095629054 23.6372
35.43112781085063 23.5888
35.45450104888391 23.5451
35.477875810999194 23.4834
35.50143473172161 23.4167
35.52481255774625 23.526
35.54819191167777 23.4298
35.57157279478914 23.424
35.595137889488406 23.3235
35.61852184675279 23.2887
35.641907337029984 23.3298
35.665294361595684 23.1667
35.68886565090076 23.0851
35.7122557598848 23.1102
35.73564740699838 23.1197
35.759040593519934 23.1062
35.78261809810353 23.0134
35.80601437933051 22.9477
35.829412203814705 22.9748
35.85281157283719 22.918000000000003
35.876395313415884 22.8895
35.8997977874528 22.8228
35.92320180988546 22.708000000000002
35.946790244133936 22.7758
35.97019737933222 22.6944
35.993606066789866 22.7265
36.01701630779276 22.7006
36.04061101440684 22.6159
36.06402437852291 22.639
36.08743930005611 22.6139
36.1108557802951 22.4478
36.13445678011326 22.4718
36.15787639383515 22.4552
36.18129757014299 22.4133
36.20472031032821 22.4146
36.22832762423364 22.3172
36.25175350829375 22.3321
36.275180960119776 22.2863
36.298609981005924 22.2993
36.32222362992669 22.2811
36.34565580510207 22.221999999999998
36.36908955323448 22.1667
36.39252487562093 22.1041
36.416144880530226 22.1051
36.43958336764275 22.0729
36.463023432914625 22.074
36.486465077645676 21.9811
36.51009145956204 21.9817
36.53353627947859 22.0379
36.55698268276811 21.9764
36.58043067073321 21.9743
36.60406345072071 21.8394
36.62751462435344 21.8007
36.65096738658405 21.8345
36.67460498210655 21.7193
36.69806093788647 21.7988
36.72151848619297 21.6804
36.744977628333636 21.6953
36.76862165890998 21.5757
36.79208400512205 21.5744
36.81554794910557 21.5424
36.83901349217101 21.488000000000003
36.862663978991606 21.4863
36.88613273667352 21.3778
36.90960309738324 21.3107
36.933075062434064 21.3531
36.95673202673572 21.2927
36.98020721697122 21.2624
37.003684015502365 21.2049
37.027162423645365 21.2343
37.050825886711465 21.1923
37.07430753063053 21.1603
37.09779078812467 21.1346
37.121275660513014 21.0747
37.144945643673694 21.1315
37.16843376245278 21.0274
37.19192350009803 21.0163
37.215414857931435 20.9789
37.239091382563885 20.8724
37.262585997426164 20.926
37.28608223645736 20.9198
37.309763684451696 20.8332
37.33326318851098 20.8453
37.356764320726555 20.7604
37.380267082425526 20.8055
37.40395510942588 20.7151
37.42746114683234 20.6852
37.45096881771841 20.6206
37.474478123414166 20.6971
37.49817275092816 20.6363
37.52168534303452 20.6093
37.54519957395567 20.4408
37.568715445024665 20.4433
37.592416694607714 20.5297
37.61593586281424 20.4813
37.63945667518264 20.4881
37.66297913304891 20.3952
37.68668702630454 20.4624
37.710212792059274 20.2967
37.733740207334854 20.2704
37.757269273470364 20.238
37.780983832050374 20.2136
37.80451621684926 20.136
37.82805025654007 20.0703
37.851585952464795 20.1019
37.8753071980695 19.9992
37.89884622345676 20.0117
37.92238690911902 19.9149
37.94611318753442 19.94
37.969657210779765 19.9817
37.99320289834801 19.8822
38.016750251586465 19.8771
38.04048325513017 19.8282
38.06403395679343 19.8556
38.087586328183946 19.8274
38.11114037065203 19.7859
38.13488012115898 19.7876
38.1584375229181 19.6694
38.181996599821 19.6426
38.205557353221124 19.6318
38.229303872575656 19.6451
38.2528679961576 19.509
38.27643380031219 19.5326
38.30000128639589 19.4724
38.32375459653193 19.5091
38.34732546371299 19.5207
38.37089801690786 19.4011
38.39447225747609 19.3406
38.418232380377425 19.3192
38.441810012983396 19.3091
38.46538933705673 19.2558
38.488970353960084 19.2923
38.51273731166058 19.2215
38.536321731567014 19.1628
38.55990784840681 19.1398
38.58367995004091 19.1009
38.60726947812959 19.0536
38.63086070726198 18.9853
38.654453638806274 19.0494
38.678232613930824 18.9583
38.70182896773327 18.9555
38.72542702806741 18.902
38.7490267963045 18.9052
38.77281266709232 18.8979
38.79641586862214 18.8221
38.8200207821842 18.7718
38.843627409152944 18.782
38.86742019782782 18.8081
38.891030269149255 18.7113
38.914642058016156 18.6815
38.938255565806124 18.7218
38.96205529464307 18.7112
38.98567225787121 18.6236
39.00929094417078 18.6228
39.03291135492255 18.624000000000002
39.05671804624804 18.5227
39.080341923549106 18.5159
39.103967529460334 18.5227
39.127594865365744 18.4489
39.15140854155791 18.4341
39.17503935514948 18.3619
39.19867190290282 18.3598
39.22249083587951 18.3398
39.24612686969409 18.3579
39.269764641845306 18.3189
39.293404153722804 18.3258
39.317230110864074 18.2
39.34087311998506 18.1642
39.36451787301696 18.1656
39.388164371352595 18.0919
39.41199737518003 18.0626
39.43564738196752 18.028
39.45929913825317 18.0924
39.48295264543308 18.0077
39.506792718520884 17.9561
39.530449745387216 17.9364
39.55410852735203 17.9012
39.57776906581474 17.9025
39.60161623079 17.9132
39.625280300200025 17.801
39.64894613032202 17.7628
39.67261372255866 17.7863
39.6964680021016 17.7604
39.72013913657293 17.6575
39.74381203738292 17.7295
39.76748670593756 17.6537
39.79134812278169 17.6413
39.81502634488497 17.6505
39.83870633896685 17.624000000000002
39.862388106436654 17.5487
39.88625668336918 17.5119
39.90994201572829 17.5396
39.933629125719285 17.4459
39.957503091207826 17.3866
39.9811937746168 17.4682
40.00488623990914 17.3974
40.02858048850006 17.3342
40.05246165409549 17.2969
40.076159487492085 17.257
40.099859108448875 17.2443
40.123560518384345 17.2408
40.1474489070226 17.1552
40.171153913178564 17.1283
40.194860712584955 17.2009
40.2185693066637 17.2149
40.242464941335314 17.1034
40.26617714307655 17.0328
40.289891143772046 17.084
40.3136069448471 17.0255
40.33750984859743 17.0498
40.3612292688043 16.99
40.3849504936829 16.9567
40.40867352466194 16.9772
40.43258372059144 16.9055
40.45631038219906 16.8761
40.48003885420956 16.7942
40.503769138055105 16.8389
40.52768664931955 16.8289
40.55142057531802 16.7931
40.57515631746428 16.7567
40.599079334038514 16.7085
40.62281872700477 16.6786
40.64655994043941 16.6693
40.67030297578061 16.6118
40.69423334835778 16.6551
40.71798004609188 16.6366
40.74172857006355 16.5531
40.76547892171441 16.5502
40.7894166736039 16.5115
40.813170699248566 16.4556
40.83692655691388 16.4992
40.86068424804498 16.5016
40.884629402612525 16.4025
40.908390779366385 16.3914
40.932153993938 16.3395
40.95591904777605 16.3131
40.979871628443995 16.2959
41.003640379561936 16.3292
41.02741097430883 16.2325
41.05118341413683 16.2258
41.075143444384416 16.2224
41.098919593177826 16.2266
41.1226975914255 16.1934
41.14647744058318 16.1098
41.170444943946755 16.0598
41.19422851378379 16.0443
41.218013938914645 16.0583
41.24198706625173 16.0141
41.26577622087193 15.9606
41.289567235177785 15.9453
41.31336011063129 15.9334
41.337340752422875 15.8789
41.361137369129835 15.8171
41.38493585138705 15.869000000000002
41.40873620066004 15.8453
41.43272438060107 15.8022
41.45652848292052 15.7293
41.48033445666918 15.6932
41.50414230331616 15.6679
41.528138045159764 15.6779
41.551949656675205 15.6482
41.575763145513235 15.6595
41.59957851314666 15.6363
41.62358184070442 15.5898
41.64740098505737 15.5627
41.6712220126409 15.49
41.69504492493139 15.4762
41.71905586207357 15.4698
41.74288256296395 15.4583
41.766711153007456 15.4451
41.79054163368412 15.4359
41.814560204340054 15.4174
41.838394485526365 15.399000000000001
41.86223066180303 15.3638
41.88625497706819 15.304
41.910094962812 15.3177
41.93393684811168 15.2953
41.95778063445365 15.224
41.981812625263366 15.2424
42.00566023303407 15.138
42.029509746323676 15.099
42.05336116662236 15.1165
42.077400857069705 15.1003
42.10125611078846 15.067
42.12511327600405 15.0862
42.14897235421036 15.0184
42.173019768448455 14.9471
42.19688269209613 14.9572
42.22074753323349 14.9148
42.24461429335818 14.8818
42.268669455600495 14.9177
42.292540073217886 14.9081
42.31641261433284 14.8891
42.34028708044675 14.8323
42.36435001496739 14.8247
42.38822835065557 14.8314
42.41210861586426 14.7544
42.4359908120986 14.7624
42.46006154323262 14.7374
42.48394762115317 14.6639
42.507835634632315 14.6433
42.531912233047436 14.6137
42.55580413732265 14.6571
42.579697981698 14.6112
42.60359376768525 14.5216
42.62767820545945 14.5317
42.65157789440821 14.5121
42.67547952952185 14.4549
42.699383112316 14.5112
42.72347541395347 14.4329
42.74738291190531 14.3708
42.771292362102166 14.4007
42.795203766063516 14.3722
42.819303956130405 14.3095
42.843219287476536 14.3233
42.86713657716324 14.308
42.89105582671383 14.2398
42.91516392983864 14.2739
42.939087119032166 14.1977
42.963012272677304 14.1754
42.98693939230129 14.1568
43.01105543317513 14.1116
43.034986504731386 14.0813
43.05891954686589 14.0796
43.08285456110972 14.048
43.10697856448665 14.0528
43.130917542983475 13.993
43.15485849820081 13.9795
43.17880143167367 13.9765
43.20293342237094 13.9175
43.226880332449 13.8286
43.25082922540554 13.8873
43.27496722682525 13.8381
43.29892010567796 13.8624
43.32287497204102 13.8199
43.34683182745632 13.8129
43.370977859791836 13.7968
43.39493871351105 13.76
43.41890156092628 13.7531
43.44286640358341 13.700999999999999
43.46702049182749 13.6466
43.49098934522816 13.637
43.51496019852649 13.6055
43.5389330532723 13.5967
43.56309522248204 13.5739
43.58707210044314 13.5433
43.61105098451946 13.5442
43.63503187626491 13.5206
43.659202151562134 13.5023
43.68318707902681 13.4846
43.70717401884041 13.4627
43.731162972560874 13.4338
43.75534137913236 13.3962
43.779334381108384 13.4001
43.803329401683186 13.3457
43.82732644241872 13.3368
43.8515130055166 13.3141
43.87551410707659 13.262
43.89951723350145 13.2669
43.923709934595614 13.2433
43.94771713129917 13.1698
43.97172635758096 13.1949
43.99573761501002 13.1583
44.0199385169922 13.1786
44.04395385732619 13.1596
44.067971233533086 13.1009
44.09199064718605 13.0896
44.11619977548961 13.0413
44.14022328470671 13.0112
44.16424883610785 13.007
44.18827643127035 12.9943
44.21249381139513 12.9854
44.236525514814076 12.9544
44.26055926674478 12.9488
44.28459506876863 12.8981
44.3088207262813 12.890999999999998
44.33286064928722 12.8398
44.35690262714919 12.8218
44.38094666145278 12.7945
44.4051806219871 12.776
44.42922879003185 12.7548
44.45327901929361 12.6942
44.477331311362136 12.7351
44.501573600619416 12.6945
44.525630039221795 12.6759
44.54968854541895 12.645999999999999
44.573937102200176 12.5922
44.5979997645541 12.6327
44.622064499300315 12.6106
44.64613130803592 12.5544
44.67038823869318 12.5511
44.69445921643748 12.4951
44.718532272981385 12.4758
44.742607409926194 12.4497
44.76687274034801 12.4435
44.79095205918753 12.3908
44.81503346325094 12.4016
44.839116954143876 12.4239
44.86339071028742 12.3592
44.88747839599524 12.3563
44.91156817336837 12.315999999999999
44.93566004401666 12.331
44.959942251908146 12.3487
44.984038330325966 12.2942
45.00813650686762 12.2042
45.03223678314731 12.1992
45.05652746888232 12.1548
45.08063196592069 12.1943
45.104738567558705 12.1528
45.128847275414856 12.1402
45.15314646515866 12.0591
45.17725940679741 12.0863
45.20137445952892 12.048
45.22568004865265 12.0439
45.24979934496396 12.005
45.27392075725247 11.950999999999999
45.29804428714431 11.9867
45.322358426247604 11.9262
45.346486212804315 11.9315
45.370616121861914 11.9366
45.39474815505086 11.9349
45.41907087049246 11.8697
45.4432071734666 11.7888
45.46734560548283 11.8269
45.49148616817604 11.8118
45.51581748638564 11.7701
45.5399623320197 11.7649
45.56410931325473 11.7435
45.58825843173002 11.7478
45.61259837920865 11.7113
45.636751793816 11.7119
45.66090735060093 11.6186
45.68506505120716 11.6239
45.7094136545275 11.594000000000001
45.73357566449271 11.5755
45.75773982322992 11.5936
45.78190613238733 11.5577
45.806263418194064 11.504000000000001
45.83043404997326 11.4953
45.85460683713677 11.4925
45.87897065658495 11.507
45.90314777634752 11.4515
45.92732705646868 11.4339
45.9515084986045 11.4582
45.97588104735473 11.4253
46.00006683541565 11.3183
46.02425479047904 11.3254
46.04844491420549 11.3507
46.0728262191024 11.2918
46.09702070211635 11.2955
46.12121735879483 11.253
46.14541619080294 11.2434
46.169806278764455 11.2244
46.194009483459034 11.2473
46.21821486849841 11.2082
46.24242243555223 11.1639
46.266821333570014 11.1542
46.29103328674601 11.1201
46.31524742696538 11.1301
46.33946375590237 11.0788
46.36387149104216 11.0342
46.38809221957392 11.0067
46.41231514186606 10.9935
46.436540259597464 11.0148
46.460956858999374 10.9927
46.48518638983522 10.9626
46.509418121166966 10.9272
46.533652054678114 10.8926
46.55807754555709 10.8885
46.58231590571962 10.912
46.60655647313217 10.8677
46.630988654873654 10.8403
46.655233659129024 10.8335
46.67948087571551 10.817
46.70373030632484 10.8012
46.72817142736393 10.7899
46.752425308428684 10.7914
46.77668140861147 10.7384
46.80093972960865 10.7454
46.82538981736788 10.720999999999998
46.849652602470904 10.6896
46.87391761349769 10.6598
46.8981848521493 10.6294
46.9226439341274 10.5633
46.946915650573224 10.5406
46.97118959976749 10.5858
46.99546578341598 10.5617
47.019933887188216 10.5301
47.04421456235744 10.5281
47.06849747711879 10.4814
47.09278263318286 10.4576
47.11725978640143 10.4767
47.14154944775105 10.4252
47.165841355555656 10.4325
47.1901355115306 10.3897
47.214621741924994 10.39
47.23892041698887 10.3495
47.26322134538975 10.307
47.28771440635075 10.3253
47.31201986422527 10.3241
47.33632758061436 10.31
47.360637557241866 10.2434
47.38513974410611 10.2438
47.40945426407847 10.2486
47.43377104948137 10.1966
47.45809010204344 10.1504
47.48260144275502 10.1644
47.506925052572285 10.1199
47.53125093475548 10.1193
47.55557909103813 10.1083
47.58009961361992 10.0929
47.60443234110732 10.0811
47.62876734791564 10.076
47.65310463578333 10.0587
47.6776343683373 9.99703
47.7019762413987 9.9889
47.72632040075572 9.941289999999999
47.75066684815169 9.95358
47.77520581885936 9.91361
47.799556865477655 9.90912
47.823910205386 9.89061
47.84826584033272 9.84085
47.87281407745551 9.841569999999999
47.89717432569297 9.86774
47.92153687423484 9.83589
47.94609208429692 9.7845
47.97045925671401 9.791889999999999
47.99482873471275 9.741019999999999
48.01920052005013 9.75199
48.04376504619224 9.7323
48.068141469543484 9.76032
48.09252020552573 9.73864
48.11690125590099 9.67839
48.1414751266064 9.695910000000001
48.16586082917454 9.627089999999999
48.19024885144316 9.62474
48.2146391951793 9.637
48.239222439012764 9.62392
48.26361744916137 9.59827
48.28801478610016 9.640410000000001
48.31241445160131 9.56081
48.337007097209366 9.53824
48.36141144338331 9.55065
48.38581812345755 9.53888
48.41022713920929 9.50747
48.434829215320704 9.49358
48.45924292604658 9.46803
48.48365897780325 9.48043
48.50807737237308 9.4326
48.532688907799276 9.38791
48.55711201168574 9.40047
48.581537463754074 9.38537
48.60615611725119 9.36391
48.63058628942721 9.3632
48.65501881516546 9.36842
48.6794536962573 9.33312
48.70408185970339 9.307210000000001
48.72852147531801 9.27529
48.75296345168211 9.2287
48.77740779059232 9.238710000000001
48.80204549302823 9.24761
48.82649458091802 9.22986
48.85094603676547 9.18923
48.87539986237231 9.1498
48.90004713292306 9.11346
48.92450572200832 9.110560000000001
48.94896668628025 9.11999
48.97343002754588 9.082419999999999
48.99808689542115 9.06424
49.02255501470614 9.095880000000001
49.04702551642794 9.013819999999999
49.0714984023988 9.01547
49.096164896893235 8.96311
49.120642575466796 8.989930000000001
49.145122643748394 8.98925
49.16960510355558 8.94492
49.19428125404938 8.957239999999999
49.2187685210852 8.91628
49.243258185121555 8.90747
49.26794160167084 8.91152
49.2924360839405 8.864310000000001
49.31693296869764 8.84145
49.34143225776915 8.87077
49.36612538195438 8.80287
49.39062950396021 8.848930000000001
49.41513603578346 8.76729
49.4396449792564 8.75825
49.46434784069503 8.73724
49.488861631846454 8.7632
49.513377840166804 8.74191
49.537896467493745 8.70313
49.56260909589029 8.67958
49.587132585683285 8.67305
49.611658500018365 8.64211
49.636186840738596 8.61939
49.66090926588511 8.612739999999999
49.685442483902584 8.582930000000001
49.70997813385706 8.57883
49.734516217597076 8.56762
49.75924846937352 8.52885
49.7837914452858 8.53235
49.80833686055187 8.504710000000001
49.83288471702571 8.47715
49.85762682540054 8.49519
49.882179588965734 8.454139999999999
49.9067347993235 8.44272
49.93129245833333 8.45192
49.95604445336378 8.441880000000001
49.98060703442832 8.37958
50.005172069746266 8.39744
50.02993150438364 8.37455
50.05450147301533 8.38982
50.07907390151433 8.32494
50.10364879174981 8.31766
50.12841816587289 8.27759
50.1529980044635 8.2854
50.17758031042124 8.28174
50.20216508562089 8.29579
50.22694442953363 8.211139999999999
50.25153416817468 8.22079
50.27612638170508 8.20535
50.300721072005196 8.16619
50.325510416102105 8.20073
50.350110084975064 8.161389999999999
50.37471223628208 8.14467
50.39931687190919 8.1371
50.424116246675766 8.11028
50.44872587605249 8.09073
50.47333799543065 8.06398
50.49795260670191 8.08505
50.52276204271512 8.01545
50.54738166295838 8.02368
50.57200378079314 8.00567
50.596628398116835 7.9851
50.62144792604559 7.97699
50.646077567609396 7.9419
50.670709714377715 7.956010000000001
50.69553683636198 7.973510000000001
50.72017401885922 7.94774
50.7448137122895 7.909730000000001
50.76945591856022 7.865310000000001
50.79429318636823 7.89542
50.818940443716784 7.8985
50.84359021965163 7.876639999999999
50.868242516085964 7.8482
50.893089960641895 7.8284199999999995
50.917747323549435 7.81866
50.94240721271973 7.8065
50.96706963007175 7.7961800000000006
50.99192728239342 7.75393
51.01659478166073 7.761539999999999
51.04126481489051 7.738519999999999
51.06593738400761 7.73525
51.090805275207074 7.6734800000000005
51.11548294172845 7.692419999999999
51.14016314993547 7.682860000000001
51.164845901758845 7.63628
51.18972406304274 7.647289999999999
51.21441192780656 7.657780000000001
51.23910234200271 7.5914600000000005
51.2637953075678 7.58793
51.288683770237945 7.59589
51.31338186432707 7.57218
51.33808251561888 7.55248
51.362978729967345 7.56307
51.387684521509755 7.5362100000000005
51.41239287610203 7.5226
51.437103795691165 7.46397
51.46201036644977 7.47673
51.486726441956634 7.44532
51.51144508832545 7.446510000000001
51.536166307509156 7.42823
51.56108326624387 7.4149
51.58580965706056 7.4162300000000005
51.61053862657523 7.3613800000000005
51.635270176746864 7.34134
51.66019755512065 7.37253
51.68493429268881 7.341469999999999
51.70967361681515 7.32435
51.73441552946465 7.2831399999999995
51.759353359237934 7.2820100000000005
51.7841004750961 7.29208
51.80885018539685 7.27603
51.833602492111254 7.2240899999999995
51.8585508051424 7.242310000000001
51.883308330926425 7.22164
51.90806845906181 7.17172
51.932831191525715 7.1517
51.95779001977161 7.14692
51.98255798721516 7.10827
52.00732856494335 7.1386199999999995
52.03229530577543 7.14043
52.057071130455945 7.1096699999999995
52.081849571391054 7.099069999999999
52.106630630568695 7.08465
52.13160794279417 7.04426
52.15639426492067 7.06862
52.18118321127822 7.04513
52.205974783860896 7.03038
52.23096269971011 7.032539999999999
52.255759551287994 7.043189999999999
52.280559035098186 6.9878
52.30536115314103 6.9676800000000005
52.33035970494467 6.9496199999999995
52.35516711807904 6.9263
52.37997717147198 6.93819
52.40478986713005 6.9466600000000005
52.42979908731974 6.91675
52.454617094216 6.88098
52.47943774942214 6.89797
52.50426105495102 6.8571800000000005
52.529280976059844 6.86322
52.554109609024096 6.826289999999999
52.57894089837482 6.81579
52.60377484613117 6.8033
52.62880550079408 6.7998899999999995
52.65364479223379 6.766839999999999
52.67848674816189 6.75055
52.70352547971946 6.73844
52.72837279155837 6.7361
52.753222773982785 6.71467
52.778075429022984 6.734360000000001
52.80312495150885 6.71431
52.827982978797436 6.659789999999999
52.85284368481815 6.64456
52.87770707160767 6.64155
52.90276741793998 6.63313
52.92763619336701 6.613010000000001
52.952507655698504 6.57605
52.977381806977576 6.5911
53.00245301017842 6.60875
53.02733256653592 6.60125
53.052214817996074 6.53695
53.077099766608484 6.50141
53.102181859804446 6.5402
53.127072229988265 6.54986
53.15196530349892 6.4999
53.17686108239249 6.50341
53.20195409881522 6.4333800000000005
53.22685531582556 6.45567
53.25175924441303 6.4319
53.27666588664027 6.42384
53.30176985962693 6.43504
53.3266819565689 6.37871
53.35159677336455 6.3825400000000005
53.376514312083096 6.36489
53.40162927507703 6.34756
53.42655228516116 6.36324
53.45147802340193 6.336130000000001
53.47660125628886 6.29221
53.50153247842639 6.28421
53.52646643496923 6.25915
53.55140312799818 6.22485
53.576537409691696 6.28395
53.60147960336152 6.27801
53.626424539786164 6.23235
53.65137222105307 6.2114400000000005
53.67651758529126 6.21719
53.70147078399681 6.1836400000000005
53.72642673383343 6.18691
53.75138543689533 6.16319
53.776541917524526 6.1985
53.801506154876755 6.13295
53.826473151763246 6.13057
53.851442910284916 6.12705
53.87661054126026 6.10741
53.9015858509782 6.07545
53.92656392866066 6.06058
53.95154477641532 6.08574
53.976723591801296 6.0519099999999995
54.00171000771266 6.0263
54.02669920004598 6.0422199999999995
54.051691170915745 6.066330000000001
54.076881204886796 6.02073
54.101878760928514 5.94473
54.12687910187696 5.98075
54.152077577768296 5.94787
54.1770835166946 5.93034
54.20209224691339 5.94119
54.22710377055121 5.94168
54.25231352511594 5.88504
54.27733066384342 5.86307
54.30235060239643 5.92702
54.32737334290836 5.86686
54.35259441062629 5.8116
54.377622783395324 5.80048
54.40265396455061 5.84091
54.42768795623251 5.79865
54.45292037169559 5.79237
54.477960012857906 5.764819999999999
54.50300247099511 5.73144
54.52804774825457 5.7165099999999995
54.55329154616743 5.6489199999999995
54.57834249018678 5.644880000000001
54.6033962597977 5.63941
54.6284528571545 5.6207400000000005
54.653708072335164 5.613169999999999
54.67877035378786 5.6163300000000005
54.70383546947698 5.5744
54.72890342156389 5.57573
54.7541700889442 5.57104
54.77924374251975 5.531219999999999
54.8043202390049 5.47473
54.82959552413022 5.44055
54.8546777351945 5.45892
54.87976279569621 5.42466
54.90485070780914 5.45369
54.930137506558005 5.36777
54.95523115074295 5.37333
54.98032765308844 5.39342
55.005427015775496 5.3246
55.03072536339621 5.32239
55.05583047570572 5.28315
55.080938454927676 5.2737
55.10604930325027 5.26272
55.131359235107396 5.26657
55.15647585066083 5.20772
55.181595341907496 5.19448
55.20671771104285 5.15187
55.232039262617704 5.14964
55.25716741665048 5.1282
55.28229845518636 5.13321
55.30743238042802 5.11132
55.33276558731939 5.07532
55.357905315183636 5.04425
55.383047936390035 4.9802
55.40819345314859 5.01074
55.433538351073295 5.03188
55.458689688238415 4.98574
55.483843927614096 4.97088
55.509197623043605 4.9363
55.53435769621134 4.90998
55.55952067826466 4.84395
55.5846865714265 4.8495800000000004
55.61005202069737 4.8114
55.63522376553902 4.81776
55.66039842818645 4.79136
55.68557601087004 4.7727
55.7109532500271 4.69656
55.73613670233794 4.7184800000000005
