TT I
1.2716486653135266 7.39953
1.2939594142134223 7.110810000000001
1.3162702121660406 6.828010000000001
1.3385810600174564 6.3716
1.3608919586137629 5.90043
1.383202908801069 5.945869999999999
1.405513911425503 5.30195
1.4278249673332093 5.88215
1.4501343378461518 5.57461
1.4724455028545926 5.9084
1.4947567236847858 6.4183
1.517068001182951 5.99389
1.5393793361953272 5.28089
1.5616907295681737 5.41293
1.5840021821477681 5.45015
1.60631369478041 4.96745
1.6286252683124185 5.4408
1.6509369035901333 4.1883099999999995
1.6732468618895553 4.14089
1.695558623192809 4.32055
1.7178704487808514 4.6803
1.7401823395001077 4.434159999999999
1.7625012545597203 3.8871599999999997
1.7848028405262486 4.25486
1.8071218901122095 4.4586
1.8294236121921872 4.62019
1.8517427996910911 4.21209
1.8740620574440425 3.6121800000000004
1.8963639900671978 4.25689
1.9186833908139995 4.5473099999999995
1.9409854680117449 4.69741
1.9633050151394713 4.61831
1.9856246367570705 4.59655
2.0079269371922672 3.86631
2.03024671027244 4.31492
2.0525491637446027 4.35834
2.074869091674931 3.5906599999999997
2.097171701569106 4.296869999999999
2.1194917877373847 4.332409999999999
2.141811954326636 4.5182
2.164114805233074 4.064690000000001
2.186435135143035 3.9012599999999997
2.208738150935709 4.45368
2.231058647554722 6.03411
2.2533792288321184 6.18855
2.275682498336085 4.7373
2.298003251406138 4.76858
2.3203066942619714 5.04301
2.3426276225136022 4.7884400000000005
2.3649486396617507 5.2115
2.387252348930071 5.49185
2.4095735463442893 5.4317400000000005
2.4318774374315884 5.63438
2.4541988185014043 6.849819999999999
2.476502894794693 7.34501
2.498824462909887 7.115189999999999
2.521146125856138 7.49326
2.5434504863470337 7.647760000000001
2.5657723414244717 8.17309
2.588076895590662 8.50402
2.610398946189713 8.71267
2.6327210958598384 8.40344
2.6550259469304716 7.99165
2.6773482972090137 8.36228
2.6996533504259 8.33147
2.7219759047039602 8.366010000000001
2.744298562293959 8.2023
2.7666039251246595 7.77014
2.7889267918020164 7.948110000000001
2.8112323652516555 7.77659
2.833555444408179 8.36396
2.8558786311183852 8.2351
2.8781845268938557 8.038960000000001
2.9005079311721484 9.096060000000001
2.9228140460410397 9.14431
2.9451376712799635 8.96006
2.967444008632326 9.1629
2.9897678582247247 9.597439999999999
3.0120918213106695 9.66041
3.0343984987899373 10.1827
3.0567226913198637 10.812000000000001
3.079029599759726 11.4662
3.101354025127254 12.2614
3.123678568232338 13.084000000000001
3.145985829517914 12.9651
3.16831061055229 12.9129
3.1906181112775593 13.6542
3.212943133635653 13.7386
3.2352682779763207 14.5767
3.2575761442691227 15.0674
3.2799015350264273 15.1031
3.302209649240067 15.8573
3.3245352898092655 15.7158
3.3468436553365257 16.6371
3.369169549113219 16.910999999999998
3.3914955708171384 17.9371
3.413804319727358 18.1434
3.4361305997334863 18.2895
3.4584396084414553 18.4225
3.4807661501462652 19.1219
3.503092824025881 19.4232
3.5254022288463154 20.0382
3.5477291695206588 20.0552
3.5700388426251948 20.4861
3.5923660534916446 21.0877
3.6146934007816114 22.8452
3.637003482731501 27.6301
3.6593311053109985 29.9018
3.681641464033634 26.2218
3.7039693653009733 23.6274
3.726297407241705 23.9122
3.7486081875460804 24.4557
3.7709365132734978 24.4756
3.793247578841633 25.0537
3.8155761917550093 25.6021
3.8378875459837216 25.7927
3.8602164494827234 26.16
3.882545499606844 27.0738
3.9048572932539183 27.5436
3.9271866390645718 27.9088
3.9494987298666713 28.2462
3.971828374764527 28.5329
3.9941581705403255 28.916999999999998
4.016470713506008 29.57
4.038800813471445 30.7241
4.061113662089144 30.929000000000002
4.0834440696459176 31.4638
4.105774632334751 31.4571
4.128087945865126 32.4036
4.150418821249301 32.6127
4.172732448931298 33.8376
4.195063640413578 34.1632
4.2173775856475215 35.038000000000004
4.239709096631102 37.5803
4.262040768704612 51.8849
4.284355196706267 63.0504
4.306687193387355 55.8683
4.329001947444346 44.1057
4.35133427213731 40.6088
4.373666762177566 40.7037
4.395982011761091 40.9306
4.418314834921175 41.8662
4.44063041906622 43.5054
4.4629635787515625 45.3077
4.4852969080429785 46.3954
4.5076130004776225 46.5651
4.529946671403969 47.2383
4.552263106909177 47.5182
4.574597122877047 48.583
4.596931312711224 49.8288
4.619248269273446 50.7797
4.6415828092605835 51.7582
4.663900117405352 52.8857
4.686235010953232 54.0919
4.708552674085913 55.641000000000005
4.730887924602802 56.895
4.753223354952695 58.3528
4.775541557023902 59.0972
4.797877349456786 60.8892
4.820195915032126 63.1284
4.842532072957498 64.3497
4.864868414979744 66.2723
4.88718753227192 68.3312
4.909524244902505 69.9646
4.931843734218147 71.9422
4.954180820867835 74.5838
4.976518095879839 77.4323
4.998838149695359 79.6671
5.021175803844231 83.2001
5.043496238205739 85.8864
5.065834274903528 89.7708
5.088172504230693 93.8404
5.1104935158799565 98.3036
5.132832132875765 106.05
5.155153533596801 118.89299999999999
5.1774925416746225 138.043
5.199814334878411 233.923
5.2221537374521505 819.95
5.244493338631803 2564.57
5.266815727034316 7340.27
5.289155727832427 13883.6
5.311478517248165 9868.04
5.333818921080011 3297.54
5.356159527788849 647.031
5.3784829252032536 199.014
5.400823940070432 142.52100000000002
5.423147747031976 123.228
5.445489173474152 113.57799999999999
5.467830807066149 108.337
5.490155234831516 104.704
5.512497285125229 101.70100000000001
5.534822130975162 99.7961
5.557164601388673 97.9216
5.579489868738879 94.5981
5.601832762690846 93.5523
5.6241758697774475 92.5386
5.646501775867269 91.9881
5.668845311622074 90.7102
5.691171647754637 90.2437
5.713515615597765 89.1005
5.735859800852677 87.8143
5.758186788542988 87.25299999999999
5.780531411018185 87.4282
5.802858837297399 87.007
5.825203900414495 86.8188
5.8475491852224 86.9764
5.869877275883075 87.4951
5.892223006467101 88.1155
5.914551544266608 89.1513
5.936897724049891 91.6478
5.959244129804903 95.7919
5.981573344815301 106.89299999999999
6.0039202049061 165.08599999999998
6.026249875609095 397.29900000000004
6.04859719346037 897.0319999999999
6.070927323278297 2060.93
6.093275102315365 4497.21
6.115623113320588 5512.83
6.137953938319995 3559.9
6.160302415650845 1074.87
6.182633708324452 240.456
6.2049826554078376 109.39299999999999
6.227331838745022 86.9777
6.249663839443684 80.0403
6.27201349767565 76.1077
6.294345974611799 73.9812
6.316696111167083 73.1087
6.339046488263839 72.2036
6.361379686074702 68.6423
6.383730546639482 66.4849
6.406064229255215 65.0453
6.428415576718203 64.8457
6.450749747566656 63.8146
6.47310158535871 63.0008
6.495453669698332 62.2729
6.517788579421056 61.4801
6.540141159237969 59.8884
6.562476565766648 59.605
6.5848296444934045 59.3714
6.607182974060425 58.9077
6.6295191323281015 58.2275
6.651872965955752 57.3683
6.6742096296068985 58.3591
6.6965639707294615 63.1101
6.71891856698715 64.2998
6.741255995248479 60.1041
6.763611104154477 56.7759
6.785949046381137 55.4467
6.808304671371482 54.8658
6.8306605557940046 54.4403
6.852999275508618 53.828
6.875355681171544 54.0109
6.897694923437771 53.6524
6.92005185377892 53.56
6.9423916220322655 53.4341
6.964749080490181 52.6771
6.987106804399774 52.7545
7.009447368180821 52.9406
7.031805625367033 52.2967
7.054146723727803 52.108000000000004
7.076505517631004 52.2985
7.098864581288365 52.1929
7.121206488070854 51.6406
7.143566093607822 51.574
7.165908543567245 51.5371
7.188268694426048 51.5131
7.2106291193438095 51.2456
7.232972390625943 51.5839
7.255333366030969 52.0533
7.277677189091925 55.6193
7.300038718428332 62.1205
7.322400526130865 61.4484
7.344745183422596 56.177
7.367107550224791 52.6018
7.389452767901992 52.2357
7.411815697249891 51.9659
7.434161478756298 51.3223
7.456524974096713 51.3721
7.478888753837185 51.7479
7.501235387657368 52.685
7.523599738562711 57.1251
7.545946944825532 65.744
7.568311870344528 69.7886
7.5906770845765665 62.9206
7.613025156078678 55.9232
7.635390950099687 53.864
7.657739602662809 52.8689
7.680105979923558 52.7931
7.702472650212829 53.3118
7.724822180948224 53.1218
7.747189439655568 53.1796
7.769539560075357 53.4267
7.791907410653562 54.0404
7.81425812420825 53.9557
7.836626570110925 53.9443
7.858995315087906 54.9342
7.881346924933401 55.3015
7.903716270417482 55.873999999999995
7.926068482028405 56.0979
7.948438431475253 56.4481
7.9708086843180235 57.2501
7.993161805171116 57.9271
8.015532667162402 58.1486
8.037886398416653 58.9147
8.060257873014221 59.1202
8.082629655331942 59.7366
8.104984308787587 60.4049
8.127356708900503 61.5842
8.149711981398308 62.6998
8.172085002766314 63.3856
8.194458336181368 64.14399999999999
8.216814543847752 64.9524
8.23918850371002 65.8743
8.26154533906492 66.7118
8.283919928836452 68.3428
8.306277395339652 69.398
8.328652618483376 70.9694
8.351028159736202 72.3387
8.373386579575245 74.343
8.395762759396959 75.8632
8.418121819038275 78.2196
8.440498640894003 81.649
8.462875785192262 86.9957
8.485235811156207 94.8684
8.507613602688501 129.787
8.529974277114228 234.35
8.552352719347912 384.7
8.574731488360351 629.951
8.59709314210385 1119.83
8.619472567021075 1882.9
8.64183487789147 2335.57
8.664214962183097 2025.99
8.686577933647762 1112.17
8.708958680784317 413.486
8.731339760774953 169.72400000000002
8.753703729764451 108.89
8.77608547780821 95.0549
8.798450116065078 91.655
8.820832535634787 88.697
8.843215292401656 86.9846
8.865580941199045 85.8464
8.887964374703538 84.6085
8.910330701447199 83.9866
8.932714815164482 83.4009
8.955099270424924 83.0013
8.977466620733543 81.9649
8.999851761421976 81.4047
9.022219798361645 80.6302
9.04460562795561 80.5761
9.066991803441677 79.9617
9.089360876979615 79.9345
9.111747746589993 79.5802
9.13411751544971 79.084
9.156505082664324 79.0993
9.178875550323522 79.7461
9.20126381862328 81.328
9.223652438908596 89.3416
9.246023961427412 102.236
9.26841328802173 106.89299999999999
9.290785518039224 98.4694
9.313175554425882 87.1205
9.335565947154315 81.7216
9.357939245086508 80.2766
9.380330352834827 80.0852
9.40270436697103 80.5321
9.425096193225055 80.3275
9.447488380180165 80.8686
9.469863475295412 81.0305
9.492256385987508 81.3829
9.514632206018318 82.24600000000001
9.537025843935714 82.1576
9.559402392368193 83.0326
9.581796761000229 83.7524
9.604191496441521 84.3609
9.626569144158516 84.8192
9.648964615551032 85.7593
9.671343000390081 87.1329
9.693739211225699 87.7179
9.716135793237463 88.1974
9.738515290448102 88.9159
9.760912617143402 90.0454
9.783292860202891 91.20200000000001
9.805690935076182 92.1623
9.828089385495742 92.6996
9.850470754023561 94.4492
9.872869957865444 96.6106
9.89525208097539 99.1455
9.917652041736662 103.04
9.940052382417589 106.92299999999999
9.962435644102392 116.199
9.984836746950979 147.937
10.007220771957746 229.56799999999998
10.029622640473708 353.444
10.052007432299963 527.913
10.074410069984072 784.382
10.096813093716005 1211.55
10.119199042482517 1770.05
10.141602840636468 2112.17
10.163989564971628 1715.83
10.186394141051062 1001.64
10.208799107559706 437.13800000000003
10.231187001965623 196.71400000000003
10.253592751657669 124.417
10.275981430388155 107.57
10.298387966769793 103.669
10.320794897965431 102.455
10.343184759907361 100.955
10.36559248305461 99.4829
10.387983138083852 98.3451
10.410391656691655 99.4616
10.432800574501677 108.75399999999999
10.455192425893369 130.879
10.47760214443012 163.503
10.499994797678786 207.04
10.522405320453982 277.67
10.54479877906917 391.79900000000004
10.567210109595656 513.5369999999999
10.5896218454736 593.9169999999999
10.612016518879773 572.5980000000001
10.634429067781074 401.103
10.656824555333241 235.285
10.679237920773568 142.681
10.701651695961992 103.671
10.724048411481384 91.7552
10.746463008485165 85.9808
10.768860546937125 82.7353
10.791275969274796 80.2746
10.81369180576079 79.203
10.836090585366925 78.0102
10.858507252467449 76.7381
10.88090686379991 75.4754
10.903324365036394 74.7751
10.925724811614439 73.9604
10.948143150509463 73.5607
10.970561909719066 72.8021
10.992963615930844 71.9667
11.015383218085756 70.8881
11.037785768347074 70.0313
11.06020621697282 69.4981
11.082627090322113 69.3027
11.105030913430326 68.4486
11.12745263854165 68.1302
11.149857314510728 67.2717
11.172279894912576 68.1423
11.194702904450653 67.5293
11.217108866490921 66.6878
11.239532736615194 65.9273
11.26193956033512 65.39699999999999
11.284364294577085 65.2208
11.306789462371718 64.6191
11.329197585398376 63.937
11.351623622610898 64.2454
11.37403261614354 63.3196
11.396459526308487 63.2802
11.418869393879497 62.9835
11.441297180532617 62.4535
11.463725406927658 62.1218
11.486136592353875 62.0107
11.508565700543707 61.6337
11.530977768845315 61.7409
11.553407762368774 61.6396
11.575838200059769 61.5316
11.598251599479612 61.0077
11.620682927815501 60.913999999999994
11.64309721895548 60.7351
11.665529441478206 60.4276
11.687962112597958 60.2084
11.710377748130886 60.3779
11.732811318753434 60.3072
11.755227854859067 60.4579
11.777662328529495 60.1305
11.800079768750786 60.0549
11.822515149015453 59.8558
11.844950984084935 60.1239
11.867369787303163 59.9939
11.889806534289491 60.3908
11.912226250487029 62.06
11.934663912939751 64.428
11.9571020346363 66.7136
11.979523127133968 66.9039
12.001962169624331 65.3397
12.024384183972964 63.5174
12.046824150809913 64.5703
12.069264581333726 69.9645
12.091687985297767 77.7029
12.11412934550045 87.3872
12.136553680195208 100.905
12.158995973632788 122.3
12.181438735204349 148.565
12.20386447284199 180.946
12.226308172985636 201.143
12.24873485024193 208.648
12.271179492516982 176.52
12.293607112949127 132.869
12.316052700916226 95.8074
12.338498763250042 73.9351
12.360927805303868 64.5934
12.383374818673879 62.2841
12.405804812803074 61.3752
12.428252780773262 61.4067
12.45070122756722 61.5385
12.473132656675375 61.4634
12.49558206341869 61.5989
12.518014453510101 61.6683
12.540464823770117 61.7772
12.562915677315177 61.8712
12.58534951575545 62.0663
12.607801338171472 62.0102
12.630236146511358 62.9987
12.652688941369085 63.8027
12.675124723177234 64.5375
12.697578494048786 64.5673
12.720032754458185 64.1658
12.742470003354093 64.3695
12.764925245138771 64.8614
12.787363476431278 65.1565
12.809819703166806 65.521
12.83227642391173 66.0514
12.854716135692716 66.7424
12.877173846755147 67.8319
12.899614549869717 68.3372
12.9220732548287 69.3219
12.94453245827299 69.7693
12.966974655289818 70.5556
12.989434858002571 71.3603
13.011878055298721 72.4432
13.034339260862497 73.3381
13.056800969391883 74.4568
13.079245674017244 76.7448
13.101708390774869 78.3123
13.12415410463411 82.6061
13.146617833206086 93.0029
13.169064559883248 109.134
13.191529303857127 127.63
13.213994557076367 150.873
13.236442809902437 184.523
13.258909083908291 233.218
13.28135835851934 296.88599999999997
13.30382565690295 373.874
13.326293469022952 443.24199999999996
13.348744283242008 449.44800000000004
13.371213125129904 377.56
13.39366497011003 276.528
13.416134845360597 181.013
13.438605238843131 125.50399999999999
13.46105863690397 102.257
13.483530069144786 99.5676
13.505984506951902 107.818
13.528456981549432 121.71
13.550929978879088 137.873
13.573385983253365 159.563
13.595860028340867 192.31799999999998
13.618317081455832 239.908
13.64079217790333 301.954
13.663250283359057 361.657
13.685726434770173 389.861
13.708203115221277 361.594
13.730662806148091 285.346
13.75314054697177 202.511
13.775601299246777 136.461
13.798080104050406 99.4628
13.820559442405358 84.4473
13.843021793671388 79.6147
13.865502201420897 77.7555
13.887965623051947 77.35600000000001
13.910447103807167 76.1043
13.932929122629764 74.7467
13.955394156785959 74.5643
13.977877254034569 73.5733
14.000343367582113 72.9327
14.022827546871707 72.3755
14.045294743423524 71.5563
14.06778000837062 70.8201
14.090265817715476 71.2907
14.112734645763819 71.7076
14.13522154619454 73.2966
14.157691466286913 74.4356
14.180179461423874 74.5576
14.202668005486178 72.6544
14.22513957064374 70.4611
14.247629214846473 68.9356
14.270101881097517 68.0235
14.29259262906496 67.8825
14.315083930490205 67.7262
14.337558255389705 67.6664
14.360050666019726 67.5577
14.382526101071944 67.0473
14.405019624534942 66.8105
14.427513705993134 66.4405
14.449990813291825 66.5515
14.47248601302899 66.4465
14.49496423954951 66.6422
14.517460561197822 66.6813
14.539939910570322 66.3447
14.562437357763558 66.7548
14.58493536931253 67.1027
14.607416409993311 67.0039
14.62991555254159 67.3695
14.652397725157423 67.5595
14.674898002342799 67.5975
14.697398848433282 67.693
14.719882725991326 68.5159
14.74238471217934 68.8391
14.764869730765593 70.7377
14.787372860692983 74.8554
14.809876564079925 81.465
14.83236330125751 89.4899
14.854868153850365 99.0439
14.877356041159485 112.006
14.899862046604186 127.706
14.922351087688757 150.94899999999998
14.944858249632887 180.925
14.967365991421232 211.084
14.989856770231246 229.41099999999997
15.012365673994204 227.138
15.03485761569738 198.55900000000003
15.05736768508665 156.746
15.07987833888692 119.67399999999999
15.102372032001655 93.0186
15.124883856909658 77.0138
15.14737872204565 71.2098
15.169891721717274 68.8298
15.192405310371893 67.793
15.214901940621196 67.4502
15.237416709527137 66.615
15.259914520936249 66.8608
15.282430473753607 66.1202
15.304947020131227 65.2353
15.327446610371178 65.0572
15.349964346154254 64.6913
15.372465126703139 64.5327
15.394984055556009 64.6182
15.417486030076159 64.3224
15.44000615566487 64.0974
15.462526881230803 64.0076
15.485030653812652 63.8213
15.507552581617434 63.5937
15.530057557334603 63.6531
15.55258069104857 63.5454
15.575104429329837 63.9355
15.597611216864632 63.4516
15.620136166564563 63.7319
15.6426441664095 64.1774
15.665170331202765 65.4262
15.687697105158826 69.204
15.710206930593545 74.5363
15.732734925158933 80.4335
15.755245972089478 87.6794
15.77777519094324 96.1359
15.800287463046663 107.581
15.822817909869592 124.766
15.84534897229804 145.248
15.867863089299354 170.043
15.890395385222186 191.898
15.912910736597423 202.25900000000001
15.935444269699861 195.292
15.957978423016485 167.111
15.980495633101265 133.026
16.003031029129367 103.14
16.02554948280019 80.7745
16.048086125229432 69.1174
16.070623392487107 64.6799
16.09314371869582 62.6753
16.11568223789321 61.152
16.13820381691126 60.0252
16.160743591742527 59.3263
16.183283996022084 58.5175
16.205807461423195 57.5368
16.228349126881973 57.2738
16.25087385432698 56.9956
16.27341678466365 56.5745
16.29594277784926 56.2754
16.31848697676433 55.9477
16.341031811604868 55.3785
16.36355971058487 55.2673
16.3861058195587 55.3245
16.40863499352978 54.6211
16.431182380342005 54.4605
16.453730407713202 54.2618
16.476261501364792 53.8695
16.498810812136167 53.4886
16.52134319004079 53.7025
16.54389378792203 53.4864
16.566445031001553 53.5967
16.588979342490088 53.4455
16.61153187824822 53.3306
16.634067483263312 53.1621
16.656621315414416 53.1223
16.679175797408888 52.7654
16.701713349928728 52.9751
16.72426913389191 52.9658
16.74680798922351 52.9664
16.76936507887444 52.8939
16.791905240734874 53.1706
16.814463639794468 52.9009
16.837022695210294 52.7527
16.859564824093756 53.0494
16.882125194503903 53.358000000000004
16.904668639217885 53.7261
16.927230328348003 53.8473
16.949792678493612 54.4108
16.972338104193863 54.312
16.994901778652235 53.9592
17.017448529496576 54.0927
17.040013531998152 54.0335
17.06257920018044 54.0707
17.0851279459922 54.8695
17.107694947817667 56.2701
17.130245028099072 57.262
17.15281336730298 58.8603
17.17536478578733 60.7433
17.19793446610687 62.5697
17.220504818648422 65.2179
17.243058251703697 68.3287
17.265629950971032 72.8052
17.288184731571736 77.7541
17.310757781306908 82.384
17.33333150794385 83.7578
17.355888317140174 83.1664
17.37846339986244 79.1905
17.401021565958885 72.1258
17.42359800851343 65.9277
17.44617513265564 61.4802
17.468735341390783 59.053000000000004
17.491261035594565 57.7388
17.51396340099364 57.5545
17.536490463869136 57.4345
17.559018209820174 57.4931
17.58154663977963 57.4882
17.604251766089718 57.6263
17.626781572227713 57.9837
17.64931206518155 58.0767
17.671843245885103 58.4886
17.69455114821572 58.5372
17.717083712612634 59.0435
17.739616967569667 59.339
17.762150914021706 60.0078
17.78486160749854 60.1214
17.807396945166804 60.5822
17.829932977143503 61.1708
17.85246970436452 61.847
17.875183204129467 63.7211
17.897721330097664 66.9144
17.920260154126645 70.1753
17.942799677153296 74.1212
17.9655159983646 78.2324
17.988056927677544 83.0133
18.010598558807683 89.5837
18.033140892692916 98.5927
18.05586005052525 109.47399999999999
18.07840379824407 121.855
18.10094825154059 132.982
18.12366954819864 142.252
18.146215420998306 144.257
18.16876200220057 137.56
18.191309292745153 123.29
18.214033452627167 108.071
18.236582170236648 95.4515
18.259131600016456 88.4244
18.281681742907335 86.3049
18.304408781233683 89.39299999999999
18.32696035875955 94.7984
18.349512652227624 99.8445
18.372065662579683 105.531
18.394795594587553 107.13600000000001
18.41735004715306 104.113
18.43990521943684 97.9913
18.46246111238171 88.29299999999999
18.485193953325208 78.1926
18.507751296070428 70.2194
18.530309362314178 65.4744
18.552868153000343 63.075
18.57560391815056 61.4852
18.59816416623245 60.9508
18.620725141597372 60.3626
18.643286845190268 59.5312
18.666025549835414 58.998999999999995
18.688588718427933 58.4668
18.711152618092243 58.1732
18.73389353884365 58.0708
18.75645890921984 57.6538
18.77902501351406 57.5479
18.801591852673102 57.3138
18.824335739722738 56.9158
18.846904057212626 56.7636
18.8694731124168 56.4951
18.89204290628315 56.363
18.914789774966803 56.0985
18.937361054791623 55.9392
18.959933076131318 55.5292
18.982505839934877 55.6748
19.00525570560582 55.6038
19.027829963004184 55.3605
19.05040496572238 55.2504
19.072980714710468 55.1497
19.095733592739563 55.1808
19.11831084296757 55.5539
19.140888842324735 55.9011
19.16346759176222 56.5749
19.18622349753803 57.1497
19.208803755869358 58.4539
19.231384767143577 59.6339
19.253966532312948 61.0682
19.276725481241822 63.0849
19.29930876296784 65.7451
19.3218928014549 68.9621
19.34465404436217 71.9219
19.36723960516257 75.0049
19.389825925592426 75.8437
19.412413006605938 74.73899999999999
19.43517731967805 71.9069
19.457765930683355 67.764
19.48035530514408 63.2128
19.50294544401556 59.0315
19.525712842708348 56.0523
19.54830451925909 54.2674
19.570896963095727 53.0116
19.593490175174704 52.7165
19.616260674962184 52.722
19.638855432416964 52.3204
19.661450960992624 52.7199
19.68404726164677 52.2032
19.706820878021247 52.0812
19.729418731756834 52.2106
19.752017360452857 51.9584
19.77461676506804 52.1204
19.797393513540218 52.0662
19.819994478951667 52.2917
19.84259622316767 52.797
19.8651987471481 53.4684
19.887978643247177 53.9267
19.91058273574792 54.6443
19.933187610901943 55.4879
19.955969879466828 56.4946
19.97857632894404 57.7014
20.00118356396599 59.1977
20.023791585494575 61.4425
20.046577028914875 64.0325
20.069186632506966 66.8603
20.091797025500632 69.158
20.114408208858933 70.6819
20.137196842715273 70.9487
20.159809615886765 69.0509
20.18242318232135 66.7531
20.20503754298326 64.2414
20.227829382875154 62.5542
20.250445341109344 61.903999999999996
20.27306209647285 62.397
20.29567964993108 63.7327
20.31847471147704 64.7086
20.34109387027612 65.6236
20.363713830075454 65.3673
20.386334591841646 64.1133
20.409132890679302 61.4617
20.431755265564437 58.423
20.454378445325528 55.2878
20.477002430930366 53.0504
20.499803982716553 51.3925
20.522429589228004 50.2764
20.54505600449589 49.5303
20.567683229489194 49.4194
20.590488049900088 49.0745
20.61311690359731 48.971000000000004
20.63574656993626 48.8807
20.658553853717297 48.4398
20.681185154618298 48.3737
20.703817271080066 48.4369
20.72645020407368 48.3212
20.749260783967177 48.2544
20.771895359337133 48.2851
20.794530754161617 48.1868
20.817166969412938 48.0852
20.83998086114876 47.7833
20.86261872660049 47.7734
20.885257415405402 47.5527
20.90789692853701 47.5577
20.930714147864748 47.4596
20.953355319030678 47.5201
20.97599731745334 47.5976
20.99864014410749 47.4322
21.021460706796564 47.5369
21.044105199328826 47.7822
21.06675052302631 48.0511
21.089396678865015 48.0782
21.112220600704806 48.3641
21.134868430275347 48.8139
21.15751709492456 49.129
21.180166595629693 49.3461
21.202993892429635 49.7574
21.22564507473034 50.4295
21.24829709602816 50.5504
21.27112693608965 50.805
21.293780644891275 50.5721
21.316435195634053 49.9529
21.339090589297417 49.2732
21.361923832041875 48.6845
21.384580921090404 48.1137
21.407238856007325 47.5407
21.429897637773326 47.3271
21.45273429906592 47.4213
21.475394784108598 47.4625
21.498056118951983 47.438
21.520718304578022 47.6146
21.543558400304388 47.5295
21.566222297108816 47.667
21.58888704765135 47.8495
21.61155265291521 48.0082
21.63439619898156 48.7517
21.657063523335786 49.1729
21.67973170537063 49.6953
21.7024007460706 50.3861
21.72524775840385 51.1217
21.747918526116475 52.1139
21.770590155457388 53.1508
21.79326264741238 54.5864
21.816113141960237 56.4434
21.838787368860547 58.4974
21.861462461341976 60.8145
21.884315579735777 63.1002
21.90699241312273 64.5975
21.92967011506078 65.6701
21.95234868653799 65.3333
21.9752053151131 64.0873
21.997885635446785 62.2593
22.020566828293532 60.076
22.04324889464272 57.9623
22.066109049404666 56.5521
22.088792872571794 55.8891
22.111477572219204 56.1288
22.1341631493376 56.2767
22.157026846313123 56.0464
22.179714188221507 55.4467
22.202402410582668 54.2459
22.22509151438863 52.7001
22.24795876962584 51.2129
22.270649646204486 49.888999999999996
22.293341407213727 49.0729
22.316034053646906 48.431000000000004
22.338904883215342 48.20399999999999
22.36159931041458 48.2196
22.38429462602756 47.9443
22.40699083104897 47.5125
22.429865251039757 47.6356
22.452563244831367 47.7051
22.47526213102522 47.5785
22.49813925616515 47.7308
22.520839937143307 47.5731
22.543541513520587 47.6734
22.56624398629403 47.5267
22.589124730075895 47.4418
22.611829005656723 47.7678
22.63453418063466 47.6831
22.657240256008077 47.8127
22.680124634582935 48.1345
22.70283252079775 48.5795
22.725541310413075 48.9858
22.74825100442868 49.2009
22.771139033969575 49.7881
22.79385054687155 49.9258
22.81656296718292 50.6227
22.83927629590484 51.4975
22.862167992606945 52.4468
22.88488314827121 53.5809
22.907599215359284 54.5953
22.93031619487366 55.9048
22.953211574954405 56.92100000000001
22.975930389478226 57.7524
22.998650119445763 58.0432
23.02137076586092 57.2866
23.044269845560063 56.1379
23.06699233506288 54.5704
23.089715744034912 52.7373
23.112617610931565 51.1457
23.135342869061212 49.5173
23.158069049684816 48.7304
23.1807961538087 48.2249
23.20370174880544 48.0252
23.226430710184808 47.9911
23.249160598093425 47.851000000000006
23.271891413539002 48.0443
23.294800752937697 48.1324
23.31753343374794 48.5586
23.340267045128353 48.8588
23.36300158808808 49.2313
23.38591468821339 49.5481
23.408651104658304 50.096000000000004
23.431388455719986 50.6597
23.454126742409 51.2868
23.4770436196085 52.32899999999999
23.499783787914662 53.6757
23.522524894889884 54.8363
23.54526694154616 56.1004
23.56818761219047 57.3487
23.59093154860734 58.0974
23.613676427751283 58.5273
23.636422250635754 57.898999999999994
23.659346731118656 56.3624
23.68209445191868 54.5028
23.704843119509587 52.16
23.72759273490623 49.9382
23.750521041644767 48.2627
23.77327256312355 46.8896
23.796025035462787 46.126000000000005
23.818956224555475 45.4432
23.841710609113413 45.388000000000005
23.86446594758979 45.0919
23.887222241002014 44.8447
23.910157285144578 44.4048
23.932915498962537 44.4301
23.955674670778713 44.4347
23.978434801611975 44.2032
24.001373717286125 44.0866
24.024135776723917 43.9222
24.046898798245582 43.7708
24.06966278287146 43.6353
24.092605586582614 43.3888
24.115371508023642 43.2467
24.1381383956401 43.021
24.16090625045381 43.1154
24.183852958731244 43.006
24.206622758582608 42.808
24.229393528706886 42.7442
24.252165270127392 42.7785
24.27511589952438 42.7183
24.297889594216997 42.4433
24.32066426328598 42.376000000000005
24.34343990775613 42.5732
24.36639447485003 42.3291
24.38917208083877 42.3316
24.41195066531332 42.2666
24.43490819850244 42.3571
24.457688750692377 42.1391
24.48047028445616 42.0164
24.503252800821233 42.1201
24.526214300784112 42.3628
24.548998793132213 42.2641
24.57178427117417 42.187
24.59457073593893 42.239
24.617536219319863 42.2699
24.64032466834748 42.3073
24.663114107195035 42.1016
24.685904536893013 41.89
24.708874020360852 41.8493
24.731666442613744 41.6755
24.754459858818787 41.591
24.777254270007962 41.4107
24.80022777025625 41.2822
24.82302418230472 41.3118
24.845821592443674 41.4132
24.86862000170663 41.4827
24.891597535453727 41.3852
24.914397953892728 41.4466
24.93719937456671 41.3478
24.96000179851076 41.6368
24.98298338249997 41.846000000000004
25.00578782394922 42.032
25.028593271784167 42.2525
25.05157790644186 42.6052
25.07438537804115 42.648999999999994
25.097193859145293 43.1348
25.120003350792075 43.4257
25.142992065061257 43.7939
25.165803588823465 44.2257
25.18861612625217 44.2742
25.211429678386736 44.3498
25.234422489079968 44.4342
25.257238081693636 44.4481
25.280054692141732 44.6012
25.3028723214652 44.6758
25.325869245420463 44.6877
25.348688923599397 44.7871
25.371509623787006 44.6726
25.394331347025812 44.4578
25.41733240110666 44.1138
25.440156181590016 43.4523
25.46298098826268 42.7666
25.48580682216873 42.2714
25.50881202326435 41.4251
25.53163992281684 41.0054
25.55446885274561 40.7376
25.577298814096377 40.3446
25.600308179121807 40.1779
25.623140214533745 40.1957
25.64597328451537 39.9818
25.66898578564376 39.7643
25.691820936010206 39.968
25.714657124097695 39.8256
25.737494350954734 39.7352
25.760511045684957 39.6981
25.783350361364224 39.6109
25.806190718969255 39.8719
25.82903211955018 39.9843
25.852053024868923 40.1217
25.874896522722523 40.0882
25.897741066713106 39.9633
25.920586657892454 40.1592
25.943611790812668 40.1773
25.966459487728237 40.3536
25.989308234998564 40.4004
26.01215803367705 40.7914
26.03518741123814 40.9763
26.05803932412957 41.1117
26.080892291600094 41.2484
26.10374631470478 41.2801
26.12677995397268 41.4283
26.14963609978026 41.5243
26.172493304397875 41.0115
26.19535156888223 40.8208
26.218389486949604 40.4351
26.241249882640123 40.2401
26.26411134137826 39.86
26.28715248187403 39.6975
26.31001607820869 39.3848
26.3328807407756 39.3819
26.35574647063438 39.7119
26.37879191991473 39.6536
26.401659795896734 39.5482
26.424528742360263 39.7905
26.447398760366614 39.9105
26.470448535598294 40.0342
26.49332070826805 40.1298
26.516193955675355 40.6234
26.53906827888316 40.7306
26.562122397260108 40.9782
26.584998883685063 41.3304
26.607876449110325 41.7374
26.63075509460056 41.9081
26.65381357334404 42.0529
26.67669439061878 42.1649
26.699576291163382 41.9953
26.722459276044212 42.0111
26.745522132402975 41.6255
26.768407297649354 41.3367
26.791293550442003 40.9185
26.814180891848974 40.7249
26.837248143099337 40.2769
26.860137673466657 40.1723
26.88302829566349 39.9125
26.90592001075963 39.7601
26.92899167420566 39.6165
26.951885586870763 39.3165
26.974780595655517 39.0258
26.99785558178161 38.844
27.020752794605112 38.5553
27.043651106772522 38.2158
27.06655051935668 38.3881
27.089629948036183 38.3371
27.112531573292053 38.2672
27.135434302194138 38.2381
27.158338135817015 38.1895
27.181422024430987 38.1144
27.204328079372566 37.9417
27.22723524226965 37.9936
27.250143514198573 38.1431
27.273231880156334 38.0949
27.296142382065014 37.8914
27.319053996245536 37.7908
27.341966723775965 37.9477
27.365059584515222 37.9923
27.38797455070062 37.9841
27.410890633481237 37.9512
27.433807833936918 37.9866
27.456905206923906 38.1078
27.47982465472398 38.1061
27.502745223449743 38.1893
27.525666914182825 38.2797
27.548768816912457 38.2304
27.571692763693633 38.1727
27.59461783573812 37.9241
27.617723149491244 37.876999999999995
27.640650484125285 37.8235
27.66357894728264 37.7399
27.686508540048052 37.5394
27.709618414237887 37.4627
27.732550278321757 37.3589
27.755483275279115 37.4326
27.778417406196485 37.4618
27.801531858397514 37.4747
27.824468269376716 37.3211
27.847405817586786 37.4016
27.870344504116094 37.6467
27.893463551932008 37.6601
27.916404527281053 37.9901
27.93934664422563 37.9683
27.962289903855886 38.0869
27.98541356491974 38.4371
28.00835912214229 38.5679
28.03130582533231 38.9414
28.054253675581805 39.0654
28.077381967556104 38.9965
28.100332124185126 38.9284
28.123283431160893 38.7293
28.146235889577238 38.7187
28.169368830154156 38.5765
28.192323603752033 38.3485
28.215279532083304 37.9823
28.238415973016764 37.772
28.261374223145094 37.7482
28.284333631303806 37.518
28.307294198589954 37.3114
28.330435319167677 36.8533
28.353398217078915 36.5342
28.376362277420153 36.4494
28.39932750129032 36.17
28.422473319286713 35.9759
28.44544088262495 35.9072
28.468409612800283 35.8302
28.491379510913497 35.5158
28.51453004413313 35.5039
28.53750229057244 35.3785
28.56047570826344 35.3986
28.583450298308804 35.4669
28.606605564586562 35.2266
28.629582511831156 35.2609
28.65256063474956 35.2579
28.675539934446338 35.228
28.698699951647605 34.9887
28.72168161743193 34.9795
28.74466446331978 35.003
28.767648490417624 34.8887
28.790813276438353 34.9652
28.813799678527303 35.0621
28.836787265157085 34.8746
28.859955641890075 34.9709
28.882945610203045 34.9789
28.905936766392035 34.775
28.928929111566863 34.8466
28.952102288520145 34.8537
28.975097024308607 34.7379
28.998092952423807 34.6689
29.021090073977508 34.5315
29.04426806913204 34.4357
29.067267590245258 34.2935
29.090268308143695 34.1892
29.11327022394099 34.0929
29.13645305530891 33.9288
29.159457379627167 33.8741
29.18246290519685 33.8855
29.20546963313352 33.830999999999996
29.22865731875826 33.8836
29.25166646419296 33.9634
29.27467681535305 33.766999999999996
29.29768837335608 33.979
29.320880931312562 33.8806
29.34389491580634 33.7557
29.366910110507334 33.8131
29.38992651653503 33.7174
29.41312396492981 33.8009
29.436142806456754 33.7968
29.45916286268059 33.7012
29.48236399319994 33.5787
29.50538649169417 33.4888
29.528410208259935 33.4705
29.55143514402014 33.0824
29.574641196749695 33.0836
29.597668583816574 32.9444
29.6206971934585 32.768
29.64372702680042 32.7404
29.666938019934474 32.5857
29.689970313635285 32.5454
29.713003834422636 32.5105
29.73603858342347 32.4648
29.759254535188578 32.400999999999996
29.78229175361658 32.3064
29.80533020365064 32.3095
29.82836988641968 32.2573
29.85159081507472 32.2892
29.874632976355343 32.2863
29.89767637376955 32.2232
29.920721008448314 32.1333
29.9439469322847 32.1253
29.96699405457564 32.0738
29.9900424175358 32.1523
30.013092022298157 32.0589
30.03632295963995 31.9717
30.059375061131373 32.0148
30.08242840783577 32.0852
30.105483000888153 32.0249
30.128718970092244 31.9496
30.151776069006917 31.9487
30.17483441768648 31.9017
30.198074175317235 31.9923
30.221135036724256 31.9303
30.24419715131772 31.9682
30.267260520236203 31.9115
30.290505341942243 31.9708
30.313571232750228 32.0106
30.336638381310948 31.896
30.35970678876503 31.7792
30.38295669299435 31.7406
30.40602763151657 31.7673
30.429099832366074 31.7481
30.452173296685572 31.6589
30.47542830191959 31.7402
30.498504306502497 31.6773
30.521581577995562 31.7375
30.544660117543582 31.8411
30.56792024229725 31.7848
30.59100133132069 31.8131
30.614083691845494 31.8504
30.637167325018545 31.8156
30.660432587840603 31.8798
30.683518779717886 31.9026
30.70660624769615 31.9051
30.729694992924372 31.9135
30.75296541239743 31.8974
30.77605672557558 31.9173
30.799149319462742 31.8261
30.8224236211637 31.7273
30.845518789950724 31.6443
30.868615242910597 31.5542
30.891712981195973 31.3991
30.91499247215866 31.3944
30.938092794619365 31.2902
30.96119440587579 31.2245
30.984297307082752 31.1089
31.00758200598383 31.0219
31.030687500658694 30.9703
31.053794288760695 30.8944
31.076902371446767 30.7298
31.100192296997445 30.8228
31.12330298246119 30.6504
31.14641496599209 30.5313
31.169528248749216 30.6554
31.19282341969534 30.541
31.215939314557186 30.6262
31.239056512134788 30.6282
31.262175013589378 30.575
31.28547544871168 30.5906
31.30859657161541 30.5686
31.331719001892175 30.5615
31.35484274070538 30.6732
31.378148458819545 30.509
31.401274828443725 30.5806
31.424402510106933 30.6375
31.447712205419993 30.660999999999998
31.470842524931633 30.5162
31.493974159989783 30.6161
31.51710711176168 30.5771
31.54042212308802 30.5698
31.563557722100917 30.5111
31.586694641341655 30.3862
31.609832881979628 30.34
31.63315322823208 30.2226
31.656294125521327 30.1503
31.679436347728515 30.0397
31.70257989602529 30.0693
31.725905596152327 29.8918
31.74905181052835 29.7981
31.772199354521323 29.8711
31.79534822930507 29.877
31.818679302290967 29.906
31.84183085259981 29.8349
31.864983737233473 29.9106
31.88813795736804 29.9661
31.911474422233013 29.7575
31.934631327356435 29.8584
31.9577895715215 29.8118
31.980949155906522 29.7562
32.004291031706956 29.7644
32.027453310562606 29.5552
32.05061693318573 29.5677
32.07396288236386 29.5151
32.09712920658542 29.5093
32.12029687812702 29.3119
32.14346589817093 29.2817
32.166817291729984 29.2705
32.18998902288583 29.1335
32.21316210610336 29.0584
32.23633654256711 28.9438
32.259693399663725 28.9546
32.282870556771144 28.9445
32.30604907069099 28.9131
32.329228942610065 28.7372
32.35259128243769 28.6306
32.375773884550505 28.6438
32.398957848235646 28.6434
32.422143174682176 28.5501
32.445511016471215 28.3738
32.468699082679954 28.4829
32.49188851523011 28.4254
32.51507931531304 28.2925
32.538452678331 28.3153
32.56164622776311 28.1808
32.58484114831493 28.0986
32.60803744118015 28.1728
32.631416344731896 28.1925
32.654615396551876 28.0759
32.67781582427913 28.045
32.701198898634416 27.8626
32.72440209253756 27.9352
32.747606665947124 28.0254
32.77081262006088 27.8849
32.79420126883317 27.8234
32.81740999876112 27.8395
32.840620112999424 27.6726
32.86383161274818 27.6226
32.88722585534586 27.6976
32.91044014056596 27.7807
32.933655814909734 27.6881
32.95687287957963 27.691999999999997
32.98027273544904 27.6549
33.00349259526636 27.5876
33.026713849030116 27.6119
33.04993649794511 27.6075
33.073341986570746 27.5758
33.09656744032826 27.5723
33.11979429286444 27.5477
33.14302254538647 27.503
33.166433686291185 27.4348
33.18966475336992 27.3545
33.212897224069096 27.34
33.23613109959831 27.3596
33.259547912343415 27.2993
33.2827846121627 27.3939
33.306022720453775 27.2021
33.32926223842861 27.0922
33.352684742614166 27.1904
33.37592709463173 27.1186
33.399170859982064 27.1167
33.422597648419426 27.0607
33.44584425514446 26.8366
33.46909227885668 26.8179
33.4923417207723 26.6801
33.51577423505344 26.7415
33.539026528130385 26.5781
33.56228024307245 26.6313
33.585535381098246 26.5733
33.60897364093058 26.4674
33.63223163992385 26.44
33.6554910656699 26.3784
33.678751919389796 26.4162
33.702195944520106 26.2514
33.72545966903325 26.245
33.74872482519663 26.1759
33.771991414233746 26.2685
33.79544122444841 26.1449
33.81871069412428 26.1004
33.84198160035767 26.0871
33.86525394437455 26.1666
33.88870955949969 25.99
33.911984794020626 25.9579
33.93526147001624 25.932
33.958539588715006 25.8984
33.98200102861669 25.8669
34.0052820477047 25.7569
34.02856451319451 25.814
34.05203033759056 25.7526
34.07531571090147 25.6628
34.09860253431845 25.624000000000002
34.121890809074316 25.6036
34.145362493118924 25.5564
34.16865368561615 25.4835
34.191946333164054 25.5015
34.21524043699793 25.482
34.23871800066799 25.4704
34.26201503218366 25.3007
34.28531352370466 25.3284
34.30861347646881 25.2545
34.33209693978188 25.2105
34.3553998301885 25.2587
34.378704185565205 25.122
34.402010007152356 25.1463
34.42549939016683 25.0508
34.44880815937748 25.0059
34.472118398533134 24.9016
34.49543010887669 24.8882
34.51892543169198 24.8232
34.54224009966052 24.8636
34.56555624255917 24.9285
34.58887386163339 24.7924
34.61237514439016 24.7679
34.6356957311114 24.6225
34.65901779775809 24.5924
34.68252356662995 24.5539
34.705848608458616 24.6221
34.72917513396849 24.4787
34.75250314440949 24.4339
34.77601490857862 24.3745
34.799345904259795 24.3184
34.82267838863559 24.4441
34.846012362958525 24.3449
34.869530142679984 24.3825
34.89286711232212 24.3308
34.91620557568269 24.2269
34.93954553401677 24.3437
34.9630693495876 24.191
34.986412313340814 24.1779
35.00975677584668 24.1304
35.033102738362956 24.0498
35.05663261012228 24.0922
35.0799815881786 24.0429
35.10333207003229 24.0156
35.12668405694369 24.0348
35.150220005273056 24.0356
35.17357501786656 23.9993
35.19693153931268 23.9819
35.220289570874385 23.9056
35.24383161619786 23.8896
35.267192683604904 23.8445
35.290555264930376 23.831
35.314101899412165 23.8458
35.33746752422433 23.7944
35.36083466676374 23.7893
35.38420332829803 23.7913
35.407756095629054 23.8165
35.43112781085063 23.695
35.45450104888391 23.6936
35.477875810999194 23.6316
35.50143473172161 23.6234
35.52481255774625 23.6859
35.54819191167777 23.6428
35.57157279478914 23.5875
35.595137889488406 23.4585
35.61852184675279 23.4445
35.641907337029984 23.441
35.665294361595684 23.366
35.68886565090076 23.2844
35.7122557598848 23.3029
35.73564740699838 23.276999999999997
35.759040593519934 23.1979
35.78261809810353 23.1121
35.80601437933051 23.068
35.829412203814705 23.0895
35.85281157283719 22.9822
35.876395313415884 22.9785
35.8997977874528 22.8685
35.92320180988546 22.9113
35.946790244133936 22.8682
35.97019737933222 22.8525
35.993606066789866 22.8577
36.01701630779276 22.8367
36.04061101440684 22.7667
36.06402437852291 22.7857
36.08743930005611 22.7823
36.1108557802951 22.6936
36.13445678011326 22.6838
36.15787639383515 22.5817
36.18129757014299 22.5403
36.20472031032821 22.4738
36.22832762423364 22.4769
36.25175350829375 22.4691
36.275180960119776 22.3833
36.298609981005924 22.4367
36.32222362992669 22.4375
36.34565580510207 22.3853
36.36908955323448 22.3824
36.39252487562093 22.1988
36.416144880530226 22.261999999999997
36.43958336764275 22.3014
36.463023432914625 22.2015
36.486465077645676 22.0736
36.51009145956204 22.1295
36.53353627947859 22.1494
36.55698268276811 22.1639
36.58043067073321 22.0717
36.60406345072071 21.9962
36.62751462435344 21.9734
36.65096738658405 21.9795
36.67460498210655 21.991
36.69806093788647 21.8922
36.72151848619297 21.8077
36.744977628333636 21.8595
36.76862165890998 21.6922
36.79208400512205 21.7051
36.81554794910557 21.7436
36.83901349217101 21.6582
36.862663978991606 21.5629
36.88613273667352 21.6051
36.90960309738324 21.5268
36.933075062434064 21.5216
36.95673202673572 21.4206
36.98020721697122 21.3609
37.003684015502365 21.3413
37.027162423645365 21.3487
37.050825886711465 21.3126
37.07430753063053 21.2294
37.09779078812467 21.2941
37.121275660513014 21.2072
37.144945643673694 21.1786
37.16843376245278 21.1536
37.19192350009803 21.1836
37.215414857931435 21.1325
37.239091382563885 21.0528
37.262585997426164 21.0337
37.28608223645736 20.9662
37.309763684451696 21.0202
37.33326318851098 20.9741
37.356764320726555 20.9683
37.380267082425526 20.9543
37.40395510942588 20.9324
37.42746114683234 20.805999999999997
37.45096881771841 20.7095
37.474478123414166 20.784000000000002
37.49817275092816 20.7166
37.52168534303452 20.6991
37.54519957395567 20.6637
37.568715445024665 20.5974
37.592416694607714 20.5291
37.61593586281424 20.5289
37.63945667518264 20.5324
37.66297913304891 20.5466
37.68668702630454 20.4778
37.710212792059274 20.3704
37.733740207334854 20.4231
37.757269273470364 20.4178
37.780983832050374 20.314
37.80451621684926 20.3089
37.82805025654007 20.2888
37.851585952464795 20.2122
37.8753071980695 20.1709
37.89884622345676 20.1144
37.92238690911902 20.1452
37.94611318753442 20.0682
37.969657210779765 20.0229
37.99320289834801 20.0292
38.016750251586465 19.9696
38.04048325513017 19.8475
38.06403395679343 19.8785
38.087586328183946 19.9238
38.11114037065203 19.8981
38.13488012115898 19.8543
38.1584375229181 19.7827
38.181996599821 19.7356
38.205557353221124 19.7393
38.229303872575656 19.6295
38.2528679961576 19.6087
38.27643380031219 19.5975
38.30000128639589 19.5948
38.32375459653193 19.5736
38.34732546371299 19.5574
38.37089801690786 19.5166
38.39447225747609 19.4668
38.418232380377425 19.3992
38.441810012983396 19.3615
38.46538933705673 19.4022
38.488970353960084 19.377
38.51273731166058 19.395
38.536321731567014 19.3306
38.55990784840681 19.2115
38.58367995004091 19.1696
38.60726947812959 19.1136
38.63086070726198 19.1589
38.654453638806274 19.1169
38.678232613930824 19.1105
38.70182896773327 18.9912
38.72542702806741 19.0008
38.7490267963045 19.0034
38.77281266709232 19.0072
38.79641586862214 19.05
38.8200207821842 18.8884
38.843627409152944 18.8775
38.86742019782782 18.8244
38.891030269149255 18.8266
38.914642058016156 18.8411
38.938255565806124 18.7735
38.96205529464307 18.7803
38.98567225787121 18.6939
39.00929094417078 18.7366
39.03291135492255 18.6641
39.05671804624804 18.5668
39.080341923549106 18.547
39.103967529460334 18.51
39.127594865365744 18.5017
39.15140854155791 18.4697
39.17503935514948 18.4857
39.19867190290282 18.4533
39.22249083587951 18.3875
39.24612686969409 18.3748
39.269764641845306 18.3015
39.293404153722804 18.3495
39.317230110864074 18.3074
39.34087311998506 18.2105
39.36451787301696 18.2645
39.388164371352595 18.2257
39.41199737518003 18.1425
39.43564738196752 18.1502
39.45929913825317 18.0931
39.48295264543308 18.0732
39.506792718520884 18.059
39.530449745387216 18.0715
39.55410852735203 17.9995
39.57776906581474 18.0242
39.60161623079 17.9133
39.625280300200025 17.906
39.64894613032202 17.8639
39.67261372255866 17.8897
39.6964680021016 17.877
39.72013913657293 17.8581
39.74381203738292 17.7978
39.76748670593756 17.7819
39.79134812278169 17.7673
39.81502634488497 17.7002
39.83870633896685 17.6811
39.862388106436654 17.6415
39.88625668336918 17.6533
39.90994201572829 17.6427
39.933629125719285 17.5512
39.957503091207826 17.4944
39.9811937746168 17.5675
40.00488623990914 17.5189
40.02858048850006 17.4625
40.05246165409549 17.3867
40.076159487492085 17.346
40.099859108448875 17.3878
40.123560518384345 17.3834
40.1474489070226 17.3431
40.171153913178564 17.2829
40.194860712584955 17.319000000000003
40.2185693066637 17.2972
40.242464941335314 17.2149
40.26617714307655 17.1969
40.289891143772046 17.1753
40.3136069448471 17.1469
40.33750984859743 17.1219
40.3612292688043 17.0748
40.3849504936829 17.0857
40.40867352466194 17.0645
40.43258372059144 17.0161
40.45631038219906 16.9698
40.48003885420956 16.9496
40.503769138055105 16.9238
40.52768664931955 16.8659
40.55142057531802 16.8402
40.57515631746428 16.8331
40.599079334038514 16.7749
40.62281872700477 16.7784
40.64655994043941 16.7312
40.67030297578061 16.7302
40.69423334835778 16.6937
40.71798004609188 16.6234
40.74172857006355 16.622
40.76547892171441 16.6761
40.7894166736039 16.6462
40.813170699248566 16.5749
40.83692655691388 16.5145
40.86068424804498 16.5376
40.884629402612525 16.477
40.908390779366385 16.4919
40.932153993938 16.4311
40.95591904777605 16.4038
40.979871628443995 16.4015
41.003640379561936 16.3961
41.02741097430883 16.3578
41.05118341413683 16.3786
41.075143444384416 16.2986
41.098919593177826 16.2866
41.1226975914255 16.3212
41.14647744058318 16.2212
41.170444943946755 16.1502
41.19422851378379 16.1376
41.218013938914645 16.1265
41.24198706625173 16.0956
41.26577622087193 16.0917
41.289567235177785 16.0429
41.31336011063129 16.0214
41.337340752422875 15.9199
41.361137369129835 15.9243
41.38493585138705 15.9229
41.40873620066004 15.8442
41.43272438060107 15.8745
41.45652848292052 15.8608
41.48033445666918 15.7505
41.50414230331616 15.7929
41.528138045159764 15.7797
41.551949656675205 15.737
41.575763145513235 15.6764
41.59957851314666 15.6834
41.62358184070442 15.6379
41.64740098505737 15.634
41.6712220126409 15.6181
41.69504492493139 15.5636
41.71905586207357 15.5299
41.74288256296395 15.4954
41.766711153007456 15.4982
41.79054163368412 15.4342
41.814560204340054 15.4422
41.838394485526365 15.4107
41.86223066180303 15.4246
41.88625497706819 15.3488
41.910094962812 15.3133
41.93393684811168 15.2647
41.95778063445365 15.2753
41.981812625263366 15.2202
42.00566023303407 15.2709
42.029509746323676 15.2404
42.05336116662236 15.2169
42.077400857069705 15.1865
42.10125611078846 15.2254
42.12511327600405 15.1544
42.14897235421036 15.0526
42.173019768448455 15.0358
42.19688269209613 15.0003
42.22074753323349 15.0106
42.24461429335818 14.9588
42.268669455600495 14.9922
42.292540073217886 14.9574
42.31641261433284 14.9033
42.34028708044675 14.8707
42.36435001496739 14.9133
42.38822835065557 14.8904
42.41210861586426 14.8128
42.4359908120986 14.8659
42.46006154323262 14.7875
42.48394762115317 14.7585
42.507835634632315 14.7409
42.531912233047436 14.7056
42.55580413732265 14.681
42.579697981698 14.6466
42.60359376768525 14.6377
42.62767820545945 14.6211
42.65157789440821 14.5863
42.67547952952185 14.5406
42.699383112316 14.5067
42.72347541395347 14.4725
42.74738291190531 14.4308
42.771292362102166 14.4852
42.795203766063516 14.4345
42.819303956130405 14.4762
42.843219287476536 14.3993
42.86713657716324 14.3441
42.89105582671383 14.2915
42.91516392983864 14.3057
42.939087119032166 14.2784
42.963012272677304 14.2133
42.98693939230129 14.2175
43.01105543317513 14.145999999999999
43.034986504731386 14.1354
43.05891954686589 14.1562
43.08285456110972 14.120999999999999
43.10697856448665 14.0636
43.130917542983475 14.0214
43.15485849820081 14.0605
43.17880143167367 14.0558
43.20293342237094 14.008
43.226880332449 13.9571
43.25082922540554 13.9671
43.27496722682525 13.962
43.29892010567796 13.9118
43.32287497204102 13.9131
43.34683182745632 13.8461
43.370977859791836 13.8628
43.39493871351105 13.8521
43.41890156092628 13.8149
43.44286640358341 13.8098
43.46702049182749 13.74
43.49098934522816 13.7337
43.51496019852649 13.6818
43.5389330532723 13.6685
43.56309522248204 13.6862
43.58707210044314 13.6414
43.61105098451946 13.6118
43.63503187626491 13.58
43.659202151562134 13.5668
43.68318707902681 13.4947
43.70717401884041 13.5121
43.731162972560874 13.456
43.75534137913236 13.4442
43.779334381108384 13.436
43.803329401683186 13.4069
43.82732644241872 13.4125
43.8515130055166 13.3958
43.87551410707659 13.322000000000001
43.89951723350145 13.3369
43.923709934595614 13.3449
43.94771713129917 13.3197
43.97172635758096 13.2654
43.99573761501002 13.2452
44.0199385169922 13.1976
44.04395385732619 13.1913
44.067971233533086 13.1862
44.09199064718605 13.1233
44.11619977548961 13.088
44.14022328470671 13.0875
44.16424883610785 13.0848
44.18827643127035 13.1024
44.21249381139513 13.0564
44.236525514814076 12.9717
44.26055926674478 12.9925
44.28459506876863 12.9948
44.3088207262813 12.9305
44.33286064928722 12.8835
44.35690262714919 12.8651
44.38094666145278 12.8409
44.4051806219871 12.8584
44.42922879003185 12.8123
44.45327901929361 12.7653
44.477331311362136 12.7558
44.501573600619416 12.7733
44.525630039221795 12.7356
44.54968854541895 12.7173
44.573937102200176 12.6647
44.5979997645541 12.6735
44.622064499300315 12.6409
44.64613130803592 12.5934
44.67038823869318 12.6457
44.69445921643748 12.592
44.718532272981385 12.552
44.742607409926194 12.5291
44.76687274034801 12.5384
44.79095205918753 12.4723
44.81503346325094 12.5041
44.839116954143876 12.4464
44.86339071028742 12.4249
44.88747839599524 12.3955
44.91156817336837 12.3204
44.93566004401666 12.3425
44.959942251908146 12.325
44.984038330325966 12.3153
45.00813650686762 12.2631
45.03223678314731 12.321
45.05652746888232 12.2559
45.08063196592069 12.1547
45.104738567558705 12.1713
45.128847275414856 12.1999
45.15314646515866 12.1783
45.17725940679741 12.1439
45.20137445952892 12.0953
45.22568004865265 12.1061
45.24979934496396 12.0775
45.27392075725247 12.0654
45.29804428714431 12.0434
45.322358426247604 12.0053
45.346486212804315 11.9726
45.370616121861914 11.9874
45.39474815505086 11.9727
45.41907087049246 11.954
45.4432071734666 11.8877
45.46734560548283 11.876
45.49148616817604 11.9195
45.51581748638564 11.8217
45.5399623320197 11.7971
45.56410931325473 11.8134
45.58825843173002 11.8183
45.61259837920865 11.7401
45.636751793816 11.742
45.66090735060093 11.7396
45.68506505120716 11.7211
45.7094136545275 11.6557
45.73357566449271 11.6165
45.75773982322992 11.6432
45.78190613238733 11.6064
45.806263418194064 11.5568
45.83043404997326 11.5994
45.85460683713677 11.5614
45.87897065658495 11.5275
45.90314777634752 11.4584
45.92732705646868 11.4684
45.9515084986045 11.4888
45.97588104735473 11.4525
46.00006683541565 11.4414
46.02425479047904 11.4295
46.04844491420549 11.3905
46.0728262191024 11.3827
46.09702070211635 11.355
46.12121735879483 11.3268
46.14541619080294 11.3333
46.169806278764455 11.2854
46.194009483459034 11.2655
46.21821486849841 11.2869
46.24242243555223 11.2324
46.266821333570014 11.1888
46.29103328674601 11.1772
46.31524742696538 11.1775
46.33946375590237 11.1507
46.36387149104216 11.1192
46.38809221957392 11.0999
46.41231514186606 11.0837
46.436540259597464 11.0716
46.460956858999374 11.0386
46.48518638983522 11.0326
46.509418121166966 10.9777
46.533652054678114 11.0018
46.55807754555709 10.9567
46.58231590571962 10.9875
46.60655647313217 10.898
46.630988654873654 10.8991
46.655233659129024 10.8923
46.67948087571551 10.8544
46.70373030632484 10.854000000000001
46.72817142736393 10.8294
46.752425308428684 10.8066
46.77668140861147 10.7724
46.80093972960865 10.7444
46.82538981736788 10.735
46.849652602470904 10.7016
46.87391761349769 10.7134
46.8981848521493 10.7251
46.9226439341274 10.6408
46.946915650573224 10.6349
46.97118959976749 10.6323
46.99546578341598 10.5917
47.019933887188216 10.5422
47.04421456235744 10.5585
47.06849747711879 10.5258
47.09278263318286 10.5339
47.11725978640143 10.491
47.14154944775105 10.4817
47.165841355555656 10.4413
47.1901355115306 10.4454
47.214621741924994 10.4151
47.23892041698887 10.3807
47.26322134538975 10.3838
47.28771440635075 10.3295
47.31201986422527 10.3664
47.33632758061436 10.3558
47.360637557241866 10.312000000000001
47.38513974410611 10.3146
47.40945426407847 10.2426
47.43377104948137 10.2526
47.45809010204344 10.2363
47.48260144275502 10.1661
47.506925052572285 10.1852
47.53125093475548 10.187000000000001
47.55557909103813 10.1364
47.58009961361992 10.1169
47.60443234110732 10.0898
47.62876734791564 10.0857
47.65310463578333 10.0752
47.6776343683373 10.0612
47.7019762413987 10.0416
47.72632040075572 10.044
47.75066684815169 10.0236
47.77520581885936 9.988560000000001
47.799556865477655 9.94341
47.823910205386 9.93167
47.84826584033272 9.96822
47.87281407745551 9.87777
47.89717432569297 9.91261
47.92153687423484 9.896
47.94609208429692 9.83429
47.97045925671401 9.833260000000001
47.99482873471275 9.78663
48.01920052005013 9.79137
48.04376504619224 9.7415
48.068141469543484 9.79012
48.09252020552573 9.81171
48.11690125590099 9.75406
48.1414751266064 9.73828
48.16586082917454 9.7176
48.19024885144316 9.68722
48.2146391951793 9.682889999999999
48.239222439012764 9.68148
48.26361744916137 9.63145
48.28801478610016 9.60511
48.31241445160131 9.612960000000001
48.337007097209366 9.59861
48.36141144338331 9.557789999999999
48.38581812345755 9.571010000000001
48.41022713920929 9.54773
48.434829215320704 9.49729
48.45924292604658 9.498489999999999
48.48365897780325 9.4964
48.50807737237308 9.440439999999999
48.532688907799276 9.43941
48.55711201168574 9.45335
48.581537463754074 9.43305
48.60615611725119 9.42725
48.63058628942721 9.41315
48.65501881516546 9.334710000000001
48.6794536962573 9.37798
48.70408185970339 9.33815
48.72852147531801 9.30742
48.75296345168211 9.30079
48.77740779059232 9.28059
48.80204549302823 9.282119999999999
48.82649458091802 9.249039999999999
48.85094603676547 9.22741
48.87539986237231 9.19255
48.90004713292306 9.16455
48.92450572200832 9.148589999999999
48.94896668628025 9.18295
48.97343002754588 9.13199
48.99808689542115 9.13716
49.02255501470614 9.13825
49.04702551642794 9.10116
49.0714984023988 9.04336
49.096164896893235 9.06291
49.120642575466796 9.04231
49.145122643748394 9.03151
49.16960510355558 8.99371
49.19428125404938 8.99519
49.2187685210852 8.968069999999999
49.243258185121555 8.982610000000001
49.26794160167084 8.95174
49.2924360839405 8.92015
49.31693296869764 8.89569
49.34143225776915 8.85876
49.36612538195438 8.85045
49.39062950396021 8.844510000000001
49.41513603578346 8.82715
49.4396449792564 8.77639
49.46434784069503 8.8133
49.488861631846454 8.7651
49.513377840166804 8.72415
49.537896467493745 8.71227
49.56260909589029 8.67952
49.587132585683285 8.69388
49.611658500018365 8.71348
49.636186840738596 8.6829
49.66090926588511 8.69567
49.685442483902584 8.635689999999999
49.70997813385706 8.62018
49.734516217597076 8.6229
49.75924846937352 8.61421
49.7837914452858 8.5805
49.80833686055187 8.55982
49.83288471702571 8.53453
49.85762682540054 8.53267
49.882179588965734 8.46658
49.9067347993235 8.45123
49.93129245833333 8.457460000000001
49.95604445336378 8.48167
49.98060703442832 8.44567
50.005172069746266 8.43634
50.02993150438364 8.407169999999999
50.05450147301533 8.396519999999999
50.07907390151433 8.37567
50.10364879174981 8.36031
50.12841816587289 8.34502
50.1529980044635 8.34684
50.17758031042124 8.29693
50.20216508562089 8.312380000000001
50.22694442953363 8.2878
50.25153416817468 8.23407
50.27612638170508 8.23747
50.300721072005196 8.20712
50.325510416102105 8.19241
50.350110084975064 8.19605
50.37471223628208 8.216569999999999
50.39931687190919 8.19022
50.424116246675766 8.13908
50.44872587605249 8.15421
50.47333799543065 8.14202
50.49795260670191 8.11647
50.52276204271512 8.09045
50.54738166295838 8.09885
50.57200378079314 8.08094
50.596628398116835 8.06795
50.62144792604559 8.03153
50.646077567609396 8.033719999999999
50.670709714377715 8.027660000000001
50.69553683636198 7.9667699999999995
50.72017401885922 7.95273
50.7448137122895 7.962439999999999
50.76945591856022 7.95855
50.79429318636823 7.91937
50.818940443716784 7.8921
50.84359021965163 7.854210000000001
50.868242516085964 7.89262
50.893089960641895 7.8768899999999995
50.917747323549435 7.8109
50.94240721271973 7.82972
50.96706963007175 7.79553
50.99192728239342 7.800669999999999
51.01659478166073 7.812880000000001
51.04126481489051 7.7978
51.06593738400761 7.7787
51.090805275207074 7.73204
51.11548294172845 7.68946
51.14016314993547 7.6989600000000005
51.164845901758845 7.71621
51.18972406304274 7.673839999999999
51.21441192780656 7.64641
51.23910234200271 7.66051
51.2637953075678 7.676410000000001
51.288683770237945 7.62493
51.31338186432707 7.589460000000001
51.33808251561888 7.55779
51.362978729967345 7.56597
51.387684521509755 7.55289
51.41239287610203 7.53345
51.437103795691165 7.5282100000000005
51.46201036644977 7.49868
51.486726441956634 7.48809
51.51144508832545 7.48935
51.536166307509156 7.469069999999999
51.56108326624387 7.4403
51.58580965706056 7.45016
51.61053862657523 7.42092
51.635270176746864 7.376189999999999
51.66019755512065 7.37357
51.68493429268881 7.3456600000000005
51.70967361681515 7.3426800000000005
51.73441552946465 7.344289999999999
51.759353359237934 7.318410000000001
51.7841004750961 7.32923
51.80885018539685 7.3291699999999995
51.833602492111254 7.28291
51.8585508051424 7.28357
51.883308330926425 7.24148
51.90806845906181 7.229260000000001
51.932831191525715 7.21192
51.95779001977161 7.1747
51.98255798721516 7.178089999999999
52.00732856494335 7.12909
52.03229530577543 7.11808
52.057071130455945 7.1376
52.081849571391054 7.15685
52.106630630568695 7.134580000000001
52.13160794279417 7.05697
52.15639426492067 7.07205
52.18118321127822 7.0446100000000005
52.205974783860896 7.06862
52.23096269971011 7.03251
52.255759551287994 7.013739999999999
52.280559035098186 7.0321
52.30536115314103 7.00362
52.33035970494467 7.01363
52.35516711807904 7.00625
52.37997717147198 6.96891
52.40478986713005 6.94556
52.42979908731974 6.928489999999999
52.454617094216 6.9123399999999995
52.47943774942214 6.86153
52.50426105495102 6.88492
52.529280976059844 6.86305
52.554109609024096 6.817939999999999
52.57894089837482 6.8375699999999995
52.60377484613117 6.82251
52.62880550079408 6.797860000000001
52.65364479223379 6.76035
52.67848674816189 6.748530000000001
52.70352547971946 6.760669999999999
52.72837279155837 6.727760000000001
52.753222773982785 6.712739999999999
52.778075429022984 6.738060000000001
52.80312495150885 6.729760000000001
52.827982978797436 6.71425
52.85284368481815 6.68221
52.87770707160767 6.68505
52.90276741793998 6.64692
52.92763619336701 6.62312
52.952507655698504 6.653460000000001
52.977381806977576 6.645969999999999
53.00245301017842 6.632960000000001
53.02733256653592 6.63285
53.052214817996074 6.59652
53.077099766608484 6.584630000000001
53.102181859804446 6.55585
53.127072229988265 6.568410000000001
53.15196530349892 6.51445
53.17686108239249 6.51984
53.20195409881522 6.5338400000000005
53.22685531582556 6.52151
53.25175924441303 6.45806
53.27666588664027 6.42777
53.30176985962693 6.442819999999999
53.3266819565689 6.41376
53.35159677336455 6.41481
53.376514312083096 6.39273
53.40162927507703 6.37626
53.42655228516116 6.34892
53.45147802340193 6.32461
53.47660125628886 6.34689
53.50153247842639 6.31948
53.52646643496923 6.306030000000001
53.55140312799818 6.33654
53.576537409691696 6.27124
53.60147960336152 6.277909999999999
53.626424539786164 6.25535
53.65137222105307 6.18993
53.67651758529126 6.2226300000000005
53.70147078399681 6.1983
53.72642673383343 6.17134
53.75138543689533 6.223380000000001
53.776541917524526 6.22383
53.801506154876755 6.17831
53.826473151763246 6.12156
53.851442910284916 6.10988
53.87661054126026 6.108140000000001
53.9015858509782 6.10162
53.92656392866066 6.086130000000001
53.95154477641532 6.1060300000000005
53.976723591801296 6.04082
54.00171000771266 6.049930000000001
54.02669920004598 6.05928
54.051691170915745 6.05631
54.076881204886796 6.02122
54.101878760928514 6.04099
54.12687910187696 5.93786
54.152077577768296 5.97762
54.1770835166946 5.98388
54.20209224691339 5.9522900000000005
54.22710377055121 5.91518
54.25231352511594 5.9056
54.27733066384342 5.87961
54.30235060239643 5.87702
54.32737334290836 5.87141
54.35259441062629 5.82686
54.377622783395324 5.8063400000000005
54.40265396455061 5.79882
54.42768795623251 5.8097900000000005
54.45292037169559 5.77122
54.477960012857906 5.76768
54.50300247099511 5.73008
54.52804774825457 5.79296
54.55329154616743 5.73749
54.57834249018678 5.649780000000001
54.6033962597977 5.66801
54.6284528571545 5.69308
54.653708072335164 5.6833599999999995
54.67877035378786 5.67415
54.70383546947698 5.62995
54.72890342156389 5.583469999999999
54.7541700889442 5.53212
54.77924374251975 5.521059999999999
54.8043202390049 5.51762
54.82959552413022 5.512980000000001
54.8546777351945 5.47851
54.87976279569621 5.47294
54.90485070780914 5.47558
54.930137506558005 5.42132
54.95523115074295 5.43697
54.98032765308844 5.42784
55.005427015775496 5.35091
55.03072536339621 5.3739
55.05583047570572 5.304819999999999
55.080938454927676 5.33482
55.10604930325027 5.3294
55.131359235107396 5.3078199999999995
55.15647585066083 5.22074
55.181595341907496 5.22944
55.20671771104285 5.21568
55.232039262617704 5.1958
55.25716741665048 5.15538
55.28229845518636 5.1855199999999995
55.30743238042802 5.10087
55.33276558731939 5.1147800000000005
55.357905315183636 5.1153
55.383047936390035 5.03811
55.40819345314859 5.06398
55.433538351073295 5.027019999999999
55.458689688238415 5.02914
55.483843927614096 4.92649
55.509197623043605 4.97346
55.53435769621134 4.93251
55.55952067826466 4.89444
55.5846865714265 4.86466
55.61005202069737 4.85625
55.63522376553902 4.84251
55.66039842818645 4.7830699999999995
55.68557601087004 4.7815900000000005
55.7109532500271 4.7403
55.73613670233794 4.766369999999999
