TT I
1.2716486653135266 7.2663899999999995
1.2939594142134223 7.029789999999999
1.3162702121660406 6.78529
1.3385810600174564 6.7397800000000005
1.3608919586137629 6.986000000000001
1.383202908801069 6.461469999999999
1.405513911425503 5.37611
1.4278249673332093 5.7144900000000005
1.4501343378461518 6.2260599999999995
1.4724455028545926 5.68138
1.4947567236847858 5.49607
1.517068001182951 5.45643
1.5393793361953272 5.37173
1.5616907295681737 5.63449
1.5840021821477681 5.52882
1.60631369478041 5.2944
1.6286252683124185 5.10738
1.6509369035901333 4.89128
1.6732468618895553 5.08266
1.695558623192809 4.73715
1.7178704487808514 4.91274
1.7401823395001077 4.6276
1.7625012545597203 4.65484
1.7848028405262486 4.7218599999999995
1.8071218901122095 4.75545
1.8294236121921872 4.4557
1.8517427996910911 4.20218
1.8740620574440425 4.86612
1.8963639900671978 4.734319999999999
1.9186833908139995 4.488630000000001
1.9409854680117449 4.6590300000000004
1.9633050151394713 4.881390000000001
1.9856246367570705 4.51279
2.0079269371922672 4.5128900000000005
2.03024671027244 4.40897
2.0525491637446027 4.461
2.074869091674931 4.12898
2.097171701569106 4.21486
2.1194917877373847 4.46291
2.141811954326636 4.67164
2.164114805233074 4.39377
2.186435135143035 4.9897
2.208738150935709 5.45014
2.231058647554722 6.59772
2.2533792288321184 6.157109999999999
2.275682498336085 5.31529
2.298003251406138 5.80008
2.3203066942619714 5.38732
2.3426276225136022 4.64417
2.3649486396617507 5.89802
2.387252348930071 6.43295
2.4095735463442893 6.07395
2.4318774374315884 6.51312
2.4541988185014043 6.634360000000001
2.476502894794693 6.77303
2.498824462909887 6.960719999999999
2.521146125856138 7.3387
2.5434504863470337 7.3924199999999995
2.5657723414244717 8.40119
2.588076895590662 8.167869999999999
2.610398946189713 8.38044
2.6327210958598384 8.555710000000001
2.6550259469304716 7.90791
2.6773482972090137 8.959710000000001
2.6996533504259 8.77952
2.7219759047039602 8.50629
2.744298562293959 7.91627
2.7666039251246595 7.7794
2.7889267918020164 8.06446
2.8112323652516555 7.7593
2.833555444408179 8.40291
2.8558786311183852 7.91316
2.8781845268938557 8.87172
2.9005079311721484 9.21686
2.9228140460410397 8.60903
2.9451376712799635 9.53497
2.967444008632326 9.10417
2.9897678582247247 9.39352
3.0120918213106695 10.405999999999999
3.0343984987899373 10.3145
3.0567226913198637 10.3442
3.079029599759726 11.2229
3.101354025127254 11.9795
3.123678568232338 12.7627
3.145985829517914 12.6203
3.16831061055229 12.6495
3.1906181112775593 13.9109
3.212943133635653 14.5976
3.2352682779763207 14.6984
3.2575761442691227 14.415999999999999
3.2799015350264273 15.4157
3.302209649240067 16.2842
3.3245352898092655 16.3858
3.3468436553365257 16.5604
3.369169549113219 17.2225
3.3914955708171384 18.0342
3.413804319727358 18.0962
3.4361305997334863 18.6376
3.4584396084414553 19.2528
3.4807661501462652 19.5337
3.503092824025881 19.953
3.5254022288463154 20.5529
3.5477291695206588 20.5407
3.5700388426251948 21.4568
3.5923660534916446 21.8455
3.6146934007816114 23.4097
3.637003482731501 27.9297
3.6593311053109985 29.3284
3.681641464033634 26.3561
3.7039693653009733 24.1691
3.726297407241705 24.5491
3.7486081875460804 24.6573
3.7709365132734978 25.2229
3.793247578841633 25.625
3.8155761917550093 25.7344
3.8378875459837216 26.6943
3.8602164494827234 26.8316
3.882545499606844 27.4534
3.9048572932539183 27.748
3.9271866390645718 28.1627
3.9494987298666713 29.125999999999998
3.971828374764527 29.5464
3.9941581705403255 30.1484
4.016470713506008 30.8166
4.038800813471445 31.0011
4.061113662089144 31.649
4.0834440696459176 32.8837
4.105774632334751 33.1889
4.128087945865126 33.6403
4.150418821249301 33.8211
4.172732448931298 34.988
4.195063640413578 35.2529
4.2173775856475215 36.899
4.239709096631102 39.5947
4.262040768704612 54.7095
4.284355196706267 63.5509
4.306687193387355 54.9025
4.329001947444346 44.1771
4.35133427213731 41.5145
4.373666762177566 42.3944
4.395982011761091 42.825
4.418314834921175 43.7046
4.44063041906622 45.1571
4.4629635787515625 46.9562
4.4852969080429785 48.486999999999995
4.5076130004776225 49.4987
4.529946671403969 53.9635
4.552263106909177 57.9687
4.574597122877047 55.5046
4.596931312711224 52.6076
4.619248269273446 52.5716
4.6415828092605835 53.7755
4.663900117405352 55.1914
4.686235010953232 56.7153
4.708552674085913 57.7495
4.730887924602802 59.5853
4.753223354952695 61.096000000000004
4.775541557023902 64.3299
4.797877349456786 66.5836
4.820195915032126 67.8538
4.842532072957498 67.6495
4.864868414979744 70.5011
4.88718753227192 74.6162
4.909524244902505 76.5281
4.931843734218147 76.1104
4.954180820867835 77.0888
4.976518095879839 80.3305
4.998838149695359 83.3928
5.021175803844231 86.71600000000001
5.043496238205739 89.6143
5.065834274903528 93.7757
5.088172504230693 98.0165
5.1104935158799565 104.176
5.132832132875765 116.551
5.155153533596801 136.00799999999998
5.1774925416746225 175.717
5.199814334878411 378.13300000000004
5.2221537374521505 1001.23
5.244493338631803 2806.98
5.266815727034316 7968.8
5.289155727832427 13930.0
5.311478517248165 8322.52
5.333818921080011 2233.47
5.356159527788849 416.462
5.3784829252032536 175.607
5.400823940070432 143.68200000000002
5.423147747031976 124.67
5.445489173474152 116.61200000000001
5.467830807066149 116.704
5.490155234831516 117.211
5.512497285125229 110.664
5.534822130975162 104.54799999999999
5.557164601388673 101.01299999999999
5.579489868738879 98.259
5.601832762690846 96.7825
5.6241758697774475 95.2916
5.646501775867269 95.1316
5.668845311622074 94.166
5.691171647754637 93.5523
5.713515615597765 92.4324
5.735859800852677 92.1943
5.758186788542988 93.8814
5.780531411018185 96.9486
5.802858837297399 96.5251
5.825203900414495 96.2952
5.8475491852224 97.9688
5.869877275883075 97.729
5.892223006467101 94.6591
5.914551544266608 93.7709
5.936897724049891 96.8281
5.959244129804903 103.896
5.981573344815301 132.438
6.0039202049061 243.658
6.026249875609095 474.28
6.04859719346037 969.705
6.070927323278297 2271.42
6.093275102315365 4805.34
6.115623113320588 5627.29
6.137953938319995 2970.0
6.160302415650845 835.252
6.182633708324452 195.28900000000002
6.2049826554078376 101.446
6.227331838745022 86.7738
6.249663839443684 81.0139
6.27201349767565 78.1203
6.294345974611799 76.1046
6.316696111167083 75.0274
6.339046488263839 73.8524
6.361379686074702 71.1026
6.383730546639482 69.2688
6.406064229255215 68.8103
6.428415576718203 69.7444
6.450749747566656 68.2118
6.47310158535871 65.6391
6.495453669698332 64.4039
6.517788579421056 63.4418
6.540141159237969 62.2561
6.562476565766648 61.8431
6.5848296444934045 61.6318
6.607182974060425 61.9059
6.6295191323281015 61.1777
6.651872965955752 60.4525
6.6742096296068985 61.4189
6.6965639707294615 65.5722
6.71891856698715 65.9596
6.741255995248479 61.4572
6.763611104154477 58.2855
6.785949046381137 57.6014
6.808304671371482 58.1267
6.8306605557940046 59.1787
6.852999275508618 58.36600000000001
6.875355681171544 56.8699
6.897694923437771 55.5983
6.92005185377892 55.381
6.9423916220322655 54.988
6.964749080490181 54.6351
6.987106804399774 54.6585
7.009447368180821 54.8513
7.031805625367033 54.7788
7.054146723727803 54.5193
7.076505517631004 54.1759
7.098864581288365 53.9565
7.121206488070854 53.8959
7.143566093607822 54.2781
7.165908543567245 55.1884
7.188268694426048 55.0927
7.2106291193438095 53.9923
7.232972390625943 53.0644
7.255333366030969 53.6216
7.277677189091925 58.2611
7.300038718428332 63.2731
7.322400526130865 61.4642
7.344745183422596 56.387
7.367107550224791 53.56
7.389452767901992 53.2844
7.411815697249891 53.3118
7.434161478756298 52.706
7.456524974096713 52.5772
7.478888753837185 52.8954
7.501235387657368 53.52
7.523599738562711 53.7198
7.545946944825532 54.4875
7.568311870344528 55.2847
7.5906770845765665 54.8012
7.613025156078678 54.3092
7.635390950099687 54.651
7.657739602662809 54.8385
7.680105979923558 54.8537
7.702472650212829 55.7325
7.724822180948224 55.6147
7.747189439655568 55.0772
7.769539560075357 55.2899
7.791907410653562 55.8543
7.81425812420825 55.7455
7.836626570110925 55.8677
7.858995315087906 56.4622
7.881346924933401 56.9892
7.903716270417482 57.4491
7.926068482028405 58.2008
7.948438431475253 58.3879
7.9708086843180235 58.7968
7.993161805171116 59.6779
8.015532667162402 60.236999999999995
8.037886398416653 61.5416
8.060257873014221 62.1049
8.082629655331942 62.73
8.104984308787587 62.9403
8.127356708900503 64.523
8.149711981398308 67.7949
8.172085002766314 68.9004
8.194458336181368 68.4403
8.216814543847752 67.7635
8.23918850371002 68.7446
8.26154533906492 69.2833
8.283919928836452 71.2181
8.306277395339652 72.0215
8.328652618483376 73.3433
8.351028159736202 75.5458
8.373386579575245 77.278
8.395762759396959 79.1885
8.418121819038275 81.8192
8.440498640894003 86.4476
8.462875785192262 96.4135
8.485235811156207 124.36399999999999
8.507613602688501 178.752
8.529974277114228 268.12
8.552352719347912 399.75699999999995
8.574731488360351 662.6510000000001
8.59709314210385 1248.92
8.619472567021075 2050.4
8.64183487789147 2381.74
8.664214962183097 1786.84
8.686577933647762 820.436
8.708958680784317 300.7
8.731339760774953 139.30100000000002
8.753703729764451 103.65100000000001
8.77608547780821 95.9877
8.798450116065078 93.2507
8.820832535634787 90.9903
8.843215292401656 91.4462
8.865580941199045 90.5739
8.887964374703538 90.1669
8.910330701447199 89.9445
8.932714815164482 89.5222
8.955099270424924 86.5492
8.977466620733543 84.6692
8.999851761421976 84.0477
9.022219798361645 83.2947
9.04460562795561 82.8964
9.066991803441677 83.1085
9.089360876979615 83.7485
9.111747746589993 83.5757
9.13411751544971 82.4616
9.156505082664324 81.4042
9.178875550323522 81.6567
9.20126381862328 81.4029
9.223652438908596 82.2785
9.246023961427412 83.4048
9.26841328802173 83.6087
9.290785518039224 83.3463
9.313175554425882 84.2246
9.335565947154315 85.5368
9.357939245086508 85.5904
9.380330352834827 84.7965
9.40270436697103 84.5109
9.425096193225055 84.2947
9.447488380180165 84.3757
9.469863475295412 83.6453
9.492256385987508 84.2144
9.514632206018318 84.7771
9.537025843935714 85.1639
9.559402392368193 86.3775
9.581796761000229 88.6033
9.604191496441521 90.4506
9.626569144158516 92.6358
9.648964615551032 92.71700000000001
9.671343000390081 91.8582
9.693739211225699 91.2711
9.716135793237463 91.1239
9.738515290448102 92.2216
9.760912617143402 94.0683
9.783292860202891 96.0562
9.805690935076182 97.8635
9.828089385495742 98.9971
9.850470754023561 99.9751
9.872869957865444 101.678
9.89525208097539 105.21700000000001
9.917652041736662 110.363
9.940052382417589 121.86399999999999
9.962435644102392 150.43200000000002
9.984836746950979 193.65400000000002
10.007220771957746 257.846
10.029622640473708 362.506
10.052007432299963 542.462
10.074410069984072 849.683
10.096813093716005 1356.75
10.119199042482517 1904.69
10.141602840636468 2059.26
10.163989564971628 1461.59
10.186394141051062 734.081
10.208799107559706 305.155
10.231187001965623 156.295
10.253592751657669 116.947
10.275981430388155 108.22399999999999
10.298387966769793 105.655
10.320794897965431 105.022
10.343184759907361 103.72399999999999
10.36559248305461 102.499
10.387983138083852 104.36200000000001
10.410391656691655 111.164
10.432800574501677 123.32
10.455192425893369 139.56799999999998
10.47760214443012 165.855
10.499994797678786 211.83599999999998
10.522405320453982 295.731
10.54479877906917 417.87300000000005
10.567210109595656 557.557
10.5896218454736 591.984
10.612016518879773 473.458
10.634429067781074 292.738
10.656824555333241 167.798
10.679237920773568 110.50299999999999
10.701651695961992 92.2818
10.724048411481384 87.6773
10.746463008485165 85.1272
10.768860546937125 83.3769
10.791275969274796 81.9337
10.81369180576079 80.7183
10.836090585366925 79.9467
10.858507252467449 78.6394
10.88090686379991 78.0206
10.903324365036394 77.5918
10.925724811614439 76.2646
10.948143150509463 76.503
10.970561909719066 75.6538
10.992963615930844 75.3927
11.015383218085756 74.1512
11.037785768347074 72.7626
11.06020621697282 71.9545
11.082627090322113 71.1128
11.105030913430326 70.2448
11.12745263854165 69.6646
11.149857314510728 69.0053
11.172279894912576 69.9229
11.194702904450653 69.4427
11.217108866490921 68.17399999999999
11.239532736615194 67.3202
11.26193956033512 67.2126
11.284364294577085 66.4196
11.306789462371718 66.1553
11.329197585398376 65.7507
11.351623622610898 65.9736
11.37403261614354 65.2372
11.396459526308487 65.2571
11.418869393879497 64.8564
11.441297180532617 64.0415
11.463725406927658 63.9597
11.486136592353875 63.5936
11.508565700543707 63.2936
11.530977768845315 63.6336
11.553407762368774 63.3516
11.575838200059769 63.2651
11.598251599479612 62.7168
11.620682927815501 62.4946
11.64309721895548 62.5946
11.665529441478206 62.4454
11.687962112597958 62.0266
11.710377748130886 62.0745
11.732811318753434 61.882
11.755227854859067 61.9134
11.777662328529495 61.7997
11.800079768750786 61.7629
11.822515149015453 61.9069
11.844950984084935 62.0527
11.867369787303163 61.3227
11.889806534289491 61.6611
11.912226250487029 62.0476
11.934663912939751 62.5607
11.9571020346363 62.6562
11.979523127133968 63.1906
12.001962169624331 64.3333
12.024384183972964 65.8025
12.046824150809913 69.0449
12.069264581333726 73.4434
12.091687985297767 79.8078
12.11412934550045 88.928
12.136553680195208 104.21600000000001
12.158995973632788 127.10600000000001
12.181438735204349 159.012
12.20386447284199 194.33
12.226308172985636 209.75799999999998
12.24873485024193 193.06900000000002
12.271179492516982 151.305
12.293607112949127 108.126
12.316052700916226 81.812
12.338498763250042 68.7382
12.360927805303868 64.2867
12.383374818673879 63.2108
12.405804812803074 62.6634
12.428252780773262 62.9603
12.45070122756722 63.2946
12.473132656675375 63.3626
12.49558206341869 63.8545
12.518014453510101 64.0327
12.540464823770117 64.0344
12.562915677315177 63.9419
12.58534951575545 64.1839
12.607801338171472 64.1348
12.630236146511358 64.7381
12.652688941369085 65.7127
12.675124723177234 66.0135
12.697578494048786 66.3913
12.720032754458185 66.1719
12.742470003354093 66.3856
12.764925245138771 66.7678
12.787363476431278 67.2511
12.809819703166806 67.3454
12.83227642391173 68.5655
12.854716135692716 69.168
12.877173846755147 70.0844
12.899614549869717 70.6707
12.9220732548287 71.7826
12.94453245827299 72.1136
12.966974655289818 73.0668
12.989434858002571 73.5781
13.011878055298721 74.0792
13.034339260862497 75.41199999999999
13.056800969391883 76.9431
13.079245674017244 80.0523
13.101708390774869 84.4044
13.12415410463411 92.9715
13.146617833206086 102.87
13.169064559883248 113.25
13.191529303857127 128.415
13.213994557076367 151.563
13.236442809902437 189.28900000000002
13.258909083908291 250.67700000000002
13.28135835851934 325.305
13.30382565690295 398.75800000000004
13.326293469022952 448.31199999999995
13.348744283242008 414.19
13.371213125129904 318.441
13.39366497011003 216.544
13.416134845360597 145.635
13.438605238843131 112.213
13.46105863690397 103.839
13.483530069144786 106.43299999999999
13.505984506951902 112.448
13.528456981549432 122.98200000000001
13.550929978879088 138.588
13.573385983253365 163.018
13.595860028340867 202.6
13.618317081455832 258.716
13.64079217790333 327.107
13.663250283359057 381.736
13.685726434770173 387.67699999999996
13.708203115221277 327.876
13.730662806148091 242.11900000000003
13.75314054697177 163.388
13.775601299246777 114.624
13.798080104050406 91.2985
13.820559442405358 82.9307
13.843021793671388 80.1665
13.865502201420897 78.9905
13.887965623051947 78.7978
13.910447103807167 77.5331
13.932929122629764 76.2229
13.955394156785959 76.0201
13.977877254034569 74.9268
14.000343367582113 74.1044
14.022827546871707 73.4465
14.045294743423524 72.502
14.06778000837062 72.0426
14.090265817715476 71.9923
14.112734645763819 71.5298
14.13522154619454 71.0815
14.157691466286913 71.0433
14.180179461423874 71.04899999999999
14.202668005486178 70.5818
14.22513957064374 69.9326
14.247629214846473 69.5797
14.270101881097517 69.085
14.29259262906496 68.8564
14.315083930490205 69.1121
14.337558255389705 68.9352
14.360050666019726 68.9355
14.382526101071944 68.494
14.405019624534942 68.3853
14.427513705993134 67.9537
14.449990813291825 68.127
14.47248601302899 68.2741
14.49496423954951 68.25399999999999
14.517460561197822 68.1995
14.539939910570322 67.5945
14.562437357763558 68.086
14.58493536931253 68.5903
14.607416409993311 68.58
14.62991555254159 68.8456
14.652397725157423 68.991
14.674898002342799 69.4336
14.697398848433282 69.6607
14.719882725991326 71.4606
14.74238471217934 73.5762
14.764869730765593 76.9478
14.787372860692983 79.199
14.809876564079925 84.3522
14.83236330125751 90.8672
14.854868153850365 99.5197
14.877356041159485 113.92200000000001
14.899862046604186 132.648
14.922351087688757 160.261
14.944858249632887 195.03799999999998
14.967365991421232 223.44299999999998
14.989856770231246 231.68900000000002
15.012365673994204 214.55200000000002
15.03485761569738 176.106
15.05736768508665 132.734
15.07987833888692 101.656
15.102372032001655 82.8544
15.124883856909658 73.7282
15.14737872204565 70.6028
15.169891721717274 69.3319
15.192405310371893 68.9994
15.214901940621196 68.5126
15.237416709527137 67.8536
15.259914520936249 67.71600000000001
15.282430473753607 67.1191
15.304947020131227 66.5018
15.327446610371178 66.3009
15.349964346154254 66.0003
15.372465126703139 66.0927
15.394984055556009 65.5345
15.417486030076159 65.2138
15.44000615566487 65.0075
15.462526881230803 64.8655
15.485030653812652 65.0127
15.507552581617434 65.0117
15.530057557334603 64.6678
15.55258069104857 64.8152
15.575104429329837 65.2175
15.597611216864632 65.4524
15.620136166564563 66.2349
15.6426441664095 67.9023
15.665170331202765 70.127
15.687697105158826 72.9636
15.710206930593545 76.3808
15.732734925158933 80.9592
15.755245972089478 87.3346
15.77777519094324 96.6046
15.800287463046663 109.794
15.822817909869592 129.692
15.84534897229804 153.016
15.867863089299354 180.69099999999997
15.890395385222186 198.581
15.912910736597423 196.887
15.935444269699861 175.91
15.957978423016485 140.499
15.980495633101265 108.84100000000001
16.003031029129367 84.9166
16.02554948280019 70.62899999999999
16.048086125229432 64.5718
16.070623392487107 62.5845
16.09314371869582 61.4737
16.11568223789321 60.6083
16.13820381691126 59.9723
16.160743591742527 59.5527
16.183283996022084 59.1327
16.205807461423195 58.5764
16.228349126881973 57.9283
16.25087385432698 57.7206
16.27341678466365 57.0866
16.29594277784926 56.8785
16.31848697676433 56.5782
16.341031811604868 56.0409
16.36355971058487 56.1733
16.3861058195587 55.9524
16.40863499352978 55.4258
16.431182380342005 55.2251
16.453730407713202 55.1165
16.476261501364792 54.879
16.498810812136167 54.5532
16.52134319004079 54.6855
16.54389378792203 54.4255
16.566445031001553 54.3528
16.588979342490088 54.3103
16.61153187824822 54.1921
16.634067483263312 53.9092
16.656621315414416 53.9717
16.679175797408888 53.8457
16.701713349928728 53.7081
16.72426913389191 53.9888
16.74680798922351 53.8029
16.76936507887444 53.6432
16.791905240734874 53.7676
16.814463639794468 53.6467
16.837022695210294 53.8167
16.859564824093756 53.9848
16.882125194503903 53.8403
16.904668639217885 54.1422
16.927230328348003 54.1712
16.949792678493612 54.5027
16.972338104193863 54.4159
16.994901778652235 54.43899999999999
17.017448529496576 54.7728
17.040013531998152 55.3142
17.06257920018044 55.7401
17.0851279459922 56.3507
17.107694947817667 57.4483
17.130245028099072 58.325
17.15281336730298 59.4598
17.17536478578733 61.1439
17.19793446610687 63.3893
17.220504818648422 66.7253
17.243058251703697 70.2646
17.265629950971032 74.9533
17.288184731571736 80.7444
17.310757781306908 83.3191
17.33333150794385 83.2257
17.355888317140174 79.8058
17.37846339986244 72.9555
17.401021565958885 66.9319
17.42359800851343 62.489
17.44617513265564 59.8675
17.468735341390783 58.9544
17.491261035594565 58.4048
17.51396340099364 58.0986
17.536490463869136 58.208
17.559018209820174 58.1172
17.58154663977963 58.5638
17.604251766089718 58.5389
17.626781572227713 58.6476
17.64931206518155 58.9779
17.671843245885103 59.1719
17.69455114821572 59.31399999999999
17.717083712612634 59.7299
17.739616967569667 60.0075
17.762150914021706 60.5664
17.78486160749854 60.8871
17.807396945166804 62.0077
17.829932977143503 63.3801
17.85246970436452 64.7234
17.875183204129467 66.3056
17.897721330097664 68.3853
17.920260154126645 70.6413
17.942799677153296 73.8887
17.9655159983646 77.5645
17.988056927677544 83.2778
18.010598558807683 91.3994
18.033140892692916 102.11399999999999
18.05586005052525 114.625
18.07840379824407 128.531
18.10094825154059 138.8
18.12366954819864 142.716
18.146215420998306 137.066
18.16876200220057 124.198
18.191309292745153 108.73700000000001
18.214033452627167 95.1276
18.236582170236648 86.31299999999999
18.259131600016456 83.4598
18.281681742907335 85.4041
18.304408781233683 90.6606
18.32696035875955 97.3585
18.349512652227624 102.333
18.372065662579683 106.59299999999999
18.394795594587553 105.069
18.41735004715306 98.6892
18.43990521943684 89.588
18.46246111238171 80.4415
18.485193953325208 71.9639
18.507751296070428 66.3325
18.530309362314178 63.7413
18.552868153000343 62.1317
18.57560391815056 61.0161
18.59816416623245 60.7174
18.620725141597372 60.3335
18.643286845190268 59.8617
18.666025549835414 59.3827
18.688588718427933 58.8335
18.711152618092243 58.8325
18.73389353884365 58.6157
18.75645890921984 58.0204
18.77902501351406 57.7319
18.801591852673102 57.7014
18.824335739722738 57.2137
18.846904057212626 57.2751
18.8694731124168 56.9336
18.89204290628315 56.9106
18.914789774966803 56.6512
18.937361054791623 56.5064
18.959933076131318 56.3141
18.982505839934877 56.1704
19.00525570560582 56.1517
19.027829963004184 55.9576
19.05040496572238 56.1078
19.072980714710468 56.2136
19.095733592739563 56.3386
19.11831084296757 56.5298
19.140888842324735 56.9802
19.16346759176222 57.081
19.18622349753803 57.5389
19.208803755869358 58.693000000000005
19.231384767143577 59.9297
19.253966532312948 61.5434
19.276725481241822 63.8365
19.29930876296784 66.5165
19.3218928014549 69.7524
19.34465404436217 72.9594
19.36723960516257 75.0938
19.389825925592426 75.4965
19.412413006605938 72.7391
19.43517731967805 68.6425
19.457765930683355 64.0043
19.48035530514408 59.8412
19.50294544401556 56.8011
19.525712842708348 54.6241
19.54830451925909 53.7376
19.570896963095727 53.1688
19.593490175174704 53.0669
19.616260674962184 53.1275
19.638855432416964 52.7221
19.661450960992624 52.9962
19.68404726164677 52.8929
19.706820878021247 52.6185
19.729418731756834 52.7485
19.752017360452857 52.4419
19.77461676506804 52.9117
19.797393513540218 53.1811
19.819994478951667 53.3252
19.84259622316767 53.6627
19.8651987471481 54.1187
19.887978643247177 54.3703
19.91058273574792 54.7274
19.933187610901943 55.6029
19.955969879466828 56.8383
19.97857632894404 58.4621
20.00118356396599 60.3872
20.023791585494575 62.803000000000004
20.046577028914875 65.7815
20.069186632506966 68.1883
20.091797025500632 70.1068
20.114408208858933 70.113
20.137196842715273 69.1496
20.159809615886765 66.5421
20.18242318232135 63.5355
20.20503754298326 61.4532
20.227829382875154 60.9754
20.250445341109344 61.3782
20.27306209647285 62.4756
20.29567964993108 64.0119
20.31847471147704 64.9443
20.34109387027612 65.7492
20.363713830075454 64.4101
20.386334591841646 62.1336
20.409132890679302 58.7861
20.431755265564437 55.8821
20.454378445325528 53.2922
20.477002430930366 51.71
20.499803982716553 50.5736
20.522429589228004 50.0617
20.54505600449589 49.5953
20.567683229489194 49.4571
20.590488049900088 49.3756
20.61311690359731 49.3223
20.63574656993626 49.257
20.658553853717297 48.7077
20.681185154618298 48.858999999999995
20.703817271080066 48.6348
20.72645020407368 48.3005
20.749260783967177 48.3156
20.771895359337133 48.1167
20.794530754161617 48.1782
20.817166969412938 48.0804
20.83998086114876 48.0396
20.86261872660049 48.1085
20.885257415405402 48.0232
20.90789692853701 47.9459
20.930714147864748 47.9772
20.953355319030678 48.068999999999996
20.97599731745334 48.1241
20.99864014410749 47.9273
21.021460706796564 47.7909
21.044105199328826 48.0998
21.06675052302631 48.3646
21.089396678865015 48.393
21.112220600704806 48.8201
21.134868430275347 49.148
21.15751709492456 49.468
21.180166595629693 49.8992
21.202993892429635 50.5205
21.22564507473034 50.8053
21.24829709602816 50.8738
21.27112693608965 50.7257
21.293780644891275 50.5802
21.316435195634053 49.7159
21.339090589297417 48.9289
21.361923832041875 48.4363
21.384580921090404 47.9158
21.407238856007325 47.7679
21.429897637773326 47.7346
21.45273429906592 47.6603
21.475394784108598 47.7303
21.498056118951983 47.6512
21.520718304578022 47.9681
21.543558400304388 48.1786
21.566222297108816 48.5287
21.58888704765135 48.6017
21.61155265291521 48.6782
21.63439619898156 49.2397
21.657063523335786 49.6507
21.67973170537063 49.9376
21.7024007460706 50.3902
21.72524775840385 51.2343
21.747918526116475 52.2284
21.770590155457388 53.3791
21.79326264741238 55.1157
21.816113141960237 56.9513
21.838787368860547 59.3074
21.861462461341976 61.3419
21.884315579735777 63.6108
21.90699241312273 64.5885
21.92967011506078 64.3149
21.95234868653799 62.7069
21.9752053151131 60.8108
21.997885635446785 58.7849
22.020566828293532 56.9383
22.04324889464272 55.8023
22.066109049404666 55.3777
22.088792872571794 55.3125
22.111477572219204 55.57899999999999
22.1341631493376 55.6357
22.157026846313123 55.0194
22.179714188221507 54.0287
22.202402410582668 52.8324
22.22509151438863 51.1832
22.24795876962584 50.1702
22.270649646204486 49.1862
22.293341407213727 48.6433
22.316034053646906 48.3484
22.338904883215342 48.1971
22.36159931041458 48.1056
22.38429462602756 48.1325
22.40699083104897 47.8766
22.429865251039757 47.8104
22.452563244831367 47.784
22.47526213102522 47.7766
22.49813925616515 47.9359
22.520839937143307 48.0317
22.543541513520587 47.9144
22.56624398629403 47.8454
22.589124730075895 47.926
22.611829005656723 48.1574
22.63453418063466 48.1447
22.657240256008077 48.3488
22.680124634582935 48.4383
22.70283252079775 48.6676
22.725541310413075 48.8386
22.74825100442868 48.9631
22.771139033969575 49.7051
22.79385054687155 49.9333
22.81656296718292 50.5015
22.83927629590484 51.3995
22.862167992606945 52.3044
22.88488314827121 53.6829
22.907599215359284 55.1892
22.93031619487366 56.3131
22.953211574954405 57.2276
22.975930389478226 57.6565
22.998650119445763 57.3543
23.02137076586092 56.0927
23.044269845560063 54.3308
23.06699233506288 52.3814
23.089715744034912 50.9562
23.112617610931565 49.5164
23.135342869061212 48.7102
23.158069049684816 48.2766
23.1807961538087 47.9351
23.20370174880544 48.063
23.226430710184808 48.0859
23.249160598093425 48.1634
23.271891413539002 48.1801
23.294800752937697 48.1641
23.31753343374794 48.4631
23.340267045128353 48.4607
23.36300158808808 48.9516
23.38591468821339 49.2739
23.408651104658304 49.7441
23.431388455719986 50.2734
23.454126742409 51.1736
23.4770436196085 52.3481
23.499783787914662 53.6065
23.522524894889884 55.0819
23.54526694154616 56.5177
23.56818761219047 57.4774
23.59093154860734 57.5827
23.613676427751283 57.633
23.636422250635754 55.8489
23.659346731118656 53.7336
23.68209445191868 51.8389
23.704843119509587 49.6459
23.72759273490623 48.0401
23.750521041644767 46.9447
23.77327256312355 46.1237
23.796025035462787 45.6747
23.818956224555475 45.339
23.841710609113413 45.2552
23.86446594758979 45.0754
23.887222241002014 44.8273
23.910157285144578 44.5929
23.932915498962537 44.4366
23.955674670778713 44.4594
23.978434801611975 44.3552
24.001373717286125 44.1667
24.024135776723917 44.0929
24.046898798245582 43.7878
24.06966278287146 43.7084
24.092605586582614 43.5901
24.115371508023642 43.5263
24.1381383956401 43.2784
24.16090625045381 43.1999
24.183852958731244 43.0655
24.206622758582608 43.1486
24.229393528706886 42.7847
24.252165270127392 42.9502
24.27511589952438 43.0401
24.297889594216997 42.6904
24.32066426328598 42.5992
24.34343990775613 42.7429
24.36639447485003 42.5211
24.38917208083877 42.4594
24.41195066531332 42.4822
24.43490819850244 42.3982
24.457688750692377 42.2349
24.48047028445616 42.3717
24.503252800821233 42.5243
24.526214300784112 42.4701
24.548998793132213 42.493
24.57178427117417 42.3345
24.59457073593893 42.375
24.617536219319863 42.2668
24.64032466834748 42.1925
24.663114107195035 42.1111
24.685904536893013 41.8585
24.708874020360852 41.7168
24.731666442613744 41.6414
24.754459858818787 41.6966
24.777254270007962 41.7122
24.80022777025625 41.6287
24.82302418230472 41.474
24.845821592443674 41.6714
24.86862000170663 41.6692
24.891597535453727 41.5236
24.914397953892728 41.769
24.93719937456671 41.6332
24.96000179851076 41.7779
24.98298338249997 42.0058
25.00578782394922 42.2719
25.028593271784167 42.3956
25.05157790644186 42.5785
25.07438537804115 42.8055
25.097193859145293 43.1331
25.120003350792075 43.3735
25.142992065061257 43.7898
25.165803588823465 43.8681
25.18861612625217 43.8841
25.211429678386736 43.9299
25.234422489079968 44.0102
25.257238081693636 44.1812
25.280054692141732 44.1676
25.3028723214652 44.2016
25.325869245420463 44.3306
25.348688923599397 44.4258
25.371509623787006 44.2835
25.394331347025812 43.7249
25.41733240110666 43.1136
25.440156181590016 42.3756
25.46298098826268 41.9306
25.48580682216873 41.3066
25.50881202326435 40.9344
25.53163992281684 40.6417
25.55446885274561 40.4226
25.577298814096377 40.1524
25.600308179121807 40.1461
25.623140214533745 40.2849
25.64597328451537 40.1255
25.66898578564376 39.9052
25.691820936010206 39.9493
25.714657124097695 39.8894
25.737494350954734 39.7951
25.760511045684957 39.7239
25.783350361364224 39.8214
25.806190718969255 39.885999999999996
25.82903211955018 39.8903
25.852053024868923 39.8679
25.874896522722523 39.9062
25.897741066713106 39.9885
25.920586657892454 40.189
25.943611790812668 40.2697
25.966459487728237 40.3032
25.989308234998564 40.3898
26.01215803367705 40.84
26.03518741123814 41.1223
26.05803932412957 41.1324
26.080892291600094 41.0935
26.10374631470478 41.0614
26.12677995397268 41.1214
26.14963609978026 41.0952
26.172493304397875 40.6148
26.19535156888223 40.3134
26.218389486949604 39.8638
26.241249882640123 39.7072
26.26411134137826 39.686
26.28715248187403 39.6962
26.31001607820869 39.4084
26.3328807407756 39.3395
26.35574647063438 39.5635
26.37879191991473 39.5836
26.401659795896734 39.6192
26.424528742360263 39.7232
26.447398760366614 39.806
26.470448535598294 39.9216
26.49332070826805 40.1236
26.516193955675355 40.611
26.53906827888316 40.6148
26.562122397260108 40.9251
26.584998883685063 41.2875
26.607876449110325 41.4831
26.63075509460056 41.5852
26.65381357334404 41.8342
26.67669439061878 41.6328
26.699576291163382 41.2834
26.722459276044212 41.2085
26.745522132402975 40.9105
26.768407297649354 40.6947
26.791293550442003 40.3758
26.814180891848974 40.1058
26.837248143099337 39.8334
26.860137673466657 39.9644
26.88302829566349 39.5293
26.90592001075963 39.1648
26.92899167420566 39.1637
26.951885586870763 38.7968
26.974780595655517 38.5993
26.99785558178161 38.3804
27.020752794605112 38.3279
27.043651106772522 38.2934
27.06655051935668 38.2741
27.089629948036183 38.1906
27.112531573292053 38.1981
27.135434302194138 38.1315
27.158338135817015 37.9173
27.181422024430987 37.9588
27.204328079372566 37.7832
27.22723524226965 37.8956
27.250143514198573 38.0201
27.273231880156334 37.9603
27.296142382065014 37.8538
27.319053996245536 37.7551
27.341966723775965 37.8475
27.365059584515222 37.8669
27.38797455070062 38.0141
27.410890633481237 37.8575
27.433807833936918 37.9671
27.456905206923906 38.0152
27.47982465472398 37.9724
27.502745223449743 38.0583
27.525666914182825 38.075
27.548768816912457 37.9869
27.571692763693633 37.968
27.59461783573812 37.9154
27.617723149491244 37.6962
27.640650484125285 37.6044
27.66357894728264 37.5251
27.686508540048052 37.4882
27.709618414237887 37.3526
27.732550278321757 37.2798
27.755483275279115 37.3684
27.778417406196485 37.4685
27.801531858397514 37.4106
27.824468269376716 37.3288
27.847405817586786 37.2132
27.870344504116094 37.5919
27.893463551932008 37.5534
27.916404527281053 37.8216
27.93934664422563 37.8981
27.962289903855886 38.0545
27.98541356491974 38.2462
28.00835912214229 38.3792
28.03130582533231 38.6904
28.054253675581805 38.7778
28.077381967556104 38.6272
28.100332124185126 38.4187
28.123283431160893 38.3024
28.146235889577238 38.1855
28.169368830154156 37.9887
28.192323603752033 37.8773
28.215279532083304 37.6223
28.238415973016764 37.305
28.261374223145094 37.2081
28.284333631303806 36.9786
28.307294198589954 36.8348
28.330435319167677 36.493
28.353398217078915 36.1286
28.376362277420153 36.0637
28.39932750129032 35.9834
28.422473319286713 35.6932
28.44544088262495 35.7323
28.468409612800283 35.7355
28.491379510913497 35.4661
28.51453004413313 35.4212
28.53750229057244 35.4331
28.56047570826344 35.2539
28.583450298308804 35.2889
28.606605564586562 35.0916
28.629582511831156 35.1117
28.65256063474956 35.0641
28.675539934446338 35.1865
28.698699951647605 35.2015
28.72168161743193 34.9109
28.74466446331978 34.9634
28.767648490417624 34.9499
28.790813276438353 34.9309
28.813799678527303 34.843
28.836787265157085 34.9044
28.859955641890075 34.9668
28.882945610203045 34.93
28.905936766392035 34.7806
28.928929111566863 34.8086
28.952102288520145 34.7401
28.975097024308607 34.6776
28.998092952423807 34.381
29.021090073977508 34.3426
29.04426806913204 34.2705
29.067267590245258 34.1692
29.090268308143695 34.1235
29.11327022394099 33.9797
29.13645305530891 33.8474
29.159457379627167 33.7569
29.18246290519685 33.6365
29.20546963313352 33.7731
29.22865731875826 33.8198
29.25166646419296 33.8312
29.27467681535305 33.7164
29.29768837335608 33.8465
29.320880931312562 33.8895
29.34389491580634 33.7349
29.366910110507334 33.6856
29.38992651653503 33.757
29.41312396492981 33.8149
29.436142806456754 33.5226
29.45916286268059 33.6048
29.48236399319994 33.4221
29.50538649169417 33.2455
29.528410208259935 33.1668
29.55143514402014 32.9773
29.574641196749695 32.7713
29.597668583816574 32.6796
29.6206971934585 32.5779
29.64372702680042 32.6489
29.666938019934474 32.571999999999996
29.689970313635285 32.4642
29.713003834422636 32.5426
29.73603858342347 32.3524
29.759254535188578 32.2911
29.78229175361658 32.2558
29.80533020365064 32.263000000000005
29.82836988641968 32.3652
29.85159081507472 32.2485
29.874632976355343 32.2188
29.89767637376955 32.2949
29.920721008448314 32.2814
29.9439469322847 32.1377
29.96699405457564 32.0699
29.9900424175358 32.0331
30.013092022298157 32.0421
30.03632295963995 31.8924
30.059375061131373 32.0047
30.08242840783577 32.1246
30.105483000888153 32.2086
30.128718970092244 31.9785
30.151776069006917 31.8323
30.17483441768648 31.9483
30.198074175317235 31.9998
30.221135036724256 31.9411
30.24419715131772 31.85
30.267260520236203 31.8048
30.290505341942243 31.9024
30.313571232750228 31.8695
30.336638381310948 31.7922
30.35970678876503 31.7439
30.38295669299435 31.7056
30.40602763151657 31.6813
30.429099832366074 31.6999
30.452173296685572 31.6407
30.47542830191959 31.6121
30.498504306502497 31.5787
30.521581577995562 31.6368
30.544660117543582 31.7511
30.56792024229725 31.6739
30.59100133132069 31.66
30.614083691845494 31.6953
30.637167325018545 31.8016
30.660432587840603 31.8045
30.683518779717886 31.655
30.70660624769615 31.7666
30.729694992924372 31.8389
30.75296541239743 31.8265
30.77605672557558 31.7483
30.799149319462742 31.6385
30.8224236211637 31.5096
30.845518789950724 31.3142
30.868615242910597 31.3945
30.891712981195973 31.2311
30.91499247215866 31.0971
30.938092794619365 31.0966
30.96119440587579 31.0334
30.984297307082752 30.9391
31.00758200598383 30.7941
31.030687500658694 30.7129
31.053794288760695 30.6256
31.076902371446767 30.572
31.100192296997445 30.6511
31.12330298246119 30.6484
31.14641496599209 30.509
31.169528248749216 30.4699
31.19282341969534 30.5488
31.215939314557186 30.5035
31.239056512134788 30.4793
31.262175013589378 30.505
31.28547544871168 30.4063
31.30859657161541 30.2766
31.331719001892175 30.3558
31.35484274070538 30.4969
31.378148458819545 30.459
31.401274828443725 30.3738
31.424402510106933 30.4749
31.447712205419993 30.4929
31.470842524931633 30.3956
31.493974159989783 30.3887
31.51710711176168 30.2359
31.54042212308802 30.2708
31.563557722100917 30.2707
31.586694641341655 30.108
31.609832881979628 29.9745
31.63315322823208 30.0095
31.656294125521327 29.8413
31.679436347728515 29.8578
31.70257989602529 29.785
31.725905596152327 29.7631
31.74905181052835 29.6689
31.772199354521323 29.6772
31.79534822930507 29.7691
31.818679302290967 29.7928
31.84183085259981 29.7421
31.864983737233473 29.8401
31.88813795736804 29.7743
31.911474422233013 29.5365
31.934631327356435 29.6211
31.9577895715215 29.615
31.980949155906522 29.5871
32.004291031706956 29.5037
32.027453310562606 29.482
32.05061693318573 29.2742
32.07396288236386 29.3832
32.09712920658542 29.209
32.12029687812702 29.084
32.14346589817093 29.1025
32.166817291729984 29.0736
32.18998902288583 28.9541
32.21316210610336 28.9148
32.23633654256711 28.8575
32.259693399663725 28.7544
32.282870556771144 28.7052
32.30604907069099 28.6576
32.329228942610065 28.7301
32.35259128243769 28.6459
32.375773884550505 28.5299
32.398957848235646 28.4915
32.422143174682176 28.4521
32.445511016471215 28.3043
32.468699082679954 28.3299
32.49188851523011 28.1619
32.51507931531304 28.0909
32.538452678331 28.2457
32.56164622776311 28.1415
32.58484114831493 27.9459
32.60803744118015 28.0656
32.631416344731896 28.0708
32.654615396551876 28.0681
32.67781582427913 27.9497
32.701198898634416 27.7913
32.72440209253756 27.8041
32.747606665947124 27.7883
32.77081262006088 27.7551
32.79420126883317 27.7669
32.81740999876112 27.7959
32.840620112999424 27.645
32.86383161274818 27.5788
32.88722585534586 27.5847
32.91044014056596 27.6601
32.933655814909734 27.5892
32.95687287957963 27.6179
32.98027273544904 27.4947
33.00349259526636 27.3993
33.026713849030116 27.4813
33.04993649794511 27.435
33.073341986570746 27.3214
33.09656744032826 27.3828
33.11979429286444 27.3218
33.14302254538647 27.3079
33.166433686291185 27.3773
33.18966475336992 27.2996
33.212897224069096 27.2409
33.23613109959831 27.1513
33.259547912343415 27.1806
33.2827846121627 27.2055
33.306022720453775 27.1032
33.32926223842861 26.9577
33.352684742614166 26.9672
33.37592709463173 26.8741
33.399170859982064 26.7986
33.422597648419426 26.8523
33.44584425514446 26.7034
33.46909227885668 26.6232
33.4923417207723 26.5401
33.51577423505344 26.5971
33.539026528130385 26.4938
33.56228024307245 26.5403
33.585535381098246 26.3519
33.60897364093058 26.3241
33.63223163992385 26.3118
33.6554910656699 26.2676
33.678751919389796 26.2166
33.702195944520106 26.1365
33.72545966903325 26.2212
33.74872482519663 26.1338
33.771991414233746 26.1659
33.79544122444841 26.1341
33.81871069412428 26.0102
33.84198160035767 26.0415
33.86525394437455 26.0437
33.88870955949969 25.9597
33.911984794020626 25.8918
33.93526147001624 25.8754
33.958539588715006 25.8024
33.98200102861669 25.7233
34.0052820477047 25.675
34.02856451319451 25.6176
34.05203033759056 25.6115
34.07531571090147 25.6515
34.09860253431845 25.5649
34.121890809074316 25.5509
34.145362493118924 25.5249
34.16865368561615 25.4569
34.191946333164054 25.4505
34.21524043699793 25.3967
34.23871800066799 25.3847
34.26201503218366 25.2263
34.28531352370466 25.2827
34.30861347646881 25.1267
34.33209693978188 25.1147
34.3553998301885 25.0798
34.378704185565205 25.0211
34.402010007152356 25.0537
34.42549939016683 24.9673
34.44880815937748 24.9115
34.472118398533134 24.8889
34.49543010887669 24.8441
34.51892543169198 24.7862
34.54224009966052 24.7744
34.56555624255917 24.7478
34.58887386163339 24.6367
34.61237514439016 24.590999999999998
34.6356957311114 24.4986
34.65901779775809 24.5776
34.68252356662995 24.5706
34.705848608458616 24.5164
34.72917513396849 24.4369
34.75250314440949 24.4138
34.77601490857862 24.3493
34.799345904259795 24.3295
34.82267838863559 24.344
34.846012362958525 24.275
34.869530142679984 24.2562
34.89286711232212 24.1541
34.91620557568269 24.1615
34.93954553401677 24.16
34.9630693495876 24.0896
34.986412313340814 24.1466
35.00975677584668 24.1652
35.033102738362956 24.0491
35.05663261012228 24.0029
35.0799815881786 24.0315
35.10333207003229 23.9778
35.12668405694369 23.9215
35.150220005273056 23.8411
35.17357501786656 23.8968
35.19693153931268 23.8435
35.220289570874385 23.8027
35.24383161619786 23.7674
35.267192683604904 23.7184
35.290555264930376 23.6662
35.314101899412165 23.793000000000003
35.33746752422433 23.6629
35.36083466676374 23.684
35.38420332829803 23.6188
35.407756095629054 23.6381
35.43112781085063 23.6177
35.45450104888391 23.5838
35.477875810999194 23.583000000000002
35.50143473172161 23.5659
35.52481255774625 23.4726
35.54819191167777 23.4904
35.57157279478914 23.4614
35.595137889488406 23.3872
35.61852184675279 23.365
35.641907337029984 23.2733
35.665294361595684 23.2426
35.68886565090076 23.2211
35.7122557598848 23.1241
35.73564740699838 23.1913
35.759040593519934 23.0822
35.78261809810353 23.0828
35.80601437933051 23.0093
35.829412203814705 23.0244
35.85281157283719 22.9055
35.876395313415884 23.0323
35.8997977874528 22.9141
35.92320180988546 22.857
35.946790244133936 22.7744
35.97019737933222 22.8216
35.993606066789866 22.698
36.01701630779276 22.7521
36.04061101440684 22.7644
36.06402437852291 22.6681
36.08743930005611 22.6469
36.1108557802951 22.5419
36.13445678011326 22.5335
36.15787639383515 22.5582
36.18129757014299 22.5542
36.20472031032821 22.5
36.22832762423364 22.4747
36.25175350829375 22.3747
36.275180960119776 22.2657
36.298609981005924 22.2895
36.32222362992669 22.3273
36.34565580510207 22.2
36.36908955323448 22.2678
36.39252487562093 22.1226
36.416144880530226 22.0749
36.43958336764275 22.1136
36.463023432914625 22.1554
36.486465077645676 22.053
36.51009145956204 22.0413
36.53353627947859 22.0453
36.55698268276811 22.0291
36.58043067073321 21.945
36.60406345072071 21.8901
36.62751462435344 21.9222
36.65096738658405 21.8781
36.67460498210655 21.8298
36.69806093788647 21.7953
36.72151848619297 21.6779
36.744977628333636 21.7567
36.76862165890998 21.5962
36.79208400512205 21.5938
36.81554794910557 21.6527
36.83901349217101 21.4988
36.862663978991606 21.5023
36.88613273667352 21.4805
36.90960309738324 21.4967
36.933075062434064 21.37
36.95673202673572 21.3877
36.98020721697122 21.3438
37.003684015502365 21.2535
37.027162423645365 21.2715
37.050825886711465 21.2468
37.07430753063053 21.1999
37.09779078812467 21.1482
37.121275660513014 21.148000000000003
37.144945643673694 21.1411
37.16843376245278 21.0443
37.19192350009803 21.0572
37.215414857931435 21.0036
37.239091382563885 20.9772
37.262585997426164 20.9472
37.28608223645736 20.929000000000002
37.309763684451696 20.9333
37.33326318851098 20.8568
37.356764320726555 20.8366
37.380267082425526 20.8136
37.40395510942588 20.7782
37.42746114683234 20.6787
37.45096881771841 20.6062
37.474478123414166 20.6392
37.49817275092816 20.6261
37.52168534303452 20.6375
37.54519957395567 20.5295
37.568715445024665 20.5275
37.592416694607714 20.4884
37.61593586281424 20.5394
37.63945667518264 20.5323
37.66297913304891 20.372
37.68668702630454 20.3677
37.710212792059274 20.2531
37.733740207334854 20.2512
37.757269273470364 20.2479
37.780983832050374 20.1771
37.80451621684926 20.1903
37.82805025654007 20.1692
37.851585952464795 20.0697
37.8753071980695 20.0742
37.89884622345676 20.0941
37.92238690911902 19.9883
37.94611318753442 19.9931
37.969657210779765 19.9676
37.99320289834801 19.9673
38.016750251586465 19.893
38.04048325513017 19.8038
38.06403395679343 19.8528
38.087586328183946 19.7801
38.11114037065203 19.8039
38.13488012115898 19.7559
38.1584375229181 19.6834
38.181996599821 19.6198
38.205557353221124 19.6471
38.229303872575656 19.6508
38.2528679961576 19.5912
38.27643380031219 19.5414
38.30000128639589 19.4967
38.32375459653193 19.5567
38.34732546371299 19.5271
38.37089801690786 19.4211
38.39447225747609 19.3714
38.418232380377425 19.2849
38.441810012983396 19.348
38.46538933705673 19.2994
38.488970353960084 19.2366
38.51273731166058 19.2418
38.536321731567014 19.1774
38.55990784840681 19.1184
38.58367995004091 19.1343
38.60726947812959 19.072
38.63086070726198 19.1149
38.654453638806274 19.072
38.678232613930824 19.0663
38.70182896773327 18.961
38.72542702806741 18.9306
38.7490267963045 18.9433
38.77281266709232 18.9463
38.79641586862214 18.8646
38.8200207821842 18.8436
38.843627409152944 18.8217
38.86742019782782 18.7947
38.891030269149255 18.7352
38.914642058016156 18.6939
38.938255565806124 18.6622
38.96205529464307 18.6526
38.98567225787121 18.6631
39.00929094417078 18.6662
39.03291135492255 18.5823
39.05671804624804 18.5723
39.080341923549106 18.5544
39.103967529460334 18.535999999999998
39.127594865365744 18.461
39.15140854155791 18.3428
39.17503935514948 18.3608
39.19867190290282 18.4121
39.22249083587951 18.3399
39.24612686969409 18.3405
39.269764641845306 18.3181
39.293404153722804 18.2963
39.317230110864074 18.1536
39.34087311998506 18.1934
39.36451787301696 18.2346
39.388164371352595 18.1271
39.41199737518003 18.1161
39.43564738196752 18.0455
39.45929913825317 18.0443
39.48295264543308 18.0541
39.506792718520884 18.0512
39.530449745387216 17.9141
39.55410852735203 17.9363
39.57776906581474 17.9523
39.60161623079 17.9043
39.625280300200025 17.8912
39.64894613032202 17.822
39.67261372255866 17.8412
39.6964680021016 17.8144
39.72013913657293 17.8378
39.74381203738292 17.7134
39.76748670593756 17.7059
39.79134812278169 17.7126
39.81502634488497 17.6842
39.83870633896685 17.6555
39.862388106436654 17.596
39.88625668336918 17.5076
39.90994201572829 17.5015
39.933629125719285 17.4761
39.957503091207826 17.4412
39.9811937746168 17.4601
40.00488623990914 17.4249
40.02858048850006 17.3467
40.05246165409549 17.3281
40.076159487492085 17.3296
40.099859108448875 17.3116
40.123560518384345 17.2735
40.1474489070226 17.2226
40.171153913178564 17.1704
40.194860712584955 17.1712
40.2185693066637 17.1729
40.242464941335314 17.1031
40.26617714307655 17.109
40.289891143772046 17.0958
40.3136069448471 17.07
40.33750984859743 17.0773
40.3612292688043 17.0033
40.3849504936829 17.0167
40.40867352466194 16.9775
40.43258372059144 16.914
40.45631038219906 16.9647
40.48003885420956 16.871
40.503769138055105 16.8289
40.52768664931955 16.8074
40.55142057531802 16.7962
40.57515631746428 16.7273
40.599079334038514 16.7638
40.62281872700477 16.6977
40.64655994043941 16.6784
40.67030297578061 16.6402
40.69423334835778 16.6398
40.71798004609188 16.6074
40.74172857006355 16.5991
40.76547892171441 16.6036
40.7894166736039 16.5295
40.813170699248566 16.4816
40.83692655691388 16.4842
40.86068424804498 16.4817
40.884629402612525 16.4546
40.908390779366385 16.4479
40.932153993938 16.3631
40.95591904777605 16.3173
40.979871628443995 16.3461
41.003640379561936 16.3472
41.02741097430883 16.2775
41.05118341413683 16.2602
41.075143444384416 16.2373
41.098919593177826 16.2073
41.1226975914255 16.1981
41.14647744058318 16.1519
41.170444943946755 16.0748
41.19422851378379 16.0737
41.218013938914645 16.0902
41.24198706625173 16.0073
41.26577622087193 15.9336
41.289567235177785 15.9565
41.31336011063129 15.9768
41.337340752422875 15.9416
41.361137369129835 15.9065
41.38493585138705 15.8935
41.40873620066004 15.8342
41.43272438060107 15.8108
41.45652848292052 15.7721
41.48033445666918 15.7471
41.50414230331616 15.7176
41.528138045159764 15.7152
41.551949656675205 15.6607
41.575763145513235 15.6079
41.59957851314666 15.6227
41.62358184070442 15.6379
41.64740098505737 15.6045
41.6712220126409 15.5509
41.69504492493139 15.4704
41.71905586207357 15.4907
41.74288256296395 15.4338
41.766711153007456 15.462
41.79054163368412 15.3999
41.814560204340054 15.3909
41.838394485526365 15.3741
41.86223066180303 15.3561
41.88625497706819 15.3041
41.910094962812 15.289000000000001
41.93393684811168 15.2479
41.95778063445365 15.2004
41.981812625263366 15.1955
42.00566023303407 15.2041
42.029509746323676 15.13
42.05336116662236 15.1474
42.077400857069705 15.1381
42.10125611078846 15.0853
42.12511327600405 14.9819
42.14897235421036 15.0315
42.173019768448455 15.0019
42.19688269209613 14.9695
42.22074753323349 14.9697
42.24461429335818 14.929
42.268669455600495 14.8869
42.292540073217886 14.8696
42.31641261433284 14.8649
42.34028708044675 14.8511
42.36435001496739 14.8554
42.38822835065557 14.8218
42.41210861586426 14.7718
42.4359908120986 14.7621
42.46006154323262 14.7189
42.48394762115317 14.6341
42.507835634632315 14.6716
42.531912233047436 14.6806
42.55580413732265 14.6081
42.579697981698 14.572000000000001
42.60359376768525 14.5421
42.62767820545945 14.550999999999998
42.65157789440821 14.509
42.67547952952185 14.4865
42.699383112316 14.4511
42.72347541395347 14.4292
42.74738291190531 14.4202
42.771292362102166 14.4226
42.795203766063516 14.3642
42.819303956130405 14.3115
42.843219287476536 14.2735
42.86713657716324 14.3153
42.89105582671383 14.2304
42.91516392983864 14.1903
42.939087119032166 14.1751
42.963012272677304 14.1822
42.98693939230129 14.2019
43.01105543317513 14.1891
43.034986504731386 14.1469
43.05891954686589 14.0876
43.08285456110972 14.0655
43.10697856448665 14.0877
43.130917542983475 13.9695
43.15485849820081 14.0207
43.17880143167367 13.9056
43.20293342237094 13.9637
43.226880332449 13.9392
43.25082922540554 13.905999999999999
43.27496722682525 13.9122
43.29892010567796 13.8691
43.32287497204102 13.8563
43.34683182745632 13.7846
43.370977859791836 13.7883
43.39493871351105 13.7673
43.41890156092628 13.7758
43.44286640358341 13.6793
43.46702049182749 13.6897
43.49098934522816 13.6881
43.51496019852649 13.6378
43.5389330532723 13.6023
43.56309522248204 13.5969
43.58707210044314 13.6038
43.61105098451946 13.5253
43.63503187626491 13.4779
43.659202151562134 13.5081
43.68318707902681 13.4756
43.70717401884041 13.457
43.731162972560874 13.4234
43.75534137913236 13.4053
43.779334381108384 13.425
43.803329401683186 13.3901
43.82732644241872 13.34
43.8515130055166 13.3307
43.87551410707659 13.2984
43.89951723350145 13.2888
43.923709934595614 13.2751
43.94771713129917 13.2309
43.97172635758096 13.247
43.99573761501002 13.1629
44.0199385169922 13.1541
44.04395385732619 13.1195
44.067971233533086 13.127
44.09199064718605 13.0571
44.11619977548961 13.0643
44.14022328470671 13.0236
44.16424883610785 13.0482
44.18827643127035 12.9945
44.21249381139513 12.9814
44.236525514814076 12.9276
44.26055926674478 12.9162
44.28459506876863 12.925999999999998
44.3088207262813 12.8831
44.33286064928722 12.8758
44.35690262714919 12.8267
44.38094666145278 12.7923
44.4051806219871 12.8398
44.42922879003185 12.7713
44.45327901929361 12.7452
44.477331311362136 12.7269
44.501573600619416 12.6733
44.525630039221795 12.6688
44.54968854541895 12.7023
44.573937102200176 12.6549
44.5979997645541 12.6154
44.622064499300315 12.6212
44.64613130803592 12.5642
44.67038823869318 12.5845
44.69445921643748 12.5053
44.718532272981385 12.4688
44.742607409926194 12.5041
44.76687274034801 12.4432
44.79095205918753 12.4335
44.81503346325094 12.4108
44.839116954143876 12.4094
44.86339071028742 12.4091
44.88747839599524 12.3685
44.91156817336837 12.3426
44.93566004401666 12.3244
44.959942251908146 12.2979
44.984038330325966 12.3026
45.00813650686762 12.2149
45.03223678314731 12.2108
45.05652746888232 12.1267
45.08063196592069 12.1796
45.104738567558705 12.1554
45.128847275414856 12.1108
45.15314646515866 12.0659
45.17725940679741 12.0646
45.20137445952892 12.0533
45.22568004865265 12.0689
45.24979934496396 12.0101
45.27392075725247 11.9747
45.29804428714431 12.0098
45.322358426247604 11.9603
45.346486212804315 11.9181
45.370616121861914 11.9304
45.39474815505086 11.8994
45.41907087049246 11.8251
45.4432071734666 11.8293
45.46734560548283 11.8604
45.49148616817604 11.844000000000001
45.51581748638564 11.8119
45.5399623320197 11.7615
45.56410931325473 11.7435
45.58825843173002 11.7625
45.61259837920865 11.7198
45.636751793816 11.7248
45.66090735060093 11.6514
45.68506505120716 11.6655
45.7094136545275 11.6208
45.73357566449271 11.5696
45.75773982322992 11.6027
45.78190613238733 11.5728
45.806263418194064 11.5119
45.83043404997326 11.5557
45.85460683713677 11.5916
45.87897065658495 11.5219
45.90314777634752 11.5067
45.92732705646868 11.457
45.9515084986045 11.4256
45.97588104735473 11.46
46.00006683541565 11.4397
46.02425479047904 11.3801
46.04844491420549 11.3542
46.0728262191024 11.3191
46.09702070211635 11.2936
46.12121735879483 11.2816
46.14541619080294 11.284
46.169806278764455 11.2861
46.194009483459034 11.2273
46.21821486849841 11.24
46.24242243555223 11.2082
46.266821333570014 11.1685
46.29103328674601 11.1535
46.31524742696538 11.1249
46.33946375590237 11.1157
46.36387149104216 11.0631
46.38809221957392 11.0139
46.41231514186606 11.0202
46.436540259597464 11.0344
46.460956858999374 10.9971
46.48518638983522 10.9789
46.509418121166966 10.9772
46.533652054678114 10.9442
46.55807754555709 10.9111
46.58231590571962 10.9186
46.60655647313217 10.9054
46.630988654873654 10.8285
46.655233659129024 10.8189
46.67948087571551 10.8317
46.70373030632484 10.831
46.72817142736393 10.8077
46.752425308428684 10.7604
46.77668140861147 10.7296
46.80093972960865 10.6934
46.82538981736788 10.6968
46.849652602470904 10.7035
46.87391761349769 10.6715
46.8981848521493 10.6348
46.9226439341274 10.655999999999999
46.946915650573224 10.5655
46.97118959976749 10.5507
46.99546578341598 10.5467
47.019933887188216 10.5486
47.04421456235744 10.5542
47.06849747711879 10.4851
47.09278263318286 10.4708
47.11725978640143 10.4814
47.14154944775105 10.4426
47.165841355555656 10.4304
47.1901355115306 10.3776
47.214621741924994 10.379000000000001
47.23892041698887 10.379000000000001
47.26322134538975 10.3011
47.28771440635075 10.3206
47.31201986422527 10.3539
47.33632758061436 10.3207
47.360637557241866 10.2898
47.38513974410611 10.2748
47.40945426407847 10.2106
47.43377104948137 10.2339
47.45809010204344 10.2185
47.48260144275502 10.1599
47.506925052572285 10.1084
47.53125093475548 10.1437
47.55557909103813 10.1339
47.58009961361992 10.0671
47.60443234110732 10.059
47.62876734791564 10.0646
47.65310463578333 10.0314
47.6776343683373 10.0512
47.7019762413987 9.99815
47.72632040075572 9.99424
47.75066684815169 9.95992
47.77520581885936 9.918339999999999
47.799556865477655 9.88919
47.823910205386 9.92121
47.84826584033272 9.892489999999999
47.87281407745551 9.8637
47.89717432569297 9.89888
47.92153687423484 9.8957
47.94609208429692 9.83271
47.97045925671401 9.83345
47.99482873471275 9.80539
48.01920052005013 9.74985
48.04376504619224 9.74898
48.068141469543484 9.75549
48.09252020552573 9.75261
48.11690125590099 9.69407
48.1414751266064 9.68084
48.16586082917454 9.668560000000001
48.19024885144316 9.62107
48.2146391951793 9.64596
48.239222439012764 9.63083
48.26361744916137 9.6133
48.28801478610016 9.63868
48.31241445160131 9.56799
48.337007097209366 9.5536
48.36141144338331 9.53945
48.38581812345755 9.49227
48.41022713920929 9.52305
48.434829215320704 9.51037
48.45924292604658 9.5056
48.48365897780325 9.45474
48.50807737237308 9.41893
48.532688907799276 9.41838
48.55711201168574 9.41133
48.581537463754074 9.42039
48.60615611725119 9.395610000000001
48.63058628942721 9.365680000000001
48.65501881516546 9.35327
48.6794536962573 9.27627
48.70408185970339 9.26534
48.72852147531801 9.2866
48.75296345168211 9.26179
48.77740779059232 9.242469999999999
48.80204549302823 9.20691
48.82649458091802 9.21728
48.85094603676547 9.22906
48.87539986237231 9.1864
48.90004713292306 9.14453
48.92450572200832 9.13439
48.94896668628025 9.09437
48.97343002754588 9.09645
48.99808689542115 9.12796
49.02255501470614 9.099960000000001
49.04702551642794 9.05748
49.0714984023988 9.02032
49.096164896893235 9.00666
49.120642575466796 8.96725
49.145122643748394 8.96504
49.16960510355558 8.97757
49.19428125404938 8.96364
49.2187685210852 8.890419999999999
49.243258185121555 8.90327
49.26794160167084 8.90575
49.2924360839405 8.86035
49.31693296869764 8.87435
49.34143225776915 8.85685
49.36612538195438 8.820730000000001
49.39062950396021 8.81864
49.41513603578346 8.799619999999999
49.4396449792564 8.77797
49.46434784069503 8.752880000000001
49.488861631846454 8.74875
49.513377840166804 8.72931
49.537896467493745 8.6748
49.56260909589029 8.67494
49.587132585683285 8.65851
49.611658500018365 8.64812
49.636186840738596 8.62975
49.66090926588511 8.63733
49.685442483902584 8.56332
49.70997813385706 8.58555
49.734516217597076 8.580689999999999
49.75924846937352 8.52813
49.7837914452858 8.556510000000001
49.80833686055187 8.49048
49.83288471702571 8.52293
49.85762682540054 8.485439999999999
49.882179588965734 8.47308
49.9067347993235 8.47147
49.93129245833333 8.47534
49.95604445336378 8.433860000000001
49.98060703442832 8.37907
50.005172069746266 8.38925
50.02993150438364 8.40042
50.05450147301533 8.3644
50.07907390151433 8.365789999999999
50.10364879174981 8.318480000000001
50.12841816587289 8.29486
50.1529980044635 8.27
50.17758031042124 8.252410000000001
50.20216508562089 8.28604
50.22694442953363 8.242389999999999
50.25153416817468 8.238539999999999
50.27612638170508 8.22936
50.300721072005196 8.21665
50.325510416102105 8.17105
50.350110084975064 8.18881
50.37471223628208 8.19022
50.39931687190919 8.15183
50.424116246675766 8.12691
50.44872587605249 8.12255
50.47333799543065 8.098460000000001
50.49795260670191 8.09336
50.52276204271512 8.047089999999999
50.54738166295838 8.04365
50.57200378079314 8.02929
50.596628398116835 8.02228
50.62144792604559 7.99702
50.646077567609396 7.992310000000001
50.670709714377715 7.950660000000001
50.69553683636198 7.9432100000000005
50.72017401885922 7.93722
50.7448137122895 7.93076
50.76945591856022 7.93341
50.79429318636823 7.91085
50.818940443716784 7.86715
50.84359021965163 7.86397
50.868242516085964 7.860110000000001
50.893089960641895 7.83553
50.917747323549435 7.815939999999999
50.94240721271973 7.796130000000001
50.96706963007175 7.788010000000001
50.99192728239342 7.78848
51.01659478166073 7.80553
51.04126481489051 7.76951
51.06593738400761 7.7134100000000005
51.090805275207074 7.68443
51.11548294172845 7.6855899999999995
51.14016314993547 7.683330000000001
51.164845901758845 7.61975
51.18972406304274 7.63503
51.21441192780656 7.609039999999999
51.23910234200271 7.63077
51.2637953075678 7.57428
51.288683770237945 7.5646
51.31338186432707 7.553389999999999
51.33808251561888 7.569660000000001
51.362978729967345 7.569389999999999
51.387684521509755 7.536010000000001
51.41239287610203 7.5227699999999995
51.437103795691165 7.490410000000001
51.46201036644977 7.42517
51.486726441956634 7.46208
51.51144508832545 7.4222399999999995
51.536166307509156 7.425789999999999
51.56108326624387 7.42692
51.58580965706056 7.41811
51.61053862657523 7.38635
51.635270176746864 7.33988
51.66019755512065 7.346769999999999
51.68493429268881 7.30037
51.70967361681515 7.3313
51.73441552946465 7.3043
51.759353359237934 7.28187
51.7841004750961 7.30422
51.80885018539685 7.2879
51.833602492111254 7.26006
51.8585508051424 7.22295
51.883308330926425 7.207789999999999
51.90806845906181 7.2030899999999995
51.932831191525715 7.191110000000001
51.95779001977161 7.16029
51.98255798721516 7.153569999999999
52.00732856494335 7.16108
52.03229530577543 7.143619999999999
52.057071130455945 7.1326
52.081849571391054 7.1094
52.106630630568695 7.08648
52.13160794279417 7.0372699999999995
52.15639426492067 7.042739999999999
52.18118321127822 7.0122800000000005
52.205974783860896 7.021489999999999
52.23096269971011 7.02155
52.255759551287994 7.033739999999999
52.280559035098186 6.98429
52.30536115314103 6.95783
52.33035970494467 6.96546
52.35516711807904 6.9559
52.37997717147198 6.95978
52.40478986713005 6.92611
52.42979908731974 6.917619999999999
52.454617094216 6.90257
52.47943774942214 6.838489999999999
52.50426105495102 6.831289999999999
52.529280976059844 6.84115
52.554109609024096 6.81855
52.57894089837482 6.82063
52.60377484613117 6.7897
52.62880550079408 6.7691300000000005
52.65364479223379 6.7224
52.67848674816189 6.733439999999999
52.70352547971946 6.72888
52.72837279155837 6.719689999999999
52.753222773982785 6.6837
52.778075429022984 6.6907
52.80312495150885 6.70932
52.827982978797436 6.67506
52.85284368481815 6.63428
52.87770707160767 6.65879
52.90276741793998 6.6161
52.92763619336701 6.6117
52.952507655698504 6.616169999999999
52.977381806977576 6.62789
53.00245301017842 6.5644
53.02733256653592 6.55852
53.052214817996074 6.55673
53.077099766608484 6.54862
53.102181859804446 6.50403
53.127072229988265 6.52113
53.15196530349892 6.54707
53.17686108239249 6.53216
53.20195409881522 6.48185
53.22685531582556 6.4581599999999995
53.25175924441303 6.415030000000001
53.27666588664027 6.43631
53.30176985962693 6.44825
53.3266819565689 6.41501
53.35159677336455 6.3938
53.376514312083096 6.36325
53.40162927507703 6.3558900000000005
53.42655228516116 6.35485
53.45147802340193 6.33085
53.47660125628886 6.31229
53.50153247842639 6.32568
53.52646643496923 6.27888
53.55140312799818 6.245830000000001
53.576537409691696 6.25317
53.60147960336152 6.26537
53.626424539786164 6.21519
53.65137222105307 6.22221
53.67651758529126 6.23126
53.70147078399681 6.142119999999999
53.72642673383343 6.188219999999999
53.75138543689533 6.15872
53.776541917524526 6.12246
53.801506154876755 6.10085
53.826473151763246 6.0953
53.851442910284916 6.10807
53.87661054126026 6.123419999999999
53.9015858509782 6.125859999999999
53.92656392866066 6.092569999999999
53.95154477641532 6.1028199999999995
53.976723591801296 6.05558
54.00171000771266 6.05435
54.02669920004598 6.0189
54.051691170915745 5.98879
54.076881204886796 5.98266
54.101878760928514 5.98112
54.12687910187696 5.9532
54.152077577768296 5.98088
54.1770835166946 5.96518
54.20209224691339 5.88045
54.22710377055121 5.90905
54.25231352511594 5.8926
54.27733066384342 5.88054
54.30235060239643 5.87885
54.32737334290836 5.8131699999999995
54.35259441062629 5.81503
54.377622783395324 5.87336
54.40265396455061 5.81758
54.42768795623251 5.79213
54.45292037169559 5.7447
54.477960012857906 5.76735
54.50300247099511 5.77395
54.52804774825457 5.69874
54.55329154616743 5.69163
54.57834249018678 5.64553
54.6033962597977 5.61857
54.6284528571545 5.60182
54.653708072335164 5.57849
54.67877035378786 5.60491
54.70383546947698 5.53655
54.72890342156389 5.57995
54.7541700889442 5.5244800000000005
54.77924374251975 5.503419999999999
54.8043202390049 5.46891
54.82959552413022 5.468380000000001
54.8546777351945 5.46015
54.87976279569621 5.37321
54.90485070780914 5.39113
54.930137506558005 5.35072
54.95523115074295 5.41331
54.98032765308844 5.35787
55.005427015775496 5.330030000000001
55.03072536339621 5.36875
55.05583047570572 5.27464
55.080938454927676 5.23225
55.10604930325027 5.18085
55.131359235107396 5.21981
55.15647585066083 5.227530000000001
55.181595341907496 5.16015
55.20671771104285 5.12009
55.232039262617704 5.14384
55.25716741665048 5.11925
55.28229845518636 5.11102
55.30743238042802 5.07849
55.33276558731939 5.08076
55.357905315183636 5.0491
55.383047936390035 4.99907
55.40819345314859 4.98485
55.433538351073295 5.00587
55.458689688238415 4.9839400000000005
55.483843927614096 4.936780000000001
55.509197623043605 4.93896
55.53435769621134 4.87565
55.55952067826466 4.876519999999999
55.5846865714265 4.8474699999999995
55.61005202069737 4.8026800000000005
55.63522376553902 4.80928
55.66039842818645 4.76644
55.68557601087004 4.7485800000000005
55.7109532500271 4.7574
55.73613670233794 4.7386800000000004
