TT I
1.2716486653135266 7.47911
1.2939594142134223 7.31319
1.3162702121660406 7.19948
1.3385810600174564 7.3518300000000005
1.3608919586137629 6.8563600000000005
1.383202908801069 7.0849899999999995
1.405513911425503 6.6267
1.4278249673332093 6.12908
1.4501343378461518 5.61491
1.4724455028545926 6.07538
1.4947567236847858 6.09281
1.517068001182951 6.18535
1.5393793361953272 6.14275
1.5616907295681737 6.09141
1.5840021821477681 5.69256
1.60631369478041 5.59145
1.6286252683124185 6.0895
1.6509369035901333 5.38247
1.6732468618895553 5.1201099999999995
1.695558623192809 5.06634
1.7178704487808514 5.52845
1.7401823395001077 5.26368
1.7625012545597203 5.448869999999999
1.7848028405262486 4.89751
1.8071218901122095 5.14216
1.8294236121921872 4.9211800000000006
1.8517427996910911 4.76246
1.8740620574440425 5.20824
1.8963639900671978 4.51246
1.9186833908139995 4.7293199999999995
1.9409854680117449 4.95823
1.9633050151394713 5.19911
1.9856246367570705 5.0686599999999995
2.0079269371922672 5.15097
2.03024671027244 5.11535
2.0525491637446027 4.37029
2.074869091674931 4.00724
2.097171701569106 4.36461
2.1194917877373847 4.9179900000000005
2.141811954326636 4.6032
2.164114805233074 4.30018
2.186435135143035 5.45977
2.208738150935709 9.05589
2.231058647554722 16.6107
2.2533792288321184 13.2025
2.275682498336085 7.44539
2.298003251406138 5.37763
2.3203066942619714 5.63286
2.3426276225136022 5.74874
2.3649486396617507 5.36918
2.387252348930071 5.03555
2.4095735463442893 4.74399
2.4318774374315884 5.39691
2.4541988185014043 5.57989
2.476502894794693 6.0376
2.498824462909887 6.1062199999999995
2.521146125856138 5.97189
2.5434504863470337 6.08102
2.5657723414244717 6.51574
2.588076895590662 7.60982
2.610398946189713 7.399489999999999
2.6327210958598384 6.62224
2.6550259469304716 7.83715
2.6773482972090137 6.939080000000001
2.6996533504259 6.64687
2.7219759047039602 7.399139999999999
2.744298562293959 7.534489999999999
2.7666039251246595 7.5258899999999995
2.7889267918020164 7.333060000000001
2.8112323652516555 7.6689300000000005
2.833555444408179 8.53448
2.8558786311183852 8.16348
2.8781845268938557 8.679889999999999
2.9005079311721484 8.9536
2.9228140460410397 8.76572
2.9451376712799635 9.5038
2.967444008632326 9.99697
2.9897678582247247 10.0634
3.0120918213106695 9.77257
3.0343984987899373 10.6489
3.0567226913198637 10.3939
3.079029599759726 11.1441
3.101354025127254 12.0985
3.123678568232338 12.9725
3.145985829517914 12.8934
3.16831061055229 12.9688
3.1906181112775593 14.1872
3.212943133635653 14.9937
3.2352682779763207 14.8212
3.2575761442691227 15.3633
3.2799015350264273 15.6492
3.302209649240067 16.1734
3.3245352898092655 16.9727
3.3468436553365257 17.2912
3.369169549113219 17.7424
3.3914955708171384 18.5045
3.413804319727358 18.4887
3.4361305997334863 18.9911
3.4584396084414553 19.7985
3.4807661501462652 20.6458
3.503092824025881 21.1087
3.5254022288463154 21.1532
3.5477291695206588 21.5885
3.5700388426251948 21.851999999999997
3.5923660534916446 23.0806
3.6146934007816114 31.6515
3.637003482731501 56.9225
3.6593311053109985 61.6505
3.681641464033634 40.8299
3.7039693653009733 27.6275
3.726297407241705 26.0022
3.7486081875460804 25.8537
3.7709365132734978 26.2389
3.793247578841633 26.8203
3.8155761917550093 26.7343
3.8378875459837216 27.2748
3.8602164494827234 27.9705
3.882545499606844 28.9336
3.9048572932539183 29.3995
3.9271866390645718 29.1578
3.9494987298666713 30.0829
3.971828374764527 30.7424
3.9941581705403255 31.2058
4.016470713506008 31.7468
4.038800813471445 32.1764
4.061113662089144 32.9007
4.0834440696459176 33.7597
4.105774632334751 34.0356
4.128087945865126 34.9108
4.150418821249301 35.3647
4.172732448931298 36.7005
4.195063640413578 37.9984
4.2173775856475215 40.7645
4.239709096631102 58.3187
4.262040768704612 142.859
4.284355196706267 185.704
4.306687193387355 127.09700000000001
4.329001947444346 62.8049
4.35133427213731 46.0826
4.373666762177566 44.6887
4.395982011761091 44.7486
4.418314834921175 45.9897
4.44063041906622 50.06399999999999
4.4629635787515625 56.6824
4.4852969080429785 56.9806
4.5076130004776225 52.8034
4.529946671403969 52.705
4.552263106909177 53.2244
4.574597122877047 53.0184
4.596931312711224 53.9909
4.619248269273446 54.7864
4.6415828092605835 55.5576
4.663900117405352 56.7825
4.686235010953232 58.5595
4.708552674085913 59.6727
4.730887924602802 61.3772
4.753223354952695 62.9025
4.775541557023902 64.7091
4.797877349456786 66.5576
4.820195915032126 68.3372
4.842532072957498 69.6664
4.864868414979744 72.0202
4.88718753227192 74.8813
4.909524244902505 76.1593
4.931843734218147 77.7657
4.954180820867835 80.9941
4.976518095879839 84.6379
4.998838149695359 87.8835
5.021175803844231 91.851
5.043496238205739 95.4332
5.065834274903528 101.26799999999999
5.088172504230693 107.69
5.1104935158799565 115.78
5.132832132875765 135.655
5.155153533596801 172.278
5.1774925416746225 243.38400000000001
5.199814334878411 606.531
5.2221537374521505 1615.5
5.244493338631803 3687.9
5.266815727034316 7511.64
5.289155727832427 11369.4
5.311478517248165 8829.22
5.333818921080011 3409.08
5.356159527788849 730.796
5.3784829252032536 221.495
5.400823940070432 161.567
5.423147747031976 139.471
5.445489173474152 127.125
5.467830807066149 121.055
5.490155234831516 116.875
5.512497285125229 111.97200000000001
5.534822130975162 109.212
5.557164601388673 106.70299999999999
5.579489868738879 104.226
5.601832762690846 102.81200000000001
5.6241758697774475 101.008
5.646501775867269 100.257
5.668845311622074 98.8801
5.691171647754637 98.199
5.713515615597765 97.1076
5.735859800852677 96.7369
5.758186788542988 96.3089
5.780531411018185 97.1023
5.802858837297399 96.6683
5.825203900414495 96.971
5.8475491852224 98.1203
5.869877275883075 98.5336
5.892223006467101 99.4862
5.914551544266608 101.51100000000001
5.936897724049891 106.249
5.959244129804903 116.678
5.981573344815301 158.339
6.0039202049061 324.704
6.026249875609095 678.3380000000001
6.04859719346037 1274.05
6.070927323278297 2351.07
6.093275102315365 3989.53
6.115623113320588 4838.53
6.137953938319995 3379.9
6.160302415650845 1160.92
6.182633708324452 288.135
6.2049826554078376 128.246
6.227331838745022 99.7684
6.249663839443684 90.2708
6.27201349767565 85.3762
6.294345974611799 86.5955
6.316696111167083 91.3564
6.339046488263839 87.2327
6.361379686074702 77.9534
6.383730546639482 73.1565
6.406064229255215 71.0896
6.428415576718203 70.7464
6.450749747566656 69.48
6.47310158535871 68.0387
6.495453669698332 67.1747
6.517788579421056 66.2289
6.540141159237969 64.9883
6.562476565766648 64.4265
6.5848296444934045 63.9794
6.607182974060425 63.895
6.6295191323281015 63.8036
6.651872965955752 64.6404
6.6742096296068985 78.2269
6.6965639707294615 101.56200000000001
6.71891856698715 101.93
6.741255995248479 79.4008
6.763611104154477 64.9024
6.785949046381137 60.4868
6.808304671371482 59.3444
6.8306605557940046 59.3836
6.852999275508618 58.9178
6.875355681171544 58.3153
6.897694923437771 57.6117
6.92005185377892 57.5876
6.9423916220322655 57.8844
6.964749080490181 56.6778
6.987106804399774 56.662
7.009447368180821 56.8301
7.031805625367033 56.8149
7.054146723727803 56.7019
7.076505517631004 56.3134
7.098864581288365 56.0731
7.121206488070854 56.0039
7.143566093607822 55.9716
7.165908543567245 56.4616
7.188268694426048 56.3686
7.2106291193438095 56.1685
7.232972390625943 56.5594
7.255333366030969 63.5347
7.277677189091925 90.7365
7.300038718428332 115.745
7.322400526130865 103.079
7.344745183422596 74.1958
7.367107550224791 59.7945
7.389452767901992 56.4053
7.411815697249891 55.9986
7.434161478756298 55.0595
7.456524974096713 54.946999999999996
7.478888753837185 55.165
7.501235387657368 55.7851
7.523599738562711 55.6899
7.545946944825532 55.8009
7.568311870344528 56.1753
7.5906770845765665 56.11
7.613025156078678 56.9996
7.635390950099687 57.9643
7.657739602662809 57.6465
7.680105979923558 56.9186
7.702472650212829 57.0522
7.724822180948224 57.4122
7.747189439655568 57.5775
7.769539560075357 57.2528
7.791907410653562 58.0854
7.81425812420825 57.8509
7.836626570110925 58.4725
7.858995315087906 59.3614
7.881346924933401 59.3075
7.903716270417482 59.5443
7.926068482028405 60.0576
7.948438431475253 60.714
7.9708086843180235 61.3496
7.993161805171116 61.7779
8.015532667162402 62.2124
8.037886398416653 63.7035
8.060257873014221 63.8946
8.082629655331942 64.5655
8.104984308787587 65.5285
8.127356708900503 68.1322
8.149711981398308 71.9024
8.172085002766314 73.5014
8.194458336181368 71.9561
8.216814543847752 70.8263
8.23918850371002 71.5276
8.26154533906492 72.7954
8.283919928836452 74.1887
8.306277395339652 75.2701
8.328652618483376 76.5484
8.351028159736202 78.7172
8.373386579575245 81.3806
8.395762759396959 83.3355
8.418121819038275 87.79799999999999
8.440498640894003 97.385
8.462875785192262 112.25299999999999
8.485235811156207 145.254
8.507613602688501 225.185
8.529974277114228 344.215
8.552352719347912 502.50300000000004
8.574731488360351 759.122
8.59709314210385 1184.41
8.619472567021075 1708.25
8.64183487789147 2087.1
8.664214962183097 1850.69
8.686577933647762 1052.07
8.708958680784317 419.139
8.731339760774953 180.731
8.753703729764451 118.665
8.77608547780821 104.133
8.798450116065078 99.6971
8.820832535634787 95.9485
8.843215292401656 94.2692
8.865580941199045 92.6046
8.887964374703538 91.6188
8.910330701447199 91.7279
8.932714815164482 92.7009
8.955099270424924 91.49700000000001
8.977466620733543 89.4587
8.999851761421976 87.3743
9.022219798361645 86.3189
9.04460562795561 86.1688
9.066991803441677 85.4564
9.089360876979615 85.514
9.111747746589993 84.9978
9.13411751544971 84.3184
9.156505082664324 84.5223
9.178875550323522 84.6683
9.20126381862328 84.5448
9.223652438908596 84.4563
9.246023961427412 84.3255
9.26841328802173 84.5625
9.290785518039224 84.8451
9.313175554425882 86.0257
9.335565947154315 85.9502
9.357939245086508 85.787
9.380330352834827 86.0129
9.40270436697103 85.9158
9.425096193225055 85.8156
9.447488380180165 86.6946
9.469863475295412 87.0516
9.492256385987508 87.2532
9.514632206018318 87.945
9.537025843935714 88.0301
9.559402392368193 88.6456
9.581796761000229 90.2284
9.604191496441521 91.4396
9.626569144158516 93.7993
9.648964615551032 96.145
9.671343000390081 97.115
9.693739211225699 96.7949
9.716135793237463 95.9028
9.738515290448102 96.0582
9.760912617143402 97.2995
9.783292860202891 99.1207
9.805690935076182 99.9301
9.828089385495742 101.022
9.850470754023561 103.568
9.872869957865444 109.01299999999999
9.89525208097539 118.11200000000001
9.917652041736662 127.649
9.940052382417589 137.733
9.962435644102392 172.77
9.984836746950979 236.69299999999998
10.007220771957746 322.836
10.029622640473708 442.288
10.052007432299963 619.1469999999999
10.074410069984072 870.671
10.096813093716005 1212.79
10.119199042482517 1591.91
10.141602840636468 1860.56
10.163989564971628 1637.47
10.186394141051062 1012.2
10.208799107559706 467.82300000000004
10.231187001965623 211.63099999999997
10.253592751657669 135.406
10.275981430388155 118.255
10.298387966769793 114.91799999999999
10.320794897965431 115.338
10.343184759907361 113.71
10.36559248305461 110.676
10.387983138083852 110.26
10.410391656691655 119.48700000000001
10.432800574501677 136.924
10.455192425893369 157.85299999999998
10.47760214443012 187.95
10.499994797678786 231.878
10.522405320453982 299.455
10.54479877906917 385.916
10.567210109595656 487.73199999999997
10.5896218454736 540.606
10.612016518879773 511.606
10.634429067781074 363.70300000000003
10.656824555333241 215.178
10.679237920773568 130.266
10.701651695961992 99.9611
10.724048411481384 92.6265
10.746463008485165 89.3791
10.768860546937125 87.5102
10.791275969274796 85.5762
10.81369180576079 84.554
10.836090585366925 82.9437
10.858507252467449 81.9498
10.88090686379991 81.0892
10.903324365036394 80.5831
10.925724811614439 79.4392
10.948143150509463 80.1476
10.970561909719066 79.6029
10.992963615930844 78.1972
11.015383218085756 76.512
11.037785768347074 75.0336
11.06020621697282 74.3629
11.082627090322113 74.0123
11.105030913430326 73.4978
11.12745263854165 73.5725
11.149857314510728 74.6145
11.172279894912576 77.7818
11.194702904450653 77.9183
11.217108866490921 75.32
11.239532736615194 73.0097
11.26193956033512 71.6819
11.284364294577085 70.8704
11.306789462371718 69.3645
11.329197585398376 68.8752
11.351623622610898 68.6369
11.37403261614354 67.4414
11.396459526308487 67.5543
11.418869393879497 67.1842
11.441297180532617 66.6798
11.463725406927658 66.5043
11.486136592353875 66.3819
11.508565700543707 66.3246
11.530977768845315 67.127
11.553407762368774 67.42399999999999
11.575838200059769 67.5157
11.598251599479612 66.189
11.620682927815501 65.3609
11.64309721895548 65.2879
11.665529441478206 64.8576
11.687962112597958 64.3655
11.710377748130886 64.4364
11.732811318753434 64.4794
11.755227854859067 64.3886
11.777662328529495 64.3753
11.800079768750786 64.1472
11.822515149015453 64.0905
11.844950984084935 64.5539
11.867369787303163 64.1789
11.889806534289491 63.9725
11.912226250487029 64.5933
11.934663912939751 64.7308
11.9571020346363 64.7352
11.979523127133968 64.9778
12.001962169624331 66.3218
12.024384183972964 68.7332
12.046824150809913 73.8571
12.069264581333726 79.9789
12.091687985297767 86.7545
12.11412934550045 96.436
12.136553680195208 110.15100000000001
12.158995973632788 128.855
12.181438735204349 150.622
12.20386447284199 175.75900000000001
12.226308172985636 198.86599999999999
12.24873485024193 202.523
12.271179492516982 171.894
12.293607112949127 132.499
12.316052700916226 96.6624
12.338498763250042 78.0375
12.360927805303868 70.1212
12.383374818673879 67.3562
12.405804812803074 66.2656
12.428252780773262 65.9918
12.45070122756722 66.0817
12.473132656675375 65.7441
12.49558206341869 66.2753
12.518014453510101 66.0857
12.540464823770117 66.0894
12.562915677315177 65.9834
12.58534951575545 66.86399999999999
12.607801338171472 67.7578
12.630236146511358 70.6441
12.652688941369085 73.5349
12.675124723177234 74.1359
12.697578494048786 72.695
12.720032754458185 70.3952
12.742470003354093 69.4831
12.764925245138771 69.4872
12.787363476431278 69.9391
12.809819703166806 70.2814
12.83227642391173 71.0734
12.854716135692716 71.506
12.877173846755147 72.9061
12.899614549869717 72.8255
12.9220732548287 74.0216
12.94453245827299 74.6465
12.966974655289818 75.7012
12.989434858002571 76.5218
13.011878055298721 77.4333
13.034339260862497 78.4156
13.056800969391883 80.1435
13.079245674017244 82.9248
13.101708390774869 87.9331
13.12415410463411 99.6962
13.146617833206086 114.094
13.169064559883248 127.96799999999999
13.191529303857127 144.484
13.213994557076367 168.359
13.236442809902437 202.274
13.258909083908291 246.61700000000002
13.28135835851934 294.921
13.30382565690295 351.584
13.326293469022952 400.36800000000005
13.348744283242008 421.55699999999996
13.371213125129904 370.76199999999994
13.39366497011003 278.7
13.416134845360597 186.81099999999998
13.438605238843131 132.889
13.46105863690397 116.316
13.483530069144786 118.006
13.505984506951902 125.665
13.528456981549432 137.17600000000002
13.550929978879088 152.264
13.573385983253365 174.877
13.595860028340867 205.82
13.618317081455832 244.59400000000002
13.64079217790333 289.253
13.663250283359057 334.066
13.685726434770173 360.38300000000004
13.708203115221277 349.14099999999996
13.730662806148091 278.967
13.75314054697177 202.937
13.775601299246777 135.809
13.798080104050406 102.352
13.820559442405358 88.4424
13.843021793671388 84.6102
13.865502201420897 82.6487
13.887965623051947 81.7732
13.910447103807167 80.7384
13.932929122629764 79.2782
13.955394156785959 78.923
13.977877254034569 78.0283
14.000343367582113 77.0919
14.022827546871707 76.4651
14.045294743423524 75.6767
14.06778000837062 75.2027
14.090265817715476 75.2824
14.112734645763819 74.5491
14.13522154619454 73.9508
14.157691466286913 74.0433
14.180179461423874 73.9849
14.202668005486178 73.4446
14.22513957064374 72.7253
14.247629214846473 72.5106
14.270101881097517 72.3469
14.29259262906496 72.0017
14.315083930490205 72.4369
14.337558255389705 72.4827
14.360050666019726 72.335
14.382526101071944 71.7013
14.405019624534942 71.2927
14.427513705993134 70.9134
14.449990813291825 71.0096
14.47248601302899 70.7642
14.49496423954951 70.8761
14.517460561197822 71.0296
14.539939910570322 70.6668
14.562437357763558 70.8333
14.58493536931253 71.596
14.607416409993311 72.3555
14.62991555254159 72.8065
14.652397725157423 73.1116
14.674898002342799 72.8503
14.697398848433282 72.8252
14.719882725991326 74.2418
14.74238471217934 76.9371
14.764869730765593 81.9797
14.787372860692983 86.5131
14.809876564079925 91.9838
14.83236330125751 98.4658
14.854868153850365 107.396
14.877356041159485 119.98899999999999
14.899862046604186 135.375
14.922351087688757 154.72799999999998
14.944858249632887 176.023
14.967365991421232 199.30599999999998
14.989856770231246 215.49900000000002
15.012365673994204 217.393
15.03485761569738 194.50799999999998
15.05736768508665 153.805
15.07987833888692 120.89399999999999
15.102372032001655 94.1892
15.124883856909658 79.7199
15.14737872204565 74.2422
15.169891721717274 72.5356
15.192405310371893 72.4025
15.214901940621196 72.1373
15.237416709527137 72.0503
15.259914520936249 71.7302
15.282430473753607 71.0602
15.304947020131227 70.2031
15.327446610371178 69.5873
15.349964346154254 68.9593
15.372465126703139 68.6886
15.394984055556009 68.2458
15.417486030076159 68.2188
15.44000615566487 68.0194
15.462526881230803 67.8695
15.485030653812652 68.0489
15.507552581617434 67.9079
15.530057557334603 68.0404
15.55258069104857 67.9414
15.575104429329837 68.2682
15.597611216864632 68.0737
15.620136166564563 68.9945
15.6426441664095 71.3382
15.665170331202765 74.9598
15.687697105158826 78.9938
15.710206930593545 82.92200000000001
15.732734925158933 87.5117
15.755245972089478 94.0339
15.77777519094324 102.804
15.800287463046663 114.46600000000001
15.822817909869592 129.53
15.84534897229804 144.597
15.867863089299354 164.59400000000002
15.890395385222186 180.71
15.912910736597423 191.959
15.935444269699861 188.13
15.957978423016485 161.819
15.980495633101265 131.53
16.003031029129367 102.458
16.02554948280019 80.3783
16.048086125229432 69.7946
16.070623392487107 66.4978
16.09314371869582 65.1233
16.11568223789321 64.3583
16.13820381691126 63.5475
16.160743591742527 62.8449
16.183283996022084 62.0177
16.205807461423195 61.0473
16.228349126881973 60.3573
16.25087385432698 60.4468
16.27341678466365 59.7979
16.29594277784926 59.5151
16.31848697676433 59.5985
16.341031811604868 59.4916
16.36355971058487 59.6262
16.3861058195587 59.3097
16.40863499352978 58.3905
16.431182380342005 58.0148
16.453730407713202 57.6938
16.476261501364792 57.3162
16.498810812136167 57.1703
16.52134319004079 57.2006
16.54389378792203 57.0315
16.566445031001553 56.7618
16.588979342490088 56.6329
16.61153187824822 56.4425
16.634067483263312 56.3261
16.656621315414416 56.3709
16.679175797408888 55.8438
16.701713349928728 56.0061
16.72426913389191 56.4359
16.74680798922351 56.4603
16.76936507887444 56.2985
16.791905240734874 56.3309
16.814463639794468 56.1261
16.837022695210294 56.2604
16.859564824093756 56.4162
16.882125194503903 56.8262
16.904668639217885 57.2652
16.927230328348003 57.3658
16.949792678493612 57.6167
16.972338104193863 57.2772
16.994901778652235 57.145
17.017448529496576 57.3114
17.040013531998152 57.9392
17.06257920018044 58.6795
17.0851279459922 59.5421
17.107694947817667 60.2799
17.130245028099072 61.3247
17.15281336730298 62.7919
17.17536478578733 64.5602
17.19793446610687 66.5583
17.220504818648422 69.2002
17.243058251703697 71.5571
17.265629950971032 75.21
17.288184731571736 79.2329
17.310757781306908 82.4126
17.33333150794385 84.6891
17.355888317140174 84.0838
17.37846339986244 79.444
17.401021565958885 73.4881
17.42359800851343 68.1433
17.44617513265564 64.1312
17.468735341390783 61.8323
17.491261035594565 60.9971
17.51396340099364 60.6356
17.536490463869136 60.8636
17.559018209820174 60.8263
17.58154663977963 60.9425
17.604251766089718 60.998999999999995
17.626781572227713 61.2728
17.64931206518155 61.406000000000006
17.671843245885103 61.934
17.69455114821572 62.0932
17.717083712612634 62.5301
17.739616967569667 62.7096
17.762150914021706 63.1134
17.78486160749854 63.3133
17.807396945166804 64.5739
17.829932977143503 66.1089
17.85246970436452 68.5524
17.875183204129467 70.5971
17.897721330097664 72.9268
17.920260154126645 75.6144
17.942799677153296 78.9329
17.9655159983646 82.6836
17.988056927677544 88.0347
18.010598558807683 94.8332
18.033140892692916 102.318
18.05586005052525 110.185
18.07840379824407 119.76299999999999
18.10094825154059 130.285
18.12366954819864 139.829
18.146215420998306 143.534
18.16876200220057 137.386
18.191309292745153 124.71
18.214033452627167 111.259
18.236582170236648 97.757
18.259131600016456 91.0373
18.281681742907335 89.4017
18.304408781233683 91.7255
18.32696035875955 95.3432
18.349512652227624 99.5681
18.372065662579683 103.79899999999999
18.394795594587553 105.84299999999999
18.41735004715306 104.359
18.43990521943684 98.3359
18.46246111238171 89.1819
18.485193953325208 79.5433
18.507751296070428 71.8531
18.530309362314178 67.6938
18.552868153000343 65.3233
18.57560391815056 63.9223
18.59816416623245 63.4206
18.620725141597372 62.843999999999994
18.643286845190268 62.4897
18.666025549835414 62.2544
18.688588718427933 61.3419
18.711152618092243 61.4564
18.73389353884365 61.0605
18.75645890921984 60.5585
18.77902501351406 60.1962
18.801591852673102 60.3071
18.824335739722738 59.7621
18.846904057212626 59.743
18.8694731124168 59.4232
18.89204290628315 59.2499
18.914789774966803 59.3013
18.937361054791623 59.0194
18.959933076131318 58.8551
18.982505839934877 58.8416
19.00525570560582 58.6852
19.027829963004184 58.4282
19.05040496572238 58.6668
19.072980714710468 58.8505
19.095733592739563 59.1923
19.11831084296757 59.5893
19.140888842324735 60.0228
19.16346759176222 60.2837
19.18622349753803 60.6139
19.208803755869358 61.7833
19.231384767143577 62.8723
19.253966532312948 64.4247
19.276725481241822 65.9185
19.29930876296784 67.861
19.3218928014549 70.2843
19.34465404436217 72.5554
19.36723960516257 74.8442
19.389825925592426 76.9345
19.412413006605938 76.8127
19.43517731967805 74.3064
19.457765930683355 70.0096
19.48035530514408 65.6084
19.50294544401556 61.5891
19.525712842708348 58.4789
19.54830451925909 56.8456
19.570896963095727 55.7778
19.593490175174704 55.3792
19.616260674962184 55.5246
19.638855432416964 55.2378
19.661450960992624 55.4909
19.68404726164677 55.1996
19.706820878021247 54.8907
19.729418731756834 55.2127
19.752017360452857 54.7666
19.77461676506804 55.1647
19.797393513540218 55.3832
19.819994478951667 55.8155
19.84259622316767 56.4608
19.8651987471481 56.8657
19.887978643247177 56.9853
19.91058273574792 57.5423
19.933187610901943 58.6044
19.955969879466828 59.6208
19.97857632894404 60.8175
20.00118356396599 62.1626
20.023791585494575 63.792
20.046577028914875 66.2066
20.069186632506966 67.8729
20.091797025500632 69.8789
20.114408208858933 71.5559
20.137196842715273 72.0832
20.159809615886765 71.1035
20.18242318232135 68.3739
20.20503754298326 66.1687
20.227829382875154 64.4134
20.250445341109344 63.638000000000005
20.27306209647285 63.6321
20.29567964993108 64.5193
20.31847471147704 65.6393
20.34109387027612 66.7102
20.363713830075454 67.1826
20.386334591841646 65.9408
20.409132890679302 63.6107
20.431755265564437 60.3873
20.454378445325528 57.29600000000001
20.477002430930366 54.8161
20.499803982716553 53.5982
20.522429589228004 52.7724
20.54505600449589 52.2119
20.567683229489194 52.1048
20.590488049900088 51.8807
20.61311690359731 51.505
20.63574656993626 51.3789
20.658553853717297 51.0268
20.681185154618298 51.1242
20.703817271080066 50.9561
20.72645020407368 50.461999999999996
20.749260783967177 50.4783
20.771895359337133 50.5609
20.794530754161617 50.3609
20.817166969412938 50.1478
20.83998086114876 50.1859
20.86261872660049 50.0372
20.885257415405402 49.9833
20.90789692853701 50.1422
20.930714147864748 50.0152
20.953355319030678 50.0568
20.97599731745334 50.1561
20.99864014410749 50.0525
21.021460706796564 50.0948
21.044105199328826 50.4069
21.06675052302631 50.6677
21.089396678865015 50.7032
21.112220600704806 51.0738
21.134868430275347 51.458
21.15751709492456 51.5543
21.180166595629693 51.7746
21.202993892429635 51.9859
21.22564507473034 52.4848
21.24829709602816 52.7378
21.27112693608965 52.8413
21.293780644891275 52.9905
21.316435195634053 52.4294
21.339090589297417 51.5804
21.361923832041875 50.9871
21.384580921090404 50.3657
21.407238856007325 49.9247
21.429897637773326 49.8959
21.45273429906592 49.9618
21.475394784108598 49.8718
21.498056118951983 49.7028
21.520718304578022 50.1787
21.543558400304388 50.2812
21.566222297108816 50.5403
21.58888704765135 50.8015
21.61155265291521 51.2894
21.63439619898156 51.6116
21.657063523335786 51.8782
21.67973170537063 52.3869
21.7024007460706 52.9468
21.72524775840385 53.6604
21.747918526116475 54.6977
21.770590155457388 55.7752
21.79326264741238 57.3167
21.816113141960237 58.6929
21.838787368860547 59.9949
21.861462461341976 61.6277
21.884315579735777 63.2871
21.90699241312273 64.9051
21.92967011506078 66.1988
21.95234868653799 66.5475
21.9752053151131 65.4433
21.997885635446785 63.4744
22.020566828293532 61.3076
22.04324889464272 59.35
22.066109049404666 57.8973
22.088792872571794 57.1376
22.111477572219204 57.0927
22.1341631493376 57.3227
22.157026846313123 57.3143
22.179714188221507 57.0494
22.202402410582668 55.7848
22.22509151438863 54.4182
22.24795876962584 53.0513
22.270649646204486 52.143
22.293341407213727 51.4694
22.316034053646906 50.8827
22.338904883215342 50.3252
22.36159931041458 50.2755
22.38429462602756 50.4461
22.40699083104897 50.0999
22.429865251039757 50.1205
22.452563244831367 50.2344
22.47526213102522 50.1725
22.49813925616515 49.9886
22.520839937143307 50.0284
22.543541513520587 50.13399999999999
22.56624398629403 49.8147
22.589124730075895 50.041000000000004
22.611829005656723 50.3387
22.63453418063466 50.2715
22.657240256008077 50.6592
22.680124634582935 50.8175
22.70283252079775 50.9898
22.725541310413075 51.3266
22.74825100442868 51.6552
22.771139033969575 52.0514
22.79385054687155 52.3482
22.81656296718292 52.9131
22.83927629590484 53.5955
22.862167992606945 54.5916
22.88488314827121 55.4338
22.907599215359284 56.1094
22.93031619487366 56.9744
22.953211574954405 57.7493
22.975930389478226 58.7919
22.998650119445763 59.5513
23.02137076586092 58.9505
23.044269845560063 57.9698
23.06699233506288 56.3651
23.089715744034912 54.3487
23.112617610931565 52.7458
23.135342869061212 51.593
23.158069049684816 50.681999999999995
23.1807961538087 50.251000000000005
23.20370174880544 50.2174
23.226430710184808 50.3967
23.249160598093425 50.3428
23.271891413539002 50.4793
23.294800752937697 50.6158
23.31753343374794 50.9579
23.340267045128353 50.9492
23.36300158808808 51.2221
23.38591468821339 51.6328
23.408651104658304 52.0421
23.431388455719986 52.6517
23.454126742409 53.3127
23.4770436196085 54.1097
23.499783787914662 55.1001
23.522524894889884 55.68600000000001
23.54526694154616 56.4396
23.56818761219047 57.6001
23.59093154860734 58.3867
23.613676427751283 58.9376
23.636422250635754 58.5907
23.659346731118656 57.157
23.68209445191868 55.391999999999996
23.704843119509587 53.3192
23.72759273490623 51.3941
23.750521041644767 49.7486
23.77327256312355 48.5366
23.796025035462787 48.1667
23.818956224555475 47.5161
23.841710609113413 47.3077
23.86446594758979 47.0974
23.887222241002014 46.942
23.910157285144578 46.4976
23.932915498962537 46.533
23.955674670778713 46.3985
23.978434801611975 46.1044
24.001373717286125 45.9088
24.024135776723917 45.8227
24.046898798245582 45.7305
24.06966278287146 45.7525
24.092605586582614 45.4404
24.115371508023642 45.3092
24.1381383956401 45.2265
24.16090625045381 45.1372
24.183852958731244 45.1769
24.206622758582608 44.9837
24.229393528706886 44.76
24.252165270127392 44.9047
24.27511589952438 44.9947
24.297889594216997 44.7411
24.32066426328598 44.4702
24.34343990775613 44.6485
24.36639447485003 44.466
24.38917208083877 44.4215
24.41195066531332 44.3158
24.43490819850244 44.2333
24.457688750692377 44.1004
24.48047028445616 44.1296
24.503252800821233 44.2368
24.526214300784112 44.2186
24.548998793132213 44.2218
24.57178427117417 44.1674
24.59457073593893 44.3011
24.617536219319863 44.0746
24.64032466834748 44.1591
24.663114107195035 43.9588
24.685904536893013 43.6926
24.708874020360852 43.8061
24.731666442613744 43.793
24.754459858818787 43.6286
24.777254270007962 43.5131
24.80022777025625 43.4013
24.82302418230472 43.3561
24.845821592443674 43.4435
24.86862000170663 43.4106
24.891597535453727 43.378
24.914397953892728 43.5705
24.93719937456671 43.6178
24.96000179851076 43.6991
24.98298338249997 43.8796
25.00578782394922 43.9874
25.028593271784167 44.0224
25.05157790644186 44.2927
25.07438537804115 44.6216
25.097193859145293 44.7352
25.120003350792075 44.9372
25.142992065061257 45.3646
25.165803588823465 45.6853
25.18861612625217 45.8258
25.211429678386736 45.8823
25.234422489079968 46.1677
25.257238081693636 45.9944
25.280054692141732 46.1098
25.3028723214652 45.8978
25.325869245420463 45.7997
25.348688923599397 46.0238
25.371509623787006 46.0778
25.394331347025812 45.8114
25.41733240110666 45.4709
25.440156181590016 44.9548
25.46298098826268 44.3403
25.48580682216873 43.7594
25.50881202326435 43.0721
25.53163992281684 42.643
25.55446885274561 42.3453
25.577298814096377 42.3078
25.600308179121807 41.9829
25.623140214533745 42.0247
25.64597328451537 41.9007
25.66898578564376 41.626000000000005
25.691820936010206 41.7224
25.714657124097695 41.6856
25.737494350954734 41.8662
25.760511045684957 41.703
25.783350361364224 41.7524
25.806190718969255 41.693000000000005
25.82903211955018 41.8718
25.852053024868923 41.8712
25.874896522722523 41.7355
25.897741066713106 41.6741
25.920586657892454 41.8477
25.943611790812668 41.8645
25.966459487728237 42.0042
25.989308234998564 41.9813
26.01215803367705 42.3341
26.03518741123814 42.5137
26.05803932412957 42.5816
26.080892291600094 42.7206
26.10374631470478 42.7236
26.12677995397268 42.758
26.14963609978026 42.9615
26.172493304397875 42.5762
26.19535156888223 42.4241
26.218389486949604 41.9899
26.241249882640123 41.9009
26.26411134137826 41.6197
26.28715248187403 41.6244
26.31001607820869 41.3032
26.3328807407756 41.2567
26.35574647063438 41.4416
26.37879191991473 41.2954
26.401659795896734 41.3756
26.424528742360263 41.5122
26.447398760366614 41.6288
26.470448535598294 41.7927
26.49332070826805 41.897
26.516193955675355 42.1799
26.53906827888316 42.2502
26.562122397260108 42.4814
26.584998883685063 42.7198
26.607876449110325 43.0212
26.63075509460056 43.1886
26.65381357334404 43.2851
26.67669439061878 43.2685
26.699576291163382 43.271
26.722459276044212 43.0826
26.745522132402975 42.9654
26.768407297649354 42.6628
26.791293550442003 42.1866
26.814180891848974 42.0085
26.837248143099337 41.5765
26.860137673466657 41.5546
26.88302829566349 41.2862
26.90592001075963 41.2514
26.92899167420566 41.0179
26.951885586870763 40.6605
26.974780595655517 40.4813
26.99785558178161 40.2417
27.020752794605112 40.1369
27.043651106772522 40.0017
27.06655051935668 39.9558
27.089629948036183 39.9058
27.112531573292053 39.8416
27.135434302194138 39.9432
27.158338135817015 39.7345
27.181422024430987 39.7244
27.204328079372566 39.6163
27.22723524226965 39.7295
27.250143514198573 39.8
27.273231880156334 39.6571
27.296142382065014 39.4552
27.319053996245536 39.3964
27.341966723775965 39.5084
27.365059584515222 39.6001
27.38797455070062 39.5703
27.410890633481237 39.498000000000005
27.433807833936918 39.3599
27.456905206923906 39.6059
27.47982465472398 39.5602
27.502745223449743 39.5395
27.525666914182825 39.6905
27.548768816912457 39.7189
27.571692763693633 39.5913
27.59461783573812 39.3914
27.617723149491244 39.2804
27.640650484125285 39.3414
27.66357894728264 39.34
27.686508540048052 39.1596
27.709618414237887 39.0877
27.732550278321757 38.9435
27.755483275279115 39.0779
27.778417406196485 39.0374
27.801531858397514 38.9937
27.824468269376716 38.8366
27.847405817586786 38.8605
27.870344504116094 39.1432
27.893463551932008 39.2326
27.916404527281053 39.3603
27.93934664422563 39.4286
27.962289903855886 39.558
27.98541356491974 39.664
28.00835912214229 39.769
28.03130582533231 39.9144
28.054253675581805 40.076
28.077381967556104 40.0082
28.100332124185126 39.9053
28.123283431160893 39.9475
28.146235889577238 39.7473
28.169368830154156 39.6492
28.192323603752033 39.5937
28.215279532083304 39.2986
28.238415973016764 39.0354
28.261374223145094 38.8787
28.284333631303806 38.7239
28.307294198589954 38.6173
28.330435319167677 38.1445
28.353398217078915 37.8704
28.376362277420153 37.6972
28.39932750129032 37.6533
28.422473319286713 37.3979
28.44544088262495 37.453
28.468409612800283 37.2732
28.491379510913497 37.0095
28.51453004413313 36.9358
28.53750229057244 37.0497
28.56047570826344 36.8102
28.583450298308804 36.8602
28.606605564586562 36.6292
28.629582511831156 36.7988
28.65256063474956 36.647
28.675539934446338 36.5959
28.698699951647605 36.5765
28.72168161743193 36.4647
28.74466446331978 36.3492
28.767648490417624 36.359
28.790813276438353 36.3734
28.813799678527303 36.3955
28.836787265157085 36.4014
28.859955641890075 36.4353
28.882945610203045 36.3326
28.905936766392035 36.2743
28.928929111566863 36.4008
28.952102288520145 36.1861
28.975097024308607 36.0145
28.998092952423807 35.9839
29.021090073977508 35.8516
29.04426806913204 35.8441
29.067267590245258 35.6621
29.090268308143695 35.5892
29.11327022394099 35.6557
29.13645305530891 35.4392
29.159457379627167 35.2959
29.18246290519685 35.1537
29.20546963313352 35.2546
29.22865731875826 35.2616
29.25166646419296 35.2638
29.27467681535305 35.1786
29.29768837335608 35.2376
29.320880931312562 35.2385
29.34389491580634 35.1773
29.366910110507334 35.0339
29.38992651653503 35.132
29.41312396492981 35.2235
29.436142806456754 35.0559
29.45916286268059 34.9543
29.48236399319994 34.8591
29.50538649169417 34.7365
29.528410208259935 34.6552
29.55143514402014 34.3968
29.574641196749695 34.2683
29.597668583816574 34.1949
29.6206971934585 34.0939
29.64372702680042 34.1604
29.666938019934474 33.9039
29.689970313635285 33.9031
29.713003834422636 33.9514
29.73603858342347 33.8991
29.759254535188578 33.8385
29.78229175361658 33.7335
29.80533020365064 33.8666
29.82836988641968 33.8043
29.85159081507472 33.7413
29.874632976355343 33.5574
29.89767637376955 33.580999999999996
29.920721008448314 33.571
29.9439469322847 33.5553
29.96699405457564 33.5539
29.9900424175358 33.4411
30.013092022298157 33.3399
30.03632295963995 33.251
30.059375061131373 33.3311
30.08242840783577 33.3957
30.105483000888153 33.3647
30.128718970092244 33.2916
30.151776069006917 33.2633
30.17483441768648 33.2504
30.198074175317235 33.2188
30.221135036724256 33.2652
30.24419715131772 33.2172
30.267260520236203 33.1579
30.290505341942243 33.2609
30.313571232750228 33.226
30.336638381310948 33.2785
30.35970678876503 33.1628
30.38295669299435 33.1244
30.40602763151657 33.0905
30.429099832366074 33.033
30.452173296685572 32.9732
30.47542830191959 32.9595
30.498504306502497 32.9127
30.521581577995562 32.9446
30.544660117543582 33.0649
30.56792024229725 33.1495
30.59100133132069 32.9213
30.614083691845494 33.0104
30.637167325018545 33.0598
30.660432587840603 33.1227
30.683518779717886 33.1353
30.70660624769615 33.1129
30.729694992924372 33.1245
30.75296541239743 33.1406
30.77605672557558 33.0983
30.799149319462742 33.0295
30.8224236211637 32.8544
30.845518789950724 32.6873
30.868615242910597 32.7326
30.891712981195973 32.6581
30.91499247215866 32.4219
30.938092794619365 32.4238
30.96119440587579 32.4125
30.984297307082752 32.327
31.00758200598383 32.183
31.030687500658694 32.1611
31.053794288760695 32.0535
31.076902371446767 32.0024
31.100192296997445 32.0252
31.12330298246119 31.9577
31.14641496599209 31.846
31.169528248749216 31.9737
31.19282341969534 31.8043
31.215939314557186 31.9074
31.239056512134788 31.8594
31.262175013589378 31.7507
31.28547544871168 31.7044
31.30859657161541 31.6505
31.331719001892175 31.7085
31.35484274070538 31.8007
31.378148458819545 31.7636
31.401274828443725 31.7865
31.424402510106933 31.7975
31.447712205419993 31.8123
31.470842524931633 31.6359
31.493974159989783 31.7348
31.51710711176168 31.6719
31.54042212308802 31.7792
31.563557722100917 31.6759
31.586694641341655 31.4198
31.609832881979628 31.36
31.63315322823208 31.3568
31.656294125521327 31.2618
31.679436347728515 31.1529
31.70257989602529 31.0921
31.725905596152327 31.0484
31.74905181052835 30.9459
31.772199354521323 30.976999999999997
31.79534822930507 31.0162
31.818679302290967 30.9377
31.84183085259981 30.8914
31.864983737233473 30.9282
31.88813795736804 30.9511
31.911474422233013 30.7484
31.934631327356435 30.9145
31.9577895715215 30.8498
31.980949155906522 30.7881
32.004291031706956 30.7909
32.027453310562606 30.7337
32.05061693318573 30.6304
32.07396288236386 30.7011
32.09712920658542 30.6052
32.12029687812702 30.4975
32.14346589817093 30.344
32.166817291729984 30.3841
32.18998902288583 30.314
32.21316210610336 30.2726
32.23633654256711 30.0515
32.259693399663725 30.0951
32.282870556771144 30.0095
32.30604907069099 29.9499
32.329228942610065 29.9014
32.35259128243769 29.7225
32.375773884550505 29.7607
32.398957848235646 29.7762
32.422143174682176 29.7209
32.445511016471215 29.5525
32.468699082679954 29.5195
32.49188851523011 29.5123
32.51507931531304 29.4524
32.538452678331 29.436
32.56164622776311 29.371
32.58484114831493 29.1981
32.60803744118015 29.235
32.631416344731896 29.2194
32.654615396551876 29.2506
32.67781582427913 29.2307
32.701198898634416 29.1715
32.72440209253756 29.0727
32.747606665947124 29.0887
32.77081262006088 28.9594
32.79420126883317 28.8641
32.81740999876112 28.9401
32.840620112999424 28.863000000000003
32.86383161274818 28.8438
32.88722585534586 28.9177
32.91044014056596 28.8529
32.933655814909734 28.7749
32.95687287957963 28.7461
32.98027273544904 28.7411
33.00349259526636 28.6054
33.026713849030116 28.6598
33.04993649794511 28.6188
33.073341986570746 28.5858
33.09656744032826 28.5578
33.11979429286444 28.4655
33.14302254538647 28.5369
33.166433686291185 28.4588
33.18966475336992 28.4024
33.212897224069096 28.3556
33.23613109959831 28.4304
33.259547912343415 28.2816
33.2827846121627 28.3125
33.306022720453775 28.2231
33.32926223842861 28.1554
33.352684742614166 28.2786
33.37592709463173 28.1325
33.399170859982064 28.1195
33.422597648419426 27.9632
33.44584425514446 27.845
33.46909227885668 27.7997
33.4923417207723 27.7755
33.51577423505344 27.7454
33.539026528130385 27.6958
33.56228024307245 27.6079
33.585535381098246 27.4903
33.60897364093058 27.5294
33.63223163992385 27.5309
33.6554910656699 27.3984
33.678751919389796 27.3984
33.702195944520106 27.2394
33.72545966903325 27.323
33.74872482519663 27.2509
33.771991414233746 27.261
33.79544122444841 27.2875
33.81871069412428 27.1395
33.84198160035767 27.1448
33.86525394437455 27.1004
33.88870955949969 27.0671
33.911984794020626 27.0941
33.93526147001624 26.9998
33.958539588715006 26.9315
33.98200102861669 26.9241
34.0052820477047 26.7458
34.02856451319451 26.8246
34.05203033759056 26.7156
34.07531571090147 26.7207
34.09860253431845 26.6923
34.121890809074316 26.5968
34.145362493118924 26.6009
34.16865368561615 26.5122
34.191946333164054 26.5226
34.21524043699793 26.4674
34.23871800066799 26.3844
34.26201503218366 26.3356
34.28531352370466 26.3682
34.30861347646881 26.2612
34.33209693978188 26.1941
34.3553998301885 26.250999999999998
34.378704185565205 26.1425
34.402010007152356 26.1432
34.42549939016683 26.1256
34.44880815937748 25.9842
34.472118398533134 25.9431
34.49543010887669 25.956
34.51892543169198 25.8788
34.54224009966052 25.8764
34.56555624255917 25.8199
34.58887386163339 25.733
34.61237514439016 25.5967
34.6356957311114 25.6041
34.65901779775809 25.7009
34.68252356662995 25.6568
34.705848608458616 25.6239
34.72917513396849 25.5511
34.75250314440949 25.4972
34.77601490857862 25.4532
34.799345904259795 25.2999
34.82267838863559 25.3593
34.846012362958525 25.3401
34.869530142679984 25.3518
34.89286711232212 25.2325
34.91620557568269 25.1925
34.93954553401677 25.2438
34.9630693495876 25.1452
34.986412313340814 25.1416
35.00975677584668 25.1447
35.033102738362956 25.0597
35.05663261012228 24.9985
35.0799815881786 25.0756
35.10333207003229 24.9977
35.12668405694369 25.0066
35.150220005273056 24.8793
35.17357501786656 24.9565
35.19693153931268 24.9177
35.220289570874385 24.8809
35.24383161619786 24.8311
35.267192683604904 24.8738
35.290555264930376 24.7288
35.314101899412165 24.7712
35.33746752422433 24.6966
35.36083466676374 24.6973
35.38420332829803 24.5849
35.407756095629054 24.6236
35.43112781085063 24.609
35.45450104888391 24.5502
35.477875810999194 24.6053
35.50143473172161 24.4259
35.52481255774625 24.5417
35.54819191167777 24.4275
35.57157279478914 24.4739
35.595137889488406 24.365
35.61852184675279 24.3353
35.641907337029984 24.2795
35.665294361595684 24.2643
35.68886565090076 24.2554
35.7122557598848 24.1777
35.73564740699838 24.1635
35.759040593519934 24.0325
35.78261809810353 24.0606
35.80601437933051 24.0079
35.829412203814705 23.9389
35.85281157283719 23.8548
35.876395313415884 23.895
35.8997977874528 23.8568
35.92320180988546 23.8035
35.946790244133936 23.7665
35.97019737933222 23.7708
35.993606066789866 23.6348
36.01701630779276 23.6392
36.04061101440684 23.6384
36.06402437852291 23.6185
36.08743930005611 23.5886
36.1108557802951 23.4932
36.13445678011326 23.5072
36.15787639383515 23.4502
36.18129757014299 23.3702
36.20472031032821 23.4405
36.22832762423364 23.3532
36.25175350829375 23.2858
36.275180960119776 23.2026
36.298609981005924 23.3332
36.32222362992669 23.2403
36.34565580510207 23.2109
36.36908955323448 23.2265
36.39252487562093 23.0409
36.416144880530226 22.989
36.43958336764275 23.0621
36.463023432914625 23.0535
36.486465077645676 22.9482
36.51009145956204 22.9938
36.53353627947859 22.9848
36.55698268276811 22.8934
36.58043067073321 22.8974
36.60406345072071 22.7266
36.62751462435344 22.7683
36.65096738658405 22.7683
36.67460498210655 22.6783
36.69806093788647 22.7092
36.72151848619297 22.5942
36.744977628333636 22.613000000000003
36.76862165890998 22.5559
36.79208400512205 22.5806
36.81554794910557 22.5214
36.83901349217101 22.4697
36.862663978991606 22.3865
36.88613273667352 22.395
36.90960309738324 22.3347
36.933075062434064 22.279
36.95673202673572 22.3168
36.98020721697122 22.2719
37.003684015502365 22.2007
37.027162423645365 22.1765
37.050825886711465 22.1956
37.07430753063053 22.1241
37.09779078812467 22.0689
37.121275660513014 22.0467
37.144945643673694 22.0659
37.16843376245278 21.9333
37.19192350009803 21.9217
37.215414857931435 21.8957
37.239091382563885 21.8319
37.262585997426164 21.8099
37.28608223645736 21.8749
37.309763684451696 21.7857
37.33326318851098 21.732
37.356764320726555 21.7304
37.380267082425526 21.6468
37.40395510942588 21.6587
37.42746114683234 21.6298
37.45096881771841 21.5358
37.474478123414166 21.5379
37.49817275092816 21.5385
37.52168534303452 21.5165
37.54519957395567 21.4053
37.568715445024665 21.3902
37.592416694607714 21.3839
37.61593586281424 21.4159
37.63945667518264 21.4326
37.66297913304891 21.3507
37.68668702630454 21.2837
37.710212792059274 21.1783
37.733740207334854 21.1047
37.757269273470364 21.0851
37.780983832050374 21.1594
37.80451621684926 21.105999999999998
37.82805025654007 21.061
37.851585952464795 20.9808
37.8753071980695 20.9798
37.89884622345676 20.8578
37.92238690911902 20.804000000000002
37.94611318753442 20.8435
37.969657210779765 20.8067
37.99320289834801 20.815
38.016750251586465 20.7662
38.04048325513017 20.7407
38.06403395679343 20.7353
38.087586328183946 20.6183
38.11114037065203 20.6556
38.13488012115898 20.6153
38.1584375229181 20.5242
38.181996599821 20.506999999999998
38.205557353221124 20.4825
38.229303872575656 20.4484
38.2528679961576 20.4454
38.27643380031219 20.3017
38.30000128639589 20.3041
38.32375459653193 20.3784
38.34732546371299 20.358
38.37089801690786 20.1988
38.39447225747609 20.1817
38.418232380377425 20.1592
38.441810012983396 20.2431
38.46538933705673 20.1732
38.488970353960084 20.0931
38.51273731166058 20.0625
38.536321731567014 20.0588
38.55990784840681 20.017
38.58367995004091 19.9771
38.60726947812959 19.9425
38.63086070726198 19.9303
38.654453638806274 19.9581
38.678232613930824 19.8913
38.70182896773327 19.8227
38.72542702806741 19.838
38.7490267963045 19.8033
38.77281266709232 19.6948
38.79641586862214 19.7267
38.8200207821842 19.6425
38.843627409152944 19.6641
38.86742019782782 19.6231
38.891030269149255 19.6069
38.914642058016156 19.5607
38.938255565806124 19.5145
38.96205529464307 19.4919
38.98567225787121 19.4619
39.00929094417078 19.3817
39.03291135492255 19.4409
39.05671804624804 19.4032
39.080341923549106 19.3078
39.103967529460334 19.3629
39.127594865365744 19.2896
39.15140854155791 19.2621
39.17503935514948 19.2264
39.19867190290282 19.2034
39.22249083587951 19.1663
39.24612686969409 19.1484
39.269764641845306 19.1162
39.293404153722804 19.0461
39.317230110864074 18.958
39.34087311998506 18.9295
39.36451787301696 18.9864
39.388164371352595 18.9819
39.41199737518003 18.8932
39.43564738196752 18.8923
39.45929913825317 18.7963
39.48295264543308 18.7838
39.506792718520884 18.7899
39.530449745387216 18.7439
39.55410852735203 18.6856
39.57776906581474 18.7714
39.60161623079 18.6524
39.625280300200025 18.6103
39.64894613032202 18.5792
39.67261372255866 18.5891
39.6964680021016 18.5895
39.72013913657293 18.5837
39.74381203738292 18.4903
39.76748670593756 18.5155
39.79134812278169 18.4746
39.81502634488497 18.46
39.83870633896685 18.4219
39.862388106436654 18.3754
39.88625668336918 18.2803
39.90994201572829 18.3159
39.933629125719285 18.2633
39.957503091207826 18.2346
39.9811937746168 18.2796
40.00488623990914 18.1569
40.02858048850006 18.1408
40.05246165409549 18.1432
40.076159487492085 18.0479
40.099859108448875 18.0445
40.123560518384345 18.0568
40.1474489070226 18.0104
40.171153913178564 17.9562
40.194860712584955 17.929000000000002
40.2185693066637 17.9326
40.242464941335314 17.8429
40.26617714307655 17.817
40.289891143772046 17.7847
40.3136069448471 17.7782
40.33750984859743 17.7861
40.3612292688043 17.7732
40.3849504936829 17.7312
40.40867352466194 17.6829
40.43258372059144 17.6565
40.45631038219906 17.5825
40.48003885420956 17.5537
40.503769138055105 17.5324
40.52768664931955 17.581
40.55142057531802 17.6042
40.57515631746428 17.4811
40.599079334038514 17.4856
40.62281872700477 17.3502
40.64655994043941 17.4007
40.67030297578061 17.3568
40.69423334835778 17.2952
40.71798004609188 17.317999999999998
40.74172857006355 17.3083
40.76547892171441 17.3282
40.7894166736039 17.2767
40.813170699248566 17.2091
40.83692655691388 17.1716
40.86068424804498 17.2212
40.884629402612525 17.1383
40.908390779366385 17.1451
40.932153993938 17.1365
40.95591904777605 17.088
40.979871628443995 17.0718
41.003640379561936 17.0961
41.02741097430883 16.9692
41.05118341413683 16.9861
41.075143444384416 16.9452
41.098919593177826 16.910999999999998
41.1226975914255 16.8626
41.14647744058318 16.8236
41.170444943946755 16.8665
41.19422851378379 16.7856
41.218013938914645 16.7074
41.24198706625173 16.6822
41.26577622087193 16.686
41.289567235177785 16.6388
41.31336011063129 16.6545
41.337340752422875 16.57
41.361137369129835 16.5867
41.38493585138705 16.5321
41.40873620066004 16.4724
41.43272438060107 16.514
41.45652848292052 16.4565
41.48033445666918 16.4175
41.50414230331616 16.391
41.528138045159764 16.4027
41.551949656675205 16.3118
41.575763145513235 16.2942
41.59957851314666 16.2697
41.62358184070442 16.2369
41.64740098505737 16.2164
41.6712220126409 16.2031
41.69504492493139 16.1947
41.71905586207357 16.1504
41.74288256296395 16.1255
41.766711153007456 16.1043
41.79054163368412 16.0399
41.814560204340054 16.049
41.838394485526365 16.0533
41.86223066180303 16.0023
41.88625497706819 15.9788
41.910094962812 15.9647
41.93393684811168 15.9666
41.95778063445365 15.8724
41.981812625263366 15.8093
42.00566023303407 15.7865
42.029509746323676 15.802999999999999
42.05336116662236 15.7956
42.077400857069705 15.7562
42.10125611078846 15.7458
42.12511327600405 15.6443
42.14897235421036 15.6577
42.173019768448455 15.7034
42.19688269209613 15.6452
42.22074753323349 15.6122
42.24461429335818 15.6175
42.268669455600495 15.5488
42.292540073217886 15.4838
42.31641261433284 15.4887
42.34028708044675 15.4503
42.36435001496739 15.4498
42.38822835065557 15.4222
42.41210861586426 15.3847
42.4359908120986 15.4134
42.46006154323262 15.3541
42.48394762115317 15.3163
42.507835634632315 15.3
42.531912233047436 15.297
42.55580413732265 15.2599
42.579697981698 15.171
42.60359376768525 15.1902
42.62767820545945 15.1948
42.65157789440821 15.1935
42.67547952952185 15.137
42.699383112316 15.0927
42.72347541395347 15.0162
42.74738291190531 15.0148
42.771292362102166 15.0517
42.795203766063516 14.9879
42.819303956130405 14.9854
42.843219287476536 14.9886
42.86713657716324 14.9575
42.89105582671383 14.8976
42.91516392983864 14.9014
42.939087119032166 14.8735
42.963012272677304 14.7802
42.98693939230129 14.7798
43.01105543317513 14.7887
43.034986504731386 14.6997
43.05891954686589 14.7317
43.08285456110972 14.6863
43.10697856448665 14.6297
43.130917542983475 14.5895
43.15485849820081 14.5841
43.17880143167367 14.4989
43.20293342237094 14.515999999999998
43.226880332449 14.5083
43.25082922540554 14.4729
43.27496722682525 14.4711
43.29892010567796 14.4804
43.32287497204102 14.4529
43.34683182745632 14.3484
43.370977859791836 14.3387
43.39493871351105 14.3739
43.41890156092628 14.3638
43.44286640358341 14.3531
43.46702049182749 14.2953
43.49098934522816 14.2211
43.51496019852649 14.2088
43.5389330532723 14.2152
43.56309522248204 14.2255
43.58707210044314 14.1732
43.61105098451946 14.0959
43.63503187626491 14.1178
43.659202151562134 14.0993
43.68318707902681 14.097999999999999
43.70717401884041 14.0354
43.731162972560874 13.993
43.75534137913236 13.9782
43.779334381108384 13.9513
43.803329401683186 13.9352
43.82732644241872 13.9002
43.8515130055166 13.8561
43.87551410707659 13.8604
43.89951723350145 13.8344
43.923709934595614 13.7916
43.94771713129917 13.8247
43.97172635758096 13.7632
43.99573761501002 13.7676
44.0199385169922 13.700999999999999
44.04395385732619 13.6746
44.067971233533086 13.7609
44.09199064718605 13.6177
44.11619977548961 13.6054
44.14022328470671 13.59
44.16424883610785 13.595999999999998
44.18827643127035 13.5907
44.21249381139513 13.6139
44.236525514814076 13.5241
44.26055926674478 13.4382
44.28459506876863 13.4756
44.3088207262813 13.4037
44.33286064928722 13.3855
44.35690262714919 13.4037
44.38094666145278 13.3883
44.4051806219871 13.3531
44.42922879003185 13.2808
44.45327901929361 13.2621
44.477331311362136 13.2501
44.501573600619416 13.1678
44.525630039221795 13.1438
44.54968854541895 13.1829
44.573937102200176 13.1641
44.5979997645541 13.1309
44.622064499300315 13.1206
44.64613130803592 13.109000000000002
44.67038823869318 13.1381
44.69445921643748 13.0702
44.718532272981385 13.0028
44.742607409926194 13.0128
44.76687274034801 13.0256
44.79095205918753 12.9265
44.81503346325094 12.9313
44.839116954143876 12.9506
44.86339071028742 12.9344
44.88747839599524 12.9066
44.91156817336837 12.8358
44.93566004401666 12.8315
44.959942251908146 12.8316
44.984038330325966 12.7757
45.00813650686762 12.7306
45.03223678314731 12.7022
45.05652746888232 12.6934
45.08063196592069 12.7105
45.104738567558705 12.685
45.128847275414856 12.6495
45.15314646515866 12.6112
45.17725940679741 12.6156
45.20137445952892 12.5834
45.22568004865265 12.5659
45.24979934496396 12.5721
45.27392075725247 12.5065
45.29804428714431 12.4872
45.322358426247604 12.4759
45.346486212804315 12.446
45.370616121861914 12.4275
45.39474815505086 12.3939
45.41907087049246 12.3298
45.4432071734666 12.3279
45.46734560548283 12.3406
45.49148616817604 12.3256
45.51581748638564 12.3163
45.5399623320197 12.2824
45.56410931325473 12.2911
45.58825843173002 12.31
45.61259837920865 12.24
45.636751793816 12.2031
45.66090735060093 12.1816
45.68506505120716 12.1482
45.7094136545275 12.1343
45.73357566449271 12.0856
45.75773982322992 12.0573
45.78190613238733 12.0926
45.806263418194064 12.0828
45.83043404997326 12.0295
45.85460683713677 11.9936
45.87897065658495 11.9646
45.90314777634752 11.9457
45.92732705646868 11.9369
45.9515084986045 11.9273
45.97588104735473 11.8476
46.00006683541565 11.8222
46.02425479047904 11.8034
46.04844491420549 11.8127
46.0728262191024 11.8432
46.09702070211635 11.8033
46.12121735879483 11.7349
46.14541619080294 11.7189
46.169806278764455 11.713
46.194009483459034 11.6881
46.21821486849841 11.6691
46.24242243555223 11.6559
46.266821333570014 11.6399
46.29103328674601 11.648
46.31524742696538 11.6413
46.33946375590237 11.5258
46.36387149104216 11.5311
46.38809221957392 11.5079
46.41231514186606 11.5327
46.436540259597464 11.5021
46.460956858999374 11.4702
46.48518638983522 11.4543
46.509418121166966 11.3992
46.533652054678114 11.3758
46.55807754555709 11.3649
46.58231590571962 11.3596
46.60655647313217 11.3436
46.630988654873654 11.314
46.655233659129024 11.2877
46.67948087571551 11.2977
46.70373030632484 11.2751
46.72817142736393 11.2286
46.752425308428684 11.2105
46.77668140861147 11.1948
46.80093972960865 11.1408
46.82538981736788 11.1159
46.849652602470904 11.1052
46.87391761349769 11.0892
46.8981848521493 11.0698
46.9226439341274 11.0349
46.946915650573224 11.01
46.97118959976749 11.0179
46.99546578341598 10.9651
47.019933887188216 10.997
47.04421456235744 10.9791
47.06849747711879 10.9465
47.09278263318286 10.9214
47.11725978640143 10.8899
47.14154944775105 10.8559
47.165841355555656 10.8445
47.1901355115306 10.7911
47.214621741924994 10.8132
47.23892041698887 10.8015
47.26322134538975 10.800999999999998
47.28771440635075 10.770999999999999
47.31201986422527 10.7684
47.33632758061436 10.7083
47.360637557241866 10.687000000000001
47.38513974410611 10.6667
47.40945426407847 10.6516
47.43377104948137 10.6387
47.45809010204344 10.6285
47.48260144275502 10.5759
47.506925052572285 10.537
47.53125093475548 10.5085
47.55557909103813 10.5231
47.58009961361992 10.5018
47.60443234110732 10.4651
47.62876734791564 10.4832
47.65310463578333 10.4432
47.6776343683373 10.4071
47.7019762413987 10.4136
47.72632040075572 10.3713
47.75066684815169 10.3933
47.77520581885936 10.3598
47.799556865477655 10.3292
47.823910205386 10.3338
47.84826584033272 10.2966
47.87281407745551 10.262
47.89717432569297 10.3021
47.92153687423484 10.2498
47.94609208429692 10.2615
47.97045925671401 10.2249
47.99482873471275 10.1918
48.01920052005013 10.152999999999999
48.04376504619224 10.1551
48.068141469543484 10.1702
48.09252020552573 10.1404
48.11690125590099 10.1
48.1414751266064 10.0972
48.16586082917454 10.0831
48.19024885144316 10.0364
48.2146391951793 10.0388
48.239222439012764 10.0202
48.26361744916137 9.99824
48.28801478610016 9.98837
48.31241445160131 9.97509
48.337007097209366 9.96677
48.36141144338331 9.95159
48.38581812345755 9.88221
48.41022713920929 9.9105
48.434829215320704 9.89003
48.45924292604658 9.88016
48.48365897780325 9.88488
48.50807737237308 9.84384
48.532688907799276 9.79771
48.55711201168574 9.77951
48.581537463754074 9.76428
48.60615611725119 9.7957
48.63058628942721 9.73635
48.65501881516546 9.74036
48.6794536962573 9.74261
48.70408185970339 9.68869
48.72852147531801 9.67193
48.75296345168211 9.634269999999999
48.77740779059232 9.620460000000001
48.80204549302823 9.64381
48.82649458091802 9.65852
48.85094603676547 9.564589999999999
48.87539986237231 9.55441
48.90004713292306 9.49801
48.92450572200832 9.505939999999999
48.94896668628025 9.480080000000001
48.97343002754588 9.49537
48.99808689542115 9.47761
49.02255501470614 9.46015
49.04702551642794 9.469710000000001
49.0714984023988 9.433589999999999
49.096164896893235 9.36245
49.120642575466796 9.37916
49.145122643748394 9.37803
49.16960510355558 9.34481
49.19428125404938 9.33591
49.2187685210852 9.37397
49.243258185121555 9.2938
49.26794160167084 9.24905
49.2924360839405 9.23674
49.31693296869764 9.26843
49.34143225776915 9.22436
49.36612538195438 9.22128
49.39062950396021 9.19041
49.41513603578346 9.182080000000001
49.4396449792564 9.15595
49.46434784069503 9.13411
49.488861631846454 9.12318
49.513377840166804 9.101289999999999
49.537896467493745 9.05155
49.56260909589029 9.01468
49.587132585683285 9.02703
49.611658500018365 9.02496
49.636186840738596 9.005230000000001
49.66090926588511 9.02539
49.685442483902584 8.97927
49.70997813385706 8.928930000000001
49.734516217597076 8.91385
49.75924846937352 8.880460000000001
49.7837914452858 8.881260000000001
49.80833686055187 8.87683
49.83288471702571 8.85383
49.85762682540054 8.86607
49.882179588965734 8.79003
49.9067347993235 8.777280000000001
49.93129245833333 8.80658
49.95604445336378 8.78014
49.98060703442832 8.77978
50.005172069746266 8.75603
50.02993150438364 8.71931
50.05450147301533 8.71827
50.07907390151433 8.71075
50.10364879174981 8.67335
50.12841816587289 8.65422
50.1529980044635 8.6477
50.17758031042124 8.63599
50.20216508562089 8.62603
50.22694442953363 8.593910000000001
50.25153416817468 8.58854
50.27612638170508 8.544989999999999
50.300721072005196 8.517660000000001
50.325510416102105 8.54776
50.350110084975064 8.472999999999999
50.37471223628208 8.49653
50.39931687190919 8.47481
50.424116246675766 8.46901
50.44872587605249 8.46228
50.47333799543065 8.45659
50.49795260670191 8.40888
50.52276204271512 8.43392
50.54738166295838 8.403030000000001
50.57200378079314 8.36362
50.596628398116835 8.32447
50.62144792604559 8.33682
50.646077567609396 8.333039999999999
50.670709714377715 8.33433
50.69553683636198 8.28531
50.72017401885922 8.25362
50.7448137122895 8.23595
50.76945591856022 8.22382
50.79429318636823 8.23784
50.818940443716784 8.218919999999999
50.84359021965163 8.17446
50.868242516085964 8.18233
50.893089960641895 8.170739999999999
50.917747323549435 8.15509
50.94240721271973 8.119760000000001
50.96706963007175 8.11233
50.99192728239342 8.09116
51.01659478166073 8.10241
51.04126481489051 8.04689
51.06593738400761 8.061810000000001
51.090805275207074 8.04303
51.11548294172845 8.01319
51.14016314993547 7.99777
51.164845901758845 7.98485
51.18972406304274 7.95855
51.21441192780656 7.97519
51.23910234200271 7.93456
51.2637953075678 7.8958
51.288683770237945 7.89703
51.31338186432707 7.84172
51.33808251561888 7.83093
51.362978729967345 7.83725
51.387684521509755 7.846089999999999
51.41239287610203 7.8251800000000005
51.437103795691165 7.7832
51.46201036644977 7.7716199999999995
51.486726441956634 7.8102100000000005
51.51144508832545 7.75174
51.536166307509156 7.719360000000001
51.56108326624387 7.700819999999999
51.58580965706056 7.7169
51.61053862657523 7.70326
51.635270176746864 7.63317
51.66019755512065 7.65227
51.68493429268881 7.64377
51.70967361681515 7.615139999999999
51.73441552946465 7.615589999999999
51.759353359237934 7.60278
51.7841004750961 7.59935
51.80885018539685 7.564780000000001
51.833602492111254 7.547389999999999
51.8585508051424 7.51855
51.883308330926425 7.5095600000000005
51.90806845906181 7.54117
51.932831191525715 7.4958100000000005
51.95779001977161 7.466810000000001
51.98255798721516 7.408589999999999
52.00732856494335 7.397869999999999
52.03229530577543 7.429989999999999
52.057071130455945 7.39407
52.081849571391054 7.41892
52.106630630568695 7.437060000000001
52.13160794279417 7.38515
52.15639426492067 7.32445
52.18118321127822 7.305160000000001
52.205974783860896 7.326289999999999
52.23096269971011 7.28949
52.255759551287994 7.26341
52.280559035098186 7.244160000000001
52.30536115314103 7.26005
52.33035970494467 7.23113
52.35516711807904 7.22841
52.37997717147198 7.211110000000001
52.40478986713005 7.251010000000001
52.42979908731974 7.17543
52.454617094216 7.12759
52.47943774942214 7.1281300000000005
52.50426105495102 7.12787
52.529280976059844 7.12263
52.554109609024096 7.12666
52.57894089837482 7.07828
52.60377484613117 7.0300899999999995
52.62880550079408 7.06624
52.65364479223379 7.028169999999999
52.67848674816189 7.014060000000001
52.70352547971946 7.015
52.72837279155837 6.999110000000001
52.753222773982785 6.95211
52.778075429022984 6.97445
52.80312495150885 6.945880000000001
52.827982978797436 6.948510000000001
52.85284368481815 6.8700399999999995
52.87770707160767 6.890039999999999
52.90276741793998 6.9229
52.92763619336701 6.88599
52.952507655698504 6.855339999999999
52.977381806977576 6.83257
53.00245301017842 6.83115
53.02733256653592 6.8338600000000005
53.052214817996074 6.8048
53.077099766608484 6.76951
53.102181859804446 6.757619999999999
53.127072229988265 6.77497
53.15196530349892 6.818569999999999
53.17686108239249 6.76783
53.20195409881522 6.7242
53.22685531582556 6.71046
53.25175924441303 6.69853
53.27666588664027 6.67983
53.30176985962693 6.6721699999999995
53.3266819565689 6.68613
53.35159677336455 6.65977
53.376514312083096 6.630960000000001
53.40162927507703 6.64957
53.42655228516116 6.607410000000001
53.45147802340193 6.6009899999999995
53.47660125628886 6.56583
53.50153247842639 6.5573
53.52646643496923 6.53565
53.55140312799818 6.50099
53.576537409691696 6.47985
53.60147960336152 6.483169999999999
53.626424539786164 6.46611
53.65137222105307 6.44014
53.67651758529126 6.4374
53.70147078399681 6.464930000000001
53.72642673383343 6.422999999999999
53.75138543689533 6.430280000000001
53.776541917524526 6.4302
53.801506154876755 6.4064
53.826473151763246 6.3945099999999995
53.851442910284916 6.3396099999999995
53.87661054126026 6.35237
53.9015858509782 6.35826
53.92656392866066 6.35087
53.95154477641532 6.32487
53.976723591801296 6.317130000000001
54.00171000771266 6.30279
54.02669920004598 6.29012
54.051691170915745 6.2425
54.076881204886796 6.20798
54.101878760928514 6.27035
54.12687910187696 6.16194
54.152077577768296 6.15521
54.1770835166946 6.1415
54.20209224691339 6.16237
54.22710377055121 6.14302
54.25231352511594 6.09737
54.27733066384342 6.07456
54.30235060239643 6.098319999999999
54.32737334290836 6.08574
54.35259441062629 6.034009999999999
54.377622783395324 6.049119999999999
54.40265396455061 6.0515300000000005
54.42768795623251 6.00082
54.45292037169559 5.96056
54.477960012857906 5.99466
54.50300247099511 5.96338
54.52804774825457 5.9177599999999995
54.55329154616743 5.8947
54.57834249018678 5.89703
54.6033962597977 5.8689800000000005
54.6284528571545 5.88633
54.653708072335164 5.79611
54.67877035378786 5.80098
54.70383546947698 5.8067400000000005
54.72890342156389 5.78958
54.7541700889442 5.70582
54.77924374251975 5.72018
54.8043202390049 5.68849
54.82959552413022 5.70796
54.8546777351945 5.6448
54.87976279569621 5.64537
54.90485070780914 5.66819
54.930137506558005 5.5837900000000005
54.95523115074295 5.61792
54.98032765308844 5.59262
55.005427015775496 5.55049
55.03072536339621 5.60533
55.05583047570572 5.50864
55.080938454927676 5.4863
55.10604930325027 5.4608099999999995
55.131359235107396 5.49292
55.15647585066083 5.46277
55.181595341907496 5.4299599999999995
55.20671771104285 5.39837
55.232039262617704 5.34101
55.25716741665048 5.3337699999999995
55.28229845518636 5.32193
55.30743238042802 5.31701
55.33276558731939 5.27353
55.357905315183636 5.23051
55.383047936390035 5.17326
55.40819345314859 5.16716
55.433538351073295 5.20299
55.458689688238415 5.22081
55.483843927614096 5.120080000000001
55.509197623043605 5.14501
55.53435769621134 5.11468
55.55952067826466 5.03995
55.5846865714265 5.05633
55.61005202069737 5.02302
55.63522376553902 5.02979
55.66039842818645 4.9907
55.68557601087004 4.96396
55.7109532500271 4.88886
55.73613670233794 4.92496
