TT I
1.2716486653135266 7.42397
1.2939594142134223 6.7302100000000005
1.3162702121660406 6.21667
1.3385810600174564 6.7732
1.3608919586137629 6.82855
1.383202908801069 6.1224300000000005
1.405513911425503 6.55405
1.4278249673332093 5.79095
1.4501343378461518 5.9510000000000005
1.4724455028545926 6.05826
1.4947567236847858 5.80307
1.517068001182951 5.69956
1.5393793361953272 5.27043
1.5616907295681737 5.39283
1.5840021821477681 5.67834
1.60631369478041 5.58292
1.6286252683124185 5.1550400000000005
1.6509369035901333 5.11487
1.6732468618895553 5.0889
1.695558623192809 4.79809
1.7178704487808514 4.90798
1.7401823395001077 5.01869
1.7625012545597203 4.84514
1.7848028405262486 4.85379
1.8071218901122095 4.37922
1.8294236121921872 4.41865
1.8517427996910911 4.831840000000001
1.8740620574440425 4.80626
1.8963639900671978 4.93469
1.9186833908139995 4.89737
1.9409854680117449 4.36672
1.9633050151394713 4.76352
1.9856246367570705 4.77998
2.0079269371922672 4.79704
2.03024671027244 4.3903099999999995
2.0525491637446027 4.690180000000001
2.074869091674931 4.83141
2.097171701569106 4.73254
2.1194917877373847 4.8288400000000005
2.141811954326636 4.62383
2.164114805233074 4.59159
2.186435135143035 5.58301
2.208738150935709 12.8772
2.231058647554722 24.7045
2.2533792288321184 18.9176
2.275682498336085 9.20085
2.298003251406138 4.76703
2.3203066942619714 5.12867
2.3426276225136022 5.29502
2.3649486396617507 4.76585
2.387252348930071 5.56364
2.4095735463442893 5.16772
2.4318774374315884 6.11903
2.4541988185014043 6.00816
2.476502894794693 5.5140199999999995
2.498824462909887 6.0403
2.521146125856138 6.50634
2.5434504863470337 6.11306
2.5657723414244717 6.52853
2.588076895590662 7.07688
2.610398946189713 7.95173
2.6327210958598384 6.7690600000000005
2.6550259469304716 7.0551
2.6773482972090137 7.48491
2.6996533504259 7.02014
2.7219759047039602 7.30761
2.744298562293959 7.73015
2.7666039251246595 7.795160000000001
2.7889267918020164 7.625310000000001
2.8112323652516555 7.62684
2.833555444408179 8.15008
2.8558786311183852 8.31904
2.8781845268938557 8.558689999999999
2.9005079311721484 8.49638
2.9228140460410397 8.861930000000001
2.9451376712799635 9.49586
2.967444008632326 10.1222
2.9897678582247247 10.5171
3.0120918213106695 10.7576
3.0343984987899373 10.9038
3.0567226913198637 11.1386
3.079029599759726 11.638
3.101354025127254 11.7693
3.123678568232338 12.3223
3.145985829517914 12.7129
3.16831061055229 13.5476
3.1906181112775593 14.4226
3.212943133635653 14.7486
3.2352682779763207 15.1189
3.2575761442691227 15.5821
3.2799015350264273 15.4032
3.302209649240067 16.2093
3.3245352898092655 16.5989
3.3468436553365257 17.3511
3.369169549113219 17.5798
3.3914955708171384 18.7318
3.413804319727358 18.7045
3.4361305997334863 19.0487
3.4584396084414553 19.7998
3.4807661501462652 20.4189
3.503092824025881 21.2722
3.5254022288463154 21.2607
3.5477291695206588 21.8089
3.5700388426251948 22.5922
3.5923660534916446 23.6933
3.6146934007816114 36.9431
3.637003482731501 80.066
3.6593311053109985 88.6503
3.681641464033634 52.0015
3.7039693653009733 29.8191
3.726297407241705 26.0892
3.7486081875460804 25.9373
3.7709365132734978 26.2504
3.793247578841633 26.8124
3.8155761917550093 27.1917
3.8378875459837216 27.2368
3.8602164494827234 27.7321
3.882545499606844 28.5918
3.9048572932539183 28.7981
3.9271866390645718 29.1357
3.9494987298666713 29.9641
3.971828374764527 30.9941
3.9941581705403255 31.3817
4.016470713506008 31.3135
4.038800813471445 32.7992
4.061113662089144 33.1009
4.0834440696459176 33.6076
4.105774632334751 34.1987
4.128087945865126 35.0652
4.150418821249301 35.4849
4.172732448931298 37.4172
4.195063640413578 39.226
4.2173775856475215 42.0802
4.239709096631102 70.9432
4.262040768704612 211.97400000000002
4.284355196706267 281.26099999999997
4.306687193387355 182.08
4.329001947444346 75.7427
4.35133427213731 47.6321
4.373666762177566 45.0363
4.395982011761091 45.1668
4.418314834921175 45.949
4.44063041906622 53.1264
4.4629635787515625 62.5112
4.4852969080429785 62.5446
4.5076130004776225 54.1542
4.529946671403969 51.1131
4.552263106909177 50.8957
4.574597122877047 52.2114
4.596931312711224 52.883
4.619248269273446 54.0302
4.6415828092605835 55.1772
4.663900117405352 56.0615
4.686235010953232 57.3859
4.708552674085913 58.7806
4.730887924602802 60.4025
4.753223354952695 61.9615
4.775541557023902 63.3055
4.797877349456786 64.5657
4.820195915032126 66.3731
4.842532072957498 67.9478
4.864868414979744 70.564
4.88718753227192 72.6944
4.909524244902505 74.8113
4.931843734218147 77.2488
4.954180820867835 79.4628
4.976518095879839 83.0345
4.998838149695359 85.7517
5.021175803844231 89.5807
5.043496238205739 93.2025
5.065834274903528 98.5417
5.088172504230693 103.979
5.1104935158799565 111.56299999999999
5.132832132875765 134.264
5.155153533596801 177.93599999999998
5.1774925416746225 221.77599999999998
5.199814334878411 457.77
5.2221537374521505 1306.28
5.244493338631803 3290.47
5.266815727034316 7401.36
5.289155727832427 11749.2
5.311478517248165 8726.4
5.333818921080011 3107.63
5.356159527788849 650.115
5.3784829252032536 205.734
5.400823940070432 152.687
5.423147747031976 133.455
5.445489173474152 122.834
5.467830807066149 117.009
5.490155234831516 112.48100000000001
5.512497285125229 108.6
5.534822130975162 106.36200000000001
5.557164601388673 104.007
5.579489868738879 101.395
5.601832762690846 100.76899999999999
5.6241758697774475 99.2184
5.646501775867269 97.8345
5.668845311622074 96.7886
5.691171647754637 95.7661
5.713515615597765 95.135
5.735859800852677 94.339
5.758186788542988 93.87799999999999
5.780531411018185 93.9824
5.802858837297399 93.6692
5.825203900414495 93.9962
5.8475491852224 94.0933
5.869877275883075 94.9891
5.892223006467101 96.5959
5.914551544266608 98.0223
5.936897724049891 102.226
5.959244129804903 109.595
5.981573344815301 136.306
6.0039202049061 255.59599999999998
6.026249875609095 559.117
6.04859719346037 1133.19
6.070927323278297 2296.46
6.093275102315365 4226.54
6.115623113320588 5171.56
6.137953938319995 3437.09
6.160302415650845 1205.34
6.182633708324452 283.422
6.2049826554078376 121.95200000000001
6.227331838745022 97.2613
6.249663839443684 88.1503
6.27201349767565 84.3493
6.294345974611799 88.9265
6.316696111167083 98.8133
6.339046488263839 93.53399999999999
6.361379686074702 80.0538
6.383730546639482 73.4312
6.406064229255215 70.3097
6.428415576718203 69.4645
6.450749747566656 68.5645
6.47310158535871 66.8743
6.495453669698332 66.2298
6.517788579421056 65.6481
6.540141159237969 64.865
6.562476565766648 64.2499
6.5848296444934045 63.5384
6.607182974060425 63.4387
6.6295191323281015 63.4845
6.651872965955752 66.1727
6.6742096296068985 88.3875
6.6965639707294615 129.07399999999998
6.71891856698715 128.974
6.741255995248479 90.4775
6.763611104154477 67.8657
6.785949046381137 61.09
6.808304671371482 59.2189
6.8306605557940046 58.9584
6.852999275508618 57.967
6.875355681171544 58.0381
6.897694923437771 57.5106
6.92005185377892 57.5009
6.9423916220322655 57.3617
6.964749080490181 56.6332
6.987106804399774 56.3515
7.009447368180821 56.5776
7.031805625367033 56.1168
7.054146723727803 56.0023
7.076505517631004 55.5984
7.098864581288365 56.0645
7.121206488070854 55.7567
7.143566093607822 55.5837
7.165908543567245 55.8376
7.188268694426048 55.8857
7.2106291193438095 56.0056
7.232972390625943 57.3148
7.255333366030969 68.3155
7.277677189091925 115.295
7.300038718428332 154.697
7.322400526130865 132.61700000000002
7.344745183422596 84.9438
7.367107550224791 61.6777
7.389452767901992 56.6036
7.411815697249891 55.924
7.434161478756298 55.0629
7.456524974096713 55.0713
7.478888753837185 54.7266
7.501235387657368 55.2627
7.523599738562711 55.5719
7.545946944825532 55.625
7.568311870344528 56.1259
7.5906770845765665 56.3202
7.613025156078678 57.6174
7.635390950099687 58.6408
7.657739602662809 57.8985
7.680105979923558 56.6121
7.702472650212829 56.982
7.724822180948224 56.9624
7.747189439655568 57.0506
7.769539560075357 57.0914
7.791907410653562 57.4712
7.81425812420825 57.4163
7.836626570110925 57.4676
7.858995315087906 58.6981
7.881346924933401 58.6562
7.903716270417482 59.1743
7.926068482028405 59.4701
7.948438431475253 60.346000000000004
7.9708086843180235 60.9834
7.993161805171116 61.3863
8.015532667162402 61.7021
8.037886398416653 63.007
8.060257873014221 63.413999999999994
8.082629655331942 64.1828
8.104984308787587 64.7764
8.127356708900503 68.1376
8.149711981398308 72.798
8.172085002766314 75.0808
8.194458336181368 72.2448
8.216814543847752 70.3099
8.23918850371002 70.6155
8.26154533906492 71.7827
8.283919928836452 73.2352
8.306277395339652 74.1405
8.328652618483376 75.3954
8.351028159736202 77.6271
8.373386579575245 80.0444
8.395762759396959 82.0483
8.418121819038275 87.1504
8.440498640894003 99.7258
8.462875785192262 114.444
8.485235811156207 132.622
8.507613602688501 189.87900000000002
8.529974277114228 296.442
8.552352719347912 445.792
8.574731488360351 715.6419999999999
8.59709314210385 1221.58
8.619472567021075 1777.35
8.64183487789147 2122.86
8.664214962183097 1856.46
8.686577933647762 1026.48
8.708958680784317 396.869
8.731339760774953 174.18
8.753703729764451 115.70299999999999
8.77608547780821 101.721
8.798450116065078 97.6481
8.820832535634787 94.0823
8.843215292401656 92.4632
8.865580941199045 91.2358
8.887964374703538 89.936
8.910330701447199 90.6703
8.932714815164482 92.7127
8.955099270424924 92.0899
8.977466620733543 88.8724
8.999851761421976 86.4576
9.022219798361645 85.2516
9.04460562795561 84.7866
9.066991803441677 84.2486
9.089360876979615 83.9748
9.111747746589993 83.56200000000001
9.13411751544971 83.086
9.156505082664324 82.9864
9.178875550323522 83.102
9.20126381862328 83.5537
9.223652438908596 83.904
9.246023961427412 83.5945
9.26841328802173 83.1392
9.290785518039224 83.2857
9.313175554425882 83.9906
9.335565947154315 83.8884
9.357939245086508 84.04
9.380330352834827 84.0299
9.40270436697103 84.3398
9.425096193225055 84.2697
9.447488380180165 85.5534
9.469863475295412 85.6203
9.492256385987508 86.1416
9.514632206018318 86.66799999999999
9.537025843935714 87.0421
9.559402392368193 87.7326
9.581796761000229 88.9868
9.604191496441521 89.8395
9.626569144158516 92.3597
9.648964615551032 96.9914
9.671343000390081 98.5154
9.693739211225699 96.9571
9.716135793237463 94.8515
9.738515290448102 95.1696
9.760912617143402 95.6977
9.783292860202891 97.1308
9.805690935076182 98.3687
9.828089385495742 99.3994
9.850470754023561 101.916
9.872869957865444 109.20299999999999
9.89525208097539 122.569
9.917652041736662 134.77700000000002
9.940052382417589 137.09
9.962435644102392 153.227
9.984836746950979 201.608
10.007220771957746 278.301
10.029622640473708 391.145
10.052007432299963 572.139
10.074410069984072 852.102
10.096813093716005 1244.65
10.119199042482517 1709.4
10.141602840636468 1938.77
10.163989564971628 1632.1
10.186394141051062 976.477
10.208799107559706 431.83
10.231187001965623 204.549
10.253592751657669 132.422
10.275981430388155 116.34100000000001
10.298387966769793 114.962
10.320794897965431 116.353
10.343184759907361 115.219
10.36559248305461 109.96600000000001
10.387983138083852 107.039
10.410391656691655 111.84
10.432800574501677 126.766
10.455192425893369 146.322
10.47760214443012 174.421
10.499994797678786 218.04
10.522405320453982 291.13
10.54479877906917 390.356
10.567210109595656 508.98199999999997
10.5896218454736 570.712
10.612016518879773 504.983
10.634429067781074 360.82300000000004
10.656824555333241 207.514
10.679237920773568 126.76899999999999
10.701651695961992 98.1462
10.724048411481384 91.0681
10.746463008485165 87.98200000000001
10.768860546937125 85.9642
10.791275969274796 84.281
10.81369180576079 83.0716
10.836090585366925 82.227
10.858507252467449 80.9356
10.88090686379991 80.1214
10.903324365036394 79.4689
10.925724811614439 79.2341
10.948143150509463 80.1351
10.970561909719066 79.3307
10.992963615930844 77.82600000000001
11.015383218085756 75.6563
11.037785768347074 74.2242
11.06020621697282 73.7039
11.082627090322113 73.0198
11.105030913430326 72.4225
11.12745263854165 73.1109
11.149857314510728 76.0933
11.172279894912576 81.5247
11.194702904450653 81.965
11.217108866490921 78.0752
11.239532736615194 74.4566
11.26193956033512 72.441
11.284364294577085 71.0598
11.306789462371718 68.8975
11.329197585398376 68.0399
11.351623622610898 67.84
11.37403261614354 66.6832
11.396459526308487 66.9658
11.418869393879497 66.5682
11.441297180532617 66.2584
11.463725406927658 65.7818
11.486136592353875 65.7491
11.508565700543707 66.09899999999999
11.530977768845315 67.806
11.553407762368774 68.4514
11.575838200059769 67.9068
11.598251599479612 66.0425
11.620682927815501 64.608
11.64309721895548 64.5847
11.665529441478206 64.1727
11.687962112597958 63.788999999999994
11.710377748130886 63.8064
11.732811318753434 63.9427
11.755227854859067 63.9089
11.777662328529495 63.5408
11.800079768750786 63.4203
11.822515149015453 63.498000000000005
11.844950984084935 63.7306
11.867369787303163 63.2226
11.889806534289491 63.4984
11.912226250487029 64.0386
11.934663912939751 63.6542
11.9571020346363 63.949
11.979523127133968 64.0826
12.001962169624331 64.8998
12.024384183972964 66.4367
12.046824150809913 70.4368
12.069264581333726 76.30199999999999
12.091687985297767 82.6547
12.11412934550045 92.5454
12.136553680195208 106.92399999999999
12.158995973632788 127.671
12.181438735204349 153.477
12.20386447284199 182.127
12.226308172985636 203.21900000000002
12.24873485024193 204.8
12.271179492516982 171.058
12.293607112949127 127.73700000000001
12.316052700916226 96.1574
12.338498763250042 78.73
12.360927805303868 70.6799
12.383374818673879 67.1906
12.405804812803074 65.4281
12.428252780773262 65.1812
12.45070122756722 65.307
12.473132656675375 65.1031
12.49558206341869 65.3116
12.518014453510101 65.2242
12.540464823770117 65.4422
12.562915677315177 65.6484
12.58534951575545 66.27600000000001
12.607801338171472 68.389
12.630236146511358 73.0166
12.652688941369085 77.1545
12.675124723177234 77.959
12.697578494048786 74.462
12.720032754458185 70.3129
12.742470003354093 69.0294
12.764925245138771 68.9312
12.787363476431278 69.0299
12.809819703166806 69.2894
12.83227642391173 70.0628
12.854716135692716 70.87899999999999
12.877173846755147 71.8168
12.899614549869717 72.2725
12.9220732548287 72.8566
12.94453245827299 73.4344
12.966974655289818 74.0801
12.989434858002571 75.1019
13.011878055298721 75.8111
13.034339260862497 77.1128
13.056800969391883 78.5978
13.079245674017244 80.7768
13.101708390774869 83.7928
13.12415410463411 92.6735
13.146617833206086 106.236
13.169064559883248 119.728
13.191529303857127 135.864
13.213994557076367 159.157
13.236442809902437 194.767
13.258909083908291 244.222
13.28135835851934 298.98
13.30382565690295 360.514
13.326293469022952 412.06199999999995
13.348744283242008 422.69800000000004
13.371213125129904 365.608
13.39366497011003 270.592
13.416134845360597 180.00099999999998
13.438605238843131 127.31700000000001
13.46105863690397 109.564
13.483530069144786 111.458
13.505984506951902 117.738
13.528456981549432 128.466
13.550929978879088 143.562
13.573385983253365 166.99200000000002
13.595860028340867 202.87599999999998
13.618317081455832 248.74400000000003
13.64079217790333 298.43
13.663250283359057 340.33099999999996
13.685726434770173 370.629
13.708203115221277 346.506
13.730662806148091 271.894
13.75314054697177 193.953
13.775601299246777 130.57299999999998
13.798080104050406 98.6861
13.820559442405358 86.9935
13.843021793671388 83.2498
13.865502201420897 81.4425
13.887965623051947 81.054
13.910447103807167 79.7786
13.932929122629764 78.3938
13.955394156785959 78.0511
13.977877254034569 76.9082
14.000343367582113 76.2605
14.022827546871707 75.7033
14.045294743423524 74.9253
14.06778000837062 74.3394
14.090265817715476 74.1457
14.112734645763819 73.6178
14.13522154619454 73.3809
14.157691466286913 73.6076
14.180179461423874 73.3643
14.202668005486178 72.5718
14.22513957064374 71.692
14.247629214846473 71.5797
14.270101881097517 71.3345
14.29259262906496 71.5204
14.315083930490205 72.0215
14.337558255389705 72.4295
14.360050666019726 72.1492
14.382526101071944 70.9849
14.405019624534942 70.2382
14.427513705993134 69.7113
14.449990813291825 69.8843
14.47248601302899 69.8349
14.49496423954951 69.8465
14.517460561197822 70.0437
14.539939910570322 69.6621
14.562437357763558 70.1821
14.58493536931253 71.3375
14.607416409993311 72.0497
14.62991555254159 72.7101
14.652397725157423 72.7913
14.674898002342799 72.2148
14.697398848433282 71.8199
14.719882725991326 72.4753
14.74238471217934 73.9819
14.764869730765593 78.1816
14.787372860692983 82.2833
14.809876564079925 87.3322
14.83236330125751 93.6811
14.854868153850365 102.65299999999999
14.877356041159485 115.83
14.899862046604186 132.953
14.922351087688757 155.08
14.944858249632887 180.097
14.967365991421232 202.257
14.989856770231246 219.90200000000002
15.012365673994204 218.192
15.03485761569738 191.22400000000002
15.05736768508665 152.97799999999998
15.07987833888692 116.40700000000001
15.102372032001655 92.0698
15.124883856909658 78.391
15.14737872204565 73.3824
15.169891721717274 71.5586
15.192405310371893 71.622
15.214901940621196 71.5629
15.237416709527137 71.6793
15.259914520936249 71.8054
15.282430473753607 70.916
15.304947020131227 69.5473
15.327446610371178 68.9799
15.349964346154254 68.266
15.372465126703139 67.7158
15.394984055556009 67.5392
15.417486030076159 67.314
15.44000615566487 67.2052
15.462526881230803 67.3305
15.485030653812652 67.1271
15.507552581617434 67.3166
15.530057557334603 67.4346
15.55258069104857 67.6448
15.575104429329837 67.354
15.597611216864632 66.8459
15.620136166564563 67.3362
15.6426441664095 68.7771
15.665170331202765 71.538
15.687697105158826 75.0907
15.710206930593545 79.1971
15.732734925158933 83.6238
15.755245972089478 90.1085
15.77777519094324 99.3074
15.800287463046663 111.584
15.822817909869592 128.274
15.84534897229804 146.895
15.867863089299354 167.423
15.890395385222186 182.574
15.912910736597423 192.18099999999998
15.935444269699861 181.828
15.957978423016485 158.987
15.980495633101265 126.839
16.003031029129367 97.2267
16.02554948280019 78.8326
16.048086125229432 68.9524
16.070623392487107 66.3104
16.09314371869582 65.16199999999999
16.11568223789321 64.3921
16.13820381691126 63.4237
16.160743591742527 62.2489
16.183283996022084 61.4492
16.205807461423195 60.5557
16.228349126881973 60.0135
16.25087385432698 59.9074
16.27341678466365 59.3313
16.29594277784926 59.3208
16.31848697676433 59.32899999999999
16.341031811604868 59.5709
16.36355971058487 59.9444
16.3861058195587 59.7105
16.40863499352978 58.2539
16.431182380342005 57.5416
16.453730407713202 57.1137
16.476261501364792 56.8639
16.498810812136167 56.2995
16.52134319004079 56.5469
16.54389378792203 56.5371
16.566445031001553 56.3311
16.588979342490088 55.8321
16.61153187824822 55.7715
16.634067483263312 55.8113
16.656621315414416 55.7658
16.679175797408888 55.4355
16.701713349928728 55.6125
16.72426913389191 55.7876
16.74680798922351 55.7764
16.76936507887444 55.7304
16.791905240734874 55.7695
16.814463639794468 55.7179
16.837022695210294 55.6287
16.859564824093756 56.0925
16.882125194503903 56.7923
16.904668639217885 57.4057
16.927230328348003 57.5919
16.949792678493612 57.6729
16.972338104193863 57.056000000000004
16.994901778652235 56.5681
17.017448529496576 56.6227
17.040013531998152 56.9852
17.06257920018044 57.5865
17.0851279459922 58.5119
17.107694947817667 59.2447
17.130245028099072 60.082
17.15281336730298 61.7502
17.17536478578733 63.2634
17.19793446610687 65.4501
17.220504818648422 67.9913
17.243058251703697 70.8684
17.265629950971032 74.6655
17.288184731571736 78.4926
17.310757781306908 82.381
17.33333150794385 83.9256
17.355888317140174 82.8443
17.37846339986244 78.0828
17.401021565958885 72.2926
17.42359800851343 66.9232
17.44617513265564 63.325
17.468735341390783 61.0429
17.491261035594565 60.0942
17.51396340099364 59.928000000000004
17.536490463869136 60.1708
17.559018209820174 60.1929
17.58154663977963 60.1439
17.604251766089718 60.2055
17.626781572227713 60.5035
17.64931206518155 60.8038
17.671843245885103 61.3044
17.69455114821572 61.6008
17.717083712612634 61.8524
17.739616967569667 61.8291
17.762150914021706 62.2991
17.78486160749854 62.5688
17.807396945166804 63.2709
17.829932977143503 64.3058
17.85246970436452 66.2027
17.875183204129467 68.2458
17.897721330097664 70.6893
17.920260154126645 73.539
17.942799677153296 76.5707
17.9655159983646 80.1778
17.988056927677544 85.3049
18.010598558807683 92.7289
18.033140892692916 101.471
18.05586005052525 110.484
18.07840379824407 120.83200000000001
18.10094825154059 130.952
18.12366954819864 139.075
18.146215420998306 140.715
18.16876200220057 133.28799999999998
18.191309292745153 121.0
18.214033452627167 106.84299999999999
18.236582170236648 94.7361
18.259131600016456 88.4795
18.281681742907335 87.8695
18.304408781233683 91.4959
18.32696035875955 95.9687
18.349512652227624 100.348
18.372065662579683 105.04
18.394795594587553 106.75200000000001
18.41735004715306 104.37200000000001
18.43990521943684 97.8855
18.46246111238171 88.4817
18.485193953325208 78.7086
18.507751296070428 71.1196
18.530309362314178 66.9074
18.552868153000343 64.5061
18.57560391815056 63.3309
18.59816416623245 62.8183
18.620725141597372 62.163000000000004
18.643286845190268 61.73
18.666025549835414 61.4361
18.688588718427933 60.937
18.711152618092243 60.7006
18.73389353884365 60.3189
18.75645890921984 60.0035
18.77902501351406 59.7144
18.801591852673102 59.7734
18.824335739722738 58.9922
18.846904057212626 59.0581
18.8694731124168 58.4522
18.89204290628315 58.6809
18.914789774966803 58.636
18.937361054791623 58.2651
18.959933076131318 57.937
18.982505839934877 58.0627
19.00525570560582 58.0219
19.027829963004184 57.843999999999994
19.05040496572238 57.9021
19.072980714710468 57.9392
19.095733592739563 58.2518
19.11831084296757 58.5524
19.140888842324735 59.1662
19.16346759176222 59.2969
19.18622349753803 59.9597
19.208803755869358 60.4945
19.231384767143577 61.9371
19.253966532312948 63.2759
19.276725481241822 65.4065
19.29930876296784 67.442
19.3218928014549 70.3645
19.34465404436217 73.2029
19.36723960516257 75.5931
19.389825925592426 77.2755
19.412413006605938 76.8122
19.43517731967805 73.7645
19.457765930683355 68.8838
19.48035530514408 64.3545
19.50294544401556 60.2886
19.525712842708348 57.4889
19.54830451925909 56.0995
19.570896963095727 55.1352
19.593490175174704 54.8286
19.616260674962184 54.8396
19.638855432416964 54.4526
19.661450960992624 54.4193
19.68404726164677 54.3538
19.706820878021247 54.3817
19.729418731756834 54.5645
19.752017360452857 54.2512
19.77461676506804 54.5198
19.797393513540218 54.6063
19.819994478951667 55.0029
19.84259622316767 55.5735
19.8651987471481 56.0154
19.887978643247177 56.2983
19.91058273574792 56.7187
19.933187610901943 57.4762
19.955969879466828 58.5097
19.97857632894404 59.9693
20.00118356396599 61.3673
20.023791585494575 63.2329
20.046577028914875 65.8565
20.069186632506966 68.0542
20.091797025500632 69.732
20.114408208858933 70.7736
20.137196842715273 71.0376
20.159809615886765 69.53
20.18242318232135 66.9366
20.20503754298326 64.835
20.227829382875154 63.2397
20.250445341109344 62.945
20.27306209647285 63.2431
20.29567964993108 64.4184
20.31847471147704 65.3859
20.34109387027612 66.4714
20.363713830075454 66.3455
20.386334591841646 64.9052
20.409132890679302 62.8187
20.431755265564437 59.5032
20.454378445325528 56.4196
20.477002430930366 54.5666
20.499803982716553 53.2302
20.522429589228004 52.3445
20.54505600449589 52.0205
20.567683229489194 51.9056
20.590488049900088 51.4458
20.61311690359731 51.2043
20.63574656993626 50.8574
20.658553853717297 50.4448
20.681185154618298 50.4846
20.703817271080066 50.3777
20.72645020407368 49.8545
20.749260783967177 49.8822
20.771895359337133 49.8444
20.794530754161617 49.7731
20.817166969412938 49.7777
20.83998086114876 49.7087
20.86261872660049 49.6174
20.885257415405402 49.5382
20.90789692853701 49.4401
20.930714147864748 49.4456
20.953355319030678 49.5618
20.97599731745334 49.5261
20.99864014410749 49.3619
21.021460706796564 49.4524
21.044105199328826 49.726000000000006
21.06675052302631 49.9612
21.089396678865015 50.0892
21.112220600704806 50.2171
21.134868430275347 50.7354
21.15751709492456 51.0287
21.180166595629693 51.2159
21.202993892429635 51.5589
21.22564507473034 51.9647
21.24829709602816 52.3077
21.27112693608965 52.2712
21.293780644891275 52.3416
21.316435195634053 51.6915
21.339090589297417 50.9703
21.361923832041875 50.4238
21.384580921090404 49.7887
21.407238856007325 49.2771
21.429897637773326 49.271
21.45273429906592 49.3138
21.475394784108598 49.2472
21.498056118951983 49.2855
21.520718304578022 49.468999999999994
21.543558400304388 49.5599
21.566222297108816 49.8113
21.58888704765135 49.9345
21.61155265291521 50.2105
21.63439619898156 50.8634
21.657063523335786 50.8907
21.67973170537063 51.3933
21.7024007460706 52.0739
21.72524775840385 52.6834
21.747918526116475 53.7239
21.770590155457388 55.0681
21.79326264741238 56.5606
21.816113141960237 58.1772
21.838787368860547 59.8576
21.861462461341976 61.5567
21.884315579735777 63.4325
21.90699241312273 64.7781
21.92967011506078 65.5977
21.95234868653799 65.5408
21.9752053151131 64.3183
21.997885635446785 62.6571
22.020566828293532 60.8843
22.04324889464272 58.7442
22.066109049404666 57.2764
22.088792872571794 56.8589
22.111477572219204 56.678999999999995
22.1341631493376 56.9055
22.157026846313123 56.9198
22.179714188221507 56.5461
22.202402410582668 55.4275
22.22509151438863 53.8356
22.24795876962584 52.4399
22.270649646204486 51.5635
22.293341407213727 50.728
22.316034053646906 50.2368
22.338904883215342 49.9282
22.36159931041458 49.8777
22.38429462602756 49.7914
22.40699083104897 49.681000000000004
22.429865251039757 49.6309
22.452563244831367 49.8026
22.47526213102522 49.7588
22.49813925616515 49.5722
22.520839937143307 49.3282
22.543541513520587 49.4218
22.56624398629403 49.4124
22.589124730075895 49.2328
22.611829005656723 49.59
22.63453418063466 49.6052
22.657240256008077 49.7391
22.680124634582935 49.8297
22.70283252079775 50.2555
22.725541310413075 50.5655
22.74825100442868 50.836999999999996
22.771139033969575 51.3353
22.79385054687155 51.4322
22.81656296718292 52.117
22.83927629590484 52.8654
22.862167992606945 53.9142
22.88488314827121 54.8775
22.907599215359284 55.6528
22.93031619487366 56.667
22.953211574954405 57.4496
22.975930389478226 58.5336
22.998650119445763 58.8207
23.02137076586092 58.4423
23.044269845560063 57.229
23.06699233506288 55.6194
23.089715744034912 53.6956
23.112617610931565 52.0738
23.135342869061212 50.8631
23.158069049684816 49.9942
23.1807961538087 49.6823
23.20370174880544 49.6891
23.226430710184808 49.832
23.249160598093425 49.8571
23.271891413539002 49.7965
23.294800752937697 49.8182
23.31753343374794 50.1456
23.340267045128353 50.1843
23.36300158808808 50.5392
23.38591468821339 50.7934
23.408651104658304 51.2188
23.431388455719986 51.8601
23.454126742409 52.6019
23.4770436196085 53.6584
23.499783787914662 54.8281
23.522524894889884 55.5894
23.54526694154616 56.4162
23.56818761219047 57.4312
23.59093154860734 58.0589
23.613676427751283 58.7857
23.636422250635754 58.1473
23.659346731118656 56.7801
23.68209445191868 54.8747
23.704843119509587 52.8534
23.72759273490623 50.6614
23.750521041644767 49.1323
23.77327256312355 48.1222
23.796025035462787 47.4685
23.818956224555475 46.8949
23.841710609113413 46.7877
23.86446594758979 46.5443
23.887222241002014 46.2751
23.910157285144578 45.9327
23.932915498962537 46.0394
23.955674670778713 45.9972
23.978434801611975 45.6875
24.001373717286125 45.5207
24.024135776723917 45.3369
24.046898798245582 45.1373
24.06966278287146 45.0848
24.092605586582614 44.9905
24.115371508023642 44.9723
24.1381383956401 44.7728
24.16090625045381 44.6855
24.183852958731244 44.7611
24.206622758582608 44.5458
24.229393528706886 44.3477
24.252165270127392 44.2658
24.27511589952438 44.4016
24.297889594216997 44.177
24.32066426328598 43.9744
24.34343990775613 44.1687
24.36639447485003 43.8642
24.38917208083877 43.8667
24.41195066531332 43.8957
24.43490819850244 44.0351
24.457688750692377 43.7382
24.48047028445616 43.5952
24.503252800821233 43.8466
24.526214300784112 43.7573
24.548998793132213 43.7657
24.57178427117417 43.6531
24.59457073593893 43.8158
24.617536219319863 43.6119
24.64032466834748 43.593999999999994
24.663114107195035 43.5164
24.685904536893013 43.2891
24.708874020360852 43.0513
24.731666442613744 43.111999999999995
24.754459858818787 43.1647
24.777254270007962 42.9204
24.80022777025625 42.9078
24.82302418230472 43.0068
24.845821592443674 43.0121
24.86862000170663 42.9519
24.891597535453727 42.8591
24.914397953892728 43.0728
24.93719937456671 43.0308
24.96000179851076 43.2455
24.98298338249997 43.3579
25.00578782394922 43.531000000000006
25.028593271784167 43.6689
25.05157790644186 44.0394
25.07438537804115 44.163999999999994
25.097193859145293 44.253
25.120003350792075 44.6297
25.142992065061257 44.9017
25.165803588823465 45.2558
25.18861612625217 45.2913
25.211429678386736 45.364
25.234422489079968 45.5946
25.257238081693636 45.4892
25.280054692141732 45.6017
25.3028723214652 45.6001
25.325869245420463 45.6165
25.348688923599397 45.6858
25.371509623787006 45.5772
25.394331347025812 45.3944
25.41733240110666 44.983999999999995
25.440156181590016 44.4459
25.46298098826268 43.7166
25.48580682216873 43.0856
25.50881202326435 42.5826
25.53163992281684 42.1422
25.55446885274561 41.99
25.577298814096377 41.6563
25.600308179121807 41.5068
25.623140214533745 41.7304
25.64597328451537 41.4885
25.66898578564376 41.3592
25.691820936010206 41.4082
25.714657124097695 41.3016
25.737494350954734 41.2002
25.760511045684957 41.1029
25.783350361364224 41.1691
25.806190718969255 41.2634
25.82903211955018 41.4928
25.852053024868923 41.4685
25.874896522722523 41.303999999999995
25.897741066713106 41.2975
25.920586657892454 41.4678
25.943611790812668 41.6263
25.966459487728237 41.8165
25.989308234998564 41.6493
26.01215803367705 42.1126
26.03518741123814 42.1457
26.05803932412957 42.3454
26.080892291600094 42.2803
26.10374631470478 42.2884
26.12677995397268 42.4142
26.14963609978026 42.4883
26.172493304397875 42.0838
26.19535156888223 41.8905
26.218389486949604 41.3723
26.241249882640123 41.2794
26.26411134137826 41.0496
26.28715248187403 41.1866
26.31001607820869 40.8583
26.3328807407756 40.6904
26.35574647063438 40.8802
26.37879191991473 40.8338
26.401659795896734 40.8655
26.424528742360263 41.0553
26.447398760366614 41.12
26.470448535598294 41.2117
26.49332070826805 41.5299
26.516193955675355 41.8028
26.53906827888316 41.9248
26.562122397260108 42.2169
26.584998883685063 42.4769
26.607876449110325 42.5713
26.63075509460056 42.7394
26.65381357334404 42.8926
26.67669439061878 42.9707
26.699576291163382 42.8628
26.722459276044212 42.6925
26.745522132402975 42.4518
26.768407297649354 42.1045
26.791293550442003 41.8305
26.814180891848974 41.6344
26.837248143099337 41.2098
26.860137673466657 41.1166
26.88302829566349 40.8991
26.90592001075963 40.8547
26.92899167420566 40.7194
26.951885586870763 40.187
26.974780595655517 40.0795
26.99785558178161 39.8351
27.020752794605112 39.5634
27.043651106772522 39.5287
27.06655051935668 39.5165
27.089629948036183 39.4073
27.112531573292053 39.3361
27.135434302194138 39.4865
27.158338135817015 39.2607
27.181422024430987 39.274
27.204328079372566 39.1131
27.22723524226965 39.1541
27.250143514198573 39.3009
27.273231880156334 39.1923
27.296142382065014 39.0984
27.319053996245536 39.0117
27.341966723775965 39.1578
27.365059584515222 39.2659
27.38797455070062 39.2365
27.410890633481237 39.0007
27.433807833936918 38.9432
27.456905206923906 39.0317
27.47982465472398 39.0916
27.502745223449743 39.0531
27.525666914182825 39.2634
27.548768816912457 39.222
27.571692763693633 39.0873
27.59461783573812 38.9781
27.617723149491244 38.8875
27.640650484125285 38.8862
27.66357894728264 38.8408
27.686508540048052 38.6932
27.709618414237887 38.5833
27.732550278321757 38.3943
27.755483275279115 38.49
27.778417406196485 38.5597
27.801531858397514 38.6201
27.824468269376716 38.4338
27.847405817586786 38.4973
27.870344504116094 38.7441
27.893463551932008 38.808
27.916404527281053 38.9239
27.93934664422563 39.064
27.962289903855886 39.0509
27.98541356491974 39.3888
28.00835912214229 39.4266
28.03130582533231 39.5766
28.054253675581805 39.6955
28.077381967556104 39.6355
28.100332124185126 39.5952
28.123283431160893 39.6357
28.146235889577238 39.4349
28.169368830154156 39.2792
28.192323603752033 39.2356
28.215279532083304 38.7357
28.238415973016764 38.5568
28.261374223145094 38.4317
28.284333631303806 38.3237
28.307294198589954 38.1464
28.330435319167677 37.8281
28.353398217078915 37.5173
28.376362277420153 37.2883
28.39932750129032 37.1728
28.422473319286713 37.0223
28.44544088262495 36.9995
28.468409612800283 36.8046
28.491379510913497 36.7485
28.51453004413313 36.6214
28.53750229057244 36.5894
28.56047570826344 36.4368
28.583450298308804 36.547
28.606605564586562 36.273
28.629582511831156 36.3591
28.65256063474956 36.296
28.675539934446338 36.2697
28.698699951647605 36.2619
28.72168161743193 36.0174
28.74466446331978 36.1106
28.767648490417624 36.0163
28.790813276438353 35.9914
28.813799678527303 36.1254
28.836787265157085 35.9979
28.859955641890075 36.0159
28.882945610203045 36.0207
28.905936766392035 35.9707
28.928929111566863 35.9259
28.952102288520145 35.8331
28.975097024308607 35.8247
28.998092952423807 35.5793
29.021090073977508 35.4584
29.04426806913204 35.3837
29.067267590245258 35.2923
29.090268308143695 35.1322
29.11327022394099 35.172
29.13645305530891 35.1064
29.159457379627167 35.024
29.18246290519685 34.9932
29.20546963313352 34.9438
29.22865731875826 34.9803
29.25166646419296 34.8718
29.27467681535305 34.8293
29.29768837335608 34.8781
29.320880931312562 34.9013
29.34389491580634 34.7745
29.366910110507334 34.7893
29.38992651653503 34.9228
29.41312396492981 34.8811
29.436142806456754 34.7317
29.45916286268059 34.6091
29.48236399319994 34.5468
29.50538649169417 34.3603
29.528410208259935 34.2768
29.55143514402014 34.1287
29.574641196749695 33.9871
29.597668583816574 33.9146
29.6206971934585 33.6177
29.64372702680042 33.6858
29.666938019934474 33.6364
29.689970313635285 33.5175
29.713003834422636 33.5482
29.73603858342347 33.4765
29.759254535188578 33.4554
29.78229175361658 33.3771
29.80533020365064 33.4651
29.82836988641968 33.3913
29.85159081507472 33.3507
29.874632976355343 33.2846
29.89767637376955 33.3071
29.920721008448314 33.1848
29.9439469322847 33.1445
29.96699405457564 33.1972
29.9900424175358 33.158
30.013092022298157 33.0226
30.03632295963995 33.0091
30.059375061131373 33.0564
30.08242840783577 33.1077
30.105483000888153 32.9844
30.128718970092244 33.0123
30.151776069006917 32.9797
30.17483441768648 32.9288
30.198074175317235 32.8295
30.221135036724256 32.9197
30.24419715131772 32.961
30.267260520236203 32.8257
30.290505341942243 32.93
30.313571232750228 32.9307
30.336638381310948 33.0178
30.35970678876503 32.8421
30.38295669299435 32.7415
30.40602763151657 32.8376
30.429099832366074 32.7598
30.452173296685572 32.6527
30.47542830191959 32.7034
30.498504306502497 32.6422
30.521581577995562 32.7072
30.544660117543582 32.6731
30.56792024229725 32.6226
30.59100133132069 32.7842
30.614083691845494 32.7355
30.637167325018545 32.7424
30.660432587840603 32.8649
30.683518779717886 32.7611
30.70660624769615 32.7641
30.729694992924372 32.7635
30.75296541239743 32.8485
30.77605672557558 32.7285
30.799149319462742 32.6744
30.8224236211637 32.4998
30.845518789950724 32.4368
30.868615242910597 32.3485
30.891712981195973 32.2117
30.91499247215866 32.1647
30.938092794619365 32.1274
30.96119440587579 32.0634
30.984297307082752 31.9286
31.00758200598383 31.8101
31.030687500658694 31.7492
31.053794288760695 31.7282
31.076902371446767 31.5722
31.100192296997445 31.6125
31.12330298246119 31.5429
31.14641496599209 31.5308
31.169528248749216 31.5015
31.19282341969534 31.4576
31.215939314557186 31.5243
31.239056512134788 31.5903
31.262175013589378 31.4688
31.28547544871168 31.3524
31.30859657161541 31.3001
31.331719001892175 31.3723
31.35484274070538 31.4259
31.378148458819545 31.4901
31.401274828443725 31.3803
31.424402510106933 31.3588
31.447712205419993 31.4691
31.470842524931633 31.3028
31.493974159989783 31.4317
31.51710711176168 31.4192
31.54042212308802 31.3209
31.563557722100917 31.2822
31.586694641341655 31.155
31.609832881979628 31.1063
31.63315322823208 30.9994
31.656294125521327 30.9253
31.679436347728515 30.9261
31.70257989602529 30.7732
31.725905596152327 30.6389
31.74905181052835 30.6706
31.772199354521323 30.7536
31.79534822930507 30.5922
31.818679302290967 30.5792
31.84183085259981 30.6002
31.864983737233473 30.6714
31.88813795736804 30.6388
31.911474422233013 30.4807
31.934631327356435 30.6279
31.9577895715215 30.5062
31.980949155906522 30.5447
32.004291031706956 30.5277
32.027453310562606 30.4609
32.05061693318573 30.2467
32.07396288236386 30.2994
32.09712920658542 30.2173
32.12029687812702 30.1244
32.14346589817093 30.0118
32.166817291729984 30.0339
32.18998902288583 29.9449
32.21316210610336 30.0208
32.23633654256711 29.7968
32.259693399663725 29.7317
32.282870556771144 29.7475
32.30604907069099 29.7444
32.329228942610065 29.7123
32.35259128243769 29.5144
32.375773884550505 29.4202
32.398957848235646 29.5154
32.422143174682176 29.3914
32.445511016471215 29.2745
32.468699082679954 29.2235
32.49188851523011 29.2359
32.51507931531304 29.0964
32.538452678331 29.1489
32.56164622776311 29.0695
32.58484114831493 28.9679
32.60803744118015 28.939
32.631416344731896 29.0074
32.654615396551876 28.9968
32.67781582427913 28.9179
32.701198898634416 28.8739
32.72440209253756 28.7448
32.747606665947124 28.7903
32.77081262006088 28.646
32.79420126883317 28.680999999999997
32.81740999876112 28.5916
32.840620112999424 28.6158
32.86383161274818 28.5064
32.88722585534586 28.4941
32.91044014056596 28.4824
32.933655814909734 28.4777
32.95687287957963 28.4553
32.98027273544904 28.386999999999997
33.00349259526636 28.3727
33.026713849030116 28.4295
33.04993649794511 28.3897
33.073341986570746 28.2496
33.09656744032826 28.2656
33.11979429286444 28.1503
33.14302254538647 28.214000000000002
33.166433686291185 28.1105
33.18966475336992 28.052
33.212897224069096 28.0662
33.23613109959831 28.0856
33.259547912343415 28.0768
33.2827846121627 28.1314
33.306022720453775 28.0428
33.32926223842861 27.9099
33.352684742614166 27.9142
33.37592709463173 27.906
33.399170859982064 27.8207
33.422597648419426 27.6943
33.44584425514446 27.5794
33.46909227885668 27.6332
33.4923417207723 27.4275
33.51577423505344 27.4951
33.539026528130385 27.3381
33.56228024307245 27.3581
33.585535381098246 27.1726
33.60897364093058 27.1024
33.63223163992385 27.1279
33.6554910656699 27.1332
33.678751919389796 27.1905
33.702195944520106 27.1108
33.72545966903325 27.1192
33.74872482519663 27.0216
33.771991414233746 26.9213
33.79544122444841 26.9287
33.81871069412428 26.8569
33.84198160035767 26.8355
33.86525394437455 26.9033
33.88870955949969 26.8103
33.911984794020626 26.7835
33.93526147001624 26.7628
33.958539588715006 26.6492
33.98200102861669 26.5985
34.0052820477047 26.432
34.02856451319451 26.4444
34.05203033759056 26.4055
34.07531571090147 26.467
34.09860253431845 26.4108
34.121890809074316 26.3112
34.145362493118924 26.3293
34.16865368561615 26.3054
34.191946333164054 26.2892
34.21524043699793 26.2728
34.23871800066799 26.2588
34.26201503218366 26.1389
34.28531352370466 26.0699
34.30861347646881 26.0055
34.33209693978188 26.0278
34.3553998301885 25.9596
34.378704185565205 25.8346
34.402010007152356 25.7932
34.42549939016683 25.7978
34.44880815937748 25.715
34.472118398533134 25.7073
34.49543010887669 25.6496
34.51892543169198 25.5925
34.54224009966052 25.5938
34.56555624255917 25.6006
34.58887386163339 25.4245
34.61237514439016 25.4407
34.6356957311114 25.31
34.65901779775809 25.319000000000003
34.68252356662995 25.2496
34.705848608458616 25.3404
34.72917513396849 25.1934
34.75250314440949 25.1468
34.77601490857862 25.1216
34.799345904259795 25.086
34.82267838863559 25.0516
34.846012362958525 25.0557
34.869530142679984 25.0558
34.89286711232212 24.9845
34.91620557568269 25.024
34.93954553401677 25.0258
34.9630693495876 24.9713
34.986412313340814 24.9379
35.00975677584668 24.9164
35.033102738362956 24.8973
35.05663261012228 24.7932
35.0799815881786 24.7608
35.10333207003229 24.6971
35.12668405694369 24.6952
35.150220005273056 24.6759
35.17357501786656 24.6887
35.19693153931268 24.6018
35.220289570874385 24.5624
35.24383161619786 24.6499
35.267192683604904 24.5759
35.290555264930376 24.5028
35.314101899412165 24.4887
35.33746752422433 24.4603
35.36083466676374 24.4068
35.38420332829803 24.3382
35.407756095629054 24.4352
35.43112781085063 24.4205
35.45450104888391 24.3731
35.477875810999194 24.3577
35.50143473172161 24.2225
35.52481255774625 24.2129
35.54819191167777 24.2474
35.57157279478914 24.1951
35.595137889488406 24.108
35.61852184675279 24.0389
35.641907337029984 23.9993
35.665294361595684 24.0151
35.68886565090076 23.8986
35.7122557598848 23.9198
35.73564740699838 23.863000000000003
35.759040593519934 23.8763
35.78261809810353 23.8391
35.80601437933051 23.7272
35.829412203814705 23.6529
35.85281157283719 23.728
35.876395313415884 23.688000000000002
35.8997977874528 23.6428
35.92320180988546 23.5945
35.946790244133936 23.4881
35.97019737933222 23.398000000000003
35.993606066789866 23.447
36.01701630779276 23.4076
36.04061101440684 23.3524
36.06402437852291 23.3664
36.08743930005611 23.3525
36.1108557802951 23.2632
36.13445678011326 23.3166
36.15787639383515 23.2159
36.18129757014299 23.1735
36.20472031032821 23.0986
36.22832762423364 22.9949
36.25175350829375 23.0268
36.275180960119776 22.9842
36.298609981005924 23.1231
36.32222362992669 23.0931
36.34565580510207 23.0615
36.36908955323448 22.9759
36.39252487562093 22.8358
36.416144880530226 22.7742
36.43958336764275 22.8798
36.463023432914625 22.7833
36.486465077645676 22.633000000000003
36.51009145956204 22.7699
36.53353627947859 22.7745
36.55698268276811 22.7237
36.58043067073321 22.6365
36.60406345072071 22.513
36.62751462435344 22.5502
36.65096738658405 22.541
36.67460498210655 22.569000000000003
36.69806093788647 22.5094
36.72151848619297 22.4287
36.744977628333636 22.3709
36.76862165890998 22.2851
36.79208400512205 22.3655
36.81554794910557 22.342
36.83901349217101 22.2424
36.862663978991606 22.208000000000002
36.88613273667352 22.1158
36.90960309738324 22.1636
36.933075062434064 22.1076
36.95673202673572 22.1082
36.98020721697122 22.0178
37.003684015502365 22.0333
37.027162423645365 22.0683
37.050825886711465 21.9791
37.07430753063053 21.8862
37.09779078812467 21.8342
37.121275660513014 21.8698
37.144945643673694 21.796999999999997
37.16843376245278 21.7739
37.19192350009803 21.7851
37.215414857931435 21.7309
37.239091382563885 21.6236
37.262585997426164 21.5786
37.28608223645736 21.6179
37.309763684451696 21.504
37.33326318851098 21.5206
37.356764320726555 21.4774
37.380267082425526 21.5331
37.40395510942588 21.4353
37.42746114683234 21.3772
37.45096881771841 21.357
37.474478123414166 21.3044
37.49817275092816 21.2944
37.52168534303452 21.2631
37.54519957395567 21.1757
37.568715445024665 21.1944
37.592416694607714 21.0598
37.61593586281424 21.1574
37.63945667518264 21.2152
37.66297913304891 21.0137
37.68668702630454 21.0265
37.710212792059274 20.9664
37.733740207334854 20.9667
37.757269273470364 20.8984
37.780983832050374 20.8911
37.80451621684926 20.8962
37.82805025654007 20.8462
37.851585952464795 20.8316
37.8753071980695 20.7764
37.89884622345676 20.694000000000003
37.92238690911902 20.621
37.94611318753442 20.5976
37.969657210779765 20.5819
37.99320289834801 20.516
38.016750251586465 20.5825
38.04048325513017 20.5052
38.06403395679343 20.5093
38.087586328183946 20.465999999999998
38.11114037065203 20.4462
38.13488012115898 20.4333
38.1584375229181 20.3622
38.181996599821 20.349
38.205557353221124 20.2537
38.229303872575656 20.2764
38.2528679961576 20.2188
38.27643380031219 20.2189
38.30000128639589 20.1324
38.32375459653193 20.1321
38.34732546371299 20.1148
38.37089801690786 20.0092
38.39447225747609 20.0215
38.418232380377425 20.0032
38.441810012983396 19.9898
38.46538933705673 19.9185
38.488970353960084 19.9042
38.51273731166058 19.840999999999998
38.536321731567014 19.8502
38.55990784840681 19.8069
38.58367995004091 19.8283
38.60726947812959 19.7186
38.63086070726198 19.8037
38.654453638806274 19.7236
38.678232613930824 19.715
38.70182896773327 19.667
38.72542702806741 19.6124
38.7490267963045 19.5674
38.77281266709232 19.5734
38.79641586862214 19.4849
38.8200207821842 19.436
38.843627409152944 19.4529
38.86742019782782 19.3779
38.891030269149255 19.3729
38.914642058016156 19.3174
38.938255565806124 19.3935
38.96205529464307 19.3293
38.98567225787121 19.2939
39.00929094417078 19.2337
39.03291135492255 19.2318
39.05671804624804 19.1823
39.080341923549106 19.1104
39.103967529460334 19.094
39.127594865365744 19.125
39.15140854155791 19.0654
39.17503935514948 19.0526
39.19867190290282 19.0523
39.22249083587951 19.0176
39.24612686969409 18.9743
39.269764641845306 18.9208
39.293404153722804 18.9116
39.317230110864074 18.7853
39.34087311998506 18.7808
39.36451787301696 18.7572
39.388164371352595 18.7391
39.41199737518003 18.7044
39.43564738196752 18.7467
39.45929913825317 18.6836
39.48295264543308 18.6327
39.506792718520884 18.6116
39.530449745387216 18.5716
39.55410852735203 18.5516
39.57776906581474 18.5492
39.60161623079 18.5007
39.625280300200025 18.4171
39.64894613032202 18.3908
39.67261372255866 18.4192
39.6964680021016 18.3518
39.72013913657293 18.3733
39.74381203738292 18.3286
39.76748670593756 18.2993
39.79134812278169 18.2438
39.81502634488497 18.1547
39.83870633896685 18.2033
39.862388106436654 18.2005
39.88625668336918 18.1572
39.90994201572829 18.1187
39.933629125719285 18.1286
39.957503091207826 18.0169
39.9811937746168 18.0896
40.00488623990914 17.9834
40.02858048850006 17.9582
40.05246165409549 17.906
40.076159487492085 17.8078
40.099859108448875 17.8723
40.123560518384345 17.8494
40.1474489070226 17.8324
40.171153913178564 17.8078
40.194860712584955 17.7701
40.2185693066637 17.7313
40.242464941335314 17.6884
40.26617714307655 17.6709
40.289891143772046 17.6462
40.3136069448471 17.6037
40.33750984859743 17.6043
40.3612292688043 17.5774
40.3849504936829 17.488
40.40867352466194 17.4858
40.43258372059144 17.4346
40.45631038219906 17.5151
40.48003885420956 17.4611
40.503769138055105 17.3843
40.52768664931955 17.3525
40.55142057531802 17.3971
40.57515631746428 17.3336
40.599079334038514 17.2627
40.62281872700477 17.2003
40.64655994043941 17.2333
40.67030297578061 17.2151
40.69423334835778 17.1804
40.71798004609188 17.1561
40.74172857006355 17.0495
40.76547892171441 17.0952
40.7894166736039 17.0868
40.813170699248566 16.9878
40.83692655691388 17.0198
40.86068424804498 16.9652
40.884629402612525 16.9561
40.908390779366385 16.974
40.932153993938 16.8723
40.95591904777605 16.8672
40.979871628443995 16.8819
41.003640379561936 16.854
41.02741097430883 16.7813
41.05118341413683 16.8061
41.075143444384416 16.7403
41.098919593177826 16.6794
41.1226975914255 16.7583
41.14647744058318 16.6596
41.170444943946755 16.6036
41.19422851378379 16.5672
41.218013938914645 16.5713
41.24198706625173 16.5085
41.26577622087193 16.5517
41.289567235177785 16.4612
41.31336011063129 16.469
41.337340752422875 16.458
41.361137369129835 16.4431
41.38493585138705 16.3753
41.40873620066004 16.3038
41.43272438060107 16.322
41.45652848292052 16.2726
41.48033445666918 16.3058
41.50414230331616 16.2654
41.528138045159764 16.2021
41.551949656675205 16.1692
41.575763145513235 16.1812
41.59957851314666 16.1724
41.62358184070442 16.139
41.64740098505737 16.0622
41.6712220126409 16.0417
41.69504492493139 16.0397
41.71905586207357 16.0446
41.74288256296395 15.9721
41.766711153007456 15.9262
41.79054163368412 15.9037
41.814560204340054 15.8834
41.838394485526365 15.8571
41.86223066180303 15.7993
41.88625497706819 15.809000000000001
41.910094962812 15.767000000000001
41.93393684811168 15.7662
41.95778063445365 15.7434
41.981812625263366 15.6737
42.00566023303407 15.6583
42.029509746323676 15.6555
42.05336116662236 15.5872
42.077400857069705 15.5496
42.10125611078846 15.6164
42.12511327600405 15.572000000000001
42.14897235421036 15.5641
42.173019768448455 15.5241
42.19688269209613 15.4819
42.22074753323349 15.4874
42.24461429335818 15.4401
42.268669455600495 15.3819
42.292540073217886 15.3906
42.31641261433284 15.3414
42.34028708044675 15.2866
42.36435001496739 15.3023
42.38822835065557 15.2978
42.41210861586426 15.2169
42.4359908120986 15.2212
42.46006154323262 15.1765
42.48394762115317 15.1549
42.507835634632315 15.1472
42.531912233047436 15.1437
42.55580413732265 15.1019
42.579697981698 15.0601
42.60359376768525 15.062999999999999
42.62767820545945 15.0284
42.65157789440821 14.9773
42.67547952952185 14.9518
42.699383112316 14.9634
42.72347541395347 14.9084
42.74738291190531 14.8788
42.771292362102166 14.8896
42.795203766063516 14.7785
42.819303956130405 14.7729
42.843219287476536 14.8105
42.86713657716324 14.7558
42.89105582671383 14.690999999999999
42.91516392983864 14.6939
42.939087119032166 14.6752
42.963012272677304 14.6275
42.98693939230129 14.6071
43.01105543317513 14.6033
43.034986504731386 14.5785
43.05891954686589 14.5349
43.08285456110972 14.515999999999998
43.10697856448665 14.4766
43.130917542983475 14.4481
43.15485849820081 14.4857
43.17880143167367 14.4285
43.20293342237094 14.3698
43.226880332449 14.3366
43.25082922540554 14.3728
43.27496722682525 14.3472
43.29892010567796 14.2703
43.32287497204102 14.307
43.34683182745632 14.255
43.370977859791836 14.209000000000001
43.39493871351105 14.2057
43.41890156092628 14.2322
43.44286640358341 14.1866
43.46702049182749 14.1667
43.49098934522816 14.1184
43.51496019852649 14.0762
43.5389330532723 14.127
43.56309522248204 14.0188
43.58707210044314 14.0254
43.61105098451946 13.964
43.63503187626491 13.9756
43.659202151562134 13.9221
43.68318707902681 13.9078
43.70717401884041 13.8824
43.731162972560874 13.8818
43.75534137913236 13.8231
43.779334381108384 13.8072
43.803329401683186 13.7857
43.82732644241872 13.7321
43.8515130055166 13.7709
43.87551410707659 13.6645
43.89951723350145 13.7069
43.923709934595614 13.7134
43.94771713129917 13.6601
43.97172635758096 13.6386
43.99573761501002 13.6304
44.0199385169922 13.5985
44.04395385732619 13.5721
44.067971233533086 13.537
44.09199064718605 13.5254
44.11619977548961 13.4641
44.14022328470671 13.4717
44.16424883610785 13.4483
44.18827643127035 13.4495
44.21249381139513 13.4071
44.236525514814076 13.3108
44.26055926674478 13.3501
44.28459506876863 13.3383
44.3088207262813 13.2967
44.33286064928722 13.3089
44.35690262714919 13.2651
44.38094666145278 13.2298
44.4051806219871 13.2045
44.42922879003185 13.1666
44.45327901929361 13.1381
44.477331311362136 13.1352
44.501573600619416 13.1257
44.525630039221795 13.0335
44.54968854541895 13.0377
44.573937102200176 13.0432
44.5979997645541 12.9905
44.622064499300315 13.0025
44.64613130803592 12.9801
44.67038823869318 12.9726
44.69445921643748 12.9427
44.718532272981385 12.8808
44.742607409926194 12.8791
44.76687274034801 12.8805
44.79095205918753 12.8241
44.81503346325094 12.7958
44.839116954143876 12.8316
44.86339071028742 12.8029
44.88747839599524 12.7362
44.91156817336837 12.7269
44.93566004401666 12.7033
44.959942251908146 12.664000000000001
44.984038330325966 12.6246
45.00813650686762 12.6258
45.03223678314731 12.6462
45.05652746888232 12.6198
45.08063196592069 12.568
45.104738567558705 12.5242
45.128847275414856 12.5186
45.15314646515866 12.5061
45.17725940679741 12.487
45.20137445952892 12.4808
45.22568004865265 12.4508
45.24979934496396 12.4047
45.27392075725247 12.3781
45.29804428714431 12.3761
45.322358426247604 12.3716
45.346486212804315 12.3503
45.370616121861914 12.3268
45.39474815505086 12.3002
45.41907087049246 12.2139
45.4432071734666 12.2789
45.46734560548283 12.2349
45.49148616817604 12.2119
45.51581748638564 12.1428
45.5399623320197 12.1871
45.56410931325473 12.1422
45.58825843173002 12.1446
45.61259837920865 12.1418
45.636751793816 12.1194
45.66090735060093 12.0591
45.68506505120716 11.9754
45.7094136545275 11.9584
45.73357566449271 11.9391
45.75773982322992 11.9462
45.78190613238733 11.9403
45.806263418194064 11.9021
45.83043404997326 11.8781
45.85460683713677 11.8849
45.87897065658495 11.8852
45.90314777634752 11.835
45.92732705646868 11.8122
45.9515084986045 11.783
45.97588104735473 11.8028
46.00006683541565 11.7378
46.02425479047904 11.6863
46.04844491420549 11.7139
46.0728262191024 11.6603
46.09702070211635 11.6379
46.12121735879483 11.6637
46.14541619080294 11.6322
46.169806278764455 11.6101
46.194009483459034 11.5788
46.21821486849841 11.5355
46.24242243555223 11.5174
46.266821333570014 11.5275
46.29103328674601 11.4861
46.31524742696538 11.4952
46.33946375590237 11.4614
46.36387149104216 11.3977
46.38809221957392 11.3828
46.41231514186606 11.3942
46.436540259597464 11.3964
46.460956858999374 11.3664
46.48518638983522 11.3199
46.509418121166966 11.2803
46.533652054678114 11.2804
46.55807754555709 11.2863
46.58231590571962 11.3144
46.60655647313217 11.2369
46.630988654873654 11.1953
46.655233659129024 11.1652
46.67948087571551 11.1699
46.70373030632484 11.1553
46.72817142736393 11.1545
46.752425308428684 11.0859
46.77668140861147 11.057
46.80093972960865 11.0258
46.82538981736788 11.0364
46.849652602470904 11.0029
46.87391761349769 10.9896
46.8981848521493 10.9729
46.9226439341274 10.9596
46.946915650573224 10.9319
46.97118959976749 10.9438
46.99546578341598 10.9301
47.019933887188216 10.8774
47.04421456235744 10.8752
47.06849747711879 10.8422
47.09278263318286 10.8018
47.11725978640143 10.7557
47.14154944775105 10.7724
47.165841355555656 10.7377
47.1901355115306 10.7221
47.214621741924994 10.7533
47.23892041698887 10.7162
47.26322134538975 10.6628
47.28771440635075 10.6708
47.31201986422527 10.6653
47.33632758061436 10.6267
47.360637557241866 10.585
47.38513974410611 10.5645
47.40945426407847 10.5354
47.43377104948137 10.5133
47.45809010204344 10.5405
47.48260144275502 10.508
47.506925052572285 10.4828
47.53125093475548 10.4171
47.55557909103813 10.4504
47.58009961361992 10.4145
47.60443234110732 10.4033
47.62876734791564 10.4249
47.65310463578333 10.3678
47.6776343683373 10.3637
47.7019762413987 10.3091
47.72632040075572 10.339
47.75066684815169 10.3159
47.77520581885936 10.2432
47.799556865477655 10.2297
47.823910205386 10.2404
47.84826584033272 10.2052
47.87281407745551 10.1702
47.89717432569297 10.1599
47.92153687423484 10.1486
47.94609208429692 10.1778
47.97045925671401 10.0982
47.99482873471275 10.1298
48.01920052005013 10.0961
48.04376504619224 10.0658
48.068141469543484 10.0608
48.09252020552573 10.0426
48.11690125590099 10.0383
48.1414751266064 10.0013
48.16586082917454 9.981539999999999
48.19024885144316 9.9509
48.2146391951793 9.940610000000001
48.239222439012764 9.9615
48.26361744916137 9.91648
48.28801478610016 9.91359
48.31241445160131 9.90429
48.337007097209366 9.85877
48.36141144338331 9.83354
48.38581812345755 9.816930000000001
48.41022713920929 9.80037
48.434829215320704 9.78169
48.45924292604658 9.77597
48.48365897780325 9.77698
48.50807737237308 9.73569
48.532688907799276 9.72289
48.55711201168574 9.69161
48.581537463754074 9.66126
48.60615611725119 9.653780000000001
48.63058628942721 9.679839999999999
48.65501881516546 9.61788
48.6794536962573 9.589960000000001
48.70408185970339 9.57734
48.72852147531801 9.57285
48.75296345168211 9.56863
48.77740779059232 9.5085
48.80204549302823 9.55638
48.82649458091802 9.55081
48.85094603676547 9.50384
48.87539986237231 9.45908
48.90004713292306 9.45224
48.92450572200832 9.4388
48.94896668628025 9.39683
48.97343002754588 9.38504
48.99808689542115 9.40865
49.02255501470614 9.37268
49.04702551642794 9.33895
49.0714984023988 9.330039999999999
49.096164896893235 9.31437
49.120642575466796 9.26678
49.145122643748394 9.2919
49.16960510355558 9.27769
49.19428125404938 9.27943
49.2187685210852 9.2346
49.243258185121555 9.20722
49.26794160167084 9.201310000000001
49.2924360839405 9.18977
49.31693296869764 9.13791
49.34143225776915 9.13766
49.36612538195438 9.1051
49.39062950396021 9.077110000000001
49.41513603578346 9.05043
49.4396449792564 9.0509
49.46434784069503 9.07365
49.488861631846454 9.041889999999999
49.513377840166804 9.06307
49.537896467493745 8.97622
49.56260909589029 8.93559
49.587132585683285 8.97069
49.611658500018365 8.90738
49.636186840738596 8.92366
49.66090926588511 8.94813
49.685442483902584 8.88533
49.70997813385706 8.877410000000001
49.734516217597076 8.8753
49.75924846937352 8.86805
49.7837914452858 8.847389999999999
49.80833686055187 8.81452
49.83288471702571 8.80079
49.85762682540054 8.78043
49.882179588965734 8.74663
49.9067347993235 8.71468
49.93129245833333 8.71622
49.95604445336378 8.68045
49.98060703442832 8.66734
50.005172069746266 8.69036
50.02993150438364 8.67769
50.05450147301533 8.6357
50.07907390151433 8.634910000000001
50.10364879174981 8.59256
50.12841816587289 8.558060000000001
50.1529980044635 8.566889999999999
50.17758031042124 8.53316
50.20216508562089 8.53544
50.22694442953363 8.48472
50.25153416817468 8.472719999999999
50.27612638170508 8.48835
50.300721072005196 8.474219999999999
50.325510416102105 8.46931
50.350110084975064 8.46262
50.37471223628208 8.43799
50.39931687190919 8.41605
50.424116246675766 8.38447
50.44872587605249 8.3819
50.47333799543065 8.3437
50.49795260670191 8.3244
50.52276204271512 8.32812
50.54738166295838 8.29665
50.57200378079314 8.28863
50.596628398116835 8.27186
50.62144792604559 8.27417
50.646077567609396 8.26174
50.670709714377715 8.250630000000001
50.69553683636198 8.23103
50.72017401885922 8.193810000000001
50.7448137122895 8.18342
50.76945591856022 8.17644
50.79429318636823 8.162
50.818940443716784 8.11703
50.84359021965163 8.14118
50.868242516085964 8.099269999999999
50.893089960641895 8.08318
50.917747323549435 8.05883
50.94240721271973 8.06817
50.96706963007175 8.060210000000001
50.99192728239342 8.01282
51.01659478166073 8.03203
51.04126481489051 7.97705
51.06593738400761 7.971710000000001
51.090805275207074 7.978039999999999
51.11548294172845 7.93127
51.14016314993547 7.9513
51.164845901758845 7.94267
51.18972406304274 7.938860000000001
51.21441192780656 7.8844899999999996
51.23910234200271 7.86385
51.2637953075678 7.836069999999999
51.288683770237945 7.81233
51.31338186432707 7.8052600000000005
51.33808251561888 7.77882
51.362978729967345 7.752910000000001
51.387684521509755 7.77797
51.41239287610203 7.7663
51.437103795691165 7.734939999999999
51.46201036644977 7.713769999999999
51.486726441956634 7.71737
51.51144508832545 7.700189999999999
51.536166307509156 7.68727
51.56108326624387 7.67165
51.58580965706056 7.65534
51.61053862657523 7.665039999999999
51.635270176746864 7.58903
51.66019755512065 7.553160000000001
51.68493429268881 7.573339999999999
51.70967361681515 7.52957
51.73441552946465 7.56354
51.759353359237934 7.529310000000001
51.7841004750961 7.52412
51.80885018539685 7.48645
51.833602492111254 7.465139999999999
51.8585508051424 7.44503
51.883308330926425 7.43398
51.90806845906181 7.41183
51.932831191525715 7.466139999999999
51.95779001977161 7.40831
51.98255798721516 7.408989999999999
52.00732856494335 7.37715
52.03229530577543 7.35302
52.057071130455945 7.353339999999999
52.081849571391054 7.365
52.106630630568695 7.31205
52.13160794279417 7.29702
52.15639426492067 7.27659
52.18118321127822 7.28216
52.205974783860896 7.25783
52.23096269971011 7.2482
52.255759551287994 7.24026
52.280559035098186 7.188680000000001
52.30536115314103 7.20075
52.33035970494467 7.202039999999999
52.35516711807904 7.17006
52.37997717147198 7.1503
52.40478986713005 7.12723
52.42979908731974 7.10381
52.454617094216 7.093380000000001
52.47943774942214 7.052169999999999
52.50426105495102 7.10005
52.529280976059844 7.09359
52.554109609024096 7.05485
52.57894089837482 7.032210000000001
52.60377484613117 7.0111300000000005
52.62880550079408 7.020739999999999
52.65364479223379 6.982139999999999
52.67848674816189 6.983510000000001
52.70352547971946 6.96125
52.72837279155837 6.97918
52.753222773982785 6.9447
52.778075429022984 6.90516
52.80312495150885 6.8879600000000005
52.827982978797436 6.87252
52.85284368481815 6.840789999999999
52.87770707160767 6.8426800000000005
52.90276741793998 6.83184
52.92763619336701 6.82379
52.952507655698504 6.79523
52.977381806977576 6.81162
53.00245301017842 6.847160000000001
53.02733256653592 6.806260000000001
53.052214817996074 6.78706
53.077099766608484 6.746510000000001
53.102181859804446 6.709969999999999
53.127072229988265 6.74793
53.15196530349892 6.7168
53.17686108239249 6.652489999999999
53.20195409881522 6.6594
53.22685531582556 6.66788
53.25175924441303 6.62495
53.27666588664027 6.6757800000000005
53.30176985962693 6.6248
53.3266819565689 6.57154
53.35159677336455 6.54995
53.376514312083096 6.55705
53.40162927507703 6.56602
53.42655228516116 6.55767
53.45147802340193 6.52348
53.47660125628886 6.52856
53.50153247842639 6.51093
53.52646643496923 6.50496
53.55140312799818 6.47573
53.576537409691696 6.44958
53.60147960336152 6.44853
53.626424539786164 6.44416
53.65137222105307 6.41822
53.67651758529126 6.41598
53.70147078399681 6.40495
53.72642673383343 6.3663300000000005
53.75138543689533 6.366630000000001
53.776541917524526 6.33564
53.801506154876755 6.34288
53.826473151763246 6.33791
53.851442910284916 6.3312800000000005
53.87661054126026 6.28184
53.9015858509782 6.27577
53.92656392866066 6.2404
53.95154477641532 6.25322
53.976723591801296 6.20669
54.00171000771266 6.209309999999999
54.02669920004598 6.21833
54.051691170915745 6.18896
54.076881204886796 6.20335
54.101878760928514 6.1761
54.12687910187696 6.14112
54.152077577768296 6.17442
54.1770835166946 6.104830000000001
54.20209224691339 6.0811
54.22710377055121 6.09963
54.25231352511594 6.05791
54.27733066384342 6.04275
54.30235060239643 6.05846
54.32737334290836 6.041119999999999
54.35259441062629 6.0147699999999995
54.377622783395324 5.98983
54.40265396455061 6.03809
54.42768795623251 5.9988
54.45292037169559 5.95897
54.477960012857906 5.95653
54.50300247099511 5.91754
54.52804774825457 5.87735
54.55329154616743 5.88553
54.57834249018678 5.84558
54.6033962597977 5.79269
54.6284528571545 5.81642
54.653708072335164 5.75924
54.67877035378786 5.7321800000000005
54.70383546947698 5.72964
54.72890342156389 5.73445
54.7541700889442 5.68279
54.77924374251975 5.69428
54.8043202390049 5.69822
54.82959552413022 5.64623
54.8546777351945 5.68123
54.87976279569621 5.6009
54.90485070780914 5.60918
54.930137506558005 5.61897
54.95523115074295 5.58855
54.98032765308844 5.5747599999999995
55.005427015775496 5.49262
55.03072536339621 5.49448
55.05583047570572 5.50634
55.080938454927676 5.47881
55.10604930325027 5.48934
55.131359235107396 5.41521
55.15647585066083 5.40461
55.181595341907496 5.36135
55.20671771104285 5.34629
55.232039262617704 5.31586
55.25716741665048 5.31769
55.28229845518636 5.30307
55.30743238042802 5.26575
55.33276558731939 5.24831
55.357905315183636 5.169569999999999
55.383047936390035 5.17244
55.40819345314859 5.16895
55.433538351073295 5.12555
55.458689688238415 5.0612
55.483843927614096 5.09211
55.509197623043605 5.03189
55.53435769621134 5.04736
55.55952067826466 4.99327
55.5846865714265 5.01904
55.61005202069737 5.00597
55.63522376553902 4.98373
55.66039842818645 4.9072
55.68557601087004 4.91098
55.7109532500271 4.88426
55.73613670233794 4.88594
