TT I
1.2716486653135266 7.19433
1.2939594142134223 6.76337
1.3162702121660406 6.755319999999999
1.3385810600174564 6.87453
1.3608919586137629 6.4713199999999995
1.383202908801069 6.30359
1.405513911425503 5.90149
1.4278249673332093 5.9730300000000005
1.4501343378461518 5.82655
1.4724455028545926 6.05872
1.4947567236847858 5.614330000000001
1.517068001182951 5.55199
1.5393793361953272 5.6074
1.5616907295681737 5.3505400000000005
1.5840021821477681 5.56997
1.60631369478041 4.97463
1.6286252683124185 5.12671
1.6509369035901333 4.80103
1.6732468618895553 5.05119
1.695558623192809 3.97911
1.7178704487808514 4.65123
1.7401823395001077 4.46245
1.7625012545597203 4.56766
1.7848028405262486 4.4489
1.8071218901122095 4.696359999999999
1.8294236121921872 4.67508
1.8517427996910911 4.79971
1.8740620574440425 4.87402
1.8963639900671978 4.5586
1.9186833908139995 4.40747
1.9409854680117449 4.57273
1.9633050151394713 4.42884
1.9856246367570705 4.36895
2.0079269371922672 4.30547
2.03024671027244 4.124569999999999
2.0525491637446027 4.270980000000001
2.074869091674931 3.6716599999999997
2.097171701569106 4.31787
2.1194917877373847 5.00969
2.141811954326636 4.63358
2.164114805233074 5.02724
2.186435135143035 4.53534
2.208738150935709 5.37565
2.231058647554722 6.862010000000001
2.2533792288321184 6.50168
2.275682498336085 5.60656
2.298003251406138 5.09426
2.3203066942619714 5.23474
2.3426276225136022 5.08464
2.3649486396617507 5.51246
2.387252348930071 6.6098300000000005
2.4095735463442893 6.10654
2.4318774374315884 6.15322
2.4541988185014043 6.295380000000001
2.476502894794693 7.58754
2.498824462909887 7.63927
2.521146125856138 7.798260000000001
2.5434504863470337 7.85001
2.5657723414244717 7.49212
2.588076895590662 8.028260000000001
2.610398946189713 8.17526
2.6327210958598384 7.87315
2.6550259469304716 8.25291
2.6773482972090137 8.56048
2.6996533504259 8.20993
2.7219759047039602 8.27897
2.744298562293959 8.27678
2.7666039251246595 8.36985
2.7889267918020164 8.71007
2.8112323652516555 8.58717
2.833555444408179 8.34422
2.8558786311183852 8.61765
2.8781845268938557 8.818610000000001
2.9005079311721484 8.94557
2.9228140460410397 9.328660000000001
2.9451376712799635 9.71112
2.967444008632326 9.749189999999999
2.9897678582247247 9.88756
3.0120918213106695 10.1263
3.0343984987899373 10.3029
3.0567226913198637 10.8702
3.079029599759726 11.6221
3.101354025127254 12.0758
3.123678568232338 12.6443
3.145985829517914 13.1636
3.16831061055229 13.712
3.1906181112775593 13.9899
3.212943133635653 14.6804
3.2352682779763207 14.8923
3.2575761442691227 14.6663
3.2799015350264273 15.1334
3.302209649240067 15.97
3.3245352898092655 16.4435
3.3468436553365257 16.617
3.369169549113219 17.4521
3.3914955708171384 18.0612
3.413804319727358 18.2852
3.4361305997334863 18.430999999999997
3.4584396084414553 18.9226
3.4807661501462652 19.6261
3.503092824025881 20.1286
3.5254022288463154 20.4255
3.5477291695206588 20.865
3.5700388426251948 21.2009
3.5923660534916446 21.9903
3.6146934007816114 23.3688
3.637003482731501 28.0006
3.6593311053109985 29.7781
3.681641464033634 26.8033
3.7039693653009733 24.5038
3.726297407241705 24.5405
3.7486081875460804 24.6868
3.7709365132734978 25.2985
3.793247578841633 25.965999999999998
3.8155761917550093 25.81
3.8378875459837216 26.5442
3.8602164494827234 26.8965
3.882545499606844 27.4717
3.9048572932539183 28.195999999999998
3.9271866390645718 28.5437
3.9494987298666713 29.2122
3.971828374764527 29.6597
3.9941581705403255 30.2979
4.016470713506008 30.3319
4.038800813471445 31.0892
4.061113662089144 31.9825
4.0834440696459176 32.2925
4.105774632334751 32.6534
4.128087945865126 33.259
4.150418821249301 33.4077
4.172732448931298 34.6101
4.195063640413578 35.6232
4.2173775856475215 36.6312
4.239709096631102 39.6987
4.262040768704612 54.9899
4.284355196706267 64.2202
4.306687193387355 55.6206
4.329001947444346 44.4579
4.35133427213731 41.4897
4.373666762177566 41.6883
4.395982011761091 42.3073
4.418314834921175 43.6325
4.44063041906622 45.0662
4.4629635787515625 46.4703
4.4852969080429785 48.04
4.5076130004776225 50.0515
4.529946671403969 54.8351
4.552263106909177 57.2168
4.574597122877047 55.1653
4.596931312711224 53.1831
4.619248269273446 52.8325
4.6415828092605835 54.181000000000004
4.663900117405352 54.9658
4.686235010953232 56.4225
4.708552674085913 57.6435
4.730887924602802 59.2237
4.753223354952695 61.0299
4.775541557023902 64.0651
4.797877349456786 67.0441
4.820195915032126 67.6482
4.842532072957498 67.9438
4.864868414979744 70.5199
4.88718753227192 74.6101
4.909524244902505 76.5079
4.931843734218147 76.0849
4.954180820867835 77.5341
4.976518095879839 79.9544
4.998838149695359 82.8787
5.021175803844231 86.4805
5.043496238205739 89.7635
5.065834274903528 93.5741
5.088172504230693 97.9146
5.1104935158799565 103.54799999999999
5.132832132875765 116.194
5.155153533596801 136.532
5.1774925416746225 175.31
5.199814334878411 380.287
5.2221537374521505 998.9010000000001
5.244493338631803 2820.27
5.266815727034316 8001.25
5.289155727832427 13787.0
5.311478517248165 8276.27
5.333818921080011 2222.26
5.356159527788849 414.083
5.3784829252032536 175.50400000000002
5.400823940070432 143.60399999999998
5.423147747031976 124.935
5.445489173474152 116.441
5.467830807066149 116.436
5.490155234831516 116.667
5.512497285125229 110.758
5.534822130975162 104.555
5.557164601388673 100.63
5.579489868738879 97.8851
5.601832762690846 96.5045
5.6241758697774475 95.1318
5.646501775867269 94.7241
5.668845311622074 93.8338
5.691171647754637 93.53200000000001
5.713515615597765 92.3513
5.735859800852677 91.6826
5.758186788542988 93.564
5.780531411018185 96.34
5.802858837297399 96.0367
5.825203900414495 96.0791
5.8475491852224 97.7752
5.869877275883075 96.8988
5.892223006467101 94.6598
5.914551544266608 93.3645
5.936897724049891 96.4669
5.959244129804903 104.053
5.981573344815301 132.216
6.0039202049061 241.671
6.026249875609095 473.267
6.04859719346037 964.428
6.070927323278297 2235.91
6.093275102315365 4791.17
6.115623113320588 5690.29
6.137953938319995 2989.18
6.160302415650845 829.1460000000001
6.182633708324452 195.891
6.2049826554078376 102.141
6.227331838745022 86.8996
6.249663839443684 80.9318
6.27201349767565 77.1744
6.294345974611799 75.7267
6.316696111167083 74.8361
6.339046488263839 73.676
6.361379686074702 70.6665
6.383730546639482 69.2776
6.406064229255215 68.5266
6.428415576718203 69.0754
6.450749747566656 68.0855
6.47310158535871 65.6238
6.495453669698332 63.9068
6.517788579421056 63.2207
6.540141159237969 62.2288
6.562476565766648 61.87
6.5848296444934045 61.8389
6.607182974060425 61.9088
6.6295191323281015 61.4662
6.651872965955752 60.1165
6.6742096296068985 61.4164
6.6965639707294615 65.5503
6.71891856698715 65.4451
6.741255995248479 60.8642
6.763611104154477 58.1915
6.785949046381137 57.6907
6.808304671371482 58.0425
6.8306605557940046 58.9449
6.852999275508618 58.0808
6.875355681171544 56.6792
6.897694923437771 55.7619
6.92005185377892 54.9534
6.9423916220322655 55.2961
6.964749080490181 54.327
6.987106804399774 54.3285
7.009447368180821 54.8069
7.031805625367033 54.68899999999999
7.054146723727803 54.0528
7.076505517631004 53.7652
7.098864581288365 53.7708
7.121206488070854 53.4085
7.143566093607822 54.0914
7.165908543567245 55.3359
7.188268694426048 54.8989
7.2106291193438095 53.7754
7.232972390625943 53.1595
7.255333366030969 53.7358
7.277677189091925 58.0325
7.300038718428332 63.5683
7.322400526130865 61.3378
7.344745183422596 56.3405
7.367107550224791 53.3163
7.389452767901992 53.5284
7.411815697249891 53.1967
7.434161478756298 52.7179
7.456524974096713 52.8334
7.478888753837185 52.5864
7.501235387657368 53.1525
7.523599738562711 53.8083
7.545946944825532 54.7497
7.568311870344528 55.1598
7.5906770845765665 54.5809
7.613025156078678 54.0372
7.635390950099687 54.3182
7.657739602662809 54.1643
7.680105979923558 55.085
7.702472650212829 55.8911
7.724822180948224 55.714
7.747189439655568 55.2265
7.769539560075357 55.1736
7.791907410653562 55.718999999999994
7.81425812420825 55.5274
7.836626570110925 55.83
7.858995315087906 56.6903
7.881346924933401 57.2915
7.903716270417482 57.4287
7.926068482028405 57.7612
7.948438431475253 58.2956
7.9708086843180235 58.7779
7.993161805171116 59.6587
8.015532667162402 59.9326
8.037886398416653 61.6575
8.060257873014221 61.6044
8.082629655331942 62.4331
8.104984308787587 63.2291
8.127356708900503 64.6111
8.149711981398308 67.3698
8.172085002766314 68.8601
8.194458336181368 68.2945
8.216814543847752 67.7545
8.23918850371002 68.3241
8.26154533906492 69.1245
8.283919928836452 71.0928
8.306277395339652 71.7257
8.328652618483376 73.3637
8.351028159736202 75.3541
8.373386579575245 77.506
8.395762759396959 79.318
8.418121819038275 81.7928
8.440498640894003 86.5441
8.462875785192262 96.5398
8.485235811156207 124.306
8.507613602688501 178.46599999999998
8.529974277114228 268.339
8.552352719347912 399.629
8.574731488360351 662.801
8.59709314210385 1244.54
8.619472567021075 2035.08
8.64183487789147 2381.19
8.664214962183097 1759.19
8.686577933647762 809.4110000000001
8.708958680784317 300.596
8.731339760774953 139.67600000000002
8.753703729764451 103.325
8.77608547780821 95.7288
8.798450116065078 92.9528
8.820832535634787 90.927
8.843215292401656 90.8223
8.865580941199045 90.0508
8.887964374703538 89.8407
8.910330701447199 89.6398
8.932714815164482 89.0898
8.955099270424924 86.6828
8.977466620733543 84.7714
8.999851761421976 83.7552
9.022219798361645 83.6198
9.04460562795561 83.3344
9.066991803441677 82.9186
9.089360876979615 83.2393
9.111747746589993 83.6621
9.13411751544971 82.4121
9.156505082664324 81.4352
9.178875550323522 81.1722
9.20126381862328 81.3665
9.223652438908596 82.0763
9.246023961427412 82.9413
9.26841328802173 82.4787
9.290785518039224 82.6845
9.313175554425882 84.124
9.335565947154315 85.3863
9.357939245086508 85.6943
9.380330352834827 84.6246
9.40270436697103 84.3356
9.425096193225055 84.1976
9.447488380180165 84.2793
9.469863475295412 83.7822
9.492256385987508 83.9888
9.514632206018318 84.4235
9.537025843935714 84.9744
9.559402392368193 86.5742
9.581796761000229 88.7008
9.604191496441521 90.1865
9.626569144158516 92.5451
9.648964615551032 92.1422
9.671343000390081 91.6519
9.693739211225699 91.2851
9.716135793237463 91.2947
9.738515290448102 92.2555
9.760912617143402 94.0676
9.783292860202891 95.7535
9.805690935076182 97.7292
9.828089385495742 98.3396
9.850470754023561 99.6751
9.872869957865444 101.52799999999999
9.89525208097539 104.61399999999999
9.917652041736662 110.155
9.940052382417589 121.509
9.962435644102392 150.513
9.984836746950979 193.57
10.007220771957746 256.901
10.029622640473708 361.819
10.052007432299963 541.855
10.074410069984072 852.543
10.096813093716005 1353.1
10.119199042482517 1896.48
10.141602840636468 2080.1
10.163989564971628 1470.16
10.186394141051062 731.299
10.208799107559706 302.486
10.231187001965623 155.814
10.253592751657669 116.344
10.275981430388155 108.45299999999999
10.298387966769793 105.48200000000001
10.320794897965431 104.723
10.343184759907361 103.634
10.36559248305461 102.319
10.387983138083852 103.93
10.410391656691655 110.87799999999999
10.432800574501677 122.62700000000001
10.455192425893369 138.91
10.47760214443012 165.516
10.499994797678786 211.291
10.522405320453982 294.401
10.54479877906917 414.726
10.567210109595656 551.658
10.5896218454736 590.0930000000001
10.612016518879773 469.001
10.634429067781074 290.861
10.656824555333241 166.81799999999998
10.679237920773568 110.671
10.701651695961992 92.2943
10.724048411481384 87.4059
10.746463008485165 84.6394
10.768860546937125 83.2424
10.791275969274796 81.8477
10.81369180576079 81.2091
10.836090585366925 79.8583
10.858507252467449 78.3467
10.88090686379991 77.73100000000001
10.903324365036394 77.5566
10.925724811614439 76.2574
10.948143150509463 76.493
10.970561909719066 75.7985
10.992963615930844 75.0518
11.015383218085756 73.6898
11.037785768347074 72.2508
11.06020621697282 71.7759
11.082627090322113 70.9795
11.105030913430326 70.2592
11.12745263854165 69.8515
11.149857314510728 69.4488
11.172279894912576 69.9107
11.194702904450653 68.9343
11.217108866490921 68.0638
11.239532736615194 67.3991
11.26193956033512 67.1456
11.284364294577085 66.8983
11.306789462371718 66.1415
11.329197585398376 65.8048
11.351623622610898 65.722
11.37403261614354 64.9157
11.396459526308487 64.9759
11.418869393879497 64.5332
11.441297180532617 64.0874
11.463725406927658 63.8401
11.486136592353875 63.3133
11.508565700543707 63.113
11.530977768845315 63.2016
11.553407762368774 63.0423
11.575838200059769 62.9142
11.598251599479612 62.478
11.620682927815501 62.2944
11.64309721895548 62.3832
11.665529441478206 62.1436
11.687962112597958 62.0609
11.710377748130886 61.8741
11.732811318753434 61.7377
11.755227854859067 61.8068
11.777662328529495 61.4434
11.800079768750786 61.4482
11.822515149015453 61.6786
11.844950984084935 62.0136
11.867369787303163 61.61600000000001
11.889806534289491 61.5851
11.912226250487029 61.7387
11.934663912939751 62.1292
11.9571020346363 62.4905
11.979523127133968 62.9984
12.001962169624331 64.1793
12.024384183972964 65.8206
12.046824150809913 69.0787
12.069264581333726 73.1506
12.091687985297767 79.5515
12.11412934550045 88.7692
12.136553680195208 103.59899999999999
12.158995973632788 125.949
12.181438735204349 158.437
12.20386447284199 194.452
12.226308172985636 208.71099999999998
12.24873485024193 193.50900000000001
12.271179492516982 150.41
12.293607112949127 107.99600000000001
12.316052700916226 81.3277
12.338498763250042 68.868
12.360927805303868 64.0655
12.383374818673879 63.2254
12.405804812803074 62.8416
12.428252780773262 62.8546
12.45070122756722 62.9812
12.473132656675375 63.1435
12.49558206341869 63.763000000000005
12.518014453510101 63.8224
12.540464823770117 63.8517
12.562915677315177 63.7015
12.58534951575545 64.0396
12.607801338171472 63.8531
12.630236146511358 65.0189
12.652688941369085 65.8176
12.675124723177234 66.0281
12.697578494048786 66.2369
12.720032754458185 65.8467
12.742470003354093 66.1577
12.764925245138771 66.6317
12.787363476431278 66.7998
12.809819703166806 67.51
12.83227642391173 68.1705
12.854716135692716 69.0026
12.877173846755147 70.0744
12.899614549869717 70.5084
12.9220732548287 71.4319
12.94453245827299 72.0344
12.966974655289818 73.1926
12.989434858002571 74.1345
13.011878055298721 74.665
13.034339260862497 75.5279
13.056800969391883 77.1151
13.079245674017244 80.1359
13.101708390774869 84.8291
13.12415410463411 92.9825
13.146617833206086 102.57799999999999
13.169064559883248 113.087
13.191529303857127 128.532
13.213994557076367 151.55
13.236442809902437 189.016
13.258909083908291 250.86599999999999
13.28135835851934 324.913
13.30382565690295 399.925
13.326293469022952 448.70300000000003
13.348744283242008 414.92199999999997
13.371213125129904 319.39099999999996
13.39366497011003 216.543
13.416134845360597 145.692
13.438605238843131 111.649
13.46105863690397 103.57
13.483530069144786 105.912
13.505984506951902 112.198
13.528456981549432 122.876
13.550929978879088 138.525
13.573385983253365 162.859
13.595860028340867 202.554
13.618317081455832 258.137
13.64079217790333 327.607
13.663250283359057 383.506
13.685726434770173 386.94
13.708203115221277 328.54699999999997
13.730662806148091 240.96400000000003
13.75314054697177 162.915
13.775601299246777 114.944
13.798080104050406 91.2308
13.820559442405358 82.6912
13.843021793671388 80.1066
13.865502201420897 78.6839
13.887965623051947 78.4253
13.910447103807167 77.2412
13.932929122629764 76.1953
13.955394156785959 75.9013
13.977877254034569 74.987
14.000343367582113 74.0054
14.022827546871707 73.3755
14.045294743423524 72.6438
14.06778000837062 72.0908
14.090265817715476 72.0922
14.112734645763819 71.5891
14.13522154619454 71.2212
14.157691466286913 70.9871
14.180179461423874 70.8564
14.202668005486178 70.4415
14.22513957064374 69.8202
14.247629214846473 69.4576
14.270101881097517 68.9951
14.29259262906496 68.8272
14.315083930490205 68.6914
14.337558255389705 68.8235
14.360050666019726 68.6074
14.382526101071944 68.2079
14.405019624534942 67.9919
14.427513705993134 67.9148
14.449990813291825 68.0269
14.47248601302899 67.9079
14.49496423954951 67.9864
14.517460561197822 67.9208
14.539939910570322 67.7346
14.562437357763558 68.0929
14.58493536931253 68.2972
14.607416409993311 68.5865
14.62991555254159 68.8742
14.652397725157423 68.9549
14.674898002342799 69.3304
14.697398848433282 69.6963
14.719882725991326 71.4448
14.74238471217934 73.3554
14.764869730765593 76.7483
14.787372860692983 79.5953
14.809876564079925 84.2565
14.83236330125751 90.5583
14.854868153850365 99.1473
14.877356041159485 113.65899999999999
14.899862046604186 132.808
14.922351087688757 160.534
14.944858249632887 194.37
14.967365991421232 222.753
14.989856770231246 232.645
15.012365673994204 215.467
15.03485761569738 175.487
15.05736768508665 132.585
15.07987833888692 101.413
15.102372032001655 82.7562
15.124883856909658 73.2695
15.14737872204565 70.3686
15.169891721717274 69.2937
15.192405310371893 68.7849
15.214901940621196 68.4143
15.237416709527137 67.8347
15.259914520936249 67.5576
15.282430473753607 66.8916
15.304947020131227 66.4467
15.327446610371178 66.0632
15.349964346154254 65.9183
15.372465126703139 65.7374
15.394984055556009 65.5352
15.417486030076159 65.2922
15.44000615566487 65.2065
15.462526881230803 64.9269
15.485030653812652 64.84
15.507552581617434 64.8989
15.530057557334603 64.686
15.55258069104857 64.9856
15.575104429329837 65.2313
15.597611216864632 65.1609
15.620136166564563 65.8847
15.6426441664095 67.5738
15.665170331202765 70.1258
15.687697105158826 72.8796
15.710206930593545 76.1968
15.732734925158933 80.6427
15.755245972089478 87.2937
15.77777519094324 96.3837
15.800287463046663 109.47399999999999
15.822817909869592 129.422
15.84534897229804 152.173
15.867863089299354 179.753
15.890395385222186 198.268
15.912910736597423 196.107
15.935444269699861 175.243
15.957978423016485 139.627
15.980495633101265 108.712
16.003031029129367 84.9065
16.02554948280019 70.6898
16.048086125229432 64.2683
16.070623392487107 62.3073
16.09314371869582 61.5143
16.11568223789321 60.4826
16.13820381691126 60.0141
16.160743591742527 59.3998
16.183283996022084 59.1372
16.205807461423195 58.1637
16.228349126881973 57.6871
16.25087385432698 57.7286
16.27341678466365 57.1284
16.29594277784926 56.827
16.31848697676433 56.6473
16.341031811604868 56.0528
16.36355971058487 56.1398
16.3861058195587 55.9105
16.40863499352978 55.3992
16.431182380342005 55.2987
16.453730407713202 54.9611
16.476261501364792 54.7879
16.498810812136167 54.4099
16.52134319004079 54.5359
16.54389378792203 54.2873
16.566445031001553 54.2283
16.588979342490088 53.9799
16.61153187824822 53.9396
16.634067483263312 53.9483
16.656621315414416 53.7659
16.679175797408888 53.3966
16.701713349928728 53.5964
16.72426913389191 53.7705
16.74680798922351 53.6754
16.76936507887444 53.5691
16.791905240734874 53.7923
16.814463639794468 53.4451
16.837022695210294 53.6566
16.859564824093756 53.6559
16.882125194503903 53.9751
16.904668639217885 54.1294
16.927230328348003 53.9614
16.949792678493612 54.2559
16.972338104193863 53.9289
16.994901778652235 54.3039
17.017448529496576 54.5629
17.040013531998152 55.1631
17.06257920018044 55.7795
17.0851279459922 56.5445
17.107694947817667 57.5528
17.130245028099072 58.0085
17.15281336730298 59.4042
17.17536478578733 61.0605
17.19793446610687 63.5425
17.220504818648422 66.4679
17.243058251703697 69.9752
17.265629950971032 75.1305
17.288184731571736 81.6004
17.310757781306908 83.4788
17.33333150794385 82.9282
17.355888317140174 79.2121
17.37846339986244 72.8901
17.401021565958885 66.9128
17.42359800851343 62.6386
17.44617513265564 59.8223
17.468735341390783 58.9986
17.491261035594565 58.3108
17.51396340099364 58.0797
17.536490463869136 58.1398
17.559018209820174 58.0916
17.58154663977963 58.2011
17.604251766089718 58.4221
17.626781572227713 58.8252
17.64931206518155 58.858000000000004
17.671843245885103 59.184
17.69455114821572 59.3556
17.717083712612634 59.5484
17.739616967569667 60.0516
17.762150914021706 60.4161
17.78486160749854 60.6865
17.807396945166804 61.7855
17.829932977143503 63.238
17.85246970436452 64.7336
17.875183204129467 66.1279
17.897721330097664 68.1658
17.920260154126645 70.679
17.942799677153296 73.8022
17.9655159983646 77.7554
17.988056927677544 83.26100000000001
18.010598558807683 91.0987
18.033140892692916 101.83200000000001
18.05586005052525 114.39399999999999
18.07840379824407 127.977
18.10094825154059 138.688
18.12366954819864 142.653
18.146215420998306 137.411
18.16876200220057 123.85600000000001
18.191309292745153 108.322
18.214033452627167 94.9415
18.236582170236648 86.1701
18.259131600016456 83.3722
18.281681742907335 85.1604
18.304408781233683 90.6759
18.32696035875955 97.0843
18.349512652227624 102.234
18.372065662579683 106.306
18.394795594587553 104.54
18.41735004715306 98.1046
18.43990521943684 89.2609
18.46246111238171 80.1194
18.485193953325208 71.74600000000001
18.507751296070428 66.3177
18.530309362314178 63.4683
18.552868153000343 61.891000000000005
18.57560391815056 61.1488
18.59816416623245 60.6621
18.620725141597372 60.2012
18.643286845190268 59.7244
18.666025549835414 59.2206
18.688588718427933 58.7179
18.711152618092243 58.6503
18.73389353884365 58.4248
18.75645890921984 57.9571
18.77902501351406 57.8599
18.801591852673102 57.7738
18.824335739722738 57.2536
18.846904057212626 57.0032
18.8694731124168 56.6993
18.89204290628315 56.7558
18.914789774966803 56.378
18.937361054791623 56.38399999999999
18.959933076131318 56.2481
18.982505839934877 55.9426
19.00525570560582 56.0304
19.027829963004184 55.9665
19.05040496572238 56.2523
19.072980714710468 55.9903
19.095733592739563 56.1864
19.11831084296757 56.3261
19.140888842324735 56.6826
19.16346759176222 57.0367
19.18622349753803 57.5745
19.208803755869358 58.3553
19.231384767143577 59.872
19.253966532312948 61.4439
19.276725481241822 63.6681
19.29930876296784 66.3752
19.3218928014549 69.4628
19.34465404436217 72.3025
19.36723960516257 74.796
19.389825925592426 75.1211
19.412413006605938 72.6792
19.43517731967805 68.6366
19.457765930683355 64.0889
19.48035530514408 59.9885
19.50294544401556 56.8726
19.525712842708348 54.8582
19.54830451925909 53.8051
19.570896963095727 53.0149
19.593490175174704 53.0243
19.616260674962184 52.9055
19.638855432416964 52.668
19.661450960992624 52.7318
19.68404726164677 52.8218
19.706820878021247 52.5327
19.729418731756834 52.7469
19.752017360452857 52.6627
19.77461676506804 52.8646
19.797393513540218 53.0195
19.819994478951667 53.0967
19.84259622316767 53.4709
19.8651987471481 53.7837
19.887978643247177 54.2253
19.91058273574792 54.676
19.933187610901943 55.568000000000005
19.955969879466828 56.678999999999995
19.97857632894404 58.443999999999996
20.00118356396599 60.3813
20.023791585494575 62.6342
20.046577028914875 65.7897
20.069186632506966 68.0478
20.091797025500632 70.0335
20.114408208858933 69.7594
20.137196842715273 68.6358
20.159809615886765 66.2881
20.18242318232135 63.4319
20.20503754298326 61.5529
20.227829382875154 60.605
20.250445341109344 61.0785
20.27306209647285 62.3273
20.29567964993108 64.2046
20.31847471147704 65.2536
20.34109387027612 65.8409
20.363713830075454 64.4755
20.386334591841646 62.0212
20.409132890679302 58.8245
20.431755265564437 55.784
20.454378445325528 53.4242
20.477002430930366 51.669
20.499803982716553 50.8191
20.522429589228004 49.9503
20.54505600449589 49.6009
20.567683229489194 49.5974
20.590488049900088 49.5201
20.61311690359731 49.2621
20.63574656993626 49.0645
20.658553853717297 48.7155
20.681185154618298 48.8555
20.703817271080066 48.6341
20.72645020407368 48.3429
20.749260783967177 48.1872
20.771895359337133 48.011
20.794530754161617 48.1151
20.817166969412938 48.0328
20.83998086114876 48.1154
20.86261872660049 47.8445
20.885257415405402 48.0058
20.90789692853701 47.9312
20.930714147864748 47.7583
20.953355319030678 47.9658
20.97599731745334 48.0569
20.99864014410749 47.7889
21.021460706796564 47.9158
21.044105199328826 48.1306
21.06675052302631 48.2383
21.089396678865015 48.3986
21.112220600704806 48.7955
21.134868430275347 49.089
21.15751709492456 49.4515
21.180166595629693 49.8069
21.202993892429635 50.2355
21.22564507473034 50.6421
21.24829709602816 50.8479
21.27112693608965 50.5957
21.293780644891275 50.3506
21.316435195634053 49.6518
21.339090589297417 48.9626
21.361923832041875 48.507
21.384580921090404 48.0311
21.407238856007325 47.5545
21.429897637773326 47.5949
21.45273429906592 47.7619
21.475394784108598 47.7364
21.498056118951983 47.7019
21.520718304578022 48.0807
21.543558400304388 48.2139
21.566222297108816 48.4793
21.58888704765135 48.3938
21.61155265291521 48.6862
21.63439619898156 49.184
21.657063523335786 49.4064
21.67973170537063 49.8114
21.7024007460706 50.2997
21.72524775840385 51.0283
21.747918526116475 52.0115
21.770590155457388 53.4109
21.79326264741238 55.0957
21.816113141960237 57.0411
21.838787368860547 59.17100000000001
21.861462461341976 61.3454
21.884315579735777 63.4198
21.90699241312273 64.3784
21.92967011506078 64.251
21.95234868653799 62.7083
21.9752053151131 60.8109
21.997885635446785 58.8076
22.020566828293532 57.0122
22.04324889464272 55.7299
22.066109049404666 55.0822
22.088792872571794 55.3462
22.111477572219204 55.503
22.1341631493376 55.6469
22.157026846313123 55.1399
22.179714188221507 53.8534
22.202402410582668 52.6428
22.22509151438863 51.1552
22.24795876962584 50.0761
22.270649646204486 49.1718
22.293341407213727 48.6293
22.316034053646906 48.3458
22.338904883215342 47.9828
22.36159931041458 48.1032
22.38429462602756 48.016999999999996
22.40699083104897 47.8996
22.429865251039757 47.7954
22.452563244831367 47.7898
22.47526213102522 47.7279
22.49813925616515 47.6957
22.520839937143307 47.7961
22.543541513520587 47.8961
22.56624398629403 47.7915
22.589124730075895 47.7546
22.611829005656723 48.0752
22.63453418063466 48.0233
22.657240256008077 48.2807
22.680124634582935 48.3953
22.70283252079775 48.5759
22.725541310413075 48.8709
22.74825100442868 49.0988
22.771139033969575 49.6366
22.79385054687155 49.8663
22.81656296718292 50.465
22.83927629590484 51.3691
22.862167992606945 52.521
22.88488314827121 53.7176
22.907599215359284 54.9976
22.93031619487366 56.1567
22.953211574954405 57.235
22.975930389478226 57.523999999999994
22.998650119445763 57.3658
23.02137076586092 56.0453
23.044269845560063 54.2132
23.06699233506288 52.2825
23.089715744034912 50.7407
23.112617610931565 49.5868
23.135342869061212 48.7565
23.158069049684816 48.1206
23.1807961538087 47.9485
23.20370174880544 48.1486
23.226430710184808 48.1489
23.249160598093425 48.111999999999995
23.271891413539002 48.2219
23.294800752937697 48.1382
23.31753343374794 48.4304
23.340267045128353 48.3459
23.36300158808808 48.6831
23.38591468821339 49.4634
23.408651104658304 49.5822
23.431388455719986 50.2668
23.454126742409 51.1469
23.4770436196085 52.1141
23.499783787914662 53.8744
23.522524894889884 55.0521
23.54526694154616 56.3475
23.56818761219047 57.3227
23.59093154860734 57.6119
23.613676427751283 57.2238
23.636422250635754 55.6437
23.659346731118656 53.6791
23.68209445191868 51.6054
23.704843119509587 49.4736
23.72759273490623 47.9029
23.750521041644767 46.8299
23.77327256312355 46.0505
23.796025035462787 45.5716
23.818956224555475 45.2856
23.841710609113413 45.2398
23.86446594758979 44.9515
23.887222241002014 44.6455
23.910157285144578 44.4207
23.932915498962537 44.3291
23.955674670778713 44.4469
23.978434801611975 44.1708
24.001373717286125 44.0171
24.024135776723917 43.9306
24.046898798245582 43.7773
24.06966278287146 43.7334
24.092605586582614 43.4683
24.115371508023642 43.2682
24.1381383956401 43.2787
24.16090625045381 43.1492
24.183852958731244 43.0842
24.206622758582608 42.7997
24.229393528706886 42.7393
24.252165270127392 42.8598
24.27511589952438 42.803000000000004
24.297889594216997 42.6201
24.32066426328598 42.3945
24.34343990775613 42.5038
24.36639447485003 42.3466
24.38917208083877 42.4106
24.41195066531332 42.2769
24.43490819850244 42.3596
24.457688750692377 42.2413
24.48047028445616 42.0636
24.503252800821233 42.3279
24.526214300784112 42.5103
24.548998793132213 42.2542
24.57178427117417 42.128
24.59457073593893 42.1804
24.617536219319863 42.0861
24.64032466834748 42.0636
24.663114107195035 42.108000000000004
24.685904536893013 41.7585
24.708874020360852 41.6235
24.731666442613744 41.7849
24.754459858818787 41.6769
24.777254270007962 41.6435
24.80022777025625 41.4735
24.82302418230472 41.4789
24.845821592443674 41.5048
24.86862000170663 41.4637
24.891597535453727 41.347
24.914397953892728 41.5742
24.93719937456671 41.4913
24.96000179851076 41.7523
24.98298338249997 41.9977
25.00578782394922 42.0582
25.028593271784167 42.3152
25.05157790644186 42.5663
25.07438537804115 42.7552
25.097193859145293 43.1662
25.120003350792075 43.3405
25.142992065061257 43.7189
25.165803588823465 43.9711
25.18861612625217 43.9762
25.211429678386736 43.8985
25.234422489079968 43.9816
25.257238081693636 44.113
25.280054692141732 44.1801
25.3028723214652 44.2435
25.325869245420463 44.4603
25.348688923599397 44.3349
25.371509623787006 44.1781
25.394331347025812 43.7918
25.41733240110666 43.2634
25.440156181590016 42.5103
25.46298098826268 41.8975
25.48580682216873 41.4366
25.50881202326435 40.9856
25.53163992281684 40.6046
25.55446885274561 40.516
25.577298814096377 40.1974
25.600308179121807 40.0669
25.623140214533745 40.296
25.64597328451537 40.1463
25.66898578564376 39.9299
25.691820936010206 39.9736
25.714657124097695 39.934
25.737494350954734 39.8049
25.760511045684957 39.768
25.783350361364224 39.7543
25.806190718969255 39.6872
25.82903211955018 39.9434
25.852053024868923 39.9638
25.874896522722523 39.9703
25.897741066713106 39.8755
25.920586657892454 39.9868
25.943611790812668 40.0776
25.966459487728237 40.4464
25.989308234998564 40.3103
26.01215803367705 40.7845
26.03518741123814 40.9435
26.05803932412957 41.0571
26.080892291600094 41.013000000000005
26.10374631470478 41.0358
26.12677995397268 40.9595
26.14963609978026 41.0399
26.172493304397875 40.6997
26.19535156888223 40.3215
26.218389486949604 39.9408
26.241249882640123 39.7532
26.26411134137826 39.5824
26.28715248187403 39.5246
26.31001607820869 39.4254
26.3328807407756 39.3621
26.35574647063438 39.419000000000004
26.37879191991473 39.3921
26.401659795896734 39.3864
26.424528742360263 39.7706
26.447398760366614 39.7519
26.470448535598294 39.8214
26.49332070826805 40.083
26.516193955675355 40.3553
26.53906827888316 40.7492
26.562122397260108 40.9278
26.584998883685063 41.3445
26.607876449110325 41.4923
26.63075509460056 41.6676
26.65381357334404 41.7152
26.67669439061878 41.5975
26.699576291163382 41.3626
26.722459276044212 41.075
26.745522132402975 40.7634
26.768407297649354 40.554
26.791293550442003 40.3372
26.814180891848974 40.2026
26.837248143099337 39.7991
26.860137673466657 39.7627
26.88302829566349 39.5066
26.90592001075963 39.3082
26.92899167420566 39.137
26.951885586870763 38.8598
26.974780595655517 38.5465
26.99785558178161 38.4271
27.020752794605112 38.438
27.043651106772522 38.3003
27.06655051935668 38.219
27.089629948036183 38.0556
27.112531573292053 38.0831
27.135434302194138 38.1966
27.158338135817015 38.1119
27.181422024430987 37.9953
27.204328079372566 37.8786
27.22723524226965 37.8407
27.250143514198573 37.9786
27.273231880156334 37.914
27.296142382065014 37.8381
27.319053996245536 37.7763
27.341966723775965 37.7053
27.365059584515222 37.8429
27.38797455070062 37.9423
27.410890633481237 37.9667
27.433807833936918 37.9106
27.456905206923906 37.929
27.47982465472398 37.9236
27.502745223449743 38.0487
27.525666914182825 38.0907
27.548768816912457 38.0439
27.571692763693633 37.7824
27.59461783573812 37.7981
27.617723149491244 37.6933
27.640650484125285 37.5659
27.66357894728264 37.4121
27.686508540048052 37.4479
27.709618414237887 37.2853
27.732550278321757 37.3027
27.755483275279115 37.2032
27.778417406196485 37.2641
27.801531858397514 37.2586
27.824468269376716 37.338
27.847405817586786 37.2271
27.870344504116094 37.3787
27.893463551932008 37.5095
27.916404527281053 37.8128
27.93934664422563 37.8055
27.962289903855886 37.8768
27.98541356491974 38.2228
28.00835912214229 38.3528
28.03130582533231 38.5179
28.054253675581805 38.661
28.077381967556104 38.5704
28.100332124185126 38.5561
28.123283431160893 38.3128
28.146235889577238 38.2045
28.169368830154156 37.9602
28.192323603752033 37.7509
28.215279532083304 37.6032
28.238415973016764 37.3774
28.261374223145094 37.2131
28.284333631303806 36.9537
28.307294198589954 36.8361
28.330435319167677 36.4671
28.353398217078915 36.266999999999996
28.376362277420153 36.0197
28.39932750129032 35.9166
28.422473319286713 35.7936
28.44544088262495 35.7159
28.468409612800283 35.7151
28.491379510913497 35.44
28.51453004413313 35.1447
28.53750229057244 35.2895
28.56047570826344 35.258
28.583450298308804 35.3259
28.606605564586562 35.0816
28.629582511831156 35.1221
28.65256063474956 34.9639
28.675539934446338 35.0868
28.698699951647605 34.9832
28.72168161743193 34.8409
28.74466446331978 34.9808
28.767648490417624 34.8832
28.790813276438353 34.8173
28.813799678527303 34.9034
28.836787265157085 34.8679
28.859955641890075 34.9333
28.882945610203045 34.8201
28.905936766392035 34.8165
28.928929111566863 34.7873
28.952102288520145 34.6831
28.975097024308607 34.5921
28.998092952423807 34.3918
29.021090073977508 34.2173
29.04426806913204 34.2424
29.067267590245258 34.0797
29.090268308143695 34.0809
29.11327022394099 34.0162
29.13645305530891 33.9393
29.159457379627167 33.871
29.18246290519685 33.8453
29.20546963313352 33.8459
29.22865731875826 33.8773
29.25166646419296 33.693000000000005
29.27467681535305 33.6249
29.29768837335608 33.6489
29.320880931312562 33.7542
29.34389491580634 33.713
29.366910110507334 33.6915
29.38992651653503 33.8039
29.41312396492981 33.6571
29.436142806456754 33.5919
29.45916286268059 33.6132
29.48236399319994 33.3165
29.50538649169417 33.1449
29.528410208259935 33.1965
29.55143514402014 32.9966
29.574641196749695 32.8284
29.597668583816574 32.7652
29.6206971934585 32.5225
29.64372702680042 32.6391
29.666938019934474 32.5729
29.689970313635285 32.4873
29.713003834422636 32.4128
29.73603858342347 32.4482
29.759254535188578 32.3068
29.78229175361658 32.3156
29.80533020365064 32.4352
29.82836988641968 32.4325
29.85159081507472 32.2968
29.874632976355343 32.2721
29.89767637376955 32.2825
29.920721008448314 32.1202
29.9439469322847 32.1901
29.96699405457564 32.108000000000004
29.9900424175358 32.1561
30.013092022298157 32.028
30.03632295963995 31.912
30.059375061131373 32.0022
30.08242840783577 31.9428
30.105483000888153 32.049
30.128718970092244 32.0419
30.151776069006917 31.8803
30.17483441768648 31.9831
30.198074175317235 31.9409
30.221135036724256 32.005
30.24419715131772 31.8404
30.267260520236203 31.7648
30.290505341942243 31.8295
30.313571232750228 31.785
30.336638381310948 31.7938
30.35970678876503 31.6801
30.38295669299435 31.6559
30.40602763151657 31.7231
30.429099832366074 31.6163
30.452173296685572 31.4924
30.47542830191959 31.5738
30.498504306502497 31.6219
30.521581577995562 31.6035
30.544660117543582 31.6943
30.56792024229725 31.7064
30.59100133132069 31.651999999999997
30.614083691845494 31.755
30.637167325018545 31.7588
30.660432587840603 31.7697
30.683518779717886 31.6799
30.70660624769615 31.6624
30.729694992924372 31.7022
30.75296541239743 31.6829
30.77605672557558 31.622
30.799149319462742 31.5321
30.8224236211637 31.4541
30.845518789950724 31.3765
30.868615242910597 31.2609
30.891712981195973 31.0761
30.91499247215866 31.0221
30.938092794619365 31.0772
30.96119440587579 30.9662
30.984297307082752 30.8316
31.00758200598383 30.7776
31.030687500658694 30.7307
31.053794288760695 30.6007
31.076902371446767 30.4668
31.100192296997445 30.5263
31.12330298246119 30.5559
31.14641496599209 30.4817
31.169528248749216 30.4477
31.19282341969534 30.3796
31.215939314557186 30.4193
31.239056512134788 30.454
31.262175013589378 30.4505
31.28547544871168 30.3112
31.30859657161541 30.3091
31.331719001892175 30.3239
31.35484274070538 30.4675
31.378148458819545 30.434
31.401274828443725 30.3738
31.424402510106933 30.4029
31.447712205419993 30.5346
31.470842524931633 30.3787
31.493974159989783 30.3522
31.51710711176168 30.3652
31.54042212308802 30.3729
31.563557722100917 30.1918
31.586694641341655 30.1429
31.609832881979628 29.9706
31.63315322823208 29.9406
31.656294125521327 29.8493
31.679436347728515 29.8534
31.70257989602529 29.7188
31.725905596152327 29.6502
31.74905181052835 29.6049
31.772199354521323 29.726
31.79534822930507 29.6953
31.818679302290967 29.6234
31.84183085259981 29.6794
31.864983737233473 29.7355
31.88813795736804 29.7368
31.911474422233013 29.5903
31.934631327356435 29.6554
31.9577895715215 29.5203
31.980949155906522 29.543000000000003
32.004291031706956 29.5608
32.027453310562606 29.4023
32.05061693318573 29.2772
32.07396288236386 29.3838
32.09712920658542 29.2724
32.12029687812702 29.1667
32.14346589817093 29.094
32.166817291729984 29.0612
32.18998902288583 28.995
32.21316210610336 28.820999999999998
32.23633654256711 28.6883
32.259693399663725 28.7369
32.282870556771144 28.6726
32.30604907069099 28.7459
32.329228942610065 28.6334
32.35259128243769 28.4519
32.375773884550505 28.3853
32.398957848235646 28.4937
32.422143174682176 28.4584
32.445511016471215 28.3934
32.468699082679954 28.301
32.49188851523011 28.2323
32.51507931531304 28.166999999999998
32.538452678331 28.1928
32.56164622776311 28.0147
32.58484114831493 27.9344
32.60803744118015 28.0156
32.631416344731896 28.0694
32.654615396551876 28.0223
32.67781582427913 27.9905
32.701198898634416 27.8667
32.72440209253756 27.8275
32.747606665947124 27.7498
32.77081262006088 27.6615
32.79420126883317 27.7377
32.81740999876112 27.6788
32.840620112999424 27.6445
32.86383161274818 27.5781
32.88722585534586 27.5001
32.91044014056596 27.6002
32.933655814909734 27.5728
32.95687287957963 27.5476
32.98027273544904 27.397
33.00349259526636 27.3759
33.026713849030116 27.4413
33.04993649794511 27.4364
33.073341986570746 27.435
33.09656744032826 27.4185
33.11979429286444 27.3522
33.14302254538647 27.3551
33.166433686291185 27.2986
33.18966475336992 27.2378
33.212897224069096 27.2385
33.23613109959831 27.2121
33.259547912343415 27.1767
33.2827846121627 27.1255
33.306022720453775 27.0363
33.32926223842861 26.9398
33.352684742614166 26.906
33.37592709463173 26.8476
33.399170859982064 26.8734
33.422597648419426 26.8001
33.44584425514446 26.5604
33.46909227885668 26.5717
33.4923417207723 26.5374
33.51577423505344 26.4945
33.539026528130385 26.4376
33.56228024307245 26.4397
33.585535381098246 26.3607
33.60897364093058 26.3108
33.63223163992385 26.2317
33.6554910656699 26.2652
33.678751919389796 26.2816
33.702195944520106 26.225
33.72545966903325 26.123
33.74872482519663 26.0957
33.771991414233746 26.1021
33.79544122444841 26.0826
33.81871069412428 26.0049
33.84198160035767 25.9661
33.86525394437455 26.0588
33.88870955949969 25.8815
33.911984794020626 25.8886
33.93526147001624 25.8639
33.958539588715006 25.8427
33.98200102861669 25.6926
34.0052820477047 25.6521
34.02856451319451 25.6785
34.05203033759056 25.6096
34.07531571090147 25.5462
34.09860253431845 25.4596
34.121890809074316 25.4924
34.145362493118924 25.5186
34.16865368561615 25.4284
34.191946333164054 25.3728
34.21524043699793 25.3466
34.23871800066799 25.3934
34.26201503218366 25.2499
34.28531352370466 25.2104
34.30861347646881 25.13
34.33209693978188 25.0961
34.3553998301885 25.1156
34.378704185565205 25.0473
34.402010007152356 24.9915
34.42549939016683 24.9785
34.44880815937748 24.8744
34.472118398533134 24.8032
34.49543010887669 24.8482
34.51892543169198 24.7071
34.54224009966052 24.7235
34.56555624255917 24.7765
34.58887386163339 24.6338
34.61237514439016 24.5955
34.6356957311114 24.5541
34.65901779775809 24.5611
34.68252356662995 24.5343
34.705848608458616 24.4585
34.72917513396849 24.3569
34.75250314440949 24.375999999999998
34.77601490857862 24.3135
34.799345904259795 24.2904
34.82267838863559 24.2648
34.846012362958525 24.2805
34.869530142679984 24.2427
34.89286711232212 24.2439
34.91620557568269 24.1761
34.93954553401677 24.1157
34.9630693495876 24.0707
34.986412313340814 24.0957
35.00975677584668 24.0454
35.033102738362956 23.9097
35.05663261012228 23.9047
35.0799815881786 23.9144
35.10333207003229 23.8984
35.12668405694369 23.8872
35.150220005273056 23.9167
35.17357501786656 23.9165
35.19693153931268 23.8746
35.220289570874385 23.7886
35.24383161619786 23.8265
35.267192683604904 23.816
35.290555264930376 23.7132
35.314101899412165 23.7002
35.33746752422433 23.7043
35.36083466676374 23.6003
35.38420332829803 23.596999999999998
35.407756095629054 23.6518
35.43112781085063 23.578000000000003
35.45450104888391 23.5643
35.477875810999194 23.6149
35.50143473172161 23.5042
35.52481255774625 23.5541
35.54819191167777 23.4073
35.57157279478914 23.2847
35.595137889488406 23.3836
35.61852184675279 23.2858
35.641907337029984 23.2349
35.665294361595684 23.2764
35.68886565090076 23.2434
35.7122557598848 23.1489
35.73564740699838 23.1528
35.759040593519934 23.0694
35.78261809810353 23.0729
35.80601437933051 23.0044
35.829412203814705 22.9299
35.85281157283719 22.8914
35.876395313415884 22.8921
35.8997977874528 22.8597
35.92320180988546 22.8412
35.946790244133936 22.7378
35.97019737933222 22.7746
35.993606066789866 22.7285
36.01701630779276 22.6724
36.04061101440684 22.6107
36.06402437852291 22.6119
36.08743930005611 22.5906
36.1108557802951 22.5804
36.13445678011326 22.5669
36.15787639383515 22.4764
36.18129757014299 22.4606
36.20472031032821 22.3646
36.22832762423364 22.3157
36.25175350829375 22.2761
36.275180960119776 22.263
36.298609981005924 22.3439
36.32222362992669 22.3144
36.34565580510207 22.2488
36.36908955323448 22.2055
36.39252487562093 22.0807
36.416144880530226 22.1034
36.43958336764275 22.1333
36.463023432914625 22.1173
36.486465077645676 21.9821
36.51009145956204 22.0469
36.53353627947859 22.0275
36.55698268276811 21.893
36.58043067073321 21.8989
36.60406345072071 21.8528
36.62751462435344 21.8321
36.65096738658405 21.8383
36.67460498210655 21.8483
36.69806093788647 21.7124
36.72151848619297 21.6702
36.744977628333636 21.7138
36.76862165890998 21.6565
36.79208400512205 21.6282
36.81554794910557 21.603
36.83901349217101 21.4631
36.862663978991606 21.4834
36.88613273667352 21.4197
36.90960309738324 21.4268
36.933075062434064 21.3692
36.95673202673572 21.3413
36.98020721697122 21.2572
37.003684015502365 21.2274
37.027162423645365 21.2097
37.050825886711465 21.2482
37.07430753063053 21.1578
37.09779078812467 21.1533
37.121275660513014 21.0994
37.144945643673694 21.0608
37.16843376245278 21.0449
37.19192350009803 20.998
37.215414857931435 20.9548
37.239091382563885 20.9081
37.262585997426164 20.9156
37.28608223645736 20.9254
37.309763684451696 20.8781
37.33326318851098 20.8085
37.356764320726555 20.7653
37.380267082425526 20.8195
37.40395510942588 20.7162
37.42746114683234 20.6656
37.45096881771841 20.6467
37.474478123414166 20.6192
37.49817275092816 20.5651
37.52168534303452 20.5661
37.54519957395567 20.4769
37.568715445024665 20.4841
37.592416694607714 20.468
37.61593586281424 20.5182
37.63945667518264 20.458
37.66297913304891 20.3401
37.68668702630454 20.3925
37.710212792059274 20.2752
37.733740207334854 20.3005
37.757269273470364 20.2181
37.780983832050374 20.123
37.80451621684926 20.1594
37.82805025654007 20.1598
37.851585952464795 20.1303
37.8753071980695 20.0486
37.89884622345676 19.9815
37.92238690911902 19.9768
37.94611318753442 19.9762
37.969657210779765 19.8834
37.99320289834801 19.8916
38.016750251586465 19.8992
38.04048325513017 19.8172
38.06403395679343 19.7763
38.087586328183946 19.809
38.11114037065203 19.7886
38.13488012115898 19.785
38.1584375229181 19.667
38.181996599821 19.5718
38.205557353221124 19.5526
38.229303872575656 19.5529
38.2528679961576 19.5337
38.27643380031219 19.5907
38.30000128639589 19.5276
38.32375459653193 19.507
38.34732546371299 19.4909
38.37089801690786 19.4524
38.39447225747609 19.3654
38.418232380377425 19.2873
38.441810012983396 19.2865
38.46538933705673 19.2655
38.488970353960084 19.2628
38.51273731166058 19.2714
38.536321731567014 19.1282
38.55990784840681 19.1183
38.58367995004091 19.0634
38.60726947812959 19.0691
38.63086070726198 19.1042
38.654453638806274 19.0791
38.678232613930824 18.9823
38.70182896773327 18.9348
38.72542702806741 18.9481
38.7490267963045 18.9441
38.77281266709232 18.8607
38.79641586862214 18.808
38.8200207821842 18.8548
38.843627409152944 18.8159
38.86742019782782 18.754
38.891030269149255 18.664
38.914642058016156 18.7014
38.938255565806124 18.7371
38.96205529464307 18.6821
38.98567225787121 18.6172
39.00929094417078 18.6316
39.03291135492255 18.5602
39.05671804624804 18.4923
39.080341923549106 18.4944
39.103967529460334 18.4544
39.127594865365744 18.4573
39.15140854155791 18.3957
39.17503935514948 18.3836
39.19867190290282 18.3257
39.22249083587951 18.333
39.24612686969409 18.3085
39.269764641845306 18.2702
39.293404153722804 18.2683
39.317230110864074 18.1616
39.34087311998506 18.0733
39.36451787301696 18.1214
39.388164371352595 18.1152
39.41199737518003 18.0759
39.43564738196752 18.0882
39.45929913825317 18.0792
39.48295264543308 17.9801
39.506792718520884 17.9355
39.530449745387216 17.9134
39.55410852735203 17.91
39.57776906581474 17.9375
39.60161623079 17.9384
39.625280300200025 17.8648
39.64894613032202 17.8012
39.67261372255866 17.7985
39.6964680021016 17.7493
39.72013913657293 17.7708
39.74381203738292 17.7036
39.76748670593756 17.6535
39.79134812278169 17.6042
39.81502634488497 17.6072
39.83870633896685 17.6475
39.862388106436654 17.5938
39.88625668336918 17.484
39.90994201572829 17.5085
39.933629125719285 17.4768
39.957503091207826 17.4225
39.9811937746168 17.4049
40.00488623990914 17.4246
40.02858048850006 17.3673
40.05246165409549 17.3219
40.076159487492085 17.2908
40.099859108448875 17.3367
40.123560518384345 17.2285
40.1474489070226 17.2692
40.171153913178564 17.2122
40.194860712584955 17.1808
40.2185693066637 17.0802
40.242464941335314 17.1034
40.26617714307655 17.0297
40.289891143772046 17.0277
40.3136069448471 17.0847
40.33750984859743 17.0603
40.3612292688043 16.9638
40.3849504936829 16.9316
40.40867352466194 16.9719
40.43258372059144 16.9121
40.45631038219906 16.9192
40.48003885420956 16.7949
40.503769138055105 16.842
40.52768664931955 16.8204
40.55142057531802 16.8044
40.57515631746428 16.7088
40.599079334038514 16.6959
40.62281872700477 16.6524
40.64655994043941 16.6547
40.67030297578061 16.6618
40.69423334835778 16.6333
40.71798004609188 16.6249
40.74172857006355 16.5207
40.76547892171441 16.5755
40.7894166736039 16.5047
40.813170699248566 16.4466
40.83692655691388 16.4199
40.86068424804498 16.4062
40.884629402612525 16.3893
40.908390779366385 16.4388
40.932153993938 16.3367
40.95591904777605 16.3031
40.979871628443995 16.2737
41.003640379561936 16.257
41.02741097430883 16.2637
41.05118341413683 16.2486
41.075143444384416 16.1533
41.098919593177826 16.1323
41.1226975914255 16.1494
41.14647744058318 16.0792
41.170444943946755 16.1112
41.19422851378379 16.1179
41.218013938914645 16.0634
41.24198706625173 15.9671
41.26577622087193 15.9818
41.289567235177785 15.942
41.31336011063129 15.8574
41.337340752422875 15.8895
41.361137369129835 15.8861
41.38493585138705 15.8406
41.40873620066004 15.849
41.43272438060107 15.7718
41.45652848292052 15.6874
41.48033445666918 15.7558
41.50414230331616 15.7148
41.528138045159764 15.6828
41.551949656675205 15.6285
41.575763145513235 15.6055
41.59957851314666 15.5747
41.62358184070442 15.5051
41.64740098505737 15.5291
41.6712220126409 15.5307
41.69504492493139 15.4993
41.71905586207357 15.4993
41.74288256296395 15.4361
41.766711153007456 15.4185
41.79054163368412 15.3802
41.814560204340054 15.3967
41.838394485526365 15.364
41.86223066180303 15.3169
41.88625497706819 15.2406
41.910094962812 15.2519
41.93393684811168 15.267000000000001
41.95778063445365 15.2245
41.981812625263366 15.1967
42.00566023303407 15.1313
42.029509746323676 15.1484
42.05336116662236 15.1317
42.077400857069705 15.1343
42.10125611078846 15.1097
42.12511327600405 15.0699
42.14897235421036 14.9764
42.173019768448455 15.0216
42.19688269209613 14.9649
42.22074753323349 14.9107
42.24461429335818 14.8849
42.268669455600495 14.8667
42.292540073217886 14.8278
42.31641261433284 14.8782
42.34028708044675 14.796
42.36435001496739 14.7752
42.38822835065557 14.7094
42.41210861586426 14.7663
42.4359908120986 14.7274
42.46006154323262 14.6425
42.48394762115317 14.6693
42.507835634632315 14.6126
42.531912233047436 14.6578
42.55580413732265 14.5943
42.579697981698 14.5616
42.60359376768525 14.5577
42.62767820545945 14.4932
42.65157789440821 14.4523
42.67547952952185 14.4939
42.699383112316 14.4544
42.72347541395347 14.4372
42.74738291190531 14.3698
42.771292362102166 14.3797
42.795203766063516 14.3264
42.819303956130405 14.3455
42.843219287476536 14.2773
42.86713657716324 14.2616
42.89105582671383 14.2636
42.91516392983864 14.2459
42.939087119032166 14.1715
42.963012272677304 14.177
42.98693939230129 14.1406
43.01105543317513 14.1011
43.034986504731386 14.081
43.05891954686589 14.0613
43.08285456110972 14.0389
43.10697856448665 14.0246
43.130917542983475 13.9795
43.15485849820081 13.9855
43.17880143167367 13.9505
43.20293342237094 13.9154
43.226880332449 13.8869
43.25082922540554 13.8659
43.27496722682525 13.8545
43.29892010567796 13.841
43.32287497204102 13.8631
43.34683182745632 13.7588
43.370977859791836 13.7653
43.39493871351105 13.7353
43.41890156092628 13.7001
43.44286640358341 13.6791
43.46702049182749 13.7267
43.49098934522816 13.6707
43.51496019852649 13.612
43.5389330532723 13.5768
43.56309522248204 13.5772
43.58707210044314 13.5806
43.61105098451946 13.4852
43.63503187626491 13.5067
43.659202151562134 13.4791
43.68318707902681 13.4516
43.70717401884041 13.4501
43.731162972560874 13.4038
43.75534137913236 13.3897
43.779334381108384 13.3249
43.803329401683186 13.3798
43.82732644241872 13.3491
43.8515130055166 13.3204
43.87551410707659 13.2645
43.89951723350145 13.2878
43.923709934595614 13.2025
43.94771713129917 13.1793
43.97172635758096 13.216
43.99573761501002 13.1875
44.0199385169922 13.1591
44.04395385732619 13.0792
44.067971233533086 13.1219
44.09199064718605 13.0596
44.11619977548961 13.0453
44.14022328470671 13.04
44.16424883610785 13.0539
44.18827643127035 13.001
44.21249381139513 13.0035
44.236525514814076 12.9239
44.26055926674478 12.9248
44.28459506876863 12.9243
44.3088207262813 12.8911
44.33286064928722 12.8078
44.35690262714919 12.8888
44.38094666145278 12.7801
44.4051806219871 12.7929
44.42922879003185 12.7503
44.45327901929361 12.7126
44.477331311362136 12.716
44.501573600619416 12.705
44.525630039221795 12.6416
44.54968854541895 12.6916
44.573937102200176 12.6029
44.5979997645541 12.5612
44.622064499300315 12.5676
44.64613130803592 12.5887
44.67038823869318 12.5542
44.69445921643748 12.546
44.718532272981385 12.4654
44.742607409926194 12.4647
44.76687274034801 12.4464
44.79095205918753 12.3889
44.81503346325094 12.3645
44.839116954143876 12.3354
44.86339071028742 12.3387
44.88747839599524 12.3247
44.91156817336837 12.2791
44.93566004401666 12.2975
44.959942251908146 12.2932
44.984038330325966 12.215
45.00813650686762 12.1898
45.03223678314731 12.2038
45.05652746888232 12.1728
45.08063196592069 12.1749
45.104738567558705 12.1032
45.128847275414856 12.1168
45.15314646515866 12.0566
45.17725940679741 12.0746
45.20137445952892 12.0324
45.22568004865265 12.0048
45.24979934496396 12.0051
45.27392075725247 11.9868
45.29804428714431 11.9805
45.322358426247604 11.9492
45.346486212804315 11.9161
45.370616121861914 11.8815
45.39474815505086 11.8451
45.41907087049246 11.8463
45.4432071734666 11.8534
45.46734560548283 11.8319
45.49148616817604 11.8397
45.51581748638564 11.7804
45.5399623320197 11.7487
45.56410931325473 11.7509
45.58825843173002 11.7696
45.61259837920865 11.6771
45.636751793816 11.6828
45.66090735060093 11.6625
45.68506505120716 11.603
45.7094136545275 11.5596
45.73357566449271 11.5789
45.75773982322992 11.5707
45.78190613238733 11.5654
45.806263418194064 11.4577
45.83043404997326 11.5238
45.85460683713677 11.5123
45.87897065658495 11.4837
45.90314777634752 11.4234
45.92732705646868 11.4135
45.9515084986045 11.419
45.97588104735473 11.3619
46.00006683541565 11.3668
46.02425479047904 11.3469
46.04844491420549 11.3842
46.0728262191024 11.2827
46.09702070211635 11.2666
46.12121735879483 11.2617
46.14541619080294 11.2624
46.169806278764455 11.248
46.194009483459034 11.1936
46.21821486849841 11.1432
46.24242243555223 11.1318
46.266821333570014 11.1335
46.29103328674601 11.1087
46.31524742696538 11.100999999999999
46.33946375590237 11.1045
46.36387149104216 11.0376
46.38809221957392 11.030999999999999
46.41231514186606 11.0075
46.436540259597464 11.0266
46.460956858999374 10.9792
46.48518638983522 10.9406
46.509418121166966 10.9487
46.533652054678114 10.9381
46.55807754555709 10.8862
46.58231590571962 10.890999999999998
46.60655647313217 10.8598
46.630988654873654 10.8578
46.655233659129024 10.8232
46.67948087571551 10.7968
46.70373030632484 10.8091
46.72817142736393 10.7469
46.752425308428684 10.7474
46.77668140861147 10.7176
46.80093972960865 10.6647
46.82538981736788 10.7269
46.849652602470904 10.6529
46.87391761349769 10.6634
46.8981848521493 10.6104
46.9226439341274 10.5986
46.946915650573224 10.5492
46.97118959976749 10.5276
46.99546578341598 10.5316
47.019933887188216 10.5074
47.04421456235744 10.494000000000002
47.06849747711879 10.4793
47.09278263318286 10.4412
47.11725978640143 10.4413
47.14154944775105 10.4028
47.165841355555656 10.4064
47.1901355115306 10.350999999999999
47.214621741924994 10.3789
47.23892041698887 10.3491
47.26322134538975 10.2976
47.28771440635075 10.3079
47.31201986422527 10.3532
47.33632758061436 10.2957
47.360637557241866 10.2211
47.38513974410611 10.2231
47.40945426407847 10.2185
47.43377104948137 10.1597
47.45809010204344 10.208
47.48260144275502 10.1702
47.506925052572285 10.1247
47.53125093475548 10.0919
47.55557909103813 10.1325
47.58009961361992 10.0839
47.60443234110732 10.0458
47.62876734791564 10.056000000000001
47.65310463578333 10.0101
47.6776343683373 9.98807
47.7019762413987 9.96802
47.72632040075572 9.93455
47.75066684815169 9.98042
47.77520581885936 9.93783
47.799556865477655 9.912989999999999
47.823910205386 9.8921
47.84826584033272 9.888739999999999
47.87281407745551 9.869710000000001
47.89717432569297 9.87975
47.92153687423484 9.81519
47.94609208429692 9.802430000000001
47.97045925671401 9.77581
47.99482873471275 9.79301
48.01920052005013 9.80214
48.04376504619224 9.755460000000001
48.068141469543484 9.73507
48.09252020552573 9.70447
48.11690125590099 9.70689
48.1414751266064 9.66665
48.16586082917454 9.66744
48.19024885144316 9.63556
48.2146391951793 9.64
48.239222439012764 9.617460000000001
48.26361744916137 9.5705
48.28801478610016 9.55464
48.31241445160131 9.57876
48.337007097209366 9.53562
48.36141144338331 9.54005
48.38581812345755 9.4778
48.41022713920929 9.500630000000001
48.434829215320704 9.50358
48.45924292604658 9.46338
48.48365897780325 9.471060000000001
48.50807737237308 9.435189999999999
48.532688907799276 9.392380000000001
48.55711201168574 9.354519999999999
48.581537463754074 9.35896
48.60615611725119 9.36488
48.63058628942721 9.33446
48.65501881516546 9.31007
48.6794536962573 9.289589999999999
48.70408185970339 9.26331
48.72852147531801 9.228539999999999
48.75296345168211 9.22592
48.77740779059232 9.1983
48.80204549302823 9.220930000000001
48.82649458091802 9.23068
48.85094603676547 9.1479
48.87539986237231 9.13354
48.90004713292306 9.15892
48.92450572200832 9.12238
48.94896668628025 9.110560000000001
48.97343002754588 9.10984
48.99808689542115 9.05333
49.02255501470614 9.041030000000001
49.04702551642794 9.03434
49.0714984023988 9.02016
49.096164896893235 8.991
49.120642575466796 8.98011
49.145122643748394 8.941310000000001
49.16960510355558 8.92409
49.19428125404938 8.92507
49.2187685210852 8.9127
49.243258185121555 8.92815
49.26794160167084 8.89534
49.2924360839405 8.86411
49.31693296869764 8.8631
49.34143225776915 8.861930000000001
49.36612538195438 8.85131
49.39062950396021 8.80436
49.41513603578346 8.80075
49.4396449792564 8.763119999999999
49.46434784069503 8.74507
49.488861631846454 8.75395
49.513377840166804 8.72889
49.537896467493745 8.68088
49.56260909589029 8.66894
49.587132585683285 8.66566
49.611658500018365 8.656130000000001
49.636186840738596 8.62655
49.66090926588511 8.618780000000001
49.685442483902584 8.573089999999999
49.70997813385706 8.577630000000001
49.734516217597076 8.53432
49.75924846937352 8.55203
49.7837914452858 8.48402
49.80833686055187 8.47783
49.83288471702571 8.49164
49.85762682540054 8.47289
49.882179588965734 8.46406
49.9067347993235 8.44191
49.93129245833333 8.43333
49.95604445336378 8.409939999999999
49.98060703442832 8.40824
50.005172069746266 8.3942
50.02993150438364 8.36317
50.05450147301533 8.37068
50.07907390151433 8.33503
50.10364879174981 8.31143
50.12841816587289 8.319360000000001
50.1529980044635 8.29553
50.17758031042124 8.28812
50.20216508562089 8.28275
50.22694442953363 8.21915
50.25153416817468 8.22565
50.27612638170508 8.20266
50.300721072005196 8.198139999999999
50.325510416102105 8.18299
50.350110084975064 8.150160000000001
50.37471223628208 8.13286
50.39931687190919 8.1334
50.424116246675766 8.11541
50.44872587605249 8.1162
50.47333799543065 8.08639
50.49795260670191 8.05187
50.52276204271512 8.04646
50.54738166295838 8.08641
50.57200378079314 8.05446
50.596628398116835 7.99424
50.62144792604559 7.96657
50.646077567609396 7.96705
50.670709714377715 7.9679199999999994
50.69553683636198 7.932460000000001
50.72017401885922 7.94215
50.7448137122895 7.9236699999999995
50.76945591856022 7.897819999999999
50.79429318636823 7.878260000000001
50.818940443716784 7.886369999999999
50.84359021965163 7.850510000000001
50.868242516085964 7.81465
50.893089960641895 7.81347
50.917747323549435 7.770010000000001
50.94240721271973 7.813389999999999
50.96706963007175 7.77416
50.99192728239342 7.770410000000001
51.01659478166073 7.74975
51.04126481489051 7.71237
51.06593738400761 7.72987
51.090805275207074 7.7126399999999995
51.11548294172845 7.6826
51.14016314993547 7.66672
51.164845901758845 7.65592
51.18972406304274 7.609839999999999
51.21441192780656 7.638380000000001
51.23910234200271 7.606210000000001
51.2637953075678 7.5956600000000005
51.288683770237945 7.61405
51.31338186432707 7.591139999999999
51.33808251561888 7.533689999999999
51.362978729967345 7.56745
51.387684521509755 7.53638
51.41239287610203 7.49068
51.437103795691165 7.4731
51.46201036644977 7.4518
51.486726441956634 7.43681
51.51144508832545 7.467910000000001
51.536166307509156 7.45167
51.56108326624387 7.442019999999999
51.58580965706056 7.428089999999999
51.61053862657523 7.39267
51.635270176746864 7.3719399999999995
51.66019755512065 7.37494
51.68493429268881 7.368289999999999
51.70967361681515 7.341639999999999
51.73441552946465 7.26766
51.759353359237934 7.310739999999999
51.7841004750961 7.26478
51.80885018539685 7.25197
51.833602492111254 7.24701
51.8585508051424 7.22922
51.883308330926425 7.21625
51.90806845906181 7.20448
51.932831191525715 7.18618
51.95779001977161 7.18487
51.98255798721516 7.14418
52.00732856494335 7.127489999999999
52.03229530577543 7.1174800000000005
52.057071130455945 7.0947
52.081849571391054 7.1109800000000005
52.106630630568695 7.0938300000000005
52.13160794279417 7.05139
52.15639426492067 7.04668
52.18118321127822 7.0421
52.205974783860896 7.0075899999999995
52.23096269971011 6.966360000000001
52.255759551287994 7.01501
52.280559035098186 6.970680000000001
52.30536115314103 6.94377
52.33035970494467 6.94188
52.35516711807904 6.937880000000001
52.37997717147198 6.9050899999999995
52.40478986713005 6.9026
52.42979908731974 6.8925600000000005
52.454617094216 6.86238
52.47943774942214 6.8052
52.50426105495102 6.86148
52.529280976059844 6.8609
52.554109609024096 6.8136
52.57894089837482 6.807169999999999
52.60377484613117 6.78443
52.62880550079408 6.799910000000001
52.65364479223379 6.7518199999999995
52.67848674816189 6.7476199999999995
52.70352547971946 6.75173
52.72837279155837 6.755330000000001
52.753222773982785 6.69458
52.778075429022984 6.6886399999999995
52.80312495150885 6.6924600000000005
52.827982978797436 6.68715
52.85284368481815 6.681189999999999
52.87770707160767 6.6237699999999995
52.90276741793998 6.6464300000000005
52.92763619336701 6.59788
52.952507655698504 6.55284
52.977381806977576 6.589239999999999
53.00245301017842 6.55335
53.02733256653592 6.53987
53.052214817996074 6.556260000000001
53.077099766608484 6.50289
53.102181859804446 6.51238
53.127072229988265 6.52621
53.15196530349892 6.4622
53.17686108239249 6.45621
53.20195409881522 6.46856
53.22685531582556 6.4606
53.25175924441303 6.44815
53.27666588664027 6.40875
53.30176985962693 6.39885
53.3266819565689 6.4181
53.35159677336455 6.36991
53.376514312083096 6.35571
53.40162927507703 6.35318
53.42655228516116 6.31749
53.45147802340193 6.33625
53.47660125628886 6.31918
53.50153247842639 6.27208
53.52646643496923 6.24492
53.55140312799818 6.26609
53.576537409691696 6.2903400000000005
53.60147960336152 6.22302
53.626424539786164 6.21333
53.65137222105307 6.21427
53.67651758529126 6.2032099999999994
53.70147078399681 6.14165
53.72642673383343 6.18179
53.75138543689533 6.17638
53.776541917524526 6.13783
53.801506154876755 6.1501
53.826473151763246 6.11198
53.851442910284916 6.08873
53.87661054126026 6.12073
53.9015858509782 6.11531
53.92656392866066 6.049869999999999
53.95154477641532 6.07241
53.976723591801296 6.07357
54.00171000771266 6.04732
54.02669920004598 6.06161
54.051691170915745 6.023540000000001
54.076881204886796 5.97967
54.101878760928514 5.99286
54.12687910187696 5.94559
54.152077577768296 5.97855
54.1770835166946 5.9314599999999995
54.20209224691339 5.94109
54.22710377055121 5.9265099999999995
54.25231352511594 5.89475
54.27733066384342 5.85325
54.30235060239643 5.82609
54.32737334290836 5.82605
54.35259441062629 5.79478
54.377622783395324 5.80042
54.40265396455061 5.852040000000001
54.42768795623251 5.77365
54.45292037169559 5.69834
54.477960012857906 5.74392
54.50300247099511 5.74936
54.52804774825457 5.7119
54.55329154616743 5.67084
54.57834249018678 5.64679
54.6033962597977 5.6339
54.6284528571545 5.6078
54.653708072335164 5.58089
54.67877035378786 5.5897
54.70383546947698 5.5576300000000005
54.72890342156389 5.50261
54.7541700889442 5.50433
54.77924374251975 5.46098
54.8043202390049 5.43916
54.82959552413022 5.40886
54.8546777351945 5.4507699999999994
54.87976279569621 5.43401
54.90485070780914 5.412730000000001
54.930137506558005 5.40479
54.95523115074295 5.39999
54.98032765308844 5.31175
55.005427015775496 5.3445599999999995
55.03072536339621 5.3349400000000005
55.05583047570572 5.31973
55.080938454927676 5.26348
55.10604930325027 5.2663199999999994
55.131359235107396 5.263809999999999
55.15647585066083 5.15057
55.181595341907496 5.18579
55.20671771104285 5.1462900000000005
55.232039262617704 5.10773
55.25716741665048 5.10088
55.28229845518636 5.11436
55.30743238042802 5.05208
55.33276558731939 5.059880000000001
55.357905315183636 5.0736
55.383047936390035 5.03143
55.40819345314859 4.94956
55.433538351073295 4.965409999999999
55.458689688238415 4.98154
55.483843927614096 4.94174
55.509197623043605 4.92049
55.53435769621134 4.91713
55.55952067826466 4.85445
55.5846865714265 4.84691
55.61005202069737 4.77189
55.63522376553902 4.82399
55.66039842818645 4.7524
55.68557601087004 4.74771
55.7109532500271 4.70554
55.73613670233794 4.775580000000001
