TT I
1.2716486653135266 7.11165
1.2939594142134223 7.1627
1.3162702121660406 5.69266
1.3385810600174564 6.3471400000000004
1.3608919586137629 6.75391
1.383202908801069 5.97117
1.405513911425503 5.32188
1.4278249673332093 6.50783
1.4501343378461518 6.17652
1.4724455028545926 5.98803
1.4947567236847858 6.37828
1.517068001182951 6.27641
1.5393793361953272 5.32716
1.5616907295681737 5.74665
1.5840021821477681 5.42604
1.60631369478041 4.7996099999999995
1.6286252683124185 4.70374
1.6509369035901333 4.81771
1.6732468618895553 4.58977
1.695558623192809 3.96498
1.7178704487808514 4.60224
1.7401823395001077 4.55124
1.7625012545597203 4.7876900000000004
1.7848028405262486 5.161969999999999
1.8071218901122095 5.04041
1.8294236121921872 4.2857400000000005
1.8517427996910911 4.67871
1.8740620574440425 4.737430000000001
1.8963639900671978 4.986759999999999
1.9186833908139995 5.00814
1.9409854680117449 5.20894
1.9633050151394713 4.9035
1.9856246367570705 4.52304
2.0079269371922672 4.7495
2.03024671027244 4.51009
2.0525491637446027 3.80545
2.074869091674931 4.69601
2.097171701569106 4.81909
2.1194917877373847 5.42959
2.141811954326636 5.38417
2.164114805233074 5.184
2.186435135143035 6.63565
2.208738150935709 15.5496
2.231058647554722 32.7608
2.2533792288321184 24.8581
2.275682498336085 11.0556
2.298003251406138 6.787610000000001
2.3203066942619714 5.592280000000001
2.3426276225136022 5.1931400000000005
2.3649486396617507 5.79981
2.387252348930071 6.65762
2.4095735463442893 6.492719999999999
2.4318774374315884 6.738860000000001
2.4541988185014043 6.92355
2.476502894794693 7.333939999999999
2.498824462909887 7.817010000000001
2.521146125856138 7.61982
2.5434504863470337 6.980119999999999
2.5657723414244717 8.20337
2.588076895590662 8.45572
2.610398946189713 8.2063
2.6327210958598384 8.54648
2.6550259469304716 8.414719999999999
2.6773482972090137 8.281989999999999
2.6996533504259 7.92018
2.7219759047039602 8.54545
2.744298562293959 8.47345
2.7666039251246595 8.68034
2.7889267918020164 8.94818
2.8112323652516555 8.93661
2.833555444408179 8.37815
2.8558786311183852 8.58378
2.8781845268938557 8.95314
2.9005079311721484 9.05056
2.9228140460410397 9.04156
2.9451376712799635 9.33447
2.967444008632326 9.930589999999999
2.9897678582247247 10.1085
3.0120918213106695 10.1078
3.0343984987899373 10.7546
3.0567226913198637 11.4741
3.079029599759726 12.3924
3.101354025127254 12.222000000000001
3.123678568232338 13.56
3.145985829517914 13.3442
3.16831061055229 13.9754
3.1906181112775593 14.3407
3.212943133635653 14.8554
3.2352682779763207 14.989
3.2575761442691227 15.8452
3.2799015350264273 15.9888
3.302209649240067 16.3616
3.3245352898092655 17.2177
3.3468436553365257 17.4801
3.369169549113219 17.905
3.3914955708171384 18.6538
3.413804319727358 19.0802
3.4361305997334863 18.7717
3.4584396084414553 19.8504
3.4807661501462652 20.5104
3.503092824025881 21.3515
3.5254022288463154 21.0919
3.5477291695206588 21.8379
3.5700388426251948 22.9623
3.5923660534916446 24.3526
3.6146934007816114 40.9565
3.637003482731501 99.5762
3.6593311053109985 112.04700000000001
3.681641464033634 62.8697
3.7039693653009733 32.1366
3.726297407241705 26.0242
3.7486081875460804 25.4003
3.7709365132734978 26.1185
3.793247578841633 26.471999999999998
3.8155761917550093 26.6781
3.8378875459837216 26.8524
3.8602164494827234 27.2061
3.882545499606844 28.2524
3.9048572932539183 29.1446
3.9271866390645718 29.358
3.9494987298666713 29.6125
3.971828374764527 30.2798
3.9941581705403255 30.8526
4.016470713506008 31.1645
4.038800813471445 31.8306
4.061113662089144 32.9855
4.0834440696459176 33.317
4.105774632334751 33.6334
4.128087945865126 34.5798
4.150418821249301 35.0533
4.172732448931298 36.4605
4.195063640413578 38.8412
4.2173775856475215 42.7093
4.239709096631102 77.9988
4.262040768704612 270.983
4.284355196706267 370.68800000000005
4.306687193387355 239.80700000000002
4.329001947444346 88.6081
4.35133427213731 49.013000000000005
4.373666762177566 44.2547
4.395982011761091 44.0145
4.418314834921175 45.8237
4.44063041906622 54.4688
4.4629635787515625 67.388
4.4852969080429785 67.3381
4.5076130004776225 54.2914
4.529946671403969 48.8742
4.552263106909177 49.155
4.574597122877047 50.3097
4.596931312711224 51.2405
4.619248269273446 52.1643
4.6415828092605835 53.6838
4.663900117405352 54.1596
4.686235010953232 55.8899
4.708552674085913 57.0803
4.730887924602802 58.5488
4.753223354952695 60.2421
4.775541557023902 61.2668
4.797877349456786 62.0964
4.820195915032126 64.2144
4.842532072957498 65.2316
4.864868414979744 67.7704
4.88718753227192 69.8743
4.909524244902505 71.4858
4.931843734218147 73.5042
4.954180820867835 75.8413
4.976518095879839 78.292
4.998838149695359 81.0395
5.021175803844231 84.02600000000001
5.043496238205739 86.9274
5.065834274903528 90.8054
5.088172504230693 94.9587
5.1104935158799565 101.071
5.132832132875765 122.751
5.155153533596801 167.39700000000002
5.1774925416746225 196.984
5.199814334878411 270.596
5.2221537374521505 719.164
5.244493338631803 2252.14
5.266815727034316 7255.71
5.289155727832427 13482.4
5.311478517248165 9126.8
5.333818921080011 2766.42
5.356159527788849 506.713
5.3784829252032536 172.282
5.400823940070432 137.628
5.423147747031976 123.22200000000001
5.445489173474152 115.206
5.467830807066149 109.89399999999999
5.490155234831516 106.259
5.512497285125229 103.225
5.534822130975162 101.669
5.557164601388673 99.5385
5.579489868738879 96.70100000000001
5.601832762690846 96.0448
5.6241758697774475 95.571
5.646501775867269 94.6886
5.668845311622074 93.1452
5.691171647754637 92.0286
5.713515615597765 90.515
5.735859800852677 89.9946
5.758186788542988 88.9753
5.780531411018185 89.1448
5.802858837297399 88.8072
5.825203900414495 87.9787
5.8475491852224 88.3146
5.869877275883075 89.0442
5.892223006467101 89.3554
5.914551544266608 90.1924
5.936897724049891 92.1339
5.959244129804903 95.3878
5.981573344815301 106.16
6.0039202049061 164.613
6.026249875609095 343.015
6.04859719346037 775.302
6.070927323278297 2011.45
6.093275102315365 4594.61
6.115623113320588 5443.03
6.137953938319995 3284.82
6.160302415650845 918.301
6.182633708324452 213.09599999999998
6.2049826554078376 108.66799999999999
6.227331838745022 89.5398
6.249663839443684 82.8867
6.27201349767565 80.7537
6.294345974611799 88.78399999999999
6.316696111167083 103.10799999999999
6.339046488263839 97.4713
6.361379686074702 80.1344
6.383730546639482 70.857
6.406064229255215 67.9367
6.428415576718203 67.2165
6.450749747566656 66.0021
6.47310158535871 65.0484
6.495453669698332 64.6804
6.517788579421056 63.9589
6.540141159237969 63.0516
6.562476565766648 62.4889
6.5848296444934045 61.6963
6.607182974060425 61.93
6.6295191323281015 62.1579
6.651872965955752 66.1829
6.6742096296068985 96.3077
6.6965639707294615 151.05200000000002
6.71891856698715 151.851
6.741255995248479 100.473
6.763611104154477 69.3364
6.785949046381137 60.3168
6.808304671371482 58.0044
6.8306605557940046 57.7821
6.852999275508618 56.9355
6.875355681171544 56.2869
6.897694923437771 56.0649
6.92005185377892 56.2672
6.9423916220322655 56.2572
6.964749080490181 55.0561
6.987106804399774 55.19
7.009447368180821 55.4035
7.031805625367033 54.7128
7.054146723727803 55.0055
7.076505517631004 55.0491
7.098864581288365 54.8864
7.121206488070854 54.4392
7.143566093607822 54.6635
7.165908543567245 54.5344
7.188268694426048 54.5987
7.2106291193438095 55.3214
7.232972390625943 56.648999999999994
7.255333366030969 72.0097
7.277677189091925 136.441
7.300038718428332 192.87
7.322400526130865 160.839
7.344745183422596 95.4503
7.367107550224791 63.0569
7.389452767901992 56.3932
7.411815697249891 54.8963
7.434161478756298 53.8351
7.456524974096713 53.876999999999995
7.478888753837185 53.9712
7.501235387657368 54.0808
7.523599738562711 54.0916
7.545946944825532 54.2385
7.568311870344528 54.6269
7.5906770845765665 54.5637
7.613025156078678 56.2326
7.635390950099687 58.0489
7.657739602662809 56.9834
7.680105979923558 55.6165
7.702472650212829 55.2941
7.724822180948224 55.0404
7.747189439655568 55.4533
7.769539560075357 55.2298
7.791907410653562 55.6671
7.81425812420825 55.8806
7.836626570110925 56.2543
7.858995315087906 56.6943
7.881346924933401 56.6575
7.903716270417482 57.1526
7.926068482028405 57.6763
7.948438431475253 58.3898
7.9708086843180235 59.086000000000006
7.993161805171116 59.5447
8.015532667162402 59.9603
8.037886398416653 60.9425
8.060257873014221 61.1031
8.082629655331942 61.6707
8.104984308787587 62.5143
8.127356708900503 66.4716
8.149711981398308 72.7369
8.172085002766314 75.4645
8.194458336181368 71.7093
8.216814543847752 68.6791
8.23918850371002 68.3586
8.26154533906492 68.6021
8.283919928836452 70.3825
8.306277395339652 71.399
8.328652618483376 72.1901
8.351028159736202 74.2566
8.373386579575245 75.9354
8.395762759396959 77.9509
8.418121819038275 83.2532
8.440498640894003 97.4542
8.462875785192262 112.336
8.485235811156207 118.12200000000001
8.507613602688501 139.40200000000002
8.529974277114228 204.924
8.552352719347912 319.16200000000003
8.574731488360351 554.904
8.59709314210385 1117.97
8.619472567021075 1925.81
8.64183487789147 2345.13
8.664214962183097 1879.23
8.686577933647762 933.5939999999999
8.708958680784317 348.62199999999996
8.731339760774953 159.29399999999998
8.753703729764451 108.251
8.77608547780821 96.5413
8.798450116065078 93.3515
8.820832535634787 90.1753
8.843215292401656 88.8289
8.865580941199045 87.8456
8.887964374703538 87.2038
8.910330701447199 88.0999
8.932714815164482 91.45299999999999
8.955099270424924 91.0033
8.977466620733543 87.1541
8.999851761421976 83.9117
9.022219798361645 82.1435
9.04460562795561 81.6556
9.066991803441677 81.3264
9.089360876979615 81.2628
9.111747746589993 81.0358
9.13411751544971 80.5798
9.156505082664324 80.2356
9.178875550323522 80.3861
9.20126381862328 80.8868
9.223652438908596 81.2536
9.246023961427412 81.0756
9.26841328802173 80.3812
9.290785518039224 80.40899999999999
9.313175554425882 80.9443
9.335565947154315 80.6598
9.357939245086508 80.671
9.380330352834827 81.0265
9.40270436697103 81.4648
9.425096193225055 81.4875
9.447488380180165 82.2376
9.469863475295412 82.2612
9.492256385987508 82.494
9.514632206018318 83.4176
9.537025843935714 83.9533
9.559402392368193 84.5706
9.581796761000229 85.4674
9.604191496441521 86.1902
9.626569144158516 90.3883
9.648964615551032 95.9141
9.671343000390081 97.21600000000001
9.693739211225699 94.7955
9.716135793237463 91.81299999999999
9.738515290448102 90.8208
9.760912617143402 91.7989
9.783292860202891 92.4313
9.805690935076182 94.2404
9.828089385495742 94.7462
9.850470754023561 97.5263
9.872869957865444 106.061
9.89525208097539 123.095
9.917652041736662 136.534
9.940052382417589 134.35399999999998
9.962435644102392 132.145
9.984836746950979 152.339
10.007220771957746 201.481
10.029622640473708 289.722
10.052007432299963 458.936
10.074410069984072 739.1469999999999
10.096813093716005 1258.27
10.119199042482517 1768.29
10.141602840636468 2051.63
10.163989564971628 1567.63
10.186394141051062 865.2739999999999
10.208799107559706 367.505
10.231187001965623 177.257
10.253592751657669 122.728
10.275981430388155 110.72200000000001
10.298387966769793 111.26700000000001
10.320794897965431 114.351
10.343184759907361 113.15100000000001
10.36559248305461 107.197
10.387983138083852 102.118
10.410391656691655 102.301
10.432800574501677 109.59
10.455192425893369 122.419
10.47760214443012 143.713
10.499994797678786 185.36599999999999
10.522405320453982 265.08299999999997
10.54479877906917 402.675
10.567210109595656 536.905
10.5896218454736 600.154
10.612016518879773 509.51
10.634429067781074 342.38300000000004
10.656824555333241 197.416
10.679237920773568 122.40799999999999
10.701651695961992 94.4002
10.724048411481384 87.6645
10.746463008485165 85.1451
10.768860546937125 83.1914
10.791275969274796 81.7709
10.81369180576079 80.6359
10.836090585366925 79.44800000000001
10.858507252467449 78.3131
10.88090686379991 77.673
10.903324365036394 76.8331
10.925724811614439 77.2653
10.948143150509463 78.4654
10.970561909719066 77.6276
10.992963615930844 76.1219
11.015383218085756 73.7507
11.037785768347074 72.0762
11.06020621697282 71.4179
11.082627090322113 70.8396
11.105030913430326 70.6697
11.12745263854165 71.5452
11.149857314510728 75.5733
11.172279894912576 82.5459
11.194702904450653 83.7159
11.217108866490921 78.881
11.239532736615194 74.008
11.26193956033512 71.7977
11.284364294577085 69.2167
11.306789462371718 67.257
11.329197585398376 66.0722
11.351623622610898 65.8716
11.37403261614354 65.0324
11.396459526308487 64.6878
11.418869393879497 64.1711
11.441297180532617 64.0333
11.463725406927658 63.7538
11.486136592353875 63.6097
11.508565700543707 64.5133
11.530977768845315 66.6721
11.553407762368774 67.6739
11.575838200059769 67.0924
11.598251599479612 64.491
11.620682927815501 62.9075
11.64309721895548 62.5994
11.665529441478206 62.045
11.687962112597958 61.677
11.710377748130886 61.684
11.732811318753434 61.8122
11.755227854859067 61.8799
11.777662328529495 61.541000000000004
11.800079768750786 61.3704
11.822515149015453 61.5851
11.844950984084935 61.4669
11.867369787303163 60.9925
11.889806534289491 61.3392
11.912226250487029 61.8296
11.934663912939751 61.6369
11.9571020346363 61.556000000000004
11.979523127133968 61.568999999999996
12.001962169624331 61.9899
12.024384183972964 62.3063
12.046824150809913 64.9271
12.069264581333726 68.8174
12.091687985297767 74.3529
12.11412934550045 82.6815
12.136553680195208 97.0753
12.158995973632788 118.37100000000001
12.181438735204349 150.06799999999998
12.20386447284199 183.22099999999998
12.226308172985636 204.517
12.24873485024193 197.192
12.271179492516982 161.308
12.293607112949127 122.62200000000001
12.316052700916226 94.7168
12.338498763250042 77.8566
12.360927805303868 69.7192
12.383374818673879 65.3129
12.405804812803074 63.2839
12.428252780773262 62.8685
12.45070122756722 62.9016
12.473132656675375 62.9016
12.49558206341869 62.9796
12.518014453510101 63.0676
12.540464823770117 63.3594
12.562915677315177 63.4016
12.58534951575545 64.2423
12.607801338171472 66.6483
12.630236146511358 72.7869
12.652688941369085 78.1221
12.675124723177234 78.5556
12.697578494048786 74.1342
12.720032754458185 68.947
12.742470003354093 66.7029
12.764925245138771 66.2474
12.787363476431278 66.5793
12.809819703166806 66.8221
12.83227642391173 67.7994
12.854716135692716 68.2476
12.877173846755147 69.2184
12.899614549869717 69.3486
12.9220732548287 70.391
12.94453245827299 70.5487
12.966974655289818 71.6126
12.989434858002571 72.1524
13.011878055298721 72.8117
13.034339260862497 73.6934
13.056800969391883 74.8796
13.079245674017244 76.6829
13.101708390774869 77.9614
13.12415410463411 83.0888
13.146617833206086 92.6393
13.169064559883248 102.844
13.191529303857127 115.351
13.213994557076367 135.767
13.236442809902437 170.176
13.258909083908291 227.02700000000002
13.28135835851934 297.481
13.30382565690295 377.749
13.326293469022952 436.921
13.348744283242008 431.12
13.371213125129904 352.04
13.39366497011003 251.55900000000003
13.416134845360597 168.338
13.438605238843131 119.913
13.46105863690397 101.08200000000001
13.483530069144786 99.0489
13.505984506951902 102.969
13.528456981549432 111.65100000000001
13.550929978879088 125.265
13.573385983253365 147.46
13.595860028340867 185.542
13.618317081455832 241.50599999999997
13.64079217790333 305.368
13.663250283359057 357.19300000000004
13.685726434770173 380.01300000000003
13.708203115221277 337.295
13.730662806148091 254.727
13.75314054697177 178.275
13.775601299246777 123.21600000000001
13.798080104050406 94.3976
13.820559442405358 83.6548
13.843021793671388 79.7472
13.865502201420897 78.3777
13.887965623051947 77.6444
13.910447103807167 76.5085
13.932929122629764 75.2252
13.955394156785959 74.877
13.977877254034569 74.1337
14.000343367582113 73.2934
14.022827546871707 72.7749
14.045294743423524 72.2545
14.06778000837062 71.2708
14.090265817715476 71.2016
14.112734645763819 71.2969
14.13522154619454 71.0539
14.157691466286913 71.1867
14.180179461423874 70.7203
14.202668005486178 70.0578
14.22513957064374 69.2834
14.247629214846473 68.8886
14.270101881097517 68.6676
14.29259262906496 69.2621
14.315083930490205 70.0274
14.337558255389705 70.4695
14.360050666019726 70.0769
14.382526101071944 68.9843
14.405019624534942 67.6294
14.427513705993134 67.3568
14.449990813291825 67.4216
14.47248601302899 67.1516
14.49496423954951 67.1643
14.517460561197822 67.3624
14.539939910570322 67.1157
14.562437357763558 67.747
14.58493536931253 68.9014
14.607416409993311 69.9147
14.62991555254159 70.4959
14.652397725157423 70.3967
14.674898002342799 69.3174
14.697398848433282 68.786
14.719882725991326 69.3654
14.74238471217934 69.7434
14.764869730765593 71.9977
14.787372860692983 74.278
14.809876564079925 78.3038
14.83236330125751 83.0
14.854868153850365 90.7441
14.877356041159485 103.609
14.899862046604186 121.848
14.922351087688757 148.966
14.944858249632887 182.02599999999998
14.967365991421232 213.15400000000002
14.989856770231246 230.24
15.012365673994204 218.463
15.03485761569738 187.285
15.05736768508665 147.58100000000002
15.07987833888692 112.19
15.102372032001655 88.2904
15.124883856909658 75.3207
15.14737872204565 70.5777
15.169891721717274 69.0259
15.192405310371893 68.8269
15.214901940621196 69.585
15.237416709527137 69.6375
15.259914520936249 70.0595
15.282430473753607 69.1231
15.304947020131227 67.9886
15.327446610371178 67.0768
15.349964346154254 65.9117
15.372465126703139 65.6298
15.394984055556009 65.2103
15.417486030076159 64.9033
15.44000615566487 64.5311
15.462526881230803 64.8201
15.485030653812652 64.8241
15.507552581617434 65.0951
15.530057557334603 65.0453
15.55258069104857 64.9465
15.575104429329837 64.7028
15.597611216864632 64.1668
15.620136166564563 64.3222
15.6426441664095 64.8257
15.665170331202765 66.0238
15.687697105158826 68.4316
15.710206930593545 71.5389
15.732734925158933 75.2852
15.755245972089478 80.5624
15.77777519094324 89.0308
15.800287463046663 101.945
15.822817909869592 121.03
15.84534897229804 145.782
15.867863089299354 172.35
15.890395385222186 191.887
15.912910736597423 196.892
15.935444269699861 181.36
15.957978423016485 152.73
15.980495633101265 120.368
16.003031029129367 93.9147
16.02554948280019 75.9139
16.048086125229432 66.9165
16.070623392487107 64.5419
16.09314371869582 63.608999999999995
16.11568223789321 62.5262
16.13820381691126 61.6426
16.160743591742527 60.6401
16.183283996022084 59.5413
16.205807461423195 58.2062
16.228349126881973 57.9099
16.25087385432698 57.6863
16.27341678466365 57.1339
16.29594277784926 57.1484
16.31848697676433 57.777
16.341031811604868 58.0038
16.36355971058487 58.4677
16.3861058195587 58.0742
16.40863499352978 56.7582
16.431182380342005 55.7856
16.453730407713202 55.2035
16.476261501364792 54.8588
16.498810812136167 54.4264
16.52134319004079 54.4685
16.54389378792203 54.0646
16.566445031001553 54.2398
16.588979342490088 53.9323
16.61153187824822 53.8605
16.634067483263312 53.56100000000001
16.656621315414416 53.6096
16.679175797408888 53.4788
16.701713349928728 53.5432
16.72426913389191 53.5145
16.74680798922351 53.898999999999994
16.76936507887444 53.9641
16.791905240734874 53.876999999999995
16.814463639794468 53.6271
16.837022695210294 53.781000000000006
16.859564824093756 53.9838
16.882125194503903 54.8667
16.904668639217885 55.8935
16.927230328348003 55.8912
16.949792678493612 55.815
16.972338104193863 55.1822
16.994901778652235 54.6692
17.017448529496576 54.2552
17.040013531998152 54.4806
17.06257920018044 54.7203
17.0851279459922 55.3917
17.107694947817667 56.1781
17.130245028099072 56.6727
17.15281336730298 57.9837
17.17536478578733 59.6567
17.19793446610687 61.8114
17.220504818648422 64.6833
17.243058251703697 68.2821
17.265629950971032 73.0014
17.288184731571736 77.9711
17.310757781306908 82.287
17.33333150794385 82.7782
17.355888317140174 80.12
17.37846339986244 74.6395
17.401021565958885 68.6746
17.42359800851343 63.6697
17.44617513265564 60.4089
17.468735341390783 58.5386
17.491261035594565 57.7436
17.51396340099364 57.731
17.536490463869136 57.8089
17.559018209820174 57.7045
17.58154663977963 57.9496
17.604251766089718 58.0088
17.626781572227713 58.3299
17.64931206518155 58.6652
17.671843245885103 58.9939
17.69455114821572 59.2215
17.717083712612634 59.6669
17.739616967569667 59.6347
17.762150914021706 59.7973
17.78486160749854 59.5956
17.807396945166804 60.1737
17.829932977143503 60.9421
17.85246970436452 61.8692
17.875183204129467 63.5311
17.897721330097664 65.212
17.920260154126645 67.226
17.942799677153296 70.2182
17.9655159983646 73.5736
17.988056927677544 78.7182
18.010598558807683 86.1008
18.033140892692916 96.4544
18.05586005052525 109.03200000000001
18.07840379824407 120.91799999999999
18.10094825154059 131.537
18.12366954819864 138.22299999999998
18.146215420998306 136.055
18.16876200220057 126.147
18.191309292745153 112.258
18.214033452627167 99.3773
18.236582170236648 88.0924
18.259131600016456 83.2535
18.281681742907335 83.6569
18.304408781233683 88.5103
18.32696035875955 94.5368
18.349512652227624 100.075
18.372065662579683 105.12299999999999
18.394795594587553 106.541
18.41735004715306 101.9
18.43990521943684 94.1343
18.46246111238171 84.4497
18.485193953325208 75.3714
18.507751296070428 68.3848
18.530309362314178 64.5485
18.552868153000343 62.1334
18.57560391815056 60.9236
18.59816416623245 60.268
18.620725141597372 59.8243
18.643286845190268 59.477
18.666025549835414 59.0533
18.688588718427933 58.5088
18.711152618092243 58.458999999999996
18.73389353884365 58.0724
18.75645890921984 57.6803
18.77902501351406 57.3705
18.801591852673102 57.3967
18.824335739722738 56.9482
18.846904057212626 56.9281
18.8694731124168 56.5742
18.89204290628315 56.5143
18.914789774966803 56.3983
18.937361054791623 56.0954
18.959933076131318 55.7744
18.982505839934877 55.8098
19.00525570560582 55.9443
19.027829963004184 55.9362
19.05040496572238 55.956
19.072980714710468 55.3962
19.095733592739563 55.6469
19.11831084296757 55.8705
19.140888842324735 56.4154
19.16346759176222 56.7152
19.18622349753803 56.9587
19.208803755869358 57.8279
19.231384767143577 58.9789
19.253966532312948 60.3903
19.276725481241822 62.4025
19.29930876296784 65.1165
19.3218928014549 68.36399999999999
19.34465404436217 71.8231
19.36723960516257 74.9332
19.389825925592426 75.273
19.412413006605938 74.4231
19.43517731967805 70.4474
19.457765930683355 65.9321
19.48035530514408 61.373999999999995
19.50294544401556 57.9903
19.525712842708348 55.3131
19.54830451925909 53.9114
19.570896963095727 52.9949
19.593490175174704 52.6609
19.616260674962184 52.8838
19.638855432416964 52.628
19.661450960992624 52.6347
19.68404726164677 52.5028
19.706820878021247 52.0825
19.729418731756834 52.478
19.752017360452857 52.2441
19.77461676506804 52.2258
19.797393513540218 52.2567
19.819994478951667 52.4525
19.84259622316767 52.9988
19.8651987471481 53.3533
19.887978643247177 53.5337
19.91058273574792 53.9408
19.933187610901943 54.5071
19.955969879466828 55.6733
19.97857632894404 57.0663
20.00118356396599 58.9174
20.023791585494575 61.0858
20.046577028914875 64.1544
20.069186632506966 66.3596
20.091797025500632 68.47800000000001
20.114408208858933 68.9778
20.137196842715273 68.3013
20.159809615886765 66.3947
20.18242318232135 63.763000000000005
20.20503754298326 61.8385
20.227829382875154 60.6797
20.250445341109344 60.891999999999996
20.27306209647285 61.8541
20.29567964993108 62.9718
20.31847471147704 64.1743
20.34109387027612 64.972
20.363713830075454 64.3877
20.386334591841646 62.7188
20.409132890679302 60.1716
20.431755265564437 57.1136
20.454378445325528 54.2274
20.477002430930366 52.5636
20.499803982716553 51.5012
20.522429589228004 50.5879
20.54505600449589 50.1608
20.567683229489194 49.9444
20.590488049900088 49.6491
20.61311690359731 49.3445
20.63574656993626 49.0749
20.658553853717297 48.5117
20.681185154618298 48.4813
20.703817271080066 48.4538
20.72645020407368 48.1106
20.749260783967177 48.0847
20.771895359337133 48.0237
20.794530754161617 47.9763
20.817166969412938 47.8684
20.83998086114876 47.8876
20.86261872660049 47.6842
20.885257415405402 47.7749
20.90789692853701 47.6219
20.930714147864748 47.665
20.953355319030678 47.5025
20.97599731745334 47.6895
20.99864014410749 47.3779
21.021460706796564 47.5025
21.044105199328826 47.7083
21.06675052302631 47.9095
21.089396678865015 48.1283
21.112220600704806 48.519
21.134868430275347 48.7126
21.15751709492456 48.9964
21.180166595629693 49.4888
21.202993892429635 49.9339
21.22564507473034 50.338
21.24829709602816 50.3291
21.27112693608965 50.4884
21.293780644891275 50.3099
21.316435195634053 49.6268
21.339090589297417 48.876999999999995
21.361923832041875 48.5559
21.384580921090404 47.8956
21.407238856007325 47.4126
21.429897637773326 47.3922
21.45273429906592 47.3372
21.475394784108598 47.3016
21.498056118951983 47.2379
21.520718304578022 47.2835
21.543558400304388 47.476000000000006
21.566222297108816 47.6491
21.58888704765135 47.6948
21.61155265291521 47.8823
21.63439619898156 48.4249
21.657063523335786 48.4906
21.67973170537063 48.8838
21.7024007460706 49.4328
21.72524775840385 50.0263
21.747918526116475 51.071999999999996
21.770590155457388 52.4425
21.79326264741238 53.8088
21.816113141960237 55.823
21.838787368860547 57.748000000000005
21.861462461341976 59.7197
21.884315579735777 61.8822
21.90699241312273 63.0588
21.92967011506078 63.4719
21.95234868653799 62.9115
21.9752053151131 61.5277
21.997885635446785 59.6251
22.020566828293532 58.0222
22.04324889464272 56.4715
22.066109049404666 55.4475
22.088792872571794 55.1728
22.111477572219204 55.1804
22.1341631493376 55.1278
22.157026846313123 54.9477
22.179714188221507 54.3303
22.202402410582668 52.9302
22.22509151438863 51.5512
22.24795876962584 50.4114
22.270649646204486 49.4319
22.293341407213727 48.82
22.316034053646906 48.3569
22.338904883215342 48.1389
22.36159931041458 48.0999
22.38429462602756 48.0738
22.40699083104897 47.9825
22.429865251039757 48.0407
22.452563244831367 48.0007
22.47526213102522 47.9756
22.49813925616515 47.6021
22.520839937143307 47.5195
22.543541513520587 47.5748
22.56624398629403 47.3476
22.589124730075895 47.43600000000001
22.611829005656723 47.5127
22.63453418063466 47.4539
22.657240256008077 47.6821
22.680124634582935 47.7501
22.70283252079775 47.9412
22.725541310413075 48.3613
22.74825100442868 48.3923
22.771139033969575 48.8731
22.79385054687155 49.0324
22.81656296718292 49.6507
22.83927629590484 50.5323
22.862167992606945 51.4988
22.88488314827121 52.8299
22.907599215359284 53.9237
22.93031619487366 55.4227
22.953211574954405 56.5244
22.975930389478226 56.8263
22.998650119445763 56.9863
23.02137076586092 56.218999999999994
23.044269845560063 54.8531
23.06699233506288 53.3075
23.089715744034912 51.5178
23.112617610931565 49.9272
23.135342869061212 48.823
23.158069049684816 48.2296
23.1807961538087 47.8243
23.20370174880544 47.7543
23.226430710184808 47.6001
23.249160598093425 47.8229
23.271891413539002 47.817
23.294800752937697 47.5937
23.31753343374794 47.6844
23.340267045128353 47.8501
23.36300158808808 48.1972
23.38591468821339 48.3468
23.408651104658304 48.7991
23.431388455719986 49.2448
23.454126742409 50.2284
23.4770436196085 51.4391
23.499783787914662 52.733000000000004
23.522524894889884 53.981
23.54526694154616 55.262
23.56818761219047 56.4169
23.59093154860734 56.9847
23.613676427751283 57.0247
23.636422250635754 56.2011
23.659346731118656 54.3988
23.68209445191868 52.6178
23.704843119509587 50.4942
23.72759273490623 48.6552
23.750521041644767 47.2724
23.77327256312355 46.1613
23.796025035462787 45.726000000000006
23.818956224555475 45.2627
23.841710609113413 45.0347
23.86446594758979 44.8457
23.887222241002014 44.6451
23.910157285144578 44.3246
23.932915498962537 44.2661
23.955674670778713 44.0749
23.978434801611975 43.958999999999996
24.001373717286125 43.883
24.024135776723917 43.6572
24.046898798245582 43.6663
24.06966278287146 43.6647
24.092605586582614 43.3526
24.115371508023642 43.338
24.1381383956401 43.2698
24.16090625045381 43.0313
24.183852958731244 43.1147
24.206622758582608 42.9831
24.229393528706886 42.7571
24.252165270127392 42.7638
24.27511589952438 42.8641
24.297889594216997 42.5186
24.32066426328598 42.4422
24.34343990775613 42.5924
24.36639447485003 42.4489
24.38917208083877 42.4016
24.41195066531332 42.2193
24.43490819850244 42.285
24.457688750692377 42.0473
24.48047028445616 42.0143
24.503252800821233 42.1021
24.526214300784112 42.2586
24.548998793132213 42.2253
24.57178427117417 42.1163
24.59457073593893 42.17
24.617536219319863 42.0833
24.64032466834748 42.1858
24.663114107195035 42.0699
24.685904536893013 41.7209
24.708874020360852 41.684
24.731666442613744 41.6773
24.754459858818787 41.5923
24.777254270007962 41.5185
24.80022777025625 41.4038
24.82302418230472 41.3523
24.845821592443674 41.3416
24.86862000170663 41.3564
24.891597535453727 41.0935
24.914397953892728 41.5093
24.93719937456671 41.2934
24.96000179851076 41.4348
24.98298338249997 41.5503
25.00578782394922 41.818000000000005
25.028593271784167 41.9481
25.05157790644186 42.2252
25.07438537804115 42.4026
25.097193859145293 42.6848
25.120003350792075 42.7295
25.142992065061257 43.1981
25.165803588823465 43.506
25.18861612625217 43.6718
25.211429678386736 43.7334
25.234422489079968 43.9273
25.257238081693636 43.8917
25.280054692141732 44.0219
25.3028723214652 44.0744
25.325869245420463 44.1724
25.348688923599397 44.297
25.371509623787006 44.0942
25.394331347025812 43.7232
25.41733240110666 43.3259
25.440156181590016 42.5965
25.46298098826268 42.0261
25.48580682216873 41.513000000000005
25.50881202326435 41.0892
25.53163992281684 40.6511
25.55446885274561 40.3099
25.577298814096377 39.9869
25.600308179121807 39.9784
25.623140214533745 40.0861
25.64597328451537 39.8245
25.66898578564376 39.7109
25.691820936010206 39.7119
25.714657124097695 39.685
25.737494350954734 39.633
25.760511045684957 39.6535
25.783350361364224 39.7651
25.806190718969255 39.6866
25.82903211955018 39.7994
25.852053024868923 39.773
25.874896522722523 39.7538
25.897741066713106 39.6565
25.920586657892454 39.7767
25.943611790812668 40.1447
25.966459487728237 40.1581
25.989308234998564 40.1248
26.01215803367705 40.4647
26.03518741123814 40.6219
26.05803932412957 40.7908
26.080892291600094 40.9942
26.10374631470478 40.9446
26.12677995397268 40.9695
26.14963609978026 40.99100000000001
26.172493304397875 40.5983
26.19535156888223 40.2933
26.218389486949604 39.9587
26.241249882640123 39.7218
26.26411134137826 39.4429
26.28715248187403 39.3906
26.31001607820869 39.1462
26.3328807407756 39.0879
26.35574647063438 39.2141
26.37879191991473 39.187
26.401659795896734 39.2544
26.424528742360263 39.3492
26.447398760366614 39.5282
26.470448535598294 39.6585
26.49332070826805 39.8496
26.516193955675355 40.2263
26.53906827888316 40.3719
26.562122397260108 40.5166
26.584998883685063 40.8455
26.607876449110325 41.1856
26.63075509460056 41.351000000000006
26.65381357334404 41.3929
26.67669439061878 41.3767
26.699576291163382 41.2266
26.722459276044212 41.1742
26.745522132402975 40.8121
26.768407297649354 40.6351
26.791293550442003 40.1927
26.814180891848974 40.1169
26.837248143099337 39.6727
26.860137673466657 39.6179
26.88302829566349 39.4353
26.90592001075963 39.2841
26.92899167420566 39.1732
26.951885586870763 38.7641
26.974780595655517 38.6079
26.99785558178161 38.4406
27.020752794605112 38.2305
27.043651106772522 38.0647
27.06655051935668 38.0514
27.089629948036183 37.9053
27.112531573292053 37.8971
27.135434302194138 37.8835
27.158338135817015 37.7771
27.181422024430987 37.8377
27.204328079372566 37.7048
27.22723524226965 37.6435
27.250143514198573 37.7707
27.273231880156334 37.7071
27.296142382065014 37.6713
27.319053996245536 37.6139
27.341966723775965 37.6459
27.365059584515222 37.6241
27.38797455070062 37.7575
27.410890633481237 37.6321
27.433807833936918 37.7251
27.456905206923906 37.6642
27.47982465472398 37.7442
27.502745223449743 37.8202
27.525666914182825 37.9651
27.548768816912457 37.7872
27.571692763693633 37.7465
27.59461783573812 37.55
27.617723149491244 37.4015
27.640650484125285 37.3898
27.66357894728264 37.2448
27.686508540048052 37.2787
27.709618414237887 37.3074
27.732550278321757 37.1093
27.755483275279115 36.9529
27.778417406196485 37.0175
27.801531858397514 36.9631
27.824468269376716 36.8531
27.847405817586786 36.9359
27.870344504116094 37.0677
27.893463551932008 37.1982
27.916404527281053 37.4619
27.93934664422563 37.6158
27.962289903855886 37.6863
27.98541356491974 37.9511
28.00835912214229 37.9889
28.03130582533231 38.214
28.054253675581805 38.4827
28.077381967556104 38.238
28.100332124185126 38.245
28.123283431160893 38.0818
28.146235889577238 38.0325
28.169368830154156 37.9142
28.192323603752033 37.7249
28.215279532083304 37.4843
28.238415973016764 37.3417
28.261374223145094 37.0211
28.284333631303806 36.7607
28.307294198589954 36.7659
28.330435319167677 36.4442
28.353398217078915 36.1385
28.376362277420153 36.0337
28.39932750129032 35.887
28.422473319286713 35.5922
28.44544088262495 35.6144
28.468409612800283 35.5051
28.491379510913497 35.4198
28.51453004413313 35.2289
28.53750229057244 35.1779
28.56047570826344 35.1664
28.583450298308804 35.2167
28.606605564586562 34.9996
28.629582511831156 35.0962
28.65256063474956 34.9748
28.675539934446338 34.7686
28.698699951647605 34.9421
28.72168161743193 34.834
28.74466446331978 34.7274
28.767648490417624 34.6834
28.790813276438353 34.7609
28.813799678527303 34.7688
28.836787265157085 34.8121
28.859955641890075 34.7924
28.882945610203045 34.7387
28.905936766392035 34.7195
28.928929111566863 34.7385
28.952102288520145 34.6151
28.975097024308607 34.4021
28.998092952423807 34.3368
29.021090073977508 34.236
29.04426806913204 34.1854
29.067267590245258 33.9611
29.090268308143695 33.8523
29.11327022394099 33.8694
29.13645305530891 33.8487
29.159457379627167 33.7936
29.18246290519685 33.6538
29.20546963313352 33.5976
29.22865731875826 33.7154
29.25166646419296 33.6292
29.27467681535305 33.5266
29.29768837335608 33.5888
29.320880931312562 33.5519
29.34389491580634 33.6128
29.366910110507334 33.5563
29.38992651653503 33.6285
29.41312396492981 33.5451
29.436142806456754 33.4279
29.45916286268059 33.4328
29.48236399319994 33.2905
29.50538649169417 33.1741
29.528410208259935 33.2055
29.55143514402014 32.8471
29.574641196749695 32.7493
29.597668583816574 32.6213
29.6206971934585 32.4934
29.64372702680042 32.6127
29.666938019934474 32.45
29.689970313635285 32.4027
29.713003834422636 32.3375
29.73603858342347 32.3576
29.759254535188578 32.2054
29.78229175361658 32.1523
29.80533020365064 32.3444
29.82836988641968 32.2328
29.85159081507472 32.1173
29.874632976355343 32.0748
29.89767637376955 32.1159
29.920721008448314 31.9876
29.9439469322847 31.9173
29.96699405457564 31.912
29.9900424175358 31.8569
30.013092022298157 31.8535
30.03632295963995 31.9092
30.059375061131373 31.8354
30.08242840783577 31.822
30.105483000888153 31.9207
30.128718970092244 31.7109
30.151776069006917 31.7918
30.17483441768648 31.7953
30.198074175317235 31.7714
30.221135036724256 31.7746
30.24419715131772 31.7571
30.267260520236203 31.6919
30.290505341942243 31.7138
30.313571232750228 31.654
30.336638381310948 31.7307
30.35970678876503 31.5276
30.38295669299435 31.4796
30.40602763151657 31.5318
30.429099832366074 31.5944
30.452173296685572 31.4962
30.47542830191959 31.4236
30.498504306502497 31.2857
30.521581577995562 31.4168
30.544660117543582 31.4335
30.56792024229725 31.4799
30.59100133132069 31.4885
30.614083691845494 31.5499
30.637167325018545 31.5987
30.660432587840603 31.5629
30.683518779717886 31.5952
30.70660624769615 31.6127
30.729694992924372 31.6099
30.75296541239743 31.6173
30.77605672557558 31.5565
30.799149319462742 31.4682
30.8224236211637 31.4382
30.845518789950724 31.3149
30.868615242910597 31.1164
30.891712981195973 31.0695
30.91499247215866 30.9914
30.938092794619365 30.9292
30.96119440587579 30.9104
30.984297307082752 30.8239
31.00758200598383 30.6564
31.030687500658694 30.5296
31.053794288760695 30.5608
31.076902371446767 30.4345
31.100192296997445 30.5606
31.12330298246119 30.4327
31.14641496599209 30.1473
31.169528248749216 30.2813
31.19282341969534 30.3298
31.215939314557186 30.171
31.239056512134788 30.3451
31.262175013589378 30.2957
31.28547544871168 30.2346
31.30859657161541 30.1818
31.331719001892175 30.0889
31.35484274070538 30.2586
31.378148458819545 30.3784
31.401274828443725 30.3447
31.424402510106933 30.2856
31.447712205419993 30.291
31.470842524931633 30.247
31.493974159989783 30.2975
31.51710711176168 30.2635
31.54042212308802 30.276999999999997
31.563557722100917 30.1697
31.586694641341655 29.9848
31.609832881979628 29.901
31.63315322823208 29.824
31.656294125521327 29.6866
31.679436347728515 29.7578
31.70257989602529 29.6231
31.725905596152327 29.5993
31.74905181052835 29.5036
31.772199354521323 29.5417
31.79534822930507 29.3927
31.818679302290967 29.5449
31.84183085259981 29.5969
31.864983737233473 29.5754
31.88813795736804 29.5842
31.911474422233013 29.4499
31.934631327356435 29.5884
31.9577895715215 29.4905
31.980949155906522 29.3824
32.004291031706956 29.4273
32.027453310562606 29.274
32.05061693318573 29.3198
32.07396288236386 29.1463
32.09712920658542 29.1015
32.12029687812702 29.038
32.14346589817093 28.98
32.166817291729984 28.9943
32.18998902288583 28.8234
32.21316210610336 28.8135
32.23633654256711 28.709
32.259693399663725 28.7032
32.282870556771144 28.655
32.30604907069099 28.6706
32.329228942610065 28.5243
32.35259128243769 28.4281
32.375773884550505 28.3586
32.398957848235646 28.2999
32.422143174682176 28.3282
32.445511016471215 28.2233
32.468699082679954 28.1641
32.49188851523011 28.175
32.51507931531304 28.1499
32.538452678331 28.1323
32.56164622776311 27.9881
32.58484114831493 27.9311
32.60803744118015 27.9548
32.631416344731896 27.9241
32.654615396551876 27.9069
32.67781582427913 27.8753
32.701198898634416 27.7439
32.72440209253756 27.6697
32.747606665947124 27.7932
32.77081262006088 27.6786
32.79420126883317 27.6364
32.81740999876112 27.6187
32.840620112999424 27.5434
32.86383161274818 27.4065
32.88722585534586 27.5286
32.91044014056596 27.5145
32.933655814909734 27.5193
32.95687287957963 27.4631
32.98027273544904 27.3642
33.00349259526636 27.3652
33.026713849030116 27.403000000000002
33.04993649794511 27.3207
33.073341986570746 27.326999999999998
33.09656744032826 27.2495
33.11979429286444 27.2707
33.14302254538647 27.3093
33.166433686291185 27.1446
33.18966475336992 27.1728
33.212897224069096 27.1318
33.23613109959831 27.0123
33.259547912343415 27.0559
33.2827846121627 27.0381
33.306022720453775 26.9831
33.32926223842861 26.739
33.352684742614166 26.8754
33.37592709463173 26.8189
33.399170859982064 26.7839
33.422597648419426 26.6422
33.44584425514446 26.5876
33.46909227885668 26.6274
33.4923417207723 26.3747
33.51577423505344 26.4674
33.539026528130385 26.4185
33.56228024307245 26.3729
33.585535381098246 26.2813
33.60897364093058 26.2736
33.63223163992385 26.21
33.6554910656699 26.1649
33.678751919389796 26.2088
33.702195944520106 26.0844
33.72545966903325 26.0753
33.74872482519663 25.9484
33.771991414233746 25.9131
33.79544122444841 25.9891
33.81871069412428 25.9258
33.84198160035767 25.9485
33.86525394437455 25.8734
33.88870955949969 25.8157
33.911984794020626 25.8558
33.93526147001624 25.7928
33.958539588715006 25.7018
33.98200102861669 25.618000000000002
34.0052820477047 25.5025
34.02856451319451 25.4945
34.05203033759056 25.4072
34.07531571090147 25.4144
34.09860253431845 25.4395
34.121890809074316 25.4314
34.145362493118924 25.4468
34.16865368561615 25.3213
34.191946333164054 25.2907
34.21524043699793 25.2412
34.23871800066799 25.1738
34.26201503218366 25.22
34.28531352370466 25.1532
34.30861347646881 24.9486
34.33209693978188 25.0387
34.3553998301885 25.064
34.378704185565205 24.9201
34.402010007152356 24.8857
34.42549939016683 24.849
34.44880815937748 24.7828
34.472118398533134 24.8008
34.49543010887669 24.7618
34.51892543169198 24.646
34.54224009966052 24.6479
34.56555624255917 24.6654
34.58887386163339 24.5516
34.61237514439016 24.4511
34.6356957311114 24.4716
34.65901779775809 24.4803
34.68252356662995 24.5106
34.705848608458616 24.4533
34.72917513396849 24.3195
34.75250314440949 24.3448
34.77601490857862 24.303
34.799345904259795 24.1532
34.82267838863559 24.2434
34.846012362958525 24.2002
34.869530142679984 24.1693
34.89286711232212 24.1564
34.91620557568269 24.0286
34.93954553401677 24.0569
34.9630693495876 23.9699
34.986412313340814 24.004
35.00975677584668 24.031999999999996
35.033102738362956 23.9622
35.05663261012228 23.9309
35.0799815881786 23.9097
35.10333207003229 23.8739
35.12668405694369 23.8499
35.150220005273056 23.7247
35.17357501786656 23.7742
35.19693153931268 23.7675
35.220289570874385 23.7218
35.24383161619786 23.6855
35.267192683604904 23.7014
35.290555264930376 23.5704
35.314101899412165 23.5904
35.33746752422433 23.5854
35.36083466676374 23.5881
35.38420332829803 23.5656
35.407756095629054 23.5959
35.43112781085063 23.5611
35.45450104888391 23.5257
35.477875810999194 23.4543
35.50143473172161 23.3895
35.52481255774625 23.4848
35.54819191167777 23.4129
35.57157279478914 23.2922
35.595137889488406 23.2394
35.61852184675279 23.2639
35.641907337029984 23.2325
35.665294361595684 23.1667
35.68886565090076 23.0423
35.7122557598848 23.0694
35.73564740699838 23.1094
35.759040593519934 23.0998
35.78261809810353 23.0231
35.80601437933051 22.8823
35.829412203814705 22.8751
35.85281157283719 22.7657
35.876395313415884 22.8242
35.8997977874528 22.7723
35.92320180988546 22.7141
35.946790244133936 22.6067
35.97019737933222 22.7442
35.993606066789866 22.6684
36.01701630779276 22.6237
36.04061101440684 22.5767
36.06402437852291 22.5909
36.08743930005611 22.6133
36.1108557802951 22.5579
36.13445678011326 22.4816
36.15787639383515 22.403000000000002
36.18129757014299 22.4408
36.20472031032821 22.285999999999998
36.22832762423364 22.2613
36.25175350829375 22.3374
36.275180960119776 22.2333
36.298609981005924 22.2691
36.32222362992669 22.343000000000004
36.34565580510207 22.1744
36.36908955323448 22.1141
36.39252487562093 22.0548
36.416144880530226 22.0091
36.43958336764275 21.9681
36.463023432914625 22.0676
36.486465077645676 21.9613
36.51009145956204 22.0135
36.53353627947859 22.0053
36.55698268276811 21.9632
36.58043067073321 21.8626
36.60406345072071 21.8053
36.62751462435344 21.7295
36.65096738658405 21.7287
36.67460498210655 21.6556
36.69806093788647 21.6802
36.72151848619297 21.5576
36.744977628333636 21.613000000000003
36.76862165890998 21.5558
36.79208400512205 21.6061
36.81554794910557 21.4846
36.83901349217101 21.3842
36.862663978991606 21.4179
36.88613273667352 21.3628
36.90960309738324 21.3907
36.933075062434064 21.2037
36.95673202673572 21.2733
36.98020721697122 21.2901
37.003684015502365 21.1827
37.027162423645365 21.1234
37.050825886711465 21.2037
37.07430753063053 21.1001
37.09779078812467 21.1023
37.121275660513014 20.9828
37.144945643673694 21.0514
37.16843376245278 21.0328
37.19192350009803 20.9661
37.215414857931435 20.991
37.239091382563885 20.9352
37.262585997426164 20.8458
37.28608223645736 20.8199
37.309763684451696 20.7551
37.33326318851098 20.7395
37.356764320726555 20.7165
37.380267082425526 20.7038
37.40395510942588 20.6986
37.42746114683234 20.6853
37.45096881771841 20.6129
37.474478123414166 20.6235
37.49817275092816 20.5265
37.52168534303452 20.5054
37.54519957395567 20.477999999999998
37.568715445024665 20.4465
37.592416694607714 20.4422
37.61593586281424 20.4394
37.63945667518264 20.4788
37.66297913304891 20.3315
37.68668702630454 20.2538
37.710212792059274 20.2216
37.733740207334854 20.2641
37.757269273470364 20.2415
37.780983832050374 20.134
37.80451621684926 20.1141
37.82805025654007 20.1264
37.851585952464795 20.0072
37.8753071980695 20.0478
37.89884622345676 19.9216
37.92238690911902 19.8956
37.94611318753442 19.8672
37.969657210779765 19.9376
37.99320289834801 19.8985
38.016750251586465 19.8708
38.04048325513017 19.7629
38.06403395679343 19.7402
38.087586328183946 19.7886
38.11114037065203 19.7593
38.13488012115898 19.8249
38.1584375229181 19.6371
38.181996599821 19.6298
38.205557353221124 19.6561
38.229303872575656 19.5818
38.2528679961576 19.6048
38.27643380031219 19.522000000000002
38.30000128639589 19.4872
38.32375459653193 19.4465
38.34732546371299 19.4264
38.37089801690786 19.3712
38.39447225747609 19.3129
38.418232380377425 19.2978
38.441810012983396 19.3128
38.46538933705673 19.3314
38.488970353960084 19.2359
38.51273731166058 19.1772
38.536321731567014 19.1279
38.55990784840681 19.1499
38.58367995004091 19.1226
38.60726947812959 19.0515
38.63086070726198 19.1006
38.654453638806274 19.0726
38.678232613930824 18.9737
38.70182896773327 18.8835
38.72542702806741 18.8657
38.7490267963045 18.8101
38.77281266709232 18.8416
38.79641586862214 18.7814
38.8200207821842 18.7586
38.843627409152944 18.7549
38.86742019782782 18.7077
38.891030269149255 18.7034
38.914642058016156 18.6155
38.938255565806124 18.6713
38.96205529464307 18.5996
38.98567225787121 18.5551
39.00929094417078 18.6124
39.03291135492255 18.5581
39.05671804624804 18.4358
39.080341923549106 18.4575
39.103967529460334 18.3768
39.127594865365744 18.35
39.15140854155791 18.3536
39.17503935514948 18.3493
39.19867190290282 18.3437
39.22249083587951 18.2947
39.24612686969409 18.2603
39.269764641845306 18.2738
39.293404153722804 18.2338
39.317230110864074 18.1225
39.34087311998506 18.1258
39.36451787301696 18.1499
39.388164371352595 18.0719
39.41199737518003 18.0022
39.43564738196752 18.0003
39.45929913825317 18.0048
39.48295264543308 17.9903
39.506792718520884 17.9032
39.530449745387216 17.9892
39.55410852735203 17.9252
39.57776906581474 17.929000000000002
39.60161623079 17.8122
39.625280300200025 17.8357
39.64894613032202 17.7637
39.67261372255866 17.7294
39.6964680021016 17.7366
39.72013913657293 17.7349
39.74381203738292 17.6683
39.76748670593756 17.6877
39.79134812278169 17.651
39.81502634488497 17.6422
39.83870633896685 17.588
39.862388106436654 17.4986
39.88625668336918 17.5198
39.90994201572829 17.5204
39.933629125719285 17.41
39.957503091207826 17.3645
39.9811937746168 17.451
40.00488623990914 17.3583
40.02858048850006 17.3571
40.05246165409549 17.2572
40.076159487492085 17.3009
40.099859108448875 17.2775
40.123560518384345 17.2075
40.1474489070226 17.2044
40.171153913178564 17.1555
40.194860712584955 17.176
40.2185693066637 17.128
40.242464941335314 17.0636
40.26617714307655 17.0655
40.289891143772046 17.0683
40.3136069448471 17.0508
40.33750984859743 16.9951
40.3612292688043 17.0033
40.3849504936829 16.9466
40.40867352466194 16.8703
40.43258372059144 16.8642
40.45631038219906 16.8604
40.48003885420956 16.7934
40.503769138055105 16.81
40.52768664931955 16.7887
40.55142057531802 16.7502
40.57515631746428 16.6731
40.599079334038514 16.6709
40.62281872700477 16.6759
40.64655994043941 16.6028
40.67030297578061 16.6144
40.69423334835778 16.5688
40.71798004609188 16.5755
40.74172857006355 16.5318
40.76547892171441 16.4791
40.7894166736039 16.4911
40.813170699248566 16.4548
40.83692655691388 16.4479
40.86068424804498 16.4363
40.884629402612525 16.3866
40.908390779366385 16.4337
40.932153993938 16.3344
40.95591904777605 16.3139
40.979871628443995 16.3226
41.003640379561936 16.2514
41.02741097430883 16.2203
41.05118341413683 16.2109
41.075143444384416 16.1988
41.098919593177826 16.1666
41.1226975914255 16.1319
41.14647744058318 16.0773
41.170444943946755 16.0483
41.19422851378379 16.0362
41.218013938914645 15.9871
41.24198706625173 15.9659
41.26577622087193 15.9114
41.289567235177785 15.9208
41.31336011063129 15.9366
41.337340752422875 15.8912
41.361137369129835 15.8402
41.38493585138705 15.8102
41.40873620066004 15.7847
41.43272438060107 15.7729
41.45652848292052 15.741
41.48033445666918 15.7043
41.50414230331616 15.6618
41.528138045159764 15.6474
41.551949656675205 15.6085
41.575763145513235 15.5476
41.59957851314666 15.5122
41.62358184070442 15.4833
41.64740098505737 15.5372
41.6712220126409 15.5152
41.69504492493139 15.425
41.71905586207357 15.4517
41.74288256296395 15.4391
41.766711153007456 15.3736
41.79054163368412 15.3835
41.814560204340054 15.4201
41.838394485526365 15.3465
41.86223066180303 15.2782
41.88625497706819 15.2734
41.910094962812 15.2606
41.93393684811168 15.3175
41.95778063445365 15.1114
41.981812625263366 15.1775
42.00566023303407 15.1383
42.029509746323676 15.1233
42.05336116662236 15.0896
42.077400857069705 15.105
42.10125611078846 15.047
42.12511327600405 15.0381
42.14897235421036 14.9638
42.173019768448455 14.9523
42.19688269209613 14.9404
42.22074753323349 14.940999999999999
42.24461429335818 14.8949
42.268669455600495 14.880999999999998
42.292540073217886 14.9212
42.31641261433284 14.8626
42.34028708044675 14.8256
42.36435001496739 14.7867
42.38822835065557 14.7769
42.41210861586426 14.6999
42.4359908120986 14.6797
42.46006154323262 14.6574
42.48394762115317 14.6682
42.507835634632315 14.6182
42.531912233047436 14.5873
42.55580413732265 14.6224
42.579697981698 14.5514
42.60359376768525 14.5087
42.62767820545945 14.5087
42.65157789440821 14.4901
42.67547952952185 14.4412
42.699383112316 14.3806
42.72347541395347 14.3206
42.74738291190531 14.3874
42.771292362102166 14.3523
42.795203766063516 14.3073
42.819303956130405 14.2198
42.843219287476536 14.3052
42.86713657716324 14.2495
42.89105582671383 14.238
42.91516392983864 14.23
42.939087119032166 14.2002
42.963012272677304 14.1576
42.98693939230129 14.1425
43.01105543317513 14.1571
43.034986504731386 14.0334
43.05891954686589 14.0234
43.08285456110972 14.0611
43.10697856448665 13.9886
43.130917542983475 13.9602
43.15485849820081 13.9652
43.17880143167367 13.9649
43.20293342237094 13.9398
43.226880332449 13.9189
43.25082922540554 13.940999999999999
43.27496722682525 13.880999999999998
43.29892010567796 13.8101
43.32287497204102 13.8304
43.34683182745632 13.7203
43.370977859791836 13.7472
43.39493871351105 13.6733
43.41890156092628 13.7097
43.44286640358341 13.696
43.46702049182749 13.6459
43.49098934522816 13.649000000000001
43.51496019852649 13.5834
43.5389330532723 13.5798
43.56309522248204 13.5533
43.58707210044314 13.5588
43.61105098451946 13.4758
43.63503187626491 13.5368
43.659202151562134 13.4696
43.68318707902681 13.517999999999999
43.70717401884041 13.4491
43.731162972560874 13.3901
43.75534137913236 13.4135
43.779334381108384 13.3184
43.803329401683186 13.324000000000002
43.82732644241872 13.3096
43.8515130055166 13.2681
43.87551410707659 13.2094
43.89951723350145 13.2498
43.923709934595614 13.2478
43.94771713129917 13.199000000000002
43.97172635758096 13.172
43.99573761501002 13.1419
44.0199385169922 13.1407
44.04395385732619 13.1311
44.067971233533086 13.1672
44.09199064718605 13.0723
44.11619977548961 13.040999999999999
44.14022328470671 13.0139
44.16424883610785 13.0175
44.18827643127035 12.9593
44.21249381139513 12.9237
44.236525514814076 12.885
44.26055926674478 12.9044
44.28459506876863 12.9199
44.3088207262813 12.8672
44.33286064928722 12.7889
44.35690262714919 12.7964
44.38094666145278 12.7553
44.4051806219871 12.8029
44.42922879003185 12.7303
44.45327901929361 12.677999999999999
44.477331311362136 12.7031
44.501573600619416 12.6739
44.525630039221795 12.6476
44.54968854541895 12.6527
44.573937102200176 12.6303
44.5979997645541 12.5468
44.622064499300315 12.5615
44.64613130803592 12.5524
44.67038823869318 12.5465
44.69445921643748 12.4812
44.718532272981385 12.4499
44.742607409926194 12.4835
44.76687274034801 12.4467
44.79095205918753 12.3699
44.81503346325094 12.4005
44.839116954143876 12.3775
44.86339071028742 12.3471
44.88747839599524 12.3208
44.91156817336837 12.3256
44.93566004401666 12.2942
44.959942251908146 12.272
44.984038330325966 12.2271
45.00813650686762 12.1647
45.03223678314731 12.1904
45.05652746888232 12.1878
45.08063196592069 12.1115
45.104738567558705 12.1269
45.128847275414856 12.1443
45.15314646515866 12.0402
45.17725940679741 12.0371
45.20137445952892 12.0504
45.22568004865265 12.0034
45.24979934496396 11.9955
45.27392075725247 11.9716
45.29804428714431 11.9527
45.322358426247604 11.9678
45.346486212804315 11.9229
45.370616121861914 11.9248
45.39474815505086 11.868
45.41907087049246 11.8493
45.4432071734666 11.8342
45.46734560548283 11.8402
45.49148616817604 11.8093
45.51581748638564 11.7711
45.5399623320197 11.710999999999999
45.56410931325473 11.7168
45.58825843173002 11.7422
45.61259837920865 11.6885
45.636751793816 11.6619
45.66090735060093 11.6425
45.68506505120716 11.6024
45.7094136545275 11.5937
45.73357566449271 11.5715
45.75773982322992 11.5619
45.78190613238733 11.5395
45.806263418194064 11.4723
45.83043404997326 11.5114
45.85460683713677 11.4882
45.87897065658495 11.4727
45.90314777634752 11.457
45.92732705646868 11.4449
45.9515084986045 11.3953
45.97588104735473 11.3806
46.00006683541565 11.3713
46.02425479047904 11.3187
46.04844491420549 11.3373
46.0728262191024 11.3238
46.09702070211635 11.2871
46.12121735879483 11.2981
46.14541619080294 11.2592
46.169806278764455 11.2318
46.194009483459034 11.2214
46.21821486849841 11.182
46.24242243555223 11.1267
46.266821333570014 11.1227
46.29103328674601 11.1184
46.31524742696538 11.1228
46.33946375590237 11.0403
46.36387149104216 11.0614
46.38809221957392 11.0302
46.41231514186606 11.0234
46.436540259597464 11.0171
46.460956858999374 10.9999
46.48518638983522 10.9505
46.509418121166966 10.9445
46.533652054678114 10.9179
46.55807754555709 10.8947
46.58231590571962 10.9317
46.60655647313217 10.8594
46.630988654873654 10.8302
46.655233659129024 10.8194
46.67948087571551 10.7941
46.70373030632484 10.7377
46.72817142736393 10.77
46.752425308428684 10.753
46.77668140861147 10.7205
46.80093972960865 10.7086
46.82538981736788 10.6611
46.849652602470904 10.6136
46.87391761349769 10.5881
46.8981848521493 10.655
46.9226439341274 10.5977
46.946915650573224 10.5578
46.97118959976749 10.585
46.99546578341598 10.5417
47.019933887188216 10.5316
47.04421456235744 10.5506
47.06849747711879 10.499
47.09278263318286 10.4691
47.11725978640143 10.4176
47.14154944775105 10.3915
47.165841355555656 10.3857
47.1901355115306 10.3855
47.214621741924994 10.3678
47.23892041698887 10.34
47.26322134538975 10.3305
47.28771440635075 10.3262
47.31201986422527 10.2793
47.33632758061436 10.3141
47.360637557241866 10.2616
47.38513974410611 10.2167
47.40945426407847 10.2036
47.43377104948137 10.1803
47.45809010204344 10.1622
47.48260144275502 10.1331
47.506925052572285 10.1397
47.53125093475548 10.1166
47.55557909103813 10.0629
47.58009961361992 10.0609
47.60443234110732 10.0518
47.62876734791564 10.0302
47.65310463578333 10.0113
47.6776343683373 9.99473
47.7019762413987 9.96209
47.72632040075572 9.9576
47.75066684815169 9.96445
47.77520581885936 9.89582
47.799556865477655 9.93432
47.823910205386 9.88927
47.84826584033272 9.891
47.87281407745551 9.84581
47.89717432569297 9.8469
47.92153687423484 9.81509
47.94609208429692 9.84171
47.97045925671401 9.78713
47.99482873471275 9.76404
48.01920052005013 9.75423
48.04376504619224 9.7282
48.068141469543484 9.76342
48.09252020552573 9.719669999999999
48.11690125590099 9.66035
48.1414751266064 9.67422
48.16586082917454 9.6505
48.19024885144316 9.65138
48.2146391951793 9.62668
48.239222439012764 9.600530000000001
48.26361744916137 9.603489999999999
48.28801478610016 9.60365
48.31241445160131 9.586210000000001
48.337007097209366 9.543
48.36141144338331 9.522269999999999
48.38581812345755 9.49029
48.41022713920929 9.50587
48.434829215320704 9.46522
48.45924292604658 9.45155
48.48365897780325 9.44238
48.50807737237308 9.36922
48.532688907799276 9.41037
48.55711201168574 9.38113
48.581537463754074 9.365
48.60615611725119 9.33925
48.63058628942721 9.336260000000001
48.65501881516546 9.336310000000001
48.6794536962573 9.28017
48.70408185970339 9.28712
48.72852147531801 9.27673
48.75296345168211 9.21257
48.77740779059232 9.22982
48.80204549302823 9.257439999999999
48.82649458091802 9.20266
48.85094603676547 9.17205
48.87539986237231 9.18149
48.90004713292306 9.104280000000001
48.92450572200832 9.10674
48.94896668628025 9.12448
48.97343002754588 9.0895
48.99808689542115 9.07755
49.02255501470614 9.0658
49.04702551642794 9.082930000000001
49.0714984023988 8.998569999999999
49.096164896893235 8.96655
49.120642575466796 8.97408
49.145122643748394 8.94341
49.16960510355558 8.929739999999999
49.19428125404938 8.9236
49.2187685210852 8.88396
49.243258185121555 8.91261
49.26794160167084 8.862860000000001
49.2924360839405 8.86224
49.31693296869764 8.84243
49.34143225776915 8.83075
49.36612538195438 8.74912
49.39062950396021 8.74365
49.41513603578346 8.78304
49.4396449792564 8.7925
49.46434784069503 8.75489
49.488861631846454 8.691289999999999
49.513377840166804 8.7071
49.537896467493745 8.70162
49.56260909589029 8.66212
49.587132585683285 8.665239999999999
49.611658500018365 8.65418
49.636186840738596 8.6113
49.66090926588511 8.59339
49.685442483902584 8.602730000000001
49.70997813385706 8.545819999999999
49.734516217597076 8.54435
49.75924846937352 8.51423
49.7837914452858 8.50982
49.80833686055187 8.46819
49.83288471702571 8.47135
49.85762682540054 8.49825
49.882179588965734 8.4376
49.9067347993235 8.43251
49.93129245833333 8.41392
49.95604445336378 8.414539999999999
49.98060703442832 8.37774
50.005172069746266 8.37629
50.02993150438364 8.33688
50.05450147301533 8.3373
50.07907390151433 8.34228
50.10364879174981 8.29733
50.12841816587289 8.282739999999999
50.1529980044635 8.284419999999999
50.17758031042124 8.25447
50.20216508562089 8.27019
50.22694442953363 8.20535
50.25153416817468 8.2275
50.27612638170508 8.210460000000001
50.300721072005196 8.18823
50.325510416102105 8.1738
50.350110084975064 8.14436
50.37471223628208 8.14442
50.39931687190919 8.13748
50.424116246675766 8.14113
50.44872587605249 8.08031
50.47333799543065 8.077010000000001
50.49795260670191 8.05245
50.52276204271512 8.022969999999999
50.54738166295838 8.04669
50.57200378079314 8.030330000000001
50.596628398116835 8.012210000000001
50.62144792604559 7.977460000000001
50.646077567609396 7.9928300000000005
50.670709714377715 7.97717
50.69553683636198 7.94774
50.72017401885922 7.939089999999999
50.7448137122895 7.938110000000001
50.76945591856022 7.88634
50.79429318636823 7.900119999999999
50.818940443716784 7.866160000000001
50.84359021965163 7.84183
50.868242516085964 7.83276
50.893089960641895 7.829460000000001
50.917747323549435 7.809019999999999
50.94240721271973 7.7887
50.96706963007175 7.75259
50.99192728239342 7.74953
51.01659478166073 7.71461
51.04126481489051 7.75921
51.06593738400761 7.723730000000001
51.090805275207074 7.6704300000000005
51.11548294172845 7.67064
51.14016314993547 7.63563
51.164845901758845 7.668760000000001
51.18972406304274 7.63952
51.21441192780656 7.599880000000001
51.23910234200271 7.60682
51.2637953075678 7.561380000000001
51.288683770237945 7.5644100000000005
51.31338186432707 7.53856
51.33808251561888 7.533460000000001
51.362978729967345 7.5330699999999995
51.387684521509755 7.49437
51.41239287610203 7.51467
51.437103795691165 7.494680000000001
51.46201036644977 7.4503699999999995
51.486726441956634 7.43411
51.51144508832545 7.45678
51.536166307509156 7.415360000000001
51.56108326624387 7.3857
51.58580965706056 7.36384
51.61053862657523 7.40423
51.635270176746864 7.3662399999999995
51.66019755512065 7.33666
51.68493429268881 7.315869999999999
51.70967361681515 7.302560000000001
51.73441552946465 7.28317
51.759353359237934 7.2782
51.7841004750961 7.27986
51.80885018539685 7.249910000000001
51.833602492111254 7.2205
51.8585508051424 7.2210399999999995
51.883308330926425 7.2565800000000005
51.90806845906181 7.19462
51.932831191525715 7.19102
51.95779001977161 7.15733
51.98255798721516 7.13887
52.00732856494335 7.14297
52.03229530577543 7.1101399999999995
52.057071130455945 7.11759
52.081849571391054 7.073239999999999
52.106630630568695 7.1099
52.13160794279417 7.04793
52.15639426492067 7.05585
52.18118321127822 7.0136199999999995
52.205974783860896 6.99913
52.23096269971011 7.003260000000001
52.255759551287994 6.99447
52.280559035098186 6.966069999999999
52.30536115314103 6.94159
52.33035970494467 6.938210000000001
52.35516711807904 6.94247
52.37997717147198 6.9183699999999995
52.40478986713005 6.9221699999999995
52.42979908731974 6.905760000000001
52.454617094216 6.875189999999999
52.47943774942214 6.85111
52.50426105495102 6.854210000000001
52.529280976059844 6.835839999999999
52.554109609024096 6.80727
52.57894089837482 6.77947
52.60377484613117 6.80783
52.62880550079408 6.80052
52.65364479223379 6.76952
52.67848674816189 6.74865
52.70352547971946 6.719689999999999
52.72837279155837 6.73405
52.753222773982785 6.72232
52.778075429022984 6.70505
52.80312495150885 6.69825
52.827982978797436 6.65925
52.85284368481815 6.66823
52.87770707160767 6.62045
52.90276741793998 6.5834
52.92763619336701 6.59258
52.952507655698504 6.59057
52.977381806977576 6.56037
53.00245301017842 6.58358
53.02733256653592 6.573460000000001
53.052214817996074 6.49151
53.077099766608484 6.534330000000001
53.102181859804446 6.537730000000001
53.127072229988265 6.51847
53.15196530349892 6.521780000000001
53.17686108239249 6.48911
53.20195409881522 6.4423699999999995
53.22685531582556 6.46001
53.25175924441303 6.41665
53.27666588664027 6.413819999999999
53.30176985962693 6.37265
53.3266819565689 6.36635
53.35159677336455 6.346019999999999
53.376514312083096 6.32362
53.40162927507703 6.34888
53.42655228516116 6.3273
53.45147802340193 6.31974
53.47660125628886 6.31297
53.50153247842639 6.29622
53.52646643496923 6.30015
53.55140312799818 6.25206
53.576537409691696 6.27654
53.60147960336152 6.24189
53.626424539786164 6.21269
53.65137222105307 6.21379
53.67651758529126 6.2188
53.70147078399681 6.17523
53.72642673383343 6.16483
53.75138543689533 6.19415
53.776541917524526 6.14602
53.801506154876755 6.09906
53.826473151763246 6.05771
53.851442910284916 6.0937
53.87661054126026 6.09596
53.9015858509782 6.047619999999999
53.92656392866066 6.08754
53.95154477641532 6.07112
53.976723591801296 6.0488800000000005
54.00171000771266 6.04552
54.02669920004598 6.030819999999999
54.051691170915745 5.93775
54.076881204886796 5.98402
54.101878760928514 5.97624
54.12687910187696 5.96746
54.152077577768296 5.96414
54.1770835166946 5.9545699999999995
54.20209224691339 5.93955
54.22710377055121 5.90779
54.25231352511594 5.90151
54.27733066384342 5.86329
54.30235060239643 5.86279
54.32737334290836 5.82268
54.35259441062629 5.78315
54.377622783395324 5.79357
54.40265396455061 5.8228
54.42768795623251 5.81554
54.45292037169559 5.75727
54.477960012857906 5.733630000000001
54.50300247099511 5.71633
54.52804774825457 5.69367
54.55329154616743 5.70581
54.57834249018678 5.6475
54.6033962597977 5.62681
54.6284528571545 5.6193599999999995
54.653708072335164 5.626530000000001
54.67877035378786 5.5919
54.70383546947698 5.5579
54.72890342156389 5.56303
54.7541700889442 5.48884
54.77924374251975 5.415780000000001
54.8043202390049 5.4408199999999995
54.82959552413022 5.49372
54.8546777351945 5.45735
54.87976279569621 5.38551
54.90485070780914 5.46572
54.930137506558005 5.36904
54.95523115074295 5.43159
54.98032765308844 5.35237
55.005427015775496 5.36196
55.03072536339621 5.3918800000000005
55.05583047570572 5.28144
55.080938454927676 5.29172
55.10604930325027 5.25176
55.131359235107396 5.2608
55.15647585066083 5.16981
55.181595341907496 5.1818
55.20671771104285 5.19605
55.232039262617704 5.11411
55.25716741665048 5.1024
55.28229845518636 5.12766
55.30743238042802 5.06717
55.33276558731939 5.0488599999999995
55.357905315183636 5.04586
55.383047936390035 5.01919
55.40819345314859 4.91709
55.433538351073295 4.9849
55.458689688238415 4.971430000000001
55.483843927614096 4.95386
55.509197623043605 4.94705
55.53435769621134 4.87324
55.55952067826466 4.85295
55.5846865714265 4.80605
55.61005202069737 4.76767
55.63522376553902 4.80788
55.66039842818645 4.80499
55.68557601087004 4.7969599999999994
55.7109532500271 4.69108
55.73613670233794 4.71068
