TT I
1.2716486653135266 7.4113
1.2939594142134223 6.833139999999999
1.3162702121660406 6.1948
1.3385810600174564 6.39161
1.3608919586137629 5.93502
1.383202908801069 6.08968
1.405513911425503 6.40874
1.4278249673332093 5.8792599999999995
1.4501343378461518 6.53364
1.4724455028545926 5.9794599999999996
1.4947567236847858 6.20228
1.517068001182951 6.2980599999999995
1.5393793361953272 5.27931
1.5616907295681737 5.07562
1.5840021821477681 4.90112
1.60631369478041 5.243609999999999
1.6286252683124185 5.0831800000000005
1.6509369035901333 4.97929
1.6732468618895553 5.03902
1.695558623192809 4.50172
1.7178704487808514 5.02767
1.7401823395001077 4.866969999999999
1.7625012545597203 4.8520199999999996
1.7848028405262486 5.12246
1.8071218901122095 5.08978
1.8294236121921872 5.21963
1.8517427996910911 5.0736099999999995
1.8740620574440425 4.5361400000000005
1.8963639900671978 4.57146
1.9186833908139995 5.3381300000000005
1.9409854680117449 4.91905
1.9633050151394713 4.78724
1.9856246367570705 4.90163
2.0079269371922672 4.14358
2.03024671027244 4.9229
2.0525491637446027 4.60802
2.074869091674931 4.48675
2.097171701569106 5.03953
2.1194917877373847 5.03488
2.141811954326636 5.00459
2.164114805233074 4.886830000000001
2.186435135143035 6.41146
2.208738150935709 16.2291
2.231058647554722 38.0157
2.2533792288321184 29.0504
2.275682498336085 12.5337
2.298003251406138 6.15152
2.3203066942619714 5.74481
2.3426276225136022 5.88929
2.3649486396617507 5.78638
2.387252348930071 6.27861
2.4095735463442893 5.74447
2.4318774374315884 5.81845
2.4541988185014043 6.45375
2.476502894794693 7.45383
2.498824462909887 6.982419999999999
2.521146125856138 6.678610000000001
2.5434504863470337 7.75046
2.5657723414244717 8.027560000000001
2.588076895590662 8.21066
2.610398946189713 8.62095
2.6327210958598384 8.39334
2.6550259469304716 8.31657
2.6773482972090137 8.40449
2.6996533504259 8.469380000000001
2.7219759047039602 8.80768
2.744298562293959 8.77205
2.7666039251246595 8.442730000000001
2.7889267918020164 8.07088
2.8112323652516555 7.675510000000001
2.833555444408179 8.17525
2.8558786311183852 8.63434
2.8781845268938557 8.47599
2.9005079311721484 9.55311
2.9228140460410397 9.26602
2.9451376712799635 9.992239999999999
2.967444008632326 9.73879
2.9897678582247247 9.783
3.0120918213106695 10.6183
3.0343984987899373 10.8475
3.0567226913198637 11.1163
3.079029599759726 11.6293
3.101354025127254 12.5143
3.123678568232338 12.8383
3.145985829517914 12.7647
3.16831061055229 13.5321
3.1906181112775593 14.0597
3.212943133635653 14.8611
3.2352682779763207 15.1115
3.2575761442691227 15.7742
3.2799015350264273 16.1338
3.302209649240067 16.4887
3.3245352898092655 16.9686
3.3468436553365257 17.2358
3.369169549113219 17.8969
3.3914955708171384 18.7743
3.413804319727358 19.2199
3.4361305997334863 19.06
3.4584396084414553 19.7628
3.4807661501462652 20.4535
3.503092824025881 21.0185
3.5254022288463154 21.3228
3.5477291695206588 21.9231
3.5700388426251948 23.1917
3.5923660534916446 24.6471
3.6146934007816114 44.2078
3.637003482731501 114.866
3.6593311053109985 129.892
3.681641464033634 70.7132
3.7039693653009733 33.6831
3.726297407241705 27.0732
3.7486081875460804 26.0817
3.7709365132734978 26.4174
3.793247578841633 26.7422
3.8155761917550093 26.8973
3.8378875459837216 27.4224
3.8602164494827234 27.8468
3.882545499606844 28.3142
3.9048572932539183 29.287
3.9271866390645718 29.5149
3.9494987298666713 30.2829
3.971828374764527 30.3676
3.9941581705403255 31.2271
4.016470713506008 31.9269
4.038800813471445 32.7805
4.061113662089144 33.3086
4.0834440696459176 33.5982
4.105774632334751 34.0031
4.128087945865126 34.9088
4.150418821249301 35.9588
4.172732448931298 37.3358
4.195063640413578 39.7704
4.2173775856475215 44.3262
4.239709096631102 84.596
4.262040768704612 310.908
4.284355196706267 433.595
4.306687193387355 277.02099999999996
4.329001947444346 98.1971
4.35133427213731 50.1134
4.373666762177566 45.3146
4.395982011761091 44.8576
4.418314834921175 46.1281
4.44063041906622 56.4215
4.4629635787515625 71.9265
4.4852969080429785 71.3329
4.5076130004776225 56.2408
4.529946671403969 50.7133
4.552263106909177 50.1865
4.574597122877047 51.1308
4.596931312711224 52.489
4.619248269273446 52.7635
4.6415828092605835 53.6364
4.663900117405352 55.0497
4.686235010953232 56.2738
4.708552674085913 57.5594
4.730887924602802 58.9294
4.753223354952695 60.8759
4.775541557023902 61.656000000000006
4.797877349456786 63.2357
4.820195915032126 65.2979
4.842532072957498 66.2325
4.864868414979744 68.3402
4.88718753227192 70.6221
4.909524244902505 72.5677
4.931843734218147 74.542
4.954180820867835 76.7835
4.976518095879839 79.166
4.998838149695359 81.8693
5.021175803844231 85.5951
5.043496238205739 87.9653
5.065834274903528 92.405
5.088172504230693 97.1742
5.1104935158799565 102.65799999999999
5.132832132875765 128.274
5.155153533596801 182.40099999999998
5.1774925416746225 214.84400000000002
5.199814334878411 303.649
5.2221537374521505 807.1610000000001
5.244493338631803 2395.84
5.266815727034316 7226.02
5.289155727832427 12893.0
5.311478517248165 9318.62
5.333818921080011 3069.66
5.356159527788849 588.405
5.3784829252032536 188.108
5.400823940070432 144.092
5.423147747031976 127.432
5.445489173474152 117.904
5.467830807066149 112.715
5.490155234831516 108.508
5.512497285125229 104.93
5.534822130975162 103.00299999999999
5.557164601388673 100.853
5.579489868738879 98.3355
5.601832762690846 97.5097
5.6241758697774475 97.3088
5.646501775867269 96.0
5.668845311622074 94.2597
5.691171647754637 93.0424
5.713515615597765 91.4016
5.735859800852677 91.0217
5.758186788542988 90.0032
5.780531411018185 90.2009
5.802858837297399 89.87799999999999
5.825203900414495 89.6758
5.8475491852224 89.3184
5.869877275883075 89.9257
5.892223006467101 91.3069
5.914551544266608 91.9854
5.936897724049891 93.9149
5.959244129804903 97.4964
5.981573344815301 110.42399999999999
6.0039202049061 178.89
6.026249875609095 379.04900000000004
6.04859719346037 826.335
6.070927323278297 1953.19
6.093275102315365 4244.27
6.115623113320588 5309.48
6.137953938319995 3306.55
6.160302415650845 1020.35
6.182633708324452 246.017
6.2049826554078376 115.3
6.227331838745022 92.4088
6.249663839443684 84.4574
6.27201349767565 82.9938
6.294345974611799 92.8188
6.316696111167083 109.919
6.339046488263839 103.461
6.361379686074702 83.2786
6.383730546639482 72.1235
6.406064229255215 68.4387
6.428415576718203 67.878
6.450749747566656 66.97800000000001
6.47310158535871 65.9035
6.495453669698332 65.2113
6.517788579421056 64.6171
6.540141159237969 63.9071
6.562476565766648 63.6249
6.5848296444934045 62.7396
6.607182974060425 62.5989
6.6295191323281015 62.9907
6.651872965955752 67.362
6.6742096296068985 103.118
6.6965639707294615 169.32
6.71891856698715 171.828
6.741255995248479 109.70100000000001
6.763611104154477 72.3618
6.785949046381137 61.2199
6.808304671371482 58.7398
6.8306605557940046 58.396
6.852999275508618 57.5561
6.875355681171544 57.4876
6.897694923437771 56.7922
6.92005185377892 56.9729
6.9423916220322655 56.6962
6.964749080490181 55.7904
6.987106804399774 55.7141
7.009447368180821 55.8146
7.031805625367033 55.3927
7.054146723727803 55.6288
7.076505517631004 55.3943
7.098864581288365 55.4542
7.121206488070854 55.3238
7.143566093607822 55.4476
7.165908543567245 55.4237
7.188268694426048 55.5696
7.2106291193438095 55.9411
7.232972390625943 57.9499
7.255333366030969 74.8219
7.277677189091925 150.19899999999998
7.300038718428332 221.14
7.322400526130865 182.512
7.344745183422596 103.9
7.367107550224791 65.3651
7.389452767901992 57.5821
7.411815697249891 55.7717
7.434161478756298 54.7854
7.456524974096713 54.3939
7.478888753837185 54.408
7.501235387657368 55.0141
7.523599738562711 54.6719
7.545946944825532 54.8837
7.568311870344528 55.3074
7.5906770845765665 55.582
7.613025156078678 57.2575
7.635390950099687 59.3023
7.657739602662809 58.2567
7.680105979923558 56.5808
7.702472650212829 56.2478
7.724822180948224 55.8682
7.747189439655568 56.1185
7.769539560075357 56.0858
7.791907410653562 56.5505
7.81425812420825 56.2593
7.836626570110925 56.5639
7.858995315087906 57.4122
7.881346924933401 57.7548
7.903716270417482 58.4219
7.926068482028405 58.4252
7.948438431475253 58.9163
7.9708086843180235 59.5483
7.993161805171116 60.2358
8.015532667162402 60.3856
8.037886398416653 61.434
8.060257873014221 61.7574
8.082629655331942 62.1755
8.104984308787587 63.6612
8.127356708900503 67.8433
8.149711981398308 75.1634
8.172085002766314 78.7292
8.194458336181368 73.7543
8.216814543847752 69.4581
8.23918850371002 68.8853
8.26154533906492 69.4295
8.283919928836452 71.1428
8.306277395339652 72.0231
8.328652618483376 73.5374
8.351028159736202 75.2322
8.373386579575245 77.192
8.395762759396959 79.015
8.418121819038275 84.5453
8.440498640894003 101.066
8.462875785192262 118.775
8.485235811156207 126.15100000000001
8.507613602688501 150.52100000000002
8.529974277114228 221.09
8.552352719347912 340.44
8.574731488360351 585.165
8.59709314210385 1089.94
8.619472567021075 1779.14
8.64183487789147 2189.05
8.664214962183097 1865.64
8.686577933647762 1025.32
8.708958680784317 389.719
8.731339760774953 170.21099999999998
8.753703729764451 112.325
8.77608547780821 98.921
8.798450116065078 94.9809
8.820832535634787 91.9783
8.843215292401656 90.5595
8.865580941199045 88.7745
8.887964374703538 88.1125
8.910330701447199 89.7886
8.932714815164482 93.4518
8.955099270424924 92.6669
8.977466620733543 88.6119
8.999851761421976 85.4741
9.022219798361645 82.8828
9.04460562795561 82.5294
9.066991803441677 82.3377
9.089360876979615 81.9769
9.111747746589993 81.7903
9.13411751544971 81.2194
9.156505082664324 80.6128
9.178875550323522 81.4218
9.20126381862328 81.9728
9.223652438908596 82.3291
9.246023961427412 81.8712
9.26841328802173 81.3543
9.290785518039224 81.1658
9.313175554425882 81.6753
9.335565947154315 81.67399999999999
9.357939245086508 81.8118
9.380330352834827 81.7374
9.40270436697103 82.3842
9.425096193225055 82.2317
9.447488380180165 83.1794
9.469863475295412 83.2275
9.492256385987508 83.587
9.514632206018318 84.3313
9.537025843935714 84.8085
9.559402392368193 85.3241
9.581796761000229 86.5964
9.604191496441521 87.6404
9.626569144158516 92.0765
9.648964615551032 98.2976
9.671343000390081 100.78399999999999
9.693739211225699 97.2326
9.716135793237463 93.3168
9.738515290448102 92.5132
9.760912617143402 92.7766
9.783292860202891 93.7271
9.805690935076182 95.6434
9.828089385495742 96.1611
9.850470754023561 98.4464
9.872869957865444 108.411
9.89525208097539 128.66299999999998
9.917652041736662 145.15
9.940052382417589 141.861
9.962435644102392 137.336
9.984836746950979 159.502
10.007220771957746 210.6
10.029622640473708 298.97700000000003
10.052007432299963 462.695
10.074410069984072 742.7739999999999
10.096813093716005 1206.38
10.119199042482517 1707.63
10.141602840636468 2015.48
10.163989564971628 1640.36
10.186394141051062 922.158
10.208799107559706 405.384
10.231187001965623 190.821
10.253592751657669 126.663
10.275981430388155 113.56
10.298387966769793 114.64299999999999
10.320794897965431 118.022
10.343184759907361 116.943
10.36559248305461 109.876
10.387983138083852 103.654
10.410391656691655 104.402
10.432800574501677 112.34299999999999
10.455192425893369 127.305
10.47760214443012 148.44799999999998
10.499994797678786 189.408
10.522405320453982 262.64799999999997
10.54479877906917 383.166
10.567210109595656 512.5740000000001
10.5896218454736 579.646
10.612016518879773 520.993
10.634429067781074 367.949
10.656824555333241 210.886
10.679237920773568 127.603
10.701651695961992 96.6072
10.724048411481384 88.7702
10.746463008485165 86.3321
10.768860546937125 84.5542
10.791275969274796 82.6683
10.81369180576079 81.6833
10.836090585366925 80.8492
10.858507252467449 79.6492
10.88090686379991 78.2649
10.903324365036394 78.0046
10.925724811614439 78.4835
10.948143150509463 80.0177
10.970561909719066 79.3641
10.992963615930844 77.2415
11.015383218085756 74.7506
11.037785768347074 72.9839
11.06020621697282 72.6137
11.082627090322113 71.9202
11.105030913430326 71.6182
11.12745263854165 72.464
11.149857314510728 77.415
11.172279894912576 86.2929
11.194702904450653 87.7981
11.217108866490921 82.4535
11.239532736615194 76.1288
11.26193956033512 73.097
11.284364294577085 71.0983
11.306789462371718 68.5647
11.329197585398376 67.1824
11.351623622610898 66.7263
11.37403261614354 65.9234
11.396459526308487 65.8733
11.418869393879497 65.3972
11.441297180532617 64.9216
11.463725406927658 64.7274
11.486136592353875 64.426
11.508565700543707 65.4447
11.530977768845315 68.2586
11.553407762368774 69.4643
11.575838200059769 68.6766
11.598251599479612 66.0126
11.620682927815501 63.9128
11.64309721895548 63.3952
11.665529441478206 62.9536
11.687962112597958 62.8738
11.710377748130886 62.692
11.732811318753434 62.6754
11.755227854859067 62.7581
11.777662328529495 62.923
11.800079768750786 62.1679
11.822515149015453 62.1727
11.844950984084935 62.2527
11.867369787303163 61.8516
11.889806534289491 62.0504
11.912226250487029 62.4716
11.934663912939751 62.4619
11.9571020346363 62.4123
11.979523127133968 62.2617
12.001962169624331 62.9209
12.024384183972964 63.6355
12.046824150809913 65.9607
12.069264581333726 70.5248
12.091687985297767 76.0537
12.11412934550045 84.1858
12.136553680195208 97.5683
12.158995973632788 118.984
12.181438735204349 145.406
12.20386447284199 184.118
12.226308172985636 209.25400000000002
12.24873485024193 206.095
12.271179492516982 175.297
12.293607112949127 132.95
12.316052700916226 101.84200000000001
12.338498763250042 83.0833
12.360927805303868 72.1423
12.383374818673879 67.1074
12.405804812803074 64.7714
12.428252780773262 64.3379
12.45070122756722 63.9038
12.473132656675375 63.8417
12.49558206341869 63.964
12.518014453510101 64.1289
12.540464823770117 63.9986
12.562915677315177 64.3676
12.58534951575545 65.5382
12.607801338171472 68.1045
12.630236146511358 75.1464
12.652688941369085 81.8443
12.675124723177234 82.723
12.697578494048786 77.1011
12.720032754458185 70.9487
12.742470003354093 68.0809
12.764925245138771 67.7803
12.787363476431278 67.6446
12.809819703166806 67.6296
12.83227642391173 68.572
12.854716135692716 69.2999
12.877173846755147 70.1629
12.899614549869717 70.4695
12.9220732548287 71.113
12.94453245827299 71.671
12.966974655289818 72.421
12.989434858002571 73.1268
13.011878055298721 73.9822
13.034339260862497 74.9653
13.056800969391883 75.8978
13.079245674017244 77.865
13.101708390774869 79.2746
13.12415410463411 84.7634
13.146617833206086 95.2195
13.169064559883248 106.04299999999999
13.191529303857127 118.845
13.213994557076367 138.944
13.236442809902437 172.86
13.258909083908291 223.63
13.28135835851934 290.111
13.30382565690295 360.19699999999995
13.326293469022952 422.825
13.348744283242008 434.37
13.371213125129904 375.776
13.39366497011003 277.426
13.416134845360597 181.669
13.438605238843131 126.49600000000001
13.46105863690397 104.91
13.483530069144786 102.09899999999999
13.505984506951902 105.85600000000001
13.528456981549432 113.90700000000001
13.550929978879088 126.74700000000001
13.573385983253365 148.088
13.595860028340867 183.80900000000003
13.618317081455832 233.71599999999998
13.64079217790333 292.057
13.663250283359057 343.55800000000005
13.685726434770173 371.626
13.708203115221277 347.52099999999996
13.730662806148091 272.452
13.75314054697177 190.199
13.775601299246777 130.92
13.798080104050406 98.3064
13.820559442405358 85.1833
13.843021793671388 81.1552
13.865502201420897 79.6809
13.887965623051947 78.7948
13.910447103807167 77.7289
13.932929122629764 76.3696
13.955394156785959 76.0747
13.977877254034569 75.4902
14.000343367582113 74.2758
14.022827546871707 73.7326
14.045294743423524 72.8979
14.06778000837062 72.3899
14.090265817715476 72.4274
14.112734645763819 71.9689
14.13522154619454 72.197
14.157691466286913 72.535
14.180179461423874 72.1196
14.202668005486178 71.3858
14.22513957064374 70.4099
14.247629214846473 69.9304
14.270101881097517 69.8406
14.29259262906496 70.3275
14.315083930490205 71.3041
14.337558255389705 71.5989
14.360050666019726 71.4603
14.382526101071944 70.069
14.405019624534942 68.8723
14.427513705993134 68.4085
14.449990813291825 68.2806
14.47248601302899 68.0641
14.49496423954951 68.117
14.517460561197822 68.2747
14.539939910570322 67.9556
14.562437357763558 68.4815
14.58493536931253 69.8741
14.607416409993311 71.3723
14.62991555254159 72.0855
14.652397725157423 71.7773
14.674898002342799 70.82300000000001
14.697398848433282 69.8012
14.719882725991326 70.2899
14.74238471217934 70.7734
14.764869730765593 73.3656
14.787372860692983 76.2183
14.809876564079925 80.0635
14.83236330125751 84.9761
14.854868153850365 92.6574
14.877356041159485 104.90100000000001
14.899862046604186 122.48700000000001
14.922351087688757 146.371
14.944858249632887 174.05599999999998
14.967365991421232 203.162
14.989856770231246 220.62099999999998
15.012365673994204 220.979
15.03485761569738 192.965
15.05736768508665 151.817
15.07987833888692 117.736
15.102372032001655 92.2742
15.124883856909658 77.5144
15.14737872204565 72.1697
15.169891721717274 70.1794
15.192405310371893 70.2636
15.214901940621196 71.1225
15.237416709527137 71.4011
15.259914520936249 71.5932
15.282430473753607 70.48899999999999
15.304947020131227 69.4305
15.327446610371178 68.2244
15.349964346154254 67.1647
15.372465126703139 66.4856
15.394984055556009 66.2487
15.417486030076159 65.8416
15.44000615566487 65.6879
15.462526881230803 65.5619
15.485030653812652 65.9292
15.507552581617434 65.9507
15.530057557334603 66.0449
15.55258069104857 65.8097
15.575104429329837 65.5189
15.597611216864632 65.2893
15.620136166564563 65.226
15.6426441664095 65.6889
15.665170331202765 67.3526
15.687697105158826 70.1237
15.710206930593545 73.2071
15.732734925158933 76.5782
15.755245972089478 82.2771
15.77777519094324 90.2763
15.800287463046663 102.51100000000001
15.822817909869592 120.041
15.84534897229804 141.966
15.867863089299354 164.145
15.890395385222186 183.792
15.912910736597423 193.283
15.935444269699861 184.584
15.957978423016485 159.41299999999998
15.980495633101265 127.149
16.003031029129367 98.5783
16.02554948280019 77.9754
16.048086125229432 68.7068
16.070623392487107 65.8759
16.09314371869582 64.975
16.11568223789321 64.3443
16.13820381691126 63.0065
16.160743591742527 61.6871
16.183283996022084 60.5691
16.205807461423195 59.3225
16.228349126881973 58.8594
16.25087385432698 58.7104
16.27341678466365 58.0625
16.29594277784926 58.0886
16.31848697676433 58.769
16.341031811604868 59.3614
16.36355971058487 60.00899999999999
16.3861058195587 59.551
16.40863499352978 58.2274
16.431182380342005 56.9989
16.453730407713202 56.0884
16.476261501364792 55.5792
16.498810812136167 55.2193
16.52134319004079 55.4488
16.54389378792203 55.2394
16.566445031001553 54.887
16.588979342490088 54.8557
16.61153187824822 54.6752
16.634067483263312 54.547
16.656621315414416 54.4718
16.679175797408888 54.2572
16.701713349928728 54.2495
16.72426913389191 54.6702
16.74680798922351 54.8711
16.76936507887444 54.8708
16.791905240734874 54.7789
16.814463639794468 54.6087
16.837022695210294 54.4284
16.859564824093756 55.0598
16.882125194503903 56.099
16.904668639217885 57.1317
16.927230328348003 57.3461
16.949792678493612 57.21
16.972338104193863 56.4524
16.994901778652235 55.6001
17.017448529496576 55.38
17.040013531998152 55.3339
17.06257920018044 55.6308
17.0851279459922 56.3612
17.107694947817667 57.0389
17.130245028099072 57.7646
17.15281336730298 59.0331
17.17536478578733 60.89
17.19793446610687 62.8524
17.220504818648422 65.6943
17.243058251703697 68.6144
17.265629950971032 73.4886
17.288184731571736 78.55
17.310757781306908 82.6394
17.33333150794385 84.0753
17.355888317140174 82.792
17.37846339986244 78.0889
17.401021565958885 71.0964
17.42359800851343 65.6319
17.44617513265564 61.49
17.468735341390783 59.4648
17.491261035594565 58.5811
17.51396340099364 58.4366
17.536490463869136 58.9073
17.559018209820174 58.8544
17.58154663977963 58.8596
17.604251766089718 58.8408
17.626781572227713 58.9816
17.64931206518155 59.3924
17.671843245885103 60.0451
17.69455114821572 60.3534
17.717083712612634 60.4604
17.739616967569667 60.6176
17.762150914021706 60.8819
17.78486160749854 60.6598
17.807396945166804 61.1171
17.829932977143503 61.8556
17.85246970436452 62.8514
17.875183204129467 64.4563
17.897721330097664 66.786
17.920260154126645 68.8118
17.942799677153296 71.758
17.9655159983646 75.2559
17.988056927677544 79.8395
18.010598558807683 86.6729
18.033140892692916 95.8826
18.05586005052525 106.792
18.07840379824407 118.63
18.10094825154059 130.071
18.12366954819864 138.711
18.146215420998306 139.797
18.16876200220057 131.881
18.191309292745153 117.745
18.214033452627167 103.897
18.236582170236648 91.632
18.259131600016456 85.6256
18.281681742907335 85.0169
18.304408781233683 88.7389
18.32696035875955 93.8947
18.349512652227624 98.6579
18.372065662579683 104.294
18.394795594587553 106.346
18.41735004715306 103.454
18.43990521943684 96.9127
18.46246111238171 88.0592
18.485193953325208 78.5251
18.507751296070428 70.6234
18.530309362314178 66.0521
18.552868153000343 63.4728
18.57560391815056 61.7814
18.59816416623245 61.2424
18.620725141597372 60.945
18.643286845190268 60.3258
18.666025549835414 60.0902
18.688588718427933 59.5167
18.711152618092243 59.54600000000001
18.73389353884365 59.0049
18.75645890921984 58.5645
18.77902501351406 58.2479
18.801591852673102 58.28
18.824335739722738 57.7864
18.846904057212626 57.5563
18.8694731124168 57.2744
18.89204290628315 57.3483
18.914789774966803 57.1102
18.937361054791623 56.8126
18.959933076131318 56.6831
18.982505839934877 56.8428
19.00525570560582 56.7441
19.027829963004184 56.4926
19.05040496572238 56.6259
19.072980714710468 56.5772
19.095733592739563 56.8157
19.11831084296757 56.9479
19.140888842324735 57.483999999999995
19.16346759176222 57.8908
19.18622349753803 58.3262
19.208803755869358 58.9682
19.231384767143577 59.7008
19.253966532312948 61.1068
19.276725481241822 62.906000000000006
19.29930876296784 65.2453
19.3218928014549 68.4074
19.34465404436217 71.8629
19.36723960516257 75.0516
19.389825925592426 76.7254
19.412413006605938 75.9226
19.43517731967805 72.8202
19.457765930683355 68.3291
19.48035530514408 63.4436
19.50294544401556 59.6151
19.525712842708348 56.5192
19.54830451925909 54.8234
19.570896963095727 53.8034
19.593490175174704 53.7441
19.616260674962184 53.7257
19.638855432416964 53.3009
19.661450960992624 53.4341
19.68404726164677 53.1545
19.706820878021247 52.9184
19.729418731756834 53.2951
19.752017360452857 52.9901
19.77461676506804 53.1234
19.797393513540218 53.0503
19.819994478951667 53.3649
19.84259622316767 54.0392
19.8651987471481 54.3663
19.887978643247177 54.4929
19.91058273574792 54.7205
19.933187610901943 55.4997
19.955969879466828 56.6594
19.97857632894404 57.8158
20.00118356396599 59.4286
20.023791585494575 61.4401
20.046577028914875 63.9204
20.069186632506966 66.4642
20.091797025500632 68.1792
20.114408208858933 69.2406
20.137196842715273 69.1328
20.159809615886765 67.8315
20.18242318232135 65.3446
20.20503754298326 62.9873
20.227829382875154 61.5847
20.250445341109344 61.321999999999996
20.27306209647285 62.0539
20.29567964993108 63.229
20.31847471147704 64.3365
20.34109387027612 65.7414
20.363713830075454 65.5453
20.386334591841646 64.3372
20.409132890679302 61.8236
20.431755265564437 58.5931
20.454378445325528 55.5121
20.477002430930366 53.5791
20.499803982716553 52.4504
20.522429589228004 51.7375
20.54505600449589 51.07
20.567683229489194 50.8471
20.590488049900088 50.4293
20.61311690359731 50.0739
20.63574656993626 49.6318
20.658553853717297 49.2559
20.681185154618298 49.4508
20.703817271080066 49.3873
20.72645020407368 48.9035
20.749260783967177 48.8889
20.771895359337133 48.8262
20.794530754161617 48.7122
20.817166969412938 48.5712
20.83998086114876 48.4366
20.86261872660049 48.4104
20.885257415405402 48.4732
20.90789692853701 48.2187
20.930714147864748 48.2168
20.953355319030678 48.2292
20.97599731745334 48.1874
20.99864014410749 48.1067
21.021460706796564 48.1441
21.044105199328826 48.6679
21.06675052302631 48.6875
21.089396678865015 48.7627
21.112220600704806 49.0619
21.134868430275347 49.4384
21.15751709492456 49.7762
21.180166595629693 49.9876
21.202993892429635 50.497
21.22564507473034 50.8165
21.24829709602816 51.027
21.27112693608965 51.0592
21.293780644891275 50.8818
21.316435195634053 50.4792
21.339090589297417 49.8353
21.361923832041875 49.2747
21.384580921090404 48.7632
21.407238856007325 48.1606
21.429897637773326 48.0926
21.45273429906592 48.0748
21.475394784108598 47.9154
21.498056118951983 47.9481
21.520718304578022 48.1584
21.543558400304388 48.2324
21.566222297108816 48.3696
21.58888704765135 48.4649
21.61155265291521 48.7321
21.63439619898156 49.1714
21.657063523335786 49.1724
21.67973170537063 49.8129
21.7024007460706 50.2295
21.72524775840385 50.6183
21.747918526116475 51.8344
21.770590155457388 52.9359
21.79326264741238 54.4074
21.816113141960237 55.9888
21.838787368860547 58.1744
21.861462461341976 59.8747
21.884315579735777 61.9623
21.90699241312273 63.2429
21.92967011506078 64.3534
21.95234868653799 64.2222
21.9752053151131 63.1748
21.997885635446785 61.4617
22.020566828293532 59.4466
22.04324889464272 57.6205
22.066109049404666 56.3025
22.088792872571794 55.8387
22.111477572219204 55.6365
22.1341631493376 55.85
22.157026846313123 55.8269
22.179714188221507 55.0699
22.202402410582668 54.1332
22.22509151438863 52.5586
22.24795876962584 51.2504
22.270649646204486 50.3576
22.293341407213727 49.7338
22.316034053646906 49.218999999999994
22.338904883215342 48.8767
22.36159931041458 48.8437
22.38429462602756 48.7746
22.40699083104897 48.6209
22.429865251039757 48.7563
22.452563244831367 48.8106
22.47526213102522 48.6847
22.49813925616515 48.5893
22.520839937143307 48.42100000000001
22.543541513520587 48.2461
22.56624398629403 48.0475
22.589124730075895 48.0976
22.611829005656723 48.2538
22.63453418063466 48.1345
22.657240256008077 48.3952
22.680124634582935 48.4935
22.70283252079775 48.8111
22.725541310413075 48.9029
22.74825100442868 49.0696
22.771139033969575 49.5422
22.79385054687155 49.8571
22.81656296718292 50.3771
22.83927629590484 51.0469
22.862167992606945 52.1124
22.88488314827121 53.2125
22.907599215359284 54.4778
22.93031619487366 55.6694
22.953211574954405 56.5852
22.975930389478226 57.5994
22.998650119445763 57.9574
23.02137076586092 57.2285
23.044269845560063 56.1744
23.06699233506288 54.5149
23.089715744034912 52.78
23.112617610931565 51.1304
23.135342869061212 49.7825
23.158069049684816 48.9683
23.1807961538087 48.5522
23.20370174880544 48.4438
23.226430710184808 48.456
23.249160598093425 48.5462
23.271891413539002 48.2888
23.294800752937697 48.3448
23.31753343374794 48.5173
23.340267045128353 48.4792
23.36300158808808 48.8192
23.38591468821339 49.1634
23.408651104658304 49.5728
23.431388455719986 50.1625
23.454126742409 50.8529
23.4770436196085 51.7947
23.499783787914662 53.016999999999996
23.522524894889884 54.0287
23.54526694154616 55.2447
23.56818761219047 56.4059
23.59093154860734 57.2842
23.613676427751283 57.7073
23.636422250635754 56.9364
23.659346731118656 55.483000000000004
23.68209445191868 53.8141
23.704843119509587 51.5753
23.72759273490623 49.7078
23.750521041644767 48.1983
23.77327256312355 47.0774
23.796025035462787 46.4041
23.818956224555475 45.8464
23.841710609113413 45.8195
23.86446594758979 45.5619
23.887222241002014 45.4529
23.910157285144578 44.93600000000001
23.932915498962537 45.0464
23.955674670778713 44.7862
23.978434801611975 44.6132
24.001373717286125 44.46
24.024135776723917 44.3905
24.046898798245582 44.4213
24.06966278287146 44.2312
24.092605586582614 44.0603
24.115371508023642 43.7569
24.1381383956401 43.8459
24.16090625045381 43.7264
24.183852958731244 43.7127
24.206622758582608 43.6096
24.229393528706886 43.2734
24.252165270127392 43.4533
24.27511589952438 43.256
24.297889594216997 43.1966
24.32066426328598 43.1652
24.34343990775613 43.2265
24.36639447485003 42.9608
24.38917208083877 42.9189
24.41195066531332 42.9154
24.43490819850244 42.8421
24.457688750692377 42.6347
24.48047028445616 42.70399999999999
24.503252800821233 42.8709
24.526214300784112 42.7445
24.548998793132213 42.7602
24.57178427117417 42.6187
24.59457073593893 42.7204
24.617536219319863 42.5763
24.64032466834748 42.6077
24.663114107195035 42.5902
24.685904536893013 42.2773
24.708874020360852 42.2618
24.731666442613744 42.3186
24.754459858818787 42.3238
24.777254270007962 42.1487
24.80022777025625 42.0193
24.82302418230472 41.9693
24.845821592443674 42.005
24.86862000170663 41.9261
24.891597535453727 41.7033
24.914397953892728 41.9078
24.93719937456671 41.9292
24.96000179851076 41.9484
24.98298338249997 42.1886
25.00578782394922 42.1922
25.028593271784167 42.3139
25.05157790644186 42.6729
25.07438537804115 42.8764
25.097193859145293 43.0446
25.120003350792075 43.4036
25.142992065061257 43.6894
25.165803588823465 44.0494
25.18861612625217 44.2114
25.211429678386736 44.3524
25.234422489079968 44.3955
25.257238081693636 44.4854
25.280054692141732 44.6133
25.3028723214652 44.4624
25.325869245420463 44.6511
25.348688923599397 44.696000000000005
25.371509623787006 44.7586
25.394331347025812 44.5228
25.41733240110666 44.0138
25.440156181590016 43.5032
25.46298098826268 42.8786
25.48580682216873 42.3808
25.50881202326435 41.7291
25.53163992281684 41.3231
25.55446885274561 41.0785
25.577298814096377 40.7058
25.600308179121807 40.5828
25.623140214533745 40.6852
25.64597328451537 40.5385
25.66898578564376 40.3648
25.691820936010206 40.3322
25.714657124097695 40.2857
25.737494350954734 40.422
25.760511045684957 40.2869
25.783350361364224 40.3329
25.806190718969255 40.3129
25.82903211955018 40.3307
25.852053024868923 40.3999
25.874896522722523 40.2973
25.897741066713106 40.4363
25.920586657892454 40.5215
25.943611790812668 40.5223
25.966459487728237 40.4974
25.989308234998564 40.6987
26.01215803367705 41.0004
26.03518741123814 41.0314
26.05803932412957 41.185
26.080892291600094 41.1879
26.10374631470478 41.3061
26.12677995397268 41.5303
26.14963609978026 41.5971
26.172493304397875 41.1327
26.19535156888223 41.0079
26.218389486949604 40.6117
26.241249882640123 40.3042
26.26411134137826 40.1377
26.28715248187403 39.9589
26.31001607820869 39.7969
26.3328807407756 39.6193
26.35574647063438 39.8734
26.37879191991473 39.8042
26.401659795896734 39.7604
26.424528742360263 40.0343
26.447398760366614 40.1234
26.470448535598294 40.126999999999995
26.49332070826805 40.4088
26.516193955675355 40.6914
26.53906827888316 40.9023
26.562122397260108 41.15
26.584998883685063 41.4165
26.607876449110325 41.5684
26.63075509460056 41.6887
26.65381357334404 41.8119
26.67669439061878 41.9307
26.699576291163382 41.8199
26.722459276044212 41.8033
26.745522132402975 41.4567
26.768407297649354 41.3069
26.791293550442003 40.9763
26.814180891848974 40.5722
26.837248143099337 40.2978
26.860137673466657 40.2561
26.88302829566349 40.0073
26.90592001075963 39.8479
26.92899167420566 39.5929
26.951885586870763 39.2324
26.974780595655517 39.0873
26.99785558178161 38.9897
27.020752794605112 38.8493
27.043651106772522 38.6256
27.06655051935668 38.6718
27.089629948036183 38.5655
27.112531573292053 38.4918
27.135434302194138 38.6656
27.158338135817015 38.4108
27.181422024430987 38.4619
27.204328079372566 38.2299
27.22723524226965 38.2193
27.250143514198573 38.294000000000004
27.273231880156334 38.2361
27.296142382065014 38.1042
27.319053996245536 38.028
27.341966723775965 38.1121
27.365059584515222 38.2597
27.38797455070062 38.2861
27.410890633481237 38.2829
27.433807833936918 38.1278
27.456905206923906 38.1831
27.47982465472398 38.2829
27.502745223449743 38.2591
27.525666914182825 38.4337
27.548768816912457 38.3226
27.571692763693633 38.2716
27.59461783573812 38.1693
27.617723149491244 37.8789
27.640650484125285 37.7788
27.66357894728264 37.9333
27.686508540048052 37.7997
27.709618414237887 37.7353
27.732550278321757 37.6744
27.755483275279115 37.558
27.778417406196485 37.6363
27.801531858397514 37.5895
27.824468269376716 37.5964
27.847405817586786 37.4697
27.870344504116094 37.6417
27.893463551932008 37.7503
27.916404527281053 37.9401
27.93934664422563 38.059
27.962289903855886 38.0435
27.98541356491974 38.2848
28.00835912214229 38.5618
28.03130582533231 38.6844
28.054253675581805 38.8269
28.077381967556104 38.783
28.100332124185126 38.675
28.123283431160893 38.5931
28.146235889577238 38.6404
28.169368830154156 38.4368
28.192323603752033 38.2102
28.215279532083304 37.9966
28.238415973016764 37.7435
28.261374223145094 37.7565
28.284333631303806 37.4637
28.307294198589954 37.3292
28.330435319167677 37.0263
28.353398217078915 36.876999999999995
28.376362277420153 36.5454
28.39932750129032 36.4549
28.422473319286713 36.2422
28.44544088262495 36.1946
28.468409612800283 36.1293
28.491379510913497 35.9508
28.51453004413313 35.8109
28.53750229057244 35.7087
28.56047570826344 35.7059
28.583450298308804 35.6555
28.606605564586562 35.5081
28.629582511831156 35.4517
28.65256063474956 35.4637
28.675539934446338 35.486
28.698699951647605 35.4479
28.72168161743193 35.2566
28.74466446331978 35.2427
28.767648490417624 35.2533
28.790813276438353 35.3543
28.813799678527303 35.2945
28.836787265157085 35.2446
28.859955641890075 35.313
28.882945610203045 35.2949
28.905936766392035 35.254
28.928929111566863 35.2343
28.952102288520145 35.0563
28.975097024308607 35.065
28.998092952423807 34.8135
29.021090073977508 34.7271
29.04426806913204 34.6193
29.067267590245258 34.4766
29.090268308143695 34.4259
29.11327022394099 34.3886
29.13645305530891 34.218
29.159457379627167 34.2462
29.18246290519685 34.2659
29.20546963313352 34.1378
29.22865731875826 34.0278
29.25166646419296 34.1517
29.27467681535305 34.0859
29.29768837335608 34.0896
29.320880931312562 34.1199
29.34389491580634 34.1057
29.366910110507334 34.0981
29.38992651653503 34.0804
29.41312396492981 34.0673
29.436142806456754 33.9618
29.45916286268059 33.9243
29.48236399319994 33.9108
29.50538649169417 33.6394
29.528410208259935 33.6115
29.55143514402014 33.3837
29.574641196749695 33.2922
29.597668583816574 33.0872
29.6206971934585 33.0097
29.64372702680042 32.9809
29.666938019934474 32.887
29.689970313635285 32.8767
29.713003834422636 32.8998
29.73603858342347 32.7674
29.759254535188578 32.6624
29.78229175361658 32.7019
29.80533020365064 32.7075
29.82836988641968 32.6746
29.85159081507472 32.633
29.874632976355343 32.6442
29.89767637376955 32.6653
29.920721008448314 32.4716
29.9439469322847 32.4706
29.96699405457564 32.3518
29.9900424175358 32.404
30.013092022298157 32.2592
30.03632295963995 32.2417
30.059375061131373 32.347
30.08242840783577 32.391999999999996
30.105483000888153 32.3579
30.128718970092244 32.222
30.151776069006917 32.3007
30.17483441768648 32.3436
30.198074175317235 32.3215
30.221135036724256 32.3214
30.24419715131772 32.0618
30.267260520236203 32.0586
30.290505341942243 32.1981
30.313571232750228 32.2215
30.336638381310948 32.2312
30.35970678876503 32.0592
30.38295669299435 31.9269
30.40602763151657 32.001999999999995
30.429099832366074 32.0141
30.452173296685572 31.8834
30.47542830191959 31.9064
30.498504306502497 31.8319
30.521581577995562 31.9914
30.544660117543582 31.9809
30.56792024229725 31.9394
30.59100133132069 31.8557
30.614083691845494 31.8989
30.637167325018545 31.9568
30.660432587840603 31.9124
30.683518779717886 31.9057
30.70660624769615 31.9845
30.729694992924372 31.9427
30.75296541239743 31.9777
30.77605672557558 31.9828
30.799149319462742 31.9854
30.8224236211637 31.8459
30.845518789950724 31.7148
30.868615242910597 31.7033
30.891712981195973 31.6112
30.91499247215866 31.5289
30.938092794619365 31.3992
30.96119440587579 31.3289
30.984297307082752 31.2528
31.00758200598383 31.0846
31.030687500658694 31.1425
31.053794288760695 31.0512
31.076902371446767 30.8765
31.100192296997445 30.9278
31.12330298246119 30.851999999999997
31.14641496599209 30.7852
31.169528248749216 30.8648
31.19282341969534 30.7529
31.215939314557186 30.7483
31.239056512134788 30.7321
31.262175013589378 30.7049
31.28547544871168 30.6814
31.30859657161541 30.6301
31.331719001892175 30.6961
31.35484274070538 30.744
31.378148458819545 30.7073
31.401274828443725 30.7171
31.424402510106933 30.7097
31.447712205419993 30.7277
31.470842524931633 30.6125
31.493974159989783 30.5979
31.51710711176168 30.6209
31.54042212308802 30.6572
31.563557722100917 30.7058
31.586694641341655 30.5206
31.609832881979628 30.3537
31.63315322823208 30.2831
31.656294125521327 30.2269
31.679436347728515 30.0978
31.70257989602529 30.0549
31.725905596152327 29.9489
31.74905181052835 29.9955
31.772199354521323 30.0288
31.79534822930507 30.0254
31.818679302290967 29.9885
31.84183085259981 29.9644
31.864983737233473 29.9694
31.88813795736804 30.0013
31.911474422233013 29.8691
31.934631327356435 29.8968
31.9577895715215 29.8438
31.980949155906522 29.897
32.004291031706956 29.8079
32.027453310562606 29.6656
32.05061693318573 29.7164
32.07396288236386 29.6848
32.09712920658542 29.5621
32.12029687812702 29.4206
32.14346589817093 29.4841
32.166817291729984 29.3758
32.18998902288583 29.2938
32.21316210610336 29.1664
32.23633654256711 29.1106
32.259693399663725 29.1492
32.282870556771144 29.046999999999997
32.30604907069099 29.0187
32.329228942610065 28.9419
32.35259128243769 28.7629
32.375773884550505 28.811
32.398957848235646 28.8458
32.422143174682176 28.7854
32.445511016471215 28.5625
32.468699082679954 28.6446
32.49188851523011 28.5571
32.51507931531304 28.4305
32.538452678331 28.5208
32.56164622776311 28.3842
32.58484114831493 28.3431
32.60803744118015 28.4218
32.631416344731896 28.2784
32.654615396551876 28.3086
32.67781582427913 28.2721
32.701198898634416 28.2554
32.72440209253756 28.1689
32.747606665947124 28.0529
32.77081262006088 27.9937
32.79420126883317 28.0678
32.81740999876112 27.9915
32.840620112999424 27.9776
32.86383161274818 27.8742
32.88722585534586 27.8723
32.91044014056596 27.9685
32.933655814909734 27.7746
32.95687287957963 27.8228
32.98027273544904 27.718000000000004
33.00349259526636 27.7069
33.026713849030116 27.7108
33.04993649794511 27.6936
33.073341986570746 27.6764
33.09656744032826 27.5978
33.11979429286444 27.6142
33.14302254538647 27.6624
33.166433686291185 27.5946
33.18966475336992 27.5563
33.212897224069096 27.463
33.23613109959831 27.4762
33.259547912343415 27.439
33.2827846121627 27.3962
33.306022720453775 27.4122
33.32926223842861 27.3157
33.352684742614166 27.3878
33.37592709463173 27.2965
33.399170859982064 27.1075
33.422597648419426 27.0583
33.44584425514446 26.9801
33.46909227885668 26.9375
33.4923417207723 26.8389
33.51577423505344 26.8958
33.539026528130385 26.7511
33.56228024307245 26.7296
33.585535381098246 26.6168
33.60897364093058 26.6824
33.63223163992385 26.6074
33.6554910656699 26.524
33.678751919389796 26.5657
33.702195944520106 26.4457
33.72545966903325 26.4934
33.74872482519663 26.4399
33.771991414233746 26.4064
33.79544122444841 26.3633
33.81871069412428 26.2288
33.84198160035767 26.1856
33.86525394437455 26.2142
33.88870955949969 26.141
33.911984794020626 26.2002
33.93526147001624 26.1614
33.958539588715006 26.0002
33.98200102861669 26.0055
34.0052820477047 25.9864
34.02856451319451 25.9826
34.05203033759056 25.8409
34.07531571090147 25.7987
34.09860253431845 25.8923
34.121890809074316 25.7576
34.145362493118924 25.7992
34.16865368561615 25.6919
34.191946333164054 25.6993
34.21524043699793 25.6138
34.23871800066799 25.6687
34.26201503218366 25.5205
34.28531352370466 25.4608
34.30861347646881 25.4583
34.33209693978188 25.4703
34.3553998301885 25.4136
34.378704185565205 25.3044
34.402010007152356 25.3072
34.42549939016683 25.3206
34.44880815937748 25.1697
34.472118398533134 25.1212
34.49543010887669 25.0421
34.51892543169198 24.9708
34.54224009966052 25.0231
34.56555624255917 25.0586
34.58887386163339 24.9687
34.61237514439016 24.8766
34.6356957311114 24.7742
34.65901779775809 24.7934
34.68252356662995 24.8071
34.705848608458616 24.774
34.72917513396849 24.7275
34.75250314440949 24.71
34.77601490857862 24.5968
34.799345904259795 24.4802
34.82267838863559 24.5589
34.846012362958525 24.6437
34.869530142679984 24.5191
34.89286711232212 24.4876
34.91620557568269 24.5052
34.93954553401677 24.4368
34.9630693495876 24.2979
34.986412313340814 24.3977
35.00975677584668 24.4504
35.033102738362956 24.3073
35.05663261012228 24.252
35.0799815881786 24.2889
35.10333207003229 24.188000000000002
35.12668405694369 24.2034
35.150220005273056 24.1234
35.17357501786656 24.0537
35.19693153931268 24.0688
35.220289570874385 24.0454
35.24383161619786 24.101999999999997
35.267192683604904 24.0509
35.290555264930376 24.0107
35.314101899412165 23.993000000000002
35.33746752422433 23.8977
35.36083466676374 23.9721
35.38420332829803 23.9074
35.407756095629054 23.9591
35.43112781085063 23.9582
35.45450104888391 23.7935
35.477875810999194 23.8281
35.50143473172161 23.7362
35.52481255774625 23.7435
35.54819191167777 23.6525
35.57157279478914 23.5999
35.595137889488406 23.6056
35.61852184675279 23.549
35.641907337029984 23.5641
35.665294361595684 23.5702
35.68886565090076 23.4767
35.7122557598848 23.4313
35.73564740699838 23.3598
35.759040593519934 23.3473
35.78261809810353 23.3207
35.80601437933051 23.2235
35.829412203814705 23.1603
35.85281157283719 23.0943
35.876395313415884 23.1668
35.8997977874528 23.0986
35.92320180988546 23.1056
35.946790244133936 22.9967
35.97019737933222 23.0391
35.993606066789866 23.0117
36.01701630779276 22.8953
36.04061101440684 22.8601
36.06402437852291 22.9131
36.08743930005611 22.8652
36.1108557802951 22.8263
36.13445678011326 22.8142
36.15787639383515 22.738000000000003
36.18129757014299 22.7077
36.20472031032821 22.625
36.22832762423364 22.5511
36.25175350829375 22.6123
36.275180960119776 22.5613
36.298609981005924 22.5191
36.32222362992669 22.5266
36.34565580510207 22.4487
36.36908955323448 22.4934
36.39252487562093 22.3201
36.416144880530226 22.3177
36.43958336764275 22.2528
36.463023432914625 22.3442
36.486465077645676 22.2624
36.51009145956204 22.2949
36.53353627947859 22.2577
36.55698268276811 22.2734
36.58043067073321 22.1169
36.60406345072071 22.0688
36.62751462435344 22.0727
36.65096738658405 22.0379
36.67460498210655 22.0142
36.69806093788647 22.0268
36.72151848619297 21.9084
36.744977628333636 21.953000000000003
36.76862165890998 21.8968
36.79208400512205 21.8563
36.81554794910557 21.9294
36.83901349217101 21.799
36.862663978991606 21.7148
36.88613273667352 21.6908
36.90960309738324 21.625
36.933075062434064 21.6784
36.95673202673572 21.6354
36.98020721697122 21.5145
37.003684015502365 21.4637
37.027162423645365 21.4938
37.050825886711465 21.4849
37.07430753063053 21.412
37.09779078812467 21.4239
37.121275660513014 21.4188
37.144945643673694 21.296999999999997
37.16843376245278 21.2705
37.19192350009803 21.2687
37.215414857931435 21.3116
37.239091382563885 21.1414
37.262585997426164 21.0618
37.28608223645736 21.1311
37.309763684451696 21.0424
37.33326318851098 21.0032
37.356764320726555 21.0209
37.380267082425526 21.0514
37.40395510942588 21.0104
37.42746114683234 20.936
37.45096881771841 20.9665
37.474478123414166 20.8477
37.49817275092816 20.7853
37.52168534303452 20.8286
37.54519957395567 20.7677
37.568715445024665 20.7463
37.592416694607714 20.6724
37.61593586281424 20.7183
37.63945667518264 20.7301
37.66297913304891 20.6288
37.68668702630454 20.6128
37.710212792059274 20.5463
37.733740207334854 20.5642
37.757269273470364 20.4519
37.780983832050374 20.4487
37.80451621684926 20.4497
37.82805025654007 20.3748
37.851585952464795 20.3399
37.8753071980695 20.3455
37.89884622345676 20.2707
37.92238690911902 20.2235
37.94611318753442 20.1885
37.969657210779765 20.1701
37.99320289834801 20.1504
38.016750251586465 20.0919
38.04048325513017 20.098
38.06403395679343 20.0522
38.087586328183946 20.0037
38.11114037065203 20.0605
38.13488012115898 19.9938
38.1584375229181 19.945999999999998
38.181996599821 19.9202
38.205557353221124 19.8653
38.229303872575656 19.7951
38.2528679961576 19.7434
38.27643380031219 19.7844
38.30000128639589 19.727
38.32375459653193 19.7264
38.34732546371299 19.7005
38.37089801690786 19.5741
38.39447225747609 19.5869
38.418232380377425 19.6043
38.441810012983396 19.5011
38.46538933705673 19.4969
38.488970353960084 19.5023
38.51273731166058 19.4348
38.536321731567014 19.4254
38.55990784840681 19.3785
38.58367995004091 19.3394
38.60726947812959 19.2414
38.63086070726198 19.3024
38.654453638806274 19.3203
38.678232613930824 19.284000000000002
38.70182896773327 19.1646
38.72542702806741 19.1237
38.7490267963045 19.0804
38.77281266709232 19.1248
38.79641586862214 19.1232
38.8200207821842 19.0148
38.843627409152944 19.0838
38.86742019782782 19.0406
38.891030269149255 18.994
38.914642058016156 18.9384
38.938255565806124 18.9043
38.96205529464307 18.9261
38.98567225787121 18.9112
39.00929094417078 18.8822
39.03291135492255 18.8214
39.05671804624804 18.7465
39.080341923549106 18.7064
39.103967529460334 18.7203
39.127594865365744 18.6239
39.15140854155791 18.6213
39.17503935514948 18.657
39.19867190290282 18.5372
39.22249083587951 18.5955
39.24612686969409 18.5681
39.269764641845306 18.4934
39.293404153722804 18.406
39.317230110864074 18.41
39.34087311998506 18.3828
39.36451787301696 18.3327
39.388164371352595 18.33
39.41199737518003 18.2951
39.43564738196752 18.2745
39.45929913825317 18.239
39.48295264543308 18.2152
39.506792718520884 18.117
39.530449745387216 18.221
39.55410852735203 18.1365
39.57776906581474 18.1342
39.60161623079 18.0985
39.625280300200025 18.0145
39.64894613032202 18.0259
39.67261372255866 17.9846
39.6964680021016 17.9978
39.72013913657293 17.926
39.74381203738292 17.9017
39.76748670593756 17.9233
39.79134812278169 17.8439
39.81502634488497 17.815
39.83870633896685 17.8785
39.862388106436654 17.7915
39.88625668336918 17.7442
39.90994201572829 17.7434
39.933629125719285 17.6601
39.957503091207826 17.6622
39.9811937746168 17.6868
40.00488623990914 17.6209
40.02858048850006 17.5506
40.05246165409549 17.5524
40.076159487492085 17.4573
40.099859108448875 17.4542
40.123560518384345 17.4748
40.1474489070226 17.4811
40.171153913178564 17.3799
40.194860712584955 17.3904
40.2185693066637 17.3836
40.242464941335314 17.3086
40.26617714307655 17.3018
40.289891143772046 17.3016
40.3136069448471 17.2283
40.33750984859743 17.2331
40.3612292688043 17.2333
40.3849504936829 17.1608
40.40867352466194 17.1837
40.43258372059144 17.0728
40.45631038219906 17.0959
40.48003885420956 17.0098
40.503769138055105 17.0916
40.52768664931955 17.0652
40.55142057531802 17.0501
40.57515631746428 16.9124
40.599079334038514 16.9003
40.62281872700477 16.8875
40.64655994043941 16.8443
40.67030297578061 16.8172
40.69423334835778 16.8216
40.71798004609188 16.7741
40.74172857006355 16.7671
40.76547892171441 16.7496
40.7894166736039 16.6929
40.813170699248566 16.6273
40.83692655691388 16.5689
40.86068424804498 16.6485
40.884629402612525 16.6147
40.908390779366385 16.5961
40.932153993938 16.5503
40.95591904777605 16.5405
40.979871628443995 16.5429
41.003640379561936 16.4982
41.02741097430883 16.5002
41.05118341413683 16.4708
41.075143444384416 16.438
41.098919593177826 16.3847
41.1226975914255 16.328
41.14647744058318 16.3499
41.170444943946755 16.2947
41.19422851378379 16.2225
41.218013938914645 16.2511
41.24198706625173 16.1685
41.26577622087193 16.1516
41.289567235177785 16.177
41.31336011063129 16.1078
41.337340752422875 16.0776
41.361137369129835 16.0457
41.38493585138705 16.0431
41.40873620066004 16.0136
41.43272438060107 15.9655
41.45652848292052 15.9259
41.48033445666918 15.911
41.50414230331616 15.9086
41.528138045159764 15.9014
41.551949656675205 15.8193
41.575763145513235 15.8459
41.59957851314666 15.8168
41.62358184070442 15.7829
41.64740098505737 15.7264
41.6712220126409 15.7209
41.69504492493139 15.6907
41.71905586207357 15.6622
41.74288256296395 15.6267
41.766711153007456 15.610999999999999
41.79054163368412 15.5483
41.814560204340054 15.5284
41.838394485526365 15.5812
41.86223066180303 15.4947
41.88625497706819 15.5508
41.910094962812 15.4278
41.93393684811168 15.4527
41.95778063445365 15.3374
41.981812625263366 15.3604
42.00566023303407 15.3619
42.029509746323676 15.2878
42.05336116662236 15.3242
42.077400857069705 15.253
42.10125611078846 15.2514
42.12511327600405 15.2133
42.14897235421036 15.1529
42.173019768448455 15.1344
42.19688269209613 15.1001
42.22074753323349 15.0842
42.24461429335818 15.0603
42.268669455600495 15.0637
42.292540073217886 15.0957
42.31641261433284 15.019
42.34028708044675 14.9777
42.36435001496739 14.982999999999999
42.38822835065557 15.0145
42.41210861586426 14.901
42.4359908120986 14.9707
42.46006154323262 14.8665
42.48394762115317 14.8115
42.507835634632315 14.8241
42.531912233047436 14.8025
42.55580413732265 14.7834
42.579697981698 14.7689
42.60359376768525 14.7086
42.62767820545945 14.6683
42.65157789440821 14.7144
42.67547952952185 14.6472
42.699383112316 14.6404
42.72347541395347 14.5788
42.74738291190531 14.5622
42.771292362102166 14.6057
42.795203766063516 14.5122
42.819303956130405 14.4585
42.843219287476536 14.4649
42.86713657716324 14.5057
42.89105582671383 14.4359
42.91516392983864 14.4084
42.939087119032166 14.3658
42.963012272677304 14.3325
42.98693939230129 14.2635
43.01105543317513 14.2958
43.034986504731386 14.2878
43.05891954686589 14.2727
43.08285456110972 14.2586
43.10697856448665 14.2327
43.130917542983475 14.1967
43.15485849820081 14.2005
43.17880143167367 14.1817
43.20293342237094 14.1307
43.226880332449 14.1129
43.25082922540554 14.1073
43.27496722682525 14.011
43.29892010567796 13.9673
43.32287497204102 14.0078
43.34683182745632 13.9514
43.370977859791836 13.9735
43.39493871351105 13.9041
43.41890156092628 13.9189
43.44286640358341 13.9166
43.46702049182749 13.8598
43.49098934522816 13.8361
43.51496019852649 13.8167
43.5389330532723 13.8127
43.56309522248204 13.7563
43.58707210044314 13.7269
43.61105098451946 13.6548
43.63503187626491 13.687999999999999
43.659202151562134 13.6479
43.68318707902681 13.6478
43.70717401884041 13.6376
43.731162972560874 13.5811
43.75534137913236 13.5232
43.779334381108384 13.5332
43.803329401683186 13.5078
43.82732644241872 13.5293
43.8515130055166 13.4852
43.87551410707659 13.5223
43.89951723350145 13.4412
43.923709934595614 13.3566
43.94771713129917 13.3409
43.97172635758096 13.3828
43.99573761501002 13.3224
44.0199385169922 13.2975
44.04395385732619 13.2625
44.067971233533086 13.2567
44.09199064718605 13.2832
44.11619977548961 13.1767
44.14022328470671 13.1801
44.16424883610785 13.2101
44.18827643127035 13.18
44.21249381139513 13.1128
44.236525514814076 13.0816
44.26055926674478 13.0319
44.28459506876863 13.0739
44.3088207262813 13.0269
44.33286064928722 13.0303
44.35690262714919 13.0448
44.38094666145278 12.9515
44.4051806219871 12.9341
44.42922879003185 12.9101
44.45327901929361 12.9577
44.477331311362136 12.8787
44.501573600619416 12.8582
44.525630039221795 12.8117
44.54968854541895 12.7801
44.573937102200176 12.7879
44.5979997645541 12.7984
44.622064499300315 12.7933
44.64613130803592 12.7611
44.67038823869318 12.7447
44.69445921643748 12.6748
44.718532272981385 12.6124
44.742607409926194 12.6351
44.76687274034801 12.645
44.79095205918753 12.5911
44.81503346325094 12.5672
44.839116954143876 12.5452
44.86339071028742 12.5281
44.88747839599524 12.4944
44.91156817336837 12.4464
44.93566004401666 12.4226
44.959942251908146 12.407
44.984038330325966 12.4043
45.00813650686762 12.3494
45.03223678314731 12.3524
45.05652746888232 12.3727
45.08063196592069 12.2839
45.104738567558705 12.3139
45.128847275414856 12.2817
45.15314646515866 12.2464
45.17725940679741 12.2196
45.20137445952892 12.1965
45.22568004865265 12.2013
45.24979934496396 12.192
45.27392075725247 12.1622
45.29804428714431 12.1666
45.322358426247604 12.0633
45.346486212804315 12.0635
45.370616121861914 12.0364
45.39474815505086 12.027000000000001
45.41907087049246 12.0121
45.4432071734666 11.9911
45.46734560548283 11.9436
45.49148616817604 11.9299
45.51581748638564 11.9222
45.5399623320197 11.911
45.56410931325473 11.9005
45.58825843173002 11.9188
45.61259837920865 11.8797
45.636751793816 11.8802
45.66090735060093 11.8333
45.68506505120716 11.7494
45.7094136545275 11.7469
45.73357566449271 11.7351
45.75773982322992 11.6982
45.78190613238733 11.7088
45.806263418194064 11.6703
45.83043404997326 11.71
45.85460683713677 11.681
45.87897065658495 11.6091
45.90314777634752 11.5855
45.92732705646868 11.5832
45.9515084986045 11.5373
45.97588104735473 11.5527
46.00006683541565 11.5245
46.02425479047904 11.5082
46.04844491420549 11.499
46.0728262191024 11.4231
46.09702070211635 11.4491
46.12121735879483 11.4295
46.14541619080294 11.407
46.169806278764455 11.4166
46.194009483459034 11.3765
46.21821486849841 11.3484
46.24242243555223 11.2807
46.266821333570014 11.2595
46.29103328674601 11.2785
46.31524742696538 11.2997
46.33946375590237 11.2305
46.36387149104216 11.2388
46.38809221957392 11.1989
46.41231514186606 11.1448
46.436540259597464 11.1356
46.460956858999374 11.1554
46.48518638983522 11.0962
46.509418121166966 11.0801
46.533652054678114 11.0506
46.55807754555709 11.0798
46.58231590571962 11.0536
46.60655647313217 10.9973
46.630988654873654 10.9479
46.655233659129024 10.9602
46.67948087571551 10.9564
46.70373030632484 10.9299
46.72817142736393 10.9224
46.752425308428684 10.8993
46.77668140861147 10.9171
46.80093972960865 10.8607
46.82538981736788 10.8202
46.849652602470904 10.7999
46.87391761349769 10.784
46.8981848521493 10.8033
46.9226439341274 10.7638
46.946915650573224 10.6694
46.97118959976749 10.6981
46.99546578341598 10.6849
47.019933887188216 10.7325
47.04421456235744 10.6927
47.06849747711879 10.6132
47.09278263318286 10.5866
47.11725978640143 10.5914
47.14154944775105 10.5672
47.165841355555656 10.5151
47.1901355115306 10.5272
47.214621741924994 10.5571
47.23892041698887 10.4805
47.26322134538975 10.4915
47.28771440635075 10.4673
47.31201986422527 10.4517
47.33632758061436 10.414000000000001
47.360637557241866 10.3677
47.38513974410611 10.3466
47.40945426407847 10.3554
47.43377104948137 10.314
47.45809010204344 10.3027
47.48260144275502 10.2971
47.506925052572285 10.255
47.53125093475548 10.2917
47.55557909103813 10.2462
47.58009961361992 10.19
47.60443234110732 10.1871
47.62876734791564 10.1784
47.65310463578333 10.1955
47.6776343683373 10.1457
47.7019762413987 10.1355
47.72632040075572 10.0957
47.75066684815169 10.0992
47.77520581885936 10.0577
47.799556865477655 10.04
47.823910205386 10.0368
47.84826584033272 10.0168
47.87281407745551 9.98473
47.89717432569297 9.994539999999999
47.92153687423484 9.97152
47.94609208429692 9.94806
47.97045925671401 9.89705
47.99482873471275 9.89611
48.01920052005013 9.850430000000001
48.04376504619224 9.83797
48.068141469543484 9.88762
48.09252020552573 9.845
48.11690125590099 9.83854
48.1414751266064 9.8035
48.16586082917454 9.78957
48.19024885144316 9.76396
48.2146391951793 9.750689999999999
48.239222439012764 9.76623
48.26361744916137 9.71026
48.28801478610016 9.69952
48.31241445160131 9.73216
48.337007097209366 9.688369999999999
48.36141144338331 9.682210000000001
48.38581812345755 9.62202
48.41022713920929 9.584
48.434829215320704 9.57865
48.45924292604658 9.60874
48.48365897780325 9.567910000000001
48.50807737237308 9.54391
48.532688907799276 9.51332
48.55711201168574 9.50644
48.581537463754074 9.50954
48.60615611725119 9.48287
48.63058628942721 9.47259
48.65501881516546 9.4444
48.6794536962573 9.42274
48.70408185970339 9.36993
48.72852147531801 9.379010000000001
48.75296345168211 9.360330000000001
48.77740779059232 9.36063
48.80204549302823 9.377839999999999
48.82649458091802 9.32356
48.85094603676547 9.28942
48.87539986237231 9.27701
48.90004713292306 9.26074
48.92450572200832 9.29043
48.94896668628025 9.21722
48.97343002754588 9.23408
48.99808689542115 9.22022
49.02255501470614 9.21683
49.04702551642794 9.1579
49.0714984023988 9.14001
49.096164896893235 9.117360000000001
49.120642575466796 9.12315
49.145122643748394 9.082360000000001
49.16960510355558 9.05511
49.19428125404938 9.06056
49.2187685210852 9.04693
49.243258185121555 9.0566
49.26794160167084 8.9974
49.2924360839405 8.97798
49.31693296869764 8.97515
49.34143225776915 8.95636
49.36612538195438 8.94598
49.39062950396021 8.95003
49.41513603578346 8.87653
49.4396449792564 8.90691
49.46434784069503 8.87605
49.488861631846454 8.852780000000001
49.513377840166804 8.80206
49.537896467493745 8.78182
49.56260909589029 8.79309
49.587132585683285 8.785739999999999
49.611658500018365 8.75019
49.636186840738596 8.75335
49.66090926588511 8.765369999999999
49.685442483902584 8.66965
49.70997813385706 8.68321
49.734516217597076 8.71453
49.75924846937352 8.69351
49.7837914452858 8.659410000000001
49.80833686055187 8.64461
49.83288471702571 8.607489999999999
49.85762682540054 8.581710000000001
49.882179588965734 8.57034
49.9067347993235 8.53514
49.93129245833333 8.55182
49.95604445336378 8.53272
49.98060703442832 8.48836
50.005172069746266 8.50223
50.02993150438364 8.5159
50.05450147301533 8.50245
50.07907390151433 8.4436
50.10364879174981 8.42884
50.12841816587289 8.40753
50.1529980044635 8.40184
50.17758031042124 8.37423
50.20216508562089 8.38294
50.22694442953363 8.33003
50.25153416817468 8.327739999999999
50.27612638170508 8.35299
50.300721072005196 8.27019
50.325510416102105 8.27688
50.350110084975064 8.27587
50.37471223628208 8.29027
50.39931687190919 8.24653
50.424116246675766 8.201319999999999
50.44872587605249 8.21075
50.47333799543065 8.19525
50.49795260670191 8.1669
50.52276204271512 8.13913
50.54738166295838 8.11675
50.57200378079314 8.12983
50.596628398116835 8.11298
50.62144792604559 8.10367
50.646077567609396 8.08136
50.670709714377715 8.08361
50.69553683636198 8.019739999999999
50.72017401885922 8.02935
50.7448137122895 8.036710000000001
50.76945591856022 8.04096
50.79429318636823 8.01914
50.818940443716784 7.99447
50.84359021965163 7.9645399999999995
50.868242516085964 7.9413
50.893089960641895 7.9052
50.917747323549435 7.9031199999999995
50.94240721271973 7.92023
50.96706963007175 7.87502
50.99192728239342 7.854439999999999
51.01659478166073 7.881660000000001
51.04126481489051 7.862410000000001
51.06593738400761 7.82684
51.090805275207074 7.83122
51.11548294172845 7.829460000000001
51.14016314993547 7.7695
51.164845901758845 7.780289999999999
51.18972406304274 7.7294
51.21441192780656 7.71328
51.23910234200271 7.725169999999999
51.2637953075678 7.71776
51.288683770237945 7.67393
51.31338186432707 7.63572
51.33808251561888 7.630380000000001
51.362978729967345 7.62886
51.387684521509755 7.63783
51.41239287610203 7.59404
51.437103795691165 7.56525
51.46201036644977 7.5624899999999995
51.486726441956634 7.52787
51.51144508832545 7.565239999999999
51.536166307509156 7.531510000000001
51.56108326624387 7.52585
51.58580965706056 7.50661
51.61053862657523 7.46478
51.635270176746864 7.437180000000001
51.66019755512065 7.445760000000001
51.68493429268881 7.44223
51.70967361681515 7.42287
51.73441552946465 7.39832
51.759353359237934 7.41878
51.7841004750961 7.399839999999999
51.80885018539685 7.36527
51.833602492111254 7.372000000000001
51.8585508051424 7.34455
51.883308330926425 7.3226
51.90806845906181 7.27923
51.932831191525715 7.2762199999999995
51.95779001977161 7.25824
51.98255798721516 7.2448
52.00732856494335 7.229089999999999
52.03229530577543 7.16765
52.057071130455945 7.194039999999999
52.081849571391054 7.13743
52.106630630568695 7.15152
52.13160794279417 7.145510000000001
52.15639426492067 7.14427
52.18118321127822 7.13094
52.205974783860896 7.10486
52.23096269971011 7.08236
52.255759551287994 7.0682
52.280559035098186 7.04932
52.30536115314103 7.053389999999999
52.33035970494467 7.043089999999999
52.35516711807904 7.036989999999999
52.37997717147198 7.0251399999999995
52.40478986713005 7.03365
52.42979908731974 6.9907
52.454617094216 6.987939999999999
52.47943774942214 6.968960000000001
52.50426105495102 6.9411
52.529280976059844 6.892860000000001
52.554109609024096 6.9090300000000004
52.57894089837482 6.88928
52.60377484613117 6.91285
52.62880550079408 6.86901
52.65364479223379 6.8857800000000005
52.67848674816189 6.8144800000000005
52.70352547971946 6.82971
52.72837279155837 6.85468
52.753222773982785 6.795389999999999
52.778075429022984 6.786110000000001
52.80312495150885 6.78428
52.827982978797436 6.7352
52.85284368481815 6.711989999999999
52.87770707160767 6.743469999999999
52.90276741793998 6.721439999999999
52.92763619336701 6.69279
52.952507655698504 6.70582
52.977381806977576 6.6158600000000005
53.00245301017842 6.63852
53.02733256653592 6.6406600000000005
53.052214817996074 6.6511
53.077099766608484 6.60393
53.102181859804446 6.5968800000000005
53.127072229988265 6.58195
53.15196530349892 6.604260000000001
53.17686108239249 6.551769999999999
53.20195409881522 6.509119999999999
53.22685531582556 6.544919999999999
53.25175924441303 6.50023
53.27666588664027 6.49659
53.30176985962693 6.49443
53.3266819565689 6.4526
53.35159677336455 6.4720699999999995
53.376514312083096 6.41737
53.40162927507703 6.4206
53.42655228516116 6.446680000000001
53.45147802340193 6.391380000000001
53.47660125628886 6.3764199999999995
53.50153247842639 6.36897
53.52646643496923 6.34685
53.55140312799818 6.34755
53.576537409691696 6.34772
53.60147960336152 6.30564
53.626424539786164 6.35989
53.65137222105307 6.3288400000000005
53.67651758529126 6.29782
53.70147078399681 6.28322
53.72642673383343 6.2529
53.75138543689533 6.23131
53.776541917524526 6.25058
53.801506154876755 6.22511
53.826473151763246 6.214169999999999
53.851442910284916 6.18705
53.87661054126026 6.19623
53.9015858509782 6.1785
53.92656392866066 6.14608
53.95154477641532 6.131130000000001
53.976723591801296 6.12954
54.00171000771266 6.129569999999999
54.02669920004598 6.10639
54.051691170915745 6.056030000000001
54.076881204886796 6.05692
54.101878760928514 6.05361
54.12687910187696 6.01513
54.152077577768296 6.04796
54.1770835166946 6.02926
54.20209224691339 5.9899
54.22710377055121 5.9613
54.25231352511594 5.995080000000001
54.27733066384342 5.9396
54.30235060239643 5.96282
54.32737334290836 5.9278699999999995
54.35259441062629 5.89329
54.377622783395324 5.89259
54.40265396455061 5.885330000000001
54.42768795623251 5.82911
54.45292037169559 5.79094
54.477960012857906 5.77264
54.50300247099511 5.75218
54.52804774825457 5.750719999999999
54.55329154616743 5.7772
54.57834249018678 5.73557
54.6033962597977 5.69757
54.6284528571545 5.7655
54.653708072335164 5.7303
54.67877035378786 5.71544
54.70383546947698 5.66067
54.72890342156389 5.602180000000001
54.7541700889442 5.58864
54.77924374251975 5.57247
54.8043202390049 5.53754
54.82959552413022 5.5258199999999995
54.8546777351945 5.53431
54.87976279569621 5.4783599999999995
54.90485070780914 5.49089
54.930137506558005 5.407
54.95523115074295 5.45385
54.98032765308844 5.46266
55.005427015775496 5.4131800000000005
55.03072536339621 5.4166
55.05583047570572 5.36602
55.080938454927676 5.30704
55.10604930325027 5.336930000000001
55.131359235107396 5.36049
55.15647585066083 5.27669
55.181595341907496 5.2626800000000005
55.20671771104285 5.206169999999999
55.232039262617704 5.2157
55.25716741665048 5.21657
55.28229845518636 5.14275
55.30743238042802 5.10538
55.33276558731939 5.09169
55.357905315183636 5.121980000000001
55.383047936390035 5.08784
55.40819345314859 5.04588
55.433538351073295 5.0384
55.458689688238415 5.02628
55.483843927614096 5.00269
55.509197623043605 4.9798
55.53435769621134 4.90175
55.55952067826466 4.9028
55.5846865714265 4.857069999999999
55.61005202069737 4.89366
55.63522376553902 4.8697099999999995
55.66039842818645 4.83666
55.68557601087004 4.83325
55.7109532500271 4.77024
55.73613670233794 4.81769
