TT I
1.2716486653135266 7.384060000000001
1.2939594142134223 7.11362
1.3162702121660406 6.955260000000001
1.3385810600174564 6.75615
1.3608919586137629 5.98183
1.383202908801069 6.459280000000001
1.405513911425503 6.2649099999999995
1.4278249673332093 6.16331
1.4501343378461518 5.37822
1.4724455028545926 5.64661
1.4947567236847858 5.95402
1.517068001182951 5.91394
1.5393793361953272 6.03498
1.5616907295681737 5.91611
1.5840021821477681 5.35958
1.60631369478041 4.93559
1.6286252683124185 4.8421199999999995
1.6509369035901333 5.49102
1.6732468618895553 4.98608
1.695558623192809 5.1275
1.7178704487808514 5.35979
1.7401823395001077 5.07506
1.7625012545597203 4.89935
1.7848028405262486 5.16944
1.8071218901122095 4.72032
1.8294236121921872 4.6703
1.8517427996910911 5.00076
1.8740620574440425 5.22891
1.8963639900671978 5.03684
1.9186833908139995 4.80999
1.9409854680117449 5.63668
1.9633050151394713 5.11849
1.9856246367570705 4.84815
2.0079269371922672 5.00535
2.03024671027244 4.7906
2.0525491637446027 4.65215
2.074869091674931 5.09475
2.097171701569106 4.81842
2.1194917877373847 4.99768
2.141811954326636 4.94039
2.164114805233074 5.185569999999999
2.186435135143035 6.569139999999999
2.208738150935709 16.6214
2.231058647554722 36.1309
2.2533792288321184 27.4166
2.275682498336085 12.7125
2.298003251406138 7.14735
2.3203066942619714 5.45012
2.3426276225136022 5.38299
2.3649486396617507 5.81647
2.387252348930071 6.573169999999999
2.4095735463442893 5.88249
2.4318774374315884 5.714519999999999
2.4541988185014043 6.168830000000001
2.476502894794693 6.659839999999999
2.498824462909887 6.86873
2.521146125856138 6.600160000000001
2.5434504863470337 6.95689
2.5657723414244717 7.18134
2.588076895590662 8.0493
2.610398946189713 8.582130000000001
2.6327210958598384 8.19999
2.6550259469304716 7.608410000000001
2.6773482972090137 8.27203
2.6996533504259 8.33418
2.7219759047039602 8.29906
2.744298562293959 8.08825
2.7666039251246595 8.19487
2.7889267918020164 8.899980000000001
2.8112323652516555 8.0295
2.833555444408179 8.66924
2.8558786311183852 7.8482899999999995
2.8781845268938557 8.92605
2.9005079311721484 9.17453
2.9228140460410397 9.11219
2.9451376712799635 8.77603
2.967444008632326 9.88366
2.9897678582247247 10.3612
3.0120918213106695 10.4365
3.0343984987899373 11.0336
3.0567226913198637 11.2491
3.079029599759726 12.1571
3.101354025127254 11.9663
3.123678568232338 12.0334
3.145985829517914 12.9903
3.16831061055229 13.4755
3.1906181112775593 14.2803
3.212943133635653 14.5758
3.2352682779763207 15.0348
3.2575761442691227 15.2545
3.2799015350264273 15.8273
3.302209649240067 16.5223
3.3245352898092655 16.8532
3.3468436553365257 17.2235
3.369169549113219 17.857
3.3914955708171384 18.8308
3.413804319727358 18.8907
3.4361305997334863 19.2936
3.4584396084414553 20.1135
3.4807661501462652 20.5917
3.503092824025881 21.2901
3.5254022288463154 21.5069
3.5477291695206588 22.0659
3.5700388426251948 22.9822
3.5923660534916446 24.5658
3.6146934007816114 43.0788
3.637003482731501 110.331
3.6593311053109985 125.62899999999999
3.681641464033634 68.9843
3.7039693653009733 32.9866
3.726297407241705 26.5896
3.7486081875460804 26.1533
3.7709365132734978 26.1224
3.793247578841633 26.5633
3.8155761917550093 26.576
3.8378875459837216 27.1004
3.8602164494827234 28.0898
3.882545499606844 28.9056
3.9048572932539183 29.3098
3.9271866390645718 29.3725
3.9494987298666713 29.9949
3.971828374764527 30.4845
3.9941581705403255 31.2137
4.016470713506008 31.9979
4.038800813471445 32.3138
4.061113662089144 32.8774
4.0834440696459176 33.7282
4.105774632334751 34.2989
4.128087945865126 35.4992
4.150418821249301 36.42
4.172732448931298 37.3552
4.195063640413578 39.1345
4.2173775856475215 44.6517
4.239709096631102 83.7689
4.262040768704612 299.411
4.284355196706267 415.773
4.306687193387355 264.44599999999997
4.329001947444346 95.4652
4.35133427213731 50.8058
4.373666762177566 46.0325
4.395982011761091 45.4439
4.418314834921175 46.4645
4.44063041906622 56.31399999999999
4.4629635787515625 70.4183
4.4852969080429785 70.4032
4.5076130004776225 56.4351
4.529946671403969 50.8587
4.552263106909177 50.1793
4.574597122877047 51.4981
4.596931312711224 52.7571
4.619248269273446 53.2715
4.6415828092605835 54.3194
4.663900117405352 55.4925
4.686235010953232 56.8465
4.708552674085913 57.6821
4.730887924602802 59.6948
4.753223354952695 60.9918
4.775541557023902 62.0891
4.797877349456786 63.7658
4.820195915032126 65.5847
4.842532072957498 66.8983
4.864868414979744 69.09
4.88718753227192 70.8308
4.909524244902505 73.0403
4.931843734218147 75.1476
4.954180820867835 77.6297
4.976518095879839 80.77
4.998838149695359 83.2725
5.021175803844231 86.6469
5.043496238205739 89.3558
5.065834274903528 93.5204
5.088172504230693 97.9589
5.1104935158799565 105.1
5.132832132875765 130.636
5.155153533596801 185.299
5.1774925416746225 218.84799999999998
5.199814334878411 335.82599999999996
5.2221537374521505 934.985
5.244493338631803 2645.26
5.266815727034316 7144.67
5.289155727832427 12664.4
5.311478517248165 9189.46
5.333818921080011 3141.0
5.356159527788849 630.651
5.3784829252032536 196.653
5.400823940070432 148.276
5.423147747031976 130.477
5.445489173474152 119.774
5.467830807066149 114.021
5.490155234831516 110.366
5.512497285125229 106.477
5.534822130975162 104.557
5.557164601388673 102.164
5.579489868738879 99.5976
5.601832762690846 99.2623
5.6241758697774475 98.5198
5.646501775867269 96.7657
5.668845311622074 95.2376
5.691171647754637 94.1175
5.713515615597765 92.9739
5.735859800852677 91.8291
5.758186788542988 91.0467
5.780531411018185 91.1059
5.802858837297399 90.4636
5.825203900414495 90.7712
5.8475491852224 90.8538
5.869877275883075 91.5459
5.892223006467101 92.1062
5.914551544266608 93.4497
5.936897724049891 95.8738
5.959244129804903 100.71600000000001
5.981573344815301 115.77
6.0039202049061 193.845
6.026249875609095 415.176
6.04859719346037 917.77
6.070927323278297 2042.81
6.093275102315365 4328.88
6.115623113320588 5250.79
6.137953938319995 3529.7
6.160302415650845 1108.9
6.182633708324452 257.038
6.2049826554078376 118.542
6.227331838745022 94.8258
6.249663839443684 86.5969
6.27201349767565 84.5143
6.294345974611799 92.8887
6.316696111167083 109.988
6.339046488263839 103.295
6.361379686074702 83.6823
6.383730546639482 72.9519
6.406064229255215 69.3542
6.428415576718203 68.7788
6.450749747566656 67.7321
6.47310158535871 66.5846
6.495453669698332 65.6692
6.517788579421056 65.385
6.540141159237969 64.3735
6.562476565766648 64.001
6.5848296444934045 63.4554
6.607182974060425 63.2747
6.6295191323281015 63.4526
6.651872965955752 68.384
6.6742096296068985 102.073
6.6965639707294615 165.24
6.71891856698715 166.769
6.741255995248479 108.101
6.763611104154477 71.7612
6.785949046381137 61.5614
6.808304671371482 59.4235
6.8306605557940046 58.6358
6.852999275508618 58.0158
6.875355681171544 57.7683
6.897694923437771 57.2022
6.92005185377892 56.9696
6.9423916220322655 57.0189
6.964749080490181 56.3443
6.987106804399774 56.4426
7.009447368180821 56.7032
7.031805625367033 56.2836
7.054146723727803 56.0613
7.076505517631004 55.7776
7.098864581288365 55.5483
7.121206488070854 55.7786
7.143566093607822 55.3556
7.165908543567245 56.1971
7.188268694426048 56.0476
7.2106291193438095 56.4192
7.232972390625943 58.4383
7.255333366030969 73.6922
7.277677189091925 146.18
7.300038718428332 214.523
7.322400526130865 179.13299999999998
7.344745183422596 102.59
7.367107550224791 65.3445
7.389452767901992 57.6447
7.411815697249891 55.684
7.434161478756298 54.7895
7.456524974096713 55.1335
7.478888753837185 54.623000000000005
7.501235387657368 55.4372
7.523599738562711 55.3214
7.545946944825532 55.4793
7.568311870344528 55.6898
7.5906770845765665 56.1182
7.613025156078678 58.14
7.635390950099687 59.458
7.657739602662809 58.178999999999995
7.680105979923558 56.6596
7.702472650212829 56.226000000000006
7.724822180948224 56.3378
7.747189439655568 56.6497
7.769539560075357 56.6071
7.791907410653562 57.2654
7.81425812420825 57.0326
7.836626570110925 57.0469
7.858995315087906 58.1761
7.881346924933401 57.92100000000001
7.903716270417482 58.604
7.926068482028405 58.5237
7.948438431475253 59.2293
7.9708086843180235 59.9641
7.993161805171116 60.7084
8.015532667162402 60.8914
8.037886398416653 62.0933
8.060257873014221 62.3127
8.082629655331942 62.9972
8.104984308787587 64.067
8.127356708900503 67.8106
8.149711981398308 75.4414
8.172085002766314 78.5637
8.194458336181368 73.9105
8.216814543847752 70.0848
8.23918850371002 69.8126
8.26154533906492 70.1038
8.283919928836452 71.5922
8.306277395339652 72.8784
8.328652618483376 73.9941
8.351028159736202 76.1629
8.373386579575245 78.3789
8.395762759396959 80.0305
8.418121819038275 86.2238
8.440498640894003 102.241
8.462875785192262 119.889
8.485235811156207 127.76100000000001
8.507613602688501 158.02
8.529974277114228 235.89700000000002
8.552352719347912 366.036
8.574731488360351 612.433
8.59709314210385 1101.92
8.619472567021075 1819.05
8.64183487789147 2200.56
8.664214962183097 1896.38
8.686577933647762 1017.64
8.708958680784317 404.855
8.731339760774953 175.583
8.753703729764451 114.65299999999999
8.77608547780821 100.56200000000001
8.798450116065078 96.1461
8.820832535634787 92.7858
8.843215292401656 91.3467
8.865580941199045 90.0054
8.887964374703538 88.8104
8.910330701447199 90.7414
8.932714815164482 94.2374
8.955099270424924 93.4974
8.977466620733543 89.4288
8.999851761421976 85.8915
9.022219798361645 84.1025
9.04460562795561 83.8214
9.066991803441677 83.1788
9.089360876979615 82.8571
9.111747746589993 82.6061
9.13411751544971 81.9732
9.156505082664324 81.9594
9.178875550323522 82.2277
9.20126381862328 82.3071
9.223652438908596 82.7119
9.246023961427412 82.9379
9.26841328802173 82.0872
9.290785518039224 81.9062
9.313175554425882 82.2039
9.335565947154315 82.3038
9.357939245086508 82.6309
9.380330352834827 82.7523
9.40270436697103 83.0164
9.425096193225055 83.0789
9.447488380180165 83.74700000000001
9.469863475295412 84.0707
9.492256385987508 84.5328
9.514632206018318 85.0769
9.537025843935714 85.4256
9.559402392368193 86.4783
9.581796761000229 87.5893
9.604191496441521 88.546
9.626569144158516 92.5633
9.648964615551032 99.141
9.671343000390081 101.346
9.693739211225699 97.9477
9.716135793237463 94.2248
9.738515290448102 93.1833
9.760912617143402 93.5358
9.783292860202891 94.863
9.805690935076182 96.2515
9.828089385495742 97.5212
9.850470754023561 100.09899999999999
9.872869957865444 109.42
9.89525208097539 128.55100000000002
9.917652041736662 144.583
9.940052382417589 141.986
9.962435644102392 140.889
9.984836746950979 169.074
10.007220771957746 228.547
10.029622640473708 325.10200000000003
10.052007432299963 489.566
10.074410069984072 763.35
10.096813093716005 1192.45
10.119199042482517 1695.73
10.141602840636468 1942.87
10.163989564971628 1636.51
10.186394141051062 977.3910000000001
10.208799107559706 442.906
10.231187001965623 204.505
10.253592751657669 130.864
10.275981430388155 115.196
10.298387966769793 115.50399999999999
10.320794897965431 118.76700000000001
10.343184759907361 118.038
10.36559248305461 110.775
10.387983138083852 104.993
10.410391656691655 106.375
10.432800574501677 115.63
10.455192425893369 130.529
10.47760214443012 154.531
10.499994797678786 194.283
10.522405320453982 268.735
10.54479877906917 377.772
10.567210109595656 497.909
10.5896218454736 573.441
10.612016518879773 523.231
10.634429067781074 365.602
10.656824555333241 212.637
10.679237920773568 132.704
10.701651695961992 98.5893
10.724048411481384 89.8705
10.746463008485165 86.9721
10.768860546937125 85.4781
10.791275969274796 83.5612
10.81369180576079 82.3156
10.836090585366925 81.3511
10.858507252467449 79.7868
10.88090686379991 78.9821
10.903324365036394 78.6958
10.925724811614439 79.1366
10.948143150509463 80.9209
10.970561909719066 80.3536
10.992963615930844 78.0002
11.015383218085756 75.4059
11.037785768347074 73.8306
11.06020621697282 73.2924
11.082627090322113 72.5866
11.105030913430326 72.1689
11.12745263854165 72.9428
11.149857314510728 77.9594
11.172279894912576 86.4445
11.194702904450653 87.6484
11.217108866490921 82.2981
11.239532736615194 76.5221
11.26193956033512 73.4685
11.284364294577085 71.5578
11.306789462371718 69.4298
11.329197585398376 67.9688
11.351623622610898 67.3139
11.37403261614354 66.3407
11.396459526308487 66.1029
11.418869393879497 65.8405
11.441297180532617 65.7057
11.463725406927658 65.1474
11.486136592353875 65.0404
11.508565700543707 65.9154
11.530977768845315 68.6635
11.553407762368774 69.7969
11.575838200059769 68.8068
11.598251599479612 66.2522
11.620682927815501 64.5644
11.64309721895548 64.03699999999999
11.665529441478206 63.5643
11.687962112597958 63.2298
11.710377748130886 63.3653
11.732811318753434 63.1933
11.755227854859067 63.2552
11.777662328529495 62.9993
11.800079768750786 62.8786
11.822515149015453 62.9259
11.844950984084935 62.9596
11.867369787303163 62.6111
11.889806534289491 62.6434
11.912226250487029 62.8571
11.934663912939751 63.2121
11.9571020346363 63.0439
11.979523127133968 63.343
12.001962169624331 63.7759
12.024384183972964 64.4037
12.046824150809913 67.2373
12.069264581333726 71.9741
12.091687985297767 78.0479
12.11412934550045 86.7965
12.136553680195208 100.71
12.158995973632788 120.78
12.181438735204349 147.737
12.20386447284199 177.729
12.226308172985636 204.475
12.24873485024193 202.08700000000002
12.271179492516982 171.87900000000002
12.293607112949127 136.783
12.316052700916226 102.89399999999999
12.338498763250042 82.4857
12.360927805303868 72.48100000000001
12.383374818673879 67.51100000000001
12.405804812803074 64.9276
12.428252780773262 64.7609
12.45070122756722 64.622
12.473132656675375 64.5531
12.49558206341869 64.547
12.518014453510101 64.7631
12.540464823770117 64.8352
12.562915677315177 64.82
12.58534951575545 66.087
12.607801338171472 68.3487
12.630236146511358 75.2142
12.652688941369085 82.0407
12.675124723177234 82.2971
12.697578494048786 77.1741
12.720032754458185 71.32
12.742470003354093 68.7583
12.764925245138771 68.2211
12.787363476431278 68.3345
12.809819703166806 68.745
12.83227642391173 69.3731
12.854716135692716 69.76100000000001
12.877173846755147 70.8359
12.899614549869717 71.0193
12.9220732548287 71.8573
12.94453245827299 72.2803
12.966974655289818 73.4762
12.989434858002571 74.0617
13.011878055298721 74.6875
13.034339260862497 75.8258
13.056800969391883 76.8192
13.079245674017244 78.8371
13.101708390774869 80.4751
13.12415410463411 86.3872
13.146617833206086 97.9067
13.169064559883248 109.541
13.191529303857127 123.45
13.213994557076367 144.266
13.236442809902437 177.15200000000002
13.258909083908291 227.294
13.28135835851934 289.673
13.30382565690295 358.55400000000003
13.326293469022952 417.905
13.348744283242008 431.13800000000003
13.371213125129904 374.51599999999996
13.39366497011003 278.246
13.416134845360597 185.34599999999998
13.438605238843131 128.68
13.46105863690397 106.56200000000001
13.483530069144786 104.72200000000001
13.505984506951902 109.319
13.528456981549432 118.17299999999999
13.550929978879088 131.605
13.573385983253365 153.964
13.595860028340867 189.726
13.618317081455832 239.638
13.64079217790333 291.69
13.663250283359057 343.801
13.685726434770173 375.06300000000005
13.708203115221277 345.185
13.730662806148091 276.515
13.75314054697177 195.106
13.775601299246777 135.063
13.798080104050406 100.425
13.820559442405358 86.2747
13.843021793671388 82.1597
13.865502201420897 80.5968
13.887965623051947 79.8019
13.910447103807167 78.6279
13.932929122629764 77.2701
13.955394156785959 76.7547
13.977877254034569 75.9998
14.000343367582113 75.3884
14.022827546871707 74.5448
14.045294743423524 73.7761
14.06778000837062 73.0832
14.090265817715476 73.0251
14.112734645763819 72.6137
14.13522154619454 72.6861
14.157691466286913 72.8809
14.180179461423874 72.6502
14.202668005486178 71.6826
14.22513957064374 70.7854
14.247629214846473 70.351
14.270101881097517 70.30199999999999
14.29259262906496 71.0169
14.315083930490205 72.0177
14.337558255389705 72.5018
14.360050666019726 72.2198
14.382526101071944 70.8032
14.405019624534942 69.6763
14.427513705993134 69.0108
14.449990813291825 69.0288
14.47248601302899 68.8705
14.49496423954951 68.9396
14.517460561197822 69.0121
14.539939910570322 68.888
14.562437357763558 69.1646
14.58493536931253 70.398
14.607416409993311 71.9101
14.62991555254159 72.6218
14.652397725157423 72.5014
14.674898002342799 71.4591
14.697398848433282 70.609
14.719882725991326 71.0352
14.74238471217934 71.4582
14.764869730765593 74.3723
14.787372860692983 77.7354
14.809876564079925 81.9708
14.83236330125751 87.3003
14.854868153850365 95.2661
14.877356041159485 107.565
14.899862046604186 125.456
14.922351087688757 148.964
14.944858249632887 175.45
14.967365991421232 201.03900000000002
14.989856770231246 218.232
15.012365673994204 218.763
15.03485761569738 192.05900000000003
15.05736768508665 152.257
15.07987833888692 119.37799999999999
15.102372032001655 92.9594
15.124883856909658 78.2319
15.14737872204565 73.1051
15.169891721717274 70.8646
15.192405310371893 70.8876
15.214901940621196 71.5307
15.237416709527137 71.8045
15.259914520936249 72.0894
15.282430473753607 71.3068
15.304947020131227 69.7303
15.327446610371178 68.5496
15.349964346154254 67.5768
15.372465126703139 67.1113
15.394984055556009 66.8495
15.417486030076159 66.7114
15.44000615566487 66.4329
15.462526881230803 66.1577
15.485030653812652 66.4698
15.507552581617434 66.7502
15.530057557334603 66.76899999999999
15.55258069104857 66.3423
15.575104429329837 66.3166
15.597611216864632 66.0025
15.620136166564563 65.9426
15.6426441664095 66.6425
15.665170331202765 68.4808
15.687697105158826 71.1852
15.710206930593545 74.7122
15.732734925158933 78.3425
15.755245972089478 84.3111
15.77777519094324 92.6202
15.800287463046663 104.681
15.822817909869592 122.071
15.84534897229804 141.76
15.867863089299354 164.37900000000002
15.890395385222186 183.32299999999998
15.912910736597423 193.149
15.935444269699861 184.608
15.957978423016485 160.953
15.980495633101265 129.545
16.003031029129367 101.564
16.02554948280019 79.939
16.048086125229432 69.6375
16.070623392487107 66.7428
16.09314371869582 65.9341
16.11568223789321 64.9083
16.13820381691126 63.6241
16.160743591742527 62.1793
16.183283996022084 60.8212
16.205807461423195 59.917
16.228349126881973 59.3668
16.25087385432698 59.1778
16.27341678466365 58.5071
16.29594277784926 58.583999999999996
16.31848697676433 59.347
16.341031811604868 59.7345
16.36355971058487 60.2156
16.3861058195587 59.9641
16.40863499352978 58.4867
16.431182380342005 57.3284
16.453730407713202 56.7077
16.476261501364792 56.2791
16.498810812136167 55.7692
16.52134319004079 56.0623
16.54389378792203 55.8736
16.566445031001553 55.6616
16.588979342490088 55.3171
16.61153187824822 55.3531
16.634067483263312 54.9171
16.656621315414416 54.9441
16.679175797408888 54.7486
16.701713349928728 54.7553
16.72426913389191 55.0642
16.74680798922351 55.239
16.76936507887444 55.2774
16.791905240734874 55.2064
16.814463639794468 55.0336
16.837022695210294 54.9459
16.859564824093756 55.3466
16.882125194503903 56.4808
16.904668639217885 57.55
16.927230328348003 57.6958
16.949792678493612 57.6688
16.972338104193863 56.7867
16.994901778652235 56.0433
17.017448529496576 55.876000000000005
17.040013531998152 56.1187
17.06257920018044 56.2641
17.0851279459922 57.1151
17.107694947817667 57.6744
17.130245028099072 58.6295
17.15281336730298 60.0109
17.17536478578733 61.6929
17.19793446610687 63.7958
17.220504818648422 66.6621
17.243058251703697 69.5495
17.265629950971032 73.3867
17.288184731571736 78.2797
17.310757781306908 82.5692
17.33333150794385 83.8379
17.355888317140174 83.5433
17.37846339986244 78.9116
17.401021565958885 72.5385
17.42359800851343 66.9584
17.44617513265564 62.6772
17.468735341390783 60.5247
17.491261035594565 59.4716
17.51396340099364 59.0282
17.536490463869136 59.2529
17.559018209820174 59.1489
17.58154663977963 59.2521
17.604251766089718 59.3961
17.626781572227713 59.7777
17.64931206518155 59.9677
17.671843245885103 60.6797
17.69455114821572 60.8595
17.717083712612634 61.2111
17.739616967569667 61.3212
17.762150914021706 61.3707
17.78486160749854 61.2648
17.807396945166804 61.6604
17.829932977143503 62.43600000000001
17.85246970436452 63.8323
17.875183204129467 65.6561
17.897721330097664 67.5534
17.920260154126645 69.9013
17.942799677153296 73.0923
17.9655159983646 76.4701
17.988056927677544 81.3787
18.010598558807683 88.2107
18.033140892692916 97.5204
18.05586005052525 107.506
18.07840379824407 118.755
18.10094825154059 130.435
18.12366954819864 138.408
18.146215420998306 141.099
18.16876200220057 132.998
18.191309292745153 120.402
18.214033452627167 106.052
18.236582170236648 93.8358
18.259131600016456 86.8825
18.281681742907335 86.0917
18.304408781233683 89.6874
18.32696035875955 94.1592
18.349512652227624 99.3511
18.372065662579683 103.934
18.394795594587553 106.023
18.41735004715306 103.575
18.43990521943684 98.7853
18.46246111238171 89.3201
18.485193953325208 79.3554
18.507751296070428 71.6625
18.530309362314178 66.7733
18.552868153000343 64.0066
18.57560391815056 62.6193
18.59816416623245 62.0688
18.620725141597372 61.54600000000001
18.643286845190268 60.9494
18.666025549835414 60.7585
18.688588718427933 60.2256
18.711152618092243 59.8716
18.73389353884365 59.4473
18.75645890921984 59.1461
18.77902501351406 58.9027
18.801591852673102 58.8709
18.824335739722738 58.1993
18.846904057212626 58.2201
18.8694731124168 57.7864
18.89204290628315 57.8141
18.914789774966803 57.6712
18.937361054791623 57.3383
18.959933076131318 57.3335
18.982505839934877 57.4848
19.00525570560582 57.4421
19.027829963004184 57.0763
19.05040496572238 57.2031
19.072980714710468 57.06
19.095733592739563 57.0166
19.11831084296757 57.7268
19.140888842324735 58.1274
19.16346759176222 58.3676
19.18622349753803 58.7286
19.208803755869358 59.5216
19.231384767143577 60.5529
19.253966532312948 61.9264
19.276725481241822 63.7165
19.29930876296784 66.4159
19.3218928014549 69.1581
19.34465404436217 72.6893
19.36723960516257 75.587
19.389825925592426 76.9139
19.412413006605938 76.3464
19.43517731967805 73.4814
19.457765930683355 68.745
19.48035530514408 64.2262
19.50294544401556 60.303999999999995
19.525712842708348 57.4163
19.54830451925909 55.8531
19.570896963095727 54.5613
19.593490175174704 54.019
19.616260674962184 54.1339
19.638855432416964 53.7175
19.661450960992624 53.733999999999995
19.68404726164677 53.6933
19.706820878021247 53.5219
19.729418731756834 53.9384
19.752017360452857 53.4165
19.77461676506804 53.45399999999999
19.797393513540218 53.75899999999999
19.819994478951667 53.9432
19.84259622316767 54.5834
19.8651987471481 54.8529
19.887978643247177 55.172
19.91058273574792 55.6204
19.933187610901943 56.1449
19.955969879466828 57.2443
19.97857632894404 58.3601
20.00118356396599 59.6863
20.023791585494575 61.6585
20.046577028914875 64.4711
20.069186632506966 66.7922
20.091797025500632 68.7838
20.114408208858933 69.8973
20.137196842715273 69.6702
20.159809615886765 68.7357
20.18242318232135 65.8001
20.20503754298326 63.8549
20.227829382875154 62.428000000000004
20.250445341109344 62.1295
20.27306209647285 62.5414
20.29567964993108 63.5296
20.31847471147704 64.9425
20.34109387027612 65.852
20.363713830075454 65.7549
20.386334591841646 64.9539
20.409132890679302 62.3085
20.431755265564437 59.1827
20.454378445325528 56.3431
20.477002430930366 54.1859
20.499803982716553 52.8694
20.522429589228004 52.056000000000004
20.54505600449589 51.5598
20.567683229489194 51.3996
20.590488049900088 51.0259
20.61311690359731 50.5483
20.63574656993626 50.1861
20.658553853717297 49.7431
20.681185154618298 49.8657
20.703817271080066 49.7418
20.72645020407368 49.3125
20.749260783967177 49.0786
20.771895359337133 49.1113
20.794530754161617 49.1435
20.817166969412938 49.0771
20.83998086114876 48.9393
20.86261872660049 48.8787
20.885257415405402 48.6706
20.90789692853701 48.7346
20.930714147864748 48.6261
20.953355319030678 48.7088
20.97599731745334 48.8367
20.99864014410749 48.7947
21.021460706796564 48.933
21.044105199328826 49.1519
21.06675052302631 49.1515
21.089396678865015 49.3349
21.112220600704806 49.6333
21.134868430275347 49.9896
21.15751709492456 50.1464
21.180166595629693 50.479
21.202993892429635 50.9349
21.22564507473034 51.0216
21.24829709602816 51.5885
21.27112693608965 51.5147
21.293780644891275 51.5418
21.316435195634053 50.9948
21.339090589297417 50.1842
21.361923832041875 49.8477
21.384580921090404 49.321000000000005
21.407238856007325 48.6379
21.429897637773326 48.5035
21.45273429906592 48.5099
21.475394784108598 48.5127
21.498056118951983 48.4914
21.520718304578022 48.7085
21.543558400304388 48.769
21.566222297108816 49.0396
21.58888704765135 48.9233
21.61155265291521 49.2357
21.63439619898156 49.7921
21.657063523335786 49.8986
21.67973170537063 50.4099
21.7024007460706 50.7268
21.72524775840385 51.4961
21.747918526116475 52.6059
21.770590155457388 53.7011
21.79326264741238 55.086999999999996
21.816113141960237 56.7827
21.838787368860547 58.3761
21.861462461341976 60.4133
21.884315579735777 62.4778
21.90699241312273 63.6635
21.92967011506078 64.8479
21.95234868653799 64.7123
21.9752053151131 63.7214
21.997885635446785 62.1627
22.020566828293532 60.1932
22.04324889464272 58.2391
22.066109049404666 56.8862
22.088792872571794 56.0599
22.111477572219204 56.1102
22.1341631493376 56.2175
22.157026846313123 56.1966
22.179714188221507 55.6306
22.202402410582668 54.6761
22.22509151438863 53.3247
22.24795876962584 51.6944
22.270649646204486 50.7949
22.293341407213727 50.0544
22.316034053646906 49.5677
22.338904883215342 49.2484
22.36159931041458 49.2753
22.38429462602756 49.4157
22.40699083104897 49.096000000000004
22.429865251039757 49.2366
22.452563244831367 49.2207
22.47526213102522 49.2695
22.49813925616515 48.9413
22.520839937143307 48.766999999999996
22.543541513520587 48.8772
22.56624398629403 48.7137
22.589124730075895 48.5471
22.611829005656723 48.6805
22.63453418063466 48.7247
22.657240256008077 48.9118
22.680124634582935 48.9964
22.70283252079775 49.2564
22.725541310413075 49.4846
22.74825100442868 49.6211
22.771139033969575 50.1932
22.79385054687155 50.3202
22.81656296718292 50.9194
22.83927629590484 51.9519
22.862167992606945 52.845
22.88488314827121 53.8643
22.907599215359284 54.766000000000005
22.93031619487366 56.0286
22.953211574954405 56.9443
22.975930389478226 57.708999999999996
22.998650119445763 58.027
23.02137076586092 57.6963
23.044269845560063 56.6543
23.06699233506288 55.0701
23.089715744034912 53.2471
23.112617610931565 51.5702
23.135342869061212 50.3272
23.158069049684816 49.653999999999996
23.1807961538087 49.1103
23.20370174880544 48.9755
23.226430710184808 48.8351
23.249160598093425 48.9636
23.271891413539002 48.931000000000004
23.294800752937697 48.9293
23.31753343374794 49.1015
23.340267045128353 49.0979
23.36300158808808 49.5683
23.38591468821339 49.8073
23.408651104658304 50.1223
23.431388455719986 50.6335
23.454126742409 51.6392
23.4770436196085 52.5749
23.499783787914662 53.8336
23.522524894889884 54.5594
23.54526694154616 55.4178
23.56818761219047 56.7814
23.59093154860734 57.7087
23.613676427751283 58.2886
23.636422250635754 57.6477
23.659346731118656 56.3624
23.68209445191868 54.3409
23.704843119509587 52.0722
23.72759273490623 50.0891
23.750521041644767 48.5511
23.77327256312355 47.5663
23.796025035462787 46.8683
23.818956224555475 46.3118
23.841710609113413 46.3403
23.86446594758979 45.9817
23.887222241002014 45.608999999999995
23.910157285144578 45.3187
23.932915498962537 45.5027
23.955674670778713 45.2308
23.978434801611975 45.0867
24.001373717286125 45.0873
24.024135776723917 44.7645
24.046898798245582 44.7386
24.06966278287146 44.6998
24.092605586582614 44.3875
24.115371508023642 44.312
24.1381383956401 44.2075
24.16090625045381 44.2274
24.183852958731244 44.1424
24.206622758582608 43.985
24.229393528706886 43.7145
24.252165270127392 43.8581
24.27511589952438 43.8501
24.297889594216997 43.6131
24.32066426328598 43.5487
24.34343990775613 43.6618
24.36639447485003 43.4339
24.38917208083877 43.233000000000004
24.41195066531332 43.3127
24.43490819850244 43.3369
24.457688750692377 43.0278
24.48047028445616 43.0492
24.503252800821233 43.1979
24.526214300784112 43.1122
24.548998793132213 43.0719
24.57178427117417 43.0846
24.59457073593893 43.098
24.617536219319863 43.1125
24.64032466834748 43.0699
24.663114107195035 43.0204
24.685904536893013 42.7048
24.708874020360852 42.5169
24.731666442613744 42.4882
24.754459858818787 42.604
24.777254270007962 42.4631
24.80022777025625 42.4565
24.82302418230472 42.4184
24.845821592443674 42.43
24.86862000170663 42.4696
24.891597535453727 42.1873
24.914397953892728 42.4329
24.93719937456671 42.3636
24.96000179851076 42.357
24.98298338249997 42.5218
25.00578782394922 42.8182
25.028593271784167 42.8991
25.05157790644186 43.24100000000001
25.07438537804115 43.4177
25.097193859145293 43.5237
25.120003350792075 43.7795
25.142992065061257 44.1153
25.165803588823465 44.4466
25.18861612625217 44.604
25.211429678386736 44.8226
25.234422489079968 44.7847
25.257238081693636 44.8845
25.280054692141732 44.9861
25.3028723214652 44.9736
25.325869245420463 45.0077
25.348688923599397 45.0838
25.371509623787006 44.9909
25.394331347025812 44.8863
25.41733240110666 44.3424
25.440156181590016 43.7814
25.46298098826268 43.4493
25.48580682216873 42.8074
25.50881202326435 42.0759
25.53163992281684 41.6245
25.55446885274561 41.4381
25.577298814096377 40.976000000000006
25.600308179121807 40.8714
25.623140214533745 40.9933
25.64597328451537 40.8744
25.66898578564376 40.6255
25.691820936010206 40.7689
25.714657124097695 40.6084
25.737494350954734 40.6492
25.760511045684957 40.6335
25.783350361364224 40.7827
25.806190718969255 40.6037
25.82903211955018 40.7826
25.852053024868923 40.7371
25.874896522722523 40.825
25.897741066713106 40.6848
25.920586657892454 40.7529
25.943611790812668 40.9289
25.966459487728237 40.9373
25.989308234998564 40.9274
26.01215803367705 41.3278
26.03518741123814 41.5266
26.05803932412957 41.6179
26.080892291600094 41.5903
26.10374631470478 41.6931
26.12677995397268 41.9035
26.14963609978026 41.798
26.172493304397875 41.6034
26.19535156888223 41.3712
26.218389486949604 40.9042
26.241249882640123 40.8027
26.26411134137826 40.491
26.28715248187403 40.4818
26.31001607820869 40.1975
26.3328807407756 40.0474
26.35574647063438 40.2384
26.37879191991473 40.2203
26.401659795896734 40.1952
26.424528742360263 40.3292
26.447398760366614 40.5702
26.470448535598294 40.5774
26.49332070826805 40.8749
26.516193955675355 41.1807
26.53906827888316 41.4356
26.562122397260108 41.4739
26.584998883685063 41.8171
26.607876449110325 42.0875
26.63075509460056 42.2548
26.65381357334404 42.208
26.67669439061878 42.2899
26.699576291163382 42.3694
26.722459276044212 42.2273
26.745522132402975 41.9074
26.768407297649354 41.659
26.791293550442003 41.3102
26.814180891848974 40.9205
26.837248143099337 40.6213
26.860137673466657 40.5522
26.88302829566349 40.465
26.90592001075963 40.2797
26.92899167420566 40.0292
26.951885586870763 39.7344
26.974780595655517 39.5586
26.99785558178161 39.3194
27.020752794605112 39.186
27.043651106772522 39.0968
27.06655051935668 38.9207
27.089629948036183 38.8261
27.112531573292053 38.8473
27.135434302194138 38.8553
27.158338135817015 38.7765
27.181422024430987 38.7588
27.204328079372566 38.5469
27.22723524226965 38.6758
27.250143514198573 38.7656
27.273231880156334 38.6162
27.296142382065014 38.5264
27.319053996245536 38.4931
27.341966723775965 38.5425
27.365059584515222 38.6343
27.38797455070062 38.4911
27.410890633481237 38.5212
27.433807833936918 38.5479
27.456905206923906 38.6701
27.47982465472398 38.6218
27.502745223449743 38.5883
27.525666914182825 38.7873
27.548768816912457 38.6768
27.571692763693633 38.5973
27.59461783573812 38.5921
27.617723149491244 38.425
27.640650484125285 38.3276
27.66357894728264 38.2339
27.686508540048052 38.2774
27.709618414237887 38.1903
27.732550278321757 37.944
27.755483275279115 38.0867
27.778417406196485 38.0737
27.801531858397514 37.8923
27.824468269376716 37.8625
27.847405817586786 37.8512
27.870344504116094 38.0599
27.893463551932008 38.1924
27.916404527281053 38.4184
27.93934664422563 38.3742
27.962289903855886 38.2857
27.98541356491974 38.6288
28.00835912214229 38.7373
28.03130582533231 38.9212
28.054253675581805 39.2079
28.077381967556104 39.1879
28.100332124185126 39.0763
28.123283431160893 39.1035
28.146235889577238 38.9801
28.169368830154156 38.7537
28.192323603752033 38.5841
28.215279532083304 38.4762
28.238415973016764 38.06
28.261374223145094 37.9071
28.284333631303806 37.7482
28.307294198589954 37.6466
28.330435319167677 37.2434
28.353398217078915 37.0739
28.376362277420153 36.9646
28.39932750129032 36.6952
28.422473319286713 36.5684
28.44544088262495 36.5297
28.468409612800283 36.3876
28.491379510913497 36.1599
28.51453004413313 36.172
28.53750229057244 36.1186
28.56047570826344 36.1104
28.583450298308804 35.9875
28.606605564586562 35.8166
28.629582511831156 35.7789
28.65256063474956 35.6685
28.675539934446338 35.7094
28.698699951647605 35.7764
28.72168161743193 35.5677
28.74466446331978 35.6707
28.767648490417624 35.5716
28.790813276438353 35.580999999999996
28.813799678527303 35.6326
28.836787265157085 35.5242
28.859955641890075 35.5091
28.882945610203045 35.6198
28.905936766392035 35.5286
28.928929111566863 35.5157
28.952102288520145 35.3729
28.975097024308607 35.2318
28.998092952423807 35.071
29.021090073977508 35.1376
29.04426806913204 35.066
29.067267590245258 34.8394
29.090268308143695 34.7501
29.11327022394099 34.6588
29.13645305530891 34.5657
29.159457379627167 34.5561
29.18246290519685 34.5606
29.20546963313352 34.579
29.22865731875826 34.5149
29.25166646419296 34.4152
29.27467681535305 34.2885
29.29768837335608 34.4109
29.320880931312562 34.3811
29.34389491580634 34.4404
29.366910110507334 34.3307
29.38992651653503 34.3947
29.41312396492981 34.3645
29.436142806456754 34.2649
29.45916286268059 34.2569
29.48236399319994 34.2356
29.50538649169417 34.0546
29.528410208259935 33.9965
29.55143514402014 33.6726
29.574641196749695 33.6152
29.597668583816574 33.4262
29.6206971934585 33.2957
29.64372702680042 33.3941
29.666938019934474 33.2422
29.689970313635285 33.1141
29.713003834422636 33.1407
29.73603858342347 33.1809
29.759254535188578 33.0471
29.78229175361658 33.0609
29.80533020365064 33.1362
29.82836988641968 33.0513
29.85159081507472 33.0042
29.874632976355343 32.8545
29.89767637376955 32.8494
29.920721008448314 32.8271
29.9439469322847 32.7793
29.96699405457564 32.6866
29.9900424175358 32.7708
30.013092022298157 32.6652
30.03632295963995 32.5132
30.059375061131373 32.5984
30.08242840783577 32.6943
30.105483000888153 32.6657
30.128718970092244 32.5591
30.151776069006917 32.5946
30.17483441768648 32.573
30.198074175317235 32.5043
30.221135036724256 32.5784
30.24419715131772 32.5366
30.267260520236203 32.3724
30.290505341942243 32.4715
30.313571232750228 32.5195
30.336638381310948 32.5177
30.35970678876503 32.4367
30.38295669299435 32.242
30.40602763151657 32.4114
30.429099832366074 32.2913
30.452173296685572 32.1368
30.47542830191959 32.1549
30.498504306502497 32.1362
30.521581577995562 32.2976
30.544660117543582 32.2843
30.56792024229725 32.3463
30.59100133132069 32.1752
30.614083691845494 32.3005
30.637167325018545 32.3078
30.660432587840603 32.3923
30.683518779717886 32.3139
30.70660624769615 32.275999999999996
30.729694992924372 32.4904
30.75296541239743 32.4378
30.77605672557558 32.2477
30.799149319462742 32.2008
30.8224236211637 32.0988
30.845518789950724 32.0626
30.868615242910597 32.0182
30.891712981195973 31.8551
30.91499247215866 31.7464
30.938092794619365 31.7412
30.96119440587579 31.62
30.984297307082752 31.5885
31.00758200598383 31.3226
31.030687500658694 31.3774
31.053794288760695 31.358
31.076902371446767 31.2226
31.100192296997445 31.2428
31.12330298246119 31.238000000000003
31.14641496599209 31.0968
31.169528248749216 31.0777
31.19282341969534 30.9814
31.215939314557186 31.0236
31.239056512134788 31.1858
31.262175013589378 30.9965
31.28547544871168 30.9446
31.30859657161541 30.9294
31.331719001892175 30.9602
31.35484274070538 30.9874
31.378148458819545 31.0292
31.401274828443725 31.0266
31.424402510106933 30.9899
31.447712205419993 31.0747
31.470842524931633 30.8776
31.493974159989783 30.9786
31.51710711176168 31.0292
31.54042212308802 30.9923
31.563557722100917 30.9086
31.586694641341655 30.7887
31.609832881979628 30.6152
31.63315322823208 30.4983
31.656294125521327 30.3728
31.679436347728515 30.4469
31.70257989602529 30.3104
31.725905596152327 30.3679
31.74905181052835 30.179000000000002
31.772199354521323 30.2836
31.79534822930507 30.2492
31.818679302290967 30.2134
31.84183085259981 30.247
31.864983737233473 30.1373
31.88813795736804 30.2056
31.911474422233013 30.1104
31.934631327356435 30.246
31.9577895715215 30.1392
31.980949155906522 30.2003
32.004291031706956 30.1229
32.027453310562606 30.0773
32.05061693318573 29.8723
32.07396288236386 29.9599
32.09712920658542 29.8493
32.12029687812702 29.7249
32.14346589817093 29.664
32.166817291729984 29.5826
32.18998902288583 29.4763
32.21316210610336 29.3736
32.23633654256711 29.3247
32.259693399663725 29.3714
32.282870556771144 29.3616
32.30604907069099 29.2945
32.329228942610065 29.3064
32.35259128243769 29.1207
32.375773884550505 29.1277
32.398957848235646 29.0346
32.422143174682176 28.9566
32.445511016471215 28.8938
32.468699082679954 28.8919
32.49188851523011 28.8409
32.51507931531304 28.7486
32.538452678331 28.7784
32.56164622776311 28.7036
32.58484114831493 28.6096
32.60803744118015 28.6529
32.631416344731896 28.5258
32.654615396551876 28.6044
32.67781582427913 28.5598
32.701198898634416 28.4459
32.72440209253756 28.4243
32.747606665947124 28.3851
32.77081262006088 28.2978
32.79420126883317 28.2954
32.81740999876112 28.1749
32.840620112999424 28.1435
32.86383161274818 28.1211
32.88722585534586 28.158
32.91044014056596 28.2148
32.933655814909734 28.1422
32.95687287957963 28.0848
32.98027273544904 28.002
33.00349259526636 27.9473
33.026713849030116 27.9984
33.04993649794511 28.0676
33.073341986570746 27.9641
33.09656744032826 27.9083
33.11979429286444 27.8581
33.14302254538647 27.8855
33.166433686291185 27.8578
33.18966475336992 27.8357
33.212897224069096 27.6884
33.23613109959831 27.7552
33.259547912343415 27.7011
33.2827846121627 27.6811
33.306022720453775 27.6888
33.32926223842861 27.5261
33.352684742614166 27.6395
33.37592709463173 27.4939
33.399170859982064 27.4549
33.422597648419426 27.3268
33.44584425514446 27.2272
33.46909227885668 27.2479
33.4923417207723 27.0454
33.51577423505344 27.1851
33.539026528130385 27.0377
33.56228024307245 27.0043
33.585535381098246 26.9366
33.60897364093058 26.823
33.63223163992385 26.8506
33.6554910656699 26.7712
33.678751919389796 26.8014
33.702195944520106 26.691999999999997
33.72545966903325 26.7024
33.74872482519663 26.5818
33.771991414233746 26.6898
33.79544122444841 26.6017
33.81871069412428 26.4554
33.84198160035767 26.4981
33.86525394437455 26.5303
33.88870955949969 26.503
33.911984794020626 26.3971
33.93526147001624 26.3536
33.958539588715006 26.2411
33.98200102861669 26.2869
34.0052820477047 26.1384
34.02856451319451 26.1351
34.05203033759056 26.0971
34.07531571090147 26.0613
34.09860253431845 26.0126
34.121890809074316 26.035
34.145362493118924 26.0883
34.16865368561615 26.016
34.191946333164054 25.8791
34.21524043699793 25.8795
34.23871800066799 25.8433
34.26201503218366 25.7
34.28531352370466 25.761
34.30861347646881 25.6582
34.33209693978188 25.6857
34.3553998301885 25.6578
34.378704185565205 25.596
34.402010007152356 25.4914
34.42549939016683 25.3956
34.44880815937748 25.4536
34.472118398533134 25.3865
34.49543010887669 25.3673
34.51892543169198 25.1789
34.54224009966052 25.2588
34.56555624255917 25.2332
34.58887386163339 25.1128
34.61237514439016 25.154
34.6356957311114 25.0632
34.65901779775809 25.0873
34.68252356662995 25.0367
34.705848608458616 24.993000000000002
34.72917513396849 24.9014
34.75250314440949 24.8667
34.77601490857862 24.8505
34.799345904259795 24.7211
34.82267838863559 24.7332
34.846012362958525 24.7013
34.869530142679984 24.7271
34.89286711232212 24.7037
34.91620557568269 24.6907
34.93954553401677 24.7206
34.9630693495876 24.5787
34.986412313340814 24.6078
35.00975677584668 24.5397
35.033102738362956 24.524
35.05663261012228 24.4719
35.0799815881786 24.4304
35.10333207003229 24.3632
35.12668405694369 24.4031
35.150220005273056 24.4378
35.17357501786656 24.3887
35.19693153931268 24.4039
35.220289570874385 24.2621
35.24383161619786 24.2156
35.267192683604904 24.2341
35.290555264930376 24.1764
35.314101899412165 24.179000000000002
35.33746752422433 24.1461
35.36083466676374 24.1586
35.38420332829803 24.0739
35.407756095629054 24.0882
35.43112781085063 24.02
35.45450104888391 24.076
35.477875810999194 24.0259
35.50143473172161 23.9817
35.52481255774625 24.0387
35.54819191167777 23.877
35.57157279478914 23.8026
35.595137889488406 23.8285
35.61852184675279 23.8062
35.641907337029984 23.7718
35.665294361595684 23.7205
35.68886565090076 23.6192
35.7122557598848 23.6295
35.73564740699838 23.6812
35.759040593519934 23.5389
35.78261809810353 23.5219
35.80601437933051 23.3731
35.829412203814705 23.4544
35.85281157283719 23.3778
35.876395313415884 23.4004
35.8997977874528 23.3506
35.92320180988546 23.2782
35.946790244133936 23.1823
35.97019737933222 23.2511
35.993606066789866 23.1562
36.01701630779276 23.0959
36.04061101440684 23.0738
36.06402437852291 23.1415
36.08743930005611 23.0893
36.1108557802951 22.9569
36.13445678011326 23.0077
36.15787639383515 22.9368
36.18129757014299 22.8437
36.20472031032821 22.7763
36.22832762423364 22.7508
36.25175350829375 22.7791
36.275180960119776 22.6846
36.298609981005924 22.8161
36.32222362992669 22.7496
36.34565580510207 22.7198
36.36908955323448 22.629
36.39252487562093 22.5574
36.416144880530226 22.5216
36.43958336764275 22.5206
36.463023432914625 22.528000000000002
36.486465077645676 22.4566
36.51009145956204 22.5105
36.53353627947859 22.5124
36.55698268276811 22.4522
36.58043067073321 22.3562
36.60406345072071 22.2648
36.62751462435344 22.3292
36.65096738658405 22.27
36.67460498210655 22.2197
36.69806093788647 22.2201
36.72151848619297 22.0543
36.744977628333636 22.0885
36.76862165890998 22.0531
36.79208400512205 22.1227
36.81554794910557 22.0946
36.83901349217101 21.9752
36.862663978991606 21.9067
36.88613273667352 21.8823
36.90960309738324 21.9464
36.933075062434064 21.7882
36.95673202673572 21.7218
36.98020721697122 21.6994
37.003684015502365 21.6476
37.027162423645365 21.7155
37.050825886711465 21.6536
37.07430753063053 21.6203
37.09779078812467 21.6896
37.121275660513014 21.5765
37.144945643673694 21.4587
37.16843376245278 21.476
37.19192350009803 21.5
37.215414857931435 21.421
37.239091382563885 21.3749
37.262585997426164 21.4061
37.28608223645736 21.3324
37.309763684451696 21.3263
37.33326318851098 21.2496
37.356764320726555 21.2013
37.380267082425526 21.221
37.40395510942588 21.1824
37.42746114683234 21.1147
37.45096881771841 21.0779
37.474478123414166 21.0961
37.49817275092816 21.0494
37.52168534303452 20.9681
37.54519957395567 20.9628
37.568715445024665 20.8913
37.592416694607714 20.8399
37.61593586281424 20.9352
37.63945667518264 20.9858
37.66297913304891 20.8924
37.68668702630454 20.8481
37.710212792059274 20.6833
37.733740207334854 20.7031
37.757269273470364 20.7113
37.780983832050374 20.6524
37.80451621684926 20.6478
37.82805025654007 20.5933
37.851585952464795 20.5158
37.8753071980695 20.4765
37.89884622345676 20.4085
37.92238690911902 20.3606
37.94611318753442 20.3457
37.969657210779765 20.3624
37.99320289834801 20.3821
38.016750251586465 20.3291
38.04048325513017 20.2475
38.06403395679343 20.1838
38.087586328183946 20.2622
38.11114037065203 20.1775
38.13488012115898 20.1285
38.1584375229181 20.0806
38.181996599821 20.1047
38.205557353221124 20.0952
38.229303872575656 20.0546
38.2528679961576 20.0282
38.27643380031219 19.9213
38.30000128639589 19.8984
38.32375459653193 19.9018
38.34732546371299 19.9443
38.37089801690786 19.7641
38.39447225747609 19.7387
38.418232380377425 19.7358
38.441810012983396 19.7667
38.46538933705673 19.7535
38.488970353960084 19.6141
38.51273731166058 19.6729
38.536321731567014 19.5946
38.55990784840681 19.58
38.58367995004091 19.5458
38.60726947812959 19.5045
38.63086070726198 19.4989
38.654453638806274 19.4862
38.678232613930824 19.4132
38.70182896773327 19.4143
38.72542702806741 19.3952
38.7490267963045 19.3313
38.77281266709232 19.3135
38.79641586862214 19.2369
38.8200207821842 19.2147
38.843627409152944 19.2659
38.86742019782782 19.1878
38.891030269149255 19.1093
38.914642058016156 19.155
38.938255565806124 19.058
38.96205529464307 19.0074
38.98567225787121 19.0271
39.00929094417078 18.9675
39.03291135492255 18.9814
39.05671804624804 18.9423
39.080341923549106 18.9078
39.103967529460334 18.8782
39.127594865365744 18.8074
39.15140854155791 18.7748
39.17503935514948 18.8244
39.19867190290282 18.8637
39.22249083587951 18.7448
39.24612686969409 18.7313
39.269764641845306 18.767
39.293404153722804 18.6829
39.317230110864074 18.5501
39.34087311998506 18.5964
39.36451787301696 18.5884
39.388164371352595 18.4685
39.41199737518003 18.4208
39.43564738196752 18.4712
39.45929913825317 18.4569
39.48295264543308 18.3946
39.506792718520884 18.3364
39.530449745387216 18.3164
39.55410852735203 18.3176
39.57776906581474 18.3301
39.60161623079 18.3327
39.625280300200025 18.2345
39.64894613032202 18.1553
39.67261372255866 18.192
39.6964680021016 18.1459
39.72013913657293 18.0891
39.74381203738292 18.1593
39.76748670593756 18.0714
39.79134812278169 18.0178
39.81502634488497 18.009
39.83870633896685 17.9949
39.862388106436654 17.918
39.88625668336918 17.9469
39.90994201572829 17.9145
39.933629125719285 17.8332
39.957503091207826 17.8032
39.9811937746168 17.8379
40.00488623990914 17.7476
40.02858048850006 17.7192
40.05246165409549 17.7023
40.076159487492085 17.6338
40.099859108448875 17.7083
40.123560518384345 17.5665
40.1474489070226 17.6203
40.171153913178564 17.5704
40.194860712584955 17.4907
40.2185693066637 17.5208
40.242464941335314 17.4586
40.26617714307655 17.4383
40.289891143772046 17.3938
40.3136069448471 17.3902
40.33750984859743 17.4176
40.3612292688043 17.3399
40.3849504936829 17.3029
40.40867352466194 17.2733
40.43258372059144 17.2772
40.45631038219906 17.2635
40.48003885420956 17.1908
40.503769138055105 17.2106
40.52768664931955 17.2271
40.55142057531802 17.1526
40.57515631746428 17.0535
40.599079334038514 17.075
40.62281872700477 17.0408
40.64655994043941 17.0167
40.67030297578061 16.9806
40.69423334835778 16.9125
40.71798004609188 16.9929
40.74172857006355 16.9104
40.76547892171441 16.8857
40.7894166736039 16.8711
40.813170699248566 16.8426
40.83692655691388 16.8271
40.86068424804498 16.7832
40.884629402612525 16.7459
40.908390779366385 16.7958
40.932153993938 16.706
40.95591904777605 16.6921
40.979871628443995 16.6971
41.003640379561936 16.6851
41.02741097430883 16.6183
41.05118341413683 16.6264
41.075143444384416 16.5942
41.098919593177826 16.5664
41.1226975914255 16.480999999999998
41.14647744058318 16.4703
41.170444943946755 16.4519
41.19422851378379 16.3846
41.218013938914645 16.332
41.24198706625173 16.3122
41.26577622087193 16.2669
41.289567235177785 16.2578
41.31336011063129 16.3065
41.337340752422875 16.2579
41.361137369129835 16.2227
41.38493585138705 16.186
41.40873620066004 16.164
41.43272438060107 16.1248
41.45652848292052 16.0755
41.48033445666918 16.0353
41.50414230331616 16.0484
41.528138045159764 16.0541
41.551949656675205 16.0085
41.575763145513235 15.9754
41.59957851314666 16.0091
41.62358184070442 15.8965
41.64740098505737 15.8651
41.6712220126409 15.8114
41.69504492493139 15.8537
41.71905586207357 15.8551
41.74288256296395 15.7878
41.766711153007456 15.7738
41.79054163368412 15.6737
41.814560204340054 15.67
41.838394485526365 15.7061
41.86223066180303 15.6168
41.88625497706819 15.6125
41.910094962812 15.5916
41.93393684811168 15.5928
41.95778063445365 15.5464
41.981812625263366 15.4981
42.00566023303407 15.4746
42.029509746323676 15.4217
42.05336116662236 15.4413
42.077400857069705 15.4632
42.10125611078846 15.4523
42.12511327600405 15.4006
42.14897235421036 15.3343
42.173019768448455 15.3045
42.19688269209613 15.262
42.22074753323349 15.2959
42.24461429335818 15.2843
42.268669455600495 15.2426
42.292540073217886 15.1749
42.31641261433284 15.1774
42.34028708044675 15.1767
42.36435001496739 15.1449
42.38822835065557 15.1152
42.41210861586426 15.113
42.4359908120986 15.073
42.46006154323262 15.0136
42.48394762115317 14.9966
42.507835634632315 14.9831
42.531912233047436 14.9617
42.55580413732265 14.9025
42.579697981698 14.9021
42.60359376768525 14.8796
42.62767820545945 14.8483
42.65157789440821 14.8151
42.67547952952185 14.807
42.699383112316 14.7359
42.72347541395347 14.7362
42.74738291190531 14.6601
42.771292362102166 14.687999999999999
42.795203766063516 14.6542
42.819303956130405 14.6126
42.843219287476536 14.5991
42.86713657716324 14.597999999999999
42.89105582671383 14.5438
42.91516392983864 14.5668
42.939087119032166 14.4839
42.963012272677304 14.4964
42.98693939230129 14.4967
43.01105543317513 14.435
43.034986504731386 14.3833
43.05891954686589 14.3668
43.08285456110972 14.4108
43.10697856448665 14.3804
43.130917542983475 14.3471
43.15485849820081 14.3509
43.17880143167367 14.2362
43.20293342237094 14.2056
43.226880332449 14.1986
43.25082922540554 14.2148
43.27496722682525 14.1773
43.29892010567796 14.1583
43.32287497204102 14.0815
43.34683182745632 14.0848
43.370977859791836 14.0679
43.39493871351105 14.0394
43.41890156092628 14.0395
43.44286640358341 14.01
43.46702049182749 13.9887
43.49098934522816 13.942
43.51496019852649 13.895
43.5389330532723 13.9451
43.56309522248204 13.8382
43.58707210044314 13.8887
43.61105098451946 13.7964
43.63503187626491 13.7934
43.659202151562134 13.7841
43.68318707902681 13.7601
43.70717401884041 13.7233
43.731162972560874 13.7139
43.75534137913236 13.6827
43.779334381108384 13.6842
43.803329401683186 13.6223
43.82732644241872 13.6494
43.8515130055166 13.6049
43.87551410707659 13.5453
43.89951723350145 13.5665
43.923709934595614 13.5416
43.94771713129917 13.5099
43.97172635758096 13.4743
43.99573761501002 13.4665
44.0199385169922 13.4587
44.04395385732619 13.421
44.067971233533086 13.4146
44.09199064718605 13.3731
44.11619977548961 13.2786
44.14022328470671 13.2875
44.16424883610785 13.3556
44.18827643127035 13.304
44.21249381139513 13.2364
44.236525514814076 13.2208
44.26055926674478 13.2127
44.28459506876863 13.1963
44.3088207262813 13.1133
44.33286064928722 13.097999999999999
44.35690262714919 13.1069
44.38094666145278 13.0965
44.4051806219871 13.0845
44.42922879003185 13.0401
44.45327901929361 13.0422
44.477331311362136 12.9863
44.501573600619416 12.9544
44.525630039221795 12.9601
44.54968854541895 12.9093
44.573937102200176 12.9105
44.5979997645541 12.8982
44.622064499300315 12.8782
44.64613130803592 12.8406
44.67038823869318 12.8504
44.69445921643748 12.7905
44.718532272981385 12.7911
44.742607409926194 12.8053
44.76687274034801 12.718
44.79095205918753 12.6732
44.81503346325094 12.6758
44.839116954143876 12.6634
44.86339071028742 12.6409
44.88747839599524 12.5831
44.91156817336837 12.5663
44.93566004401666 12.5646
44.959942251908146 12.5737
44.984038330325966 12.5533
45.00813650686762 12.4858
45.03223678314731 12.4803
45.05652746888232 12.4693
45.08063196592069 12.4019
45.104738567558705 12.3993
45.128847275414856 12.4216
45.15314646515866 12.3192
45.17725940679741 12.37
45.20137445952892 12.3331
45.22568004865265 12.3543
45.24979934496396 12.3064
45.27392075725247 12.24
45.29804428714431 12.2127
45.322358426247604 12.2143
45.346486212804315 12.2073
45.370616121861914 12.1923
45.39474815505086 12.1342
45.41907087049246 12.1443
45.4432071734666 12.0705
45.46734560548283 12.1228
45.49148616817604 12.0748
45.51581748638564 12.0187
45.5399623320197 11.9812
45.56410931325473 12.0
45.58825843173002 12.0239
45.61259837920865 11.9726
45.636751793816 11.9521
45.66090735060093 11.905999999999999
45.68506505120716 11.8844
45.7094136545275 11.8695
45.73357566449271 11.8464
45.75773982322992 11.8818
45.78190613238733 11.8149
45.806263418194064 11.7306
45.83043404997326 11.7869
45.85460683713677 11.7637
45.87897065658495 11.7464
45.90314777634752 11.7436
45.92732705646868 11.725999999999999
45.9515084986045 11.677999999999999
45.97588104735473 11.6579
46.00006683541565 11.5933
46.02425479047904 11.610999999999999
46.04844491420549 11.5616
46.0728262191024 11.5756
46.09702070211635 11.5735
46.12121735879483 11.5191
46.14541619080294 11.4796
46.169806278764455 11.4989
46.194009483459034 11.4727
46.21821486849841 11.4486
46.24242243555223 11.4366
46.266821333570014 11.4029
46.29103328674601 11.3696
46.31524742696538 11.357999999999999
46.33946375590237 11.2944
46.36387149104216 11.3046
46.38809221957392 11.2844
46.41231514186606 11.2998
46.436540259597464 11.3019
46.460956858999374 11.2514
46.48518638983522 11.2321
46.509418121166966 11.1857
46.533652054678114 11.1713
46.55807754555709 11.1345
46.58231590571962 11.1685
46.60655647313217 11.1073
46.630988654873654 11.085
46.655233659129024 11.0455
46.67948087571551 11.08
46.70373030632484 11.0452
46.72817142736393 10.9825
46.752425308428684 10.9906
46.77668140861147 11.0041
46.80093972960865 10.9191
46.82538981736788 10.8887
46.849652602470904 10.8958
46.87391761349769 10.9065
46.8981848521493 10.8584
46.9226439341274 10.8644
46.946915650573224 10.8265
46.97118959976749 10.8304
46.99546578341598 10.7775
47.019933887188216 10.8018
47.04421456235744 10.7418
47.06849747711879 10.7133
47.09278263318286 10.6814
47.11725978640143 10.6545
47.14154944775105 10.6667
47.165841355555656 10.6099
47.1901355115306 10.5888
47.214621741924994 10.6074
47.23892041698887 10.6066
47.26322134538975 10.5904
47.28771440635075 10.519
47.31201986422527 10.5462
47.33632758061436 10.5225
47.360637557241866 10.4699
47.38513974410611 10.5085
47.40945426407847 10.4533
47.43377104948137 10.4451
47.45809010204344 10.4228
47.48260144275502 10.3924
47.506925052572285 10.3768
47.53125093475548 10.3117
47.55557909103813 10.2997
47.58009961361992 10.2878
47.60443234110732 10.2895
47.62876734791564 10.2976
47.65310463578333 10.2528
47.6776343683373 10.237
47.7019762413987 10.1691
47.72632040075572 10.1812
47.75066684815169 10.1596
47.77520581885936 10.1468
47.799556865477655 10.1238
47.823910205386 10.1513
47.84826584033272 10.0894
47.87281407745551 10.0648
47.89717432569297 10.0852
47.92153687423484 10.0618
47.94609208429692 10.026
47.97045925671401 10.0048
47.99482873471275 9.98605
48.01920052005013 9.97583
48.04376504619224 9.93988
48.068141469543484 9.94774
48.09252020552573 9.91268
48.11690125590099 9.9169
48.1414751266064 9.8849
48.16586082917454 9.862169999999999
48.19024885144316 9.8707
48.2146391951793 9.85422
48.239222439012764 9.8041
48.26361744916137 9.80107
48.28801478610016 9.83526
48.31241445160131 9.76057
48.337007097209366 9.77899
48.36141144338331 9.75775
48.38581812345755 9.71217
48.41022713920929 9.7281
48.434829215320704 9.68653
48.45924292604658 9.69592
48.48365897780325 9.67671
48.50807737237308 9.62906
48.532688907799276 9.64092
48.55711201168574 9.59882
48.581537463754074 9.60187
48.60615611725119 9.55485
48.63058628942721 9.57666
48.65501881516546 9.53757
48.6794536962573 9.50746
48.70408185970339 9.48385
48.72852147531801 9.468
48.75296345168211 9.43731
48.77740779059232 9.422080000000001
48.80204549302823 9.431239999999999
48.82649458091802 9.389660000000001
48.85094603676547 9.38679
48.87539986237231 9.33484
48.90004713292306 9.3256
48.92450572200832 9.380469999999999
48.94896668628025 9.31475
48.97343002754588 9.26495
48.99808689542115 9.29772
49.02255501470614 9.24895
49.04702551642794 9.23426
49.0714984023988 9.2173
49.096164896893235 9.21601
49.120642575466796 9.17562
49.145122643748394 9.14976
49.16960510355558 9.152330000000001
49.19428125404938 9.135480000000001
49.2187685210852 9.09322
49.243258185121555 9.13523
49.26794160167084 9.08098
49.2924360839405 9.070689999999999
49.31693296869764 9.07339
49.34143225776915 9.04525
49.36612538195438 9.01562
49.39062950396021 9.033339999999999
49.41513603578346 9.001439999999999
49.4396449792564 8.957989999999999
49.46434784069503 8.94482
49.488861631846454 8.90369
49.513377840166804 8.907689999999999
49.537896467493745 8.90667
49.56260909589029 8.8697
49.587132585683285 8.864519999999999
49.611658500018365 8.82245
49.636186840738596 8.81695
49.66090926588511 8.79668
49.685442483902584 8.790980000000001
49.70997813385706 8.75108
49.734516217597076 8.747489999999999
49.75924846937352 8.719660000000001
49.7837914452858 8.70115
49.80833686055187 8.69028
49.83288471702571 8.67393
49.85762682540054 8.691
49.882179588965734 8.65687
49.9067347993235 8.607280000000001
49.93129245833333 8.6144
49.95604445336378 8.63437
49.98060703442832 8.59753
50.005172069746266 8.61928
50.02993150438364 8.55328
50.05450147301533 8.58381
50.07907390151433 8.54295
50.10364879174981 8.53241
50.12841816587289 8.49586
50.1529980044635 8.51047
50.17758031042124 8.50745
50.20216508562089 8.47062
50.22694442953363 8.39372
50.25153416817468 8.38299
50.27612638170508 8.403830000000001
50.300721072005196 8.388710000000001
50.325510416102105 8.34677
50.350110084975064 8.32136
50.37471223628208 8.325289999999999
50.39931687190919 8.33667
50.424116246675766 8.30237
50.44872587605249 8.288160000000001
50.47333799543065 8.265410000000001
50.49795260670191 8.24341
50.52276204271512 8.23364
50.54738166295838 8.213330000000001
50.57200378079314 8.192969999999999
50.596628398116835 8.198319999999999
50.62144792604559 8.17441
50.646077567609396 8.16467
50.670709714377715 8.18709
50.69553683636198 8.120330000000001
50.72017401885922 8.11233
50.7448137122895 8.08284
50.76945591856022 8.0918
50.79429318636823 8.080960000000001
50.818940443716784 8.101519999999999
50.84359021965163 8.055860000000001
50.868242516085964 8.03704
50.893089960641895 8.033719999999999
50.917747323549435 7.999410000000001
50.94240721271973 7.99826
50.96706963007175 7.94707
50.99192728239342 7.942310000000001
51.01659478166073 7.96202
51.04126481489051 7.91573
51.06593738400761 7.875889999999999
51.090805275207074 7.87476
51.11548294172845 7.8697
51.14016314993547 7.87628
51.164845901758845 7.83685
51.18972406304274 7.77968
51.21441192780656 7.77453
51.23910234200271 7.767110000000001
51.2637953075678 7.7716
51.288683770237945 7.73327
51.31338186432707 7.71133
51.33808251561888 7.71777
51.362978729967345 7.70603
51.387684521509755 7.7193
51.41239287610203 7.6612
51.437103795691165 7.634530000000001
51.46201036644977 7.61057
51.486726441956634 7.589980000000001
51.51144508832545 7.62823
51.536166307509156 7.57338
51.56108326624387 7.57948
51.58580965706056 7.60902
51.61053862657523 7.57285
51.635270176746864 7.514010000000001
51.66019755512065 7.53362
51.68493429268881 7.5087399999999995
51.70967361681515 7.47952
51.73441552946465 7.4851399999999995
51.759353359237934 7.4659699999999996
51.7841004750961 7.43863
51.80885018539685 7.48106
51.833602492111254 7.425160000000001
51.8585508051424 7.35509
51.883308330926425 7.37063
51.90806845906181 7.3513
51.932831191525715 7.3283
51.95779001977161 7.28567
51.98255798721516 7.28695
52.00732856494335 7.3048399999999996
52.03229530577543 7.287730000000001
52.057071130455945 7.27112
52.081849571391054 7.234789999999999
52.106630630568695 7.24949
52.13160794279417 7.218430000000001
52.15639426492067 7.203130000000001
52.18118321127822 7.2087699999999995
52.205974783860896 7.149719999999999
52.23096269971011 7.14107
52.255759551287994 7.149789999999999
52.280559035098186 7.13012
52.30536115314103 7.1093
52.33035970494467 7.09785
52.35516711807904 7.0731
52.37997717147198 7.04587
52.40478986713005 7.047969999999999
52.42979908731974 7.03017
52.454617094216 7.00634
52.47943774942214 6.993860000000001
52.50426105495102 7.0194600000000005
52.529280976059844 7.022310000000001
52.554109609024096 6.9618899999999995
52.57894089837482 6.97394
52.60377484613117 6.9737100000000005
52.62880550079408 6.92019
52.65364479223379 6.917489999999999
52.67848674816189 6.88318
52.70352547971946 6.88247
52.72837279155837 6.85998
52.753222773982785 6.83488
52.778075429022984 6.89765
52.80312495150885 6.841130000000001
52.827982978797436 6.81395
52.85284368481815 6.7755600000000005
52.87770707160767 6.764139999999999
52.90276741793998 6.7860000000000005
52.92763619336701 6.749289999999999
52.952507655698504 6.74723
52.977381806977576 6.74281
53.00245301017842 6.71091
53.02733256653592 6.728039999999999
53.052214817996074 6.693280000000001
53.077099766608484 6.68452
53.102181859804446 6.66748
53.127072229988265 6.6494800000000005
53.15196530349892 6.63392
53.17686108239249 6.6492
53.20195409881522 6.60774
53.22685531582556 6.57751
53.25175924441303 6.589519999999999
53.27666588664027 6.55014
53.30176985962693 6.516290000000001
53.3266819565689 6.51451
53.35159677336455 6.51728
53.376514312083096 6.52171
53.40162927507703 6.50477
53.42655228516116 6.47085
53.45147802340193 6.47626
53.47660125628886 6.44029
53.50153247842639 6.43176
53.52646643496923 6.39501
53.55140312799818 6.37427
53.576537409691696 6.3956800000000005
53.60147960336152 6.37413
53.626424539786164 6.36811
53.65137222105307 6.3373
53.67651758529126 6.35285
53.70147078399681 6.32892
53.72642673383343 6.30649
53.75138543689533 6.33125
53.776541917524526 6.28872
53.801506154876755 6.3086
53.826473151763246 6.24766
53.851442910284916 6.24271
53.87661054126026 6.2327900000000005
53.9015858509782 6.19675
53.92656392866066 6.224080000000001
53.95154477641532 6.1872300000000005
53.976723591801296 6.18269
54.00171000771266 6.18887
54.02669920004598 6.1548
54.051691170915745 6.10076
54.076881204886796 6.125
54.101878760928514 6.06611
54.12687910187696 6.06051
54.152077577768296 6.0675
54.1770835166946 6.0359
54.20209224691339 6.04752
54.22710377055121 6.0652800000000004
54.25231352511594 6.025119999999999
54.27733066384342 5.9865699999999995
54.30235060239643 5.99115
54.32737334290836 5.9665300000000006
54.35259441062629 5.92854
54.377622783395324 5.9086300000000005
54.40265396455061 5.95795
54.42768795623251 5.93023
54.45292037169559 5.91178
54.477960012857906 5.8659300000000005
54.50300247099511 5.86501
54.52804774825457 5.835719999999999
54.55329154616743 5.81383
54.57834249018678 5.79614
54.6033962597977 5.7559
54.6284528571545 5.7148900000000005
54.653708072335164 5.69259
54.67877035378786 5.689
54.70383546947698 5.68801
54.72890342156389 5.658869999999999
54.7541700889442 5.6527199999999995
54.77924374251975 5.61648
54.8043202390049 5.57775
54.82959552413022 5.5764
54.8546777351945 5.57658
54.87976279569621 5.54166
54.90485070780914 5.57739
54.930137506558005 5.4762699999999995
54.95523115074295 5.4846900000000005
54.98032765308844 5.47105
55.005427015775496 5.46189
55.03072536339621 5.45445
55.05583047570572 5.38945
55.080938454927676 5.4011
55.10604930325027 5.40266
55.131359235107396 5.40026
55.15647585066083 5.34576
55.181595341907496 5.319459999999999
55.20671771104285 5.2884400000000005
55.232039262617704 5.29254
55.25716741665048 5.271059999999999
55.28229845518636 5.24956
55.30743238042802 5.18539
55.33276558731939 5.20199
55.357905315183636 5.18155
55.383047936390035 5.14236
55.40819345314859 5.110580000000001
55.433538351073295 5.08552
55.458689688238415 5.05258
55.483843927614096 5.02201
55.509197623043605 5.02399
55.53435769621134 5.03326
55.55952067826466 4.95993
55.5846865714265 4.922619999999999
55.61005202069737 4.90725
55.63522376553902 4.93764
55.66039842818645 4.940180000000001
55.68557601087004 4.97438
55.7109532500271 4.822780000000001
55.73613670233794 4.79483
