TT I
1.2716486653135266 8.13433
1.2939594142134223 7.55653
1.3162702121660406 6.9020399999999995
1.3385810600174564 7.41449
1.3608919586137629 7.441339999999999
1.383202908801069 7.05105
1.405513911425503 6.514819999999999
1.4278249673332093 6.647060000000001
1.4501343378461518 6.61948
1.4724455028545926 6.46309
1.4947567236847858 6.67753
1.517068001182951 6.610119999999999
1.5393793361953272 6.2390099999999995
1.5616907295681737 5.66062
1.5840021821477681 5.82062
1.60631369478041 5.4454400000000005
1.6286252683124185 5.5334699999999994
1.6509369035901333 4.97809
1.6732468618895553 5.4004
1.695558623192809 5.18129
1.7178704487808514 5.36192
1.7401823395001077 4.74402
1.7625012545597203 5.4690900000000005
1.7848028405262486 5.48477
1.8071218901122095 5.01503
1.8294236121921872 4.38959
1.8517427996910911 5.37863
1.8740620574440425 5.39272
1.8963639900671978 4.66221
1.9186833908139995 4.922619999999999
1.9409854680117449 5.32793
1.9633050151394713 5.327369999999999
1.9856246367570705 5.16716
2.0079269371922672 4.52999
2.03024671027244 4.90032
2.0525491637446027 4.2964
2.074869091674931 4.728940000000001
2.097171701569106 4.51432
2.1194917877373847 4.90528
2.141811954326636 4.94874
2.164114805233074 4.92831
2.186435135143035 5.9894099999999995
2.208738150935709 12.6473
2.231058647554722 25.3928
2.2533792288321184 19.9581
2.275682498336085 9.29349
2.298003251406138 5.2495400000000005
2.3203066942619714 4.769909999999999
2.3426276225136022 4.64053
2.3649486396617507 4.46119
2.387252348930071 4.77254
2.4095735463442893 4.94447
2.4318774374315884 4.9771
2.4541988185014043 4.86051
2.476502894794693 4.99932
2.498824462909887 5.46253
2.521146125856138 5.32572
2.5434504863470337 5.63111
2.5657723414244717 6.25155
2.588076895590662 6.53177
2.610398946189713 6.56274
2.6327210958598384 6.02323
2.6550259469304716 6.39722
2.6773482972090137 6.732889999999999
2.6996533504259 6.616169999999999
2.7219759047039602 6.3525
2.744298562293959 6.45828
2.7666039251246595 6.593780000000001
2.7889267918020164 6.98182
2.8112323652516555 6.4284300000000005
2.833555444408179 7.623989999999999
2.8558786311183852 8.00583
2.8781845268938557 8.6992
2.9005079311721484 8.26902
2.9228140460410397 8.73514
2.9451376712799635 8.73756
2.967444008632326 9.573789999999999
2.9897678582247247 10.1589
3.0120918213106695 10.5992
3.0343984987899373 10.927
3.0567226913198637 11.3388
3.079029599759726 11.484000000000002
3.101354025127254 12.3213
3.123678568232338 12.8745
3.145985829517914 13.4768
3.16831061055229 13.455
3.1906181112775593 13.8521
3.212943133635653 14.5949
3.2352682779763207 14.783
3.2575761442691227 15.2917
3.2799015350264273 15.8507
3.302209649240067 16.6129
3.3245352898092655 17.0058
3.3468436553365257 17.5523
3.369169549113219 17.8195
3.3914955708171384 19.0541
3.413804319727358 19.3114
3.4361305997334863 19.4482
3.4584396084414553 19.6444
3.4807661501462652 20.5486
3.503092824025881 21.5434
3.5254022288463154 21.2126
3.5477291695206588 21.8429
3.5700388426251948 22.4436
3.5923660534916446 24.0897
3.6146934007816114 37.1708
3.637003482731501 80.6378
3.6593311053109985 90.6756
3.681641464033634 54.4794
3.7039693653009733 30.7525
3.726297407241705 26.676
3.7486081875460804 26.1385
3.7709365132734978 26.8677
3.793247578841633 27.1506
3.8155761917550093 27.219
3.8378875459837216 27.5229
3.8602164494827234 27.9398
3.882545499606844 28.6454
3.9048572932539183 29.5046
3.9271866390645718 29.9327
3.9494987298666713 30.4138
3.971828374764527 30.7617
3.9941581705403255 31.511
4.016470713506008 32.4709
4.038800813471445 32.9877
4.061113662089144 33.7875
4.0834440696459176 34.4705
4.105774632334751 34.7743
4.128087945865126 35.5473
4.150418821249301 36.6107
4.172732448931298 38.1523
4.195063640413578 40.2605
4.2173775856475215 44.2568
4.239709096631102 71.665
4.262040768704612 215.28599999999997
4.284355196706267 289.996
4.306687193387355 192.688
4.329001947444346 80.3746
4.35133427213731 49.22
4.373666762177566 45.5152
4.395982011761091 45.6729
4.418314834921175 46.3677
4.44063041906622 53.8505
4.4629635787515625 64.2408
4.4852969080429785 64.8052
4.5076130004776225 55.8905
4.529946671403969 53.6245
4.552263106909177 53.7935
4.574597122877047 53.7534
4.596931312711224 54.4528
4.619248269273446 55.1632
4.6415828092605835 56.3218
4.663900117405352 57.5164
4.686235010953232 58.9361
4.708552674085913 60.6047
4.730887924602802 61.7111
4.753223354952695 63.0995
4.775541557023902 65.3841
4.797877349456786 66.9147
4.820195915032126 69.0381
4.842532072957498 70.6036
4.864868414979744 72.7693
4.88718753227192 75.293
4.909524244902505 77.5621
4.931843734218147 78.7768
4.954180820867835 81.6005
4.976518095879839 85.273
4.998838149695359 88.7932
5.021175803844231 92.8055
5.043496238205739 96.6956
5.065834274903528 101.82700000000001
5.088172504230693 108.274
5.1104935158799565 117.476
5.132832132875765 143.829
5.155153533596801 190.69400000000002
5.1774925416746225 246.33599999999998
5.199814334878411 535.693
5.2221537374521505 1522.41
5.244493338631803 3420.52
5.266815727034316 6823.03
5.289155727832427 10829.0
5.311478517248165 9428.24
5.333818921080011 4195.44
5.356159527788849 972.725
5.3784829252032536 266.164
5.400823940070432 178.16
5.423147747031976 148.748
5.445489173474152 134.076
5.467830807066149 126.585
5.490155234831516 120.993
5.512497285125229 115.366
5.534822130975162 112.365
5.557164601388673 109.11200000000001
5.579489868738879 106.323
5.601832762690846 104.848
5.6241758697774475 103.77799999999999
5.646501775867269 102.755
5.668845311622074 100.88799999999999
5.691171647754637 100.02799999999999
5.713515615597765 98.8956
5.735859800852677 97.8359
5.758186788542988 98.5558
5.780531411018185 99.1916
5.802858837297399 98.0737
5.825203900414495 99.046
5.8475491852224 99.8143
5.869877275883075 99.9427
5.892223006467101 100.896
5.914551544266608 102.99700000000001
5.936897724049891 107.618
5.959244129804903 116.806
5.981573344815301 145.915
6.0039202049061 276.45
6.026249875609095 623.486
6.04859719346037 1198.54
6.070927323278297 2131.25
6.093275102315365 3678.81
6.115623113320588 4713.75
6.137953938319995 3719.25
6.160302415650845 1461.56
6.182633708324452 377.514
6.2049826554078376 148.211
6.227331838745022 108.236
6.249663839443684 95.1093
6.27201349767565 89.8944
6.294345974611799 93.1766
6.316696111167083 102.524
6.339046488263839 97.5507
6.361379686074702 83.8546
6.383730546639482 75.5031
6.406064229255215 72.9371
6.428415576718203 72.5142
6.450749747566656 71.1559
6.47310158535871 69.1846
6.495453669698332 68.3854
6.517788579421056 67.7546
6.540141159237969 66.7656
6.562476565766648 65.9633
6.5848296444934045 65.6143
6.607182974060425 65.6993
6.6295191323281015 65.5111
6.651872965955752 67.6855
6.6742096296068985 89.7365
6.6965639707294615 131.714
6.71891856698715 133.814
6.741255995248479 94.3156
6.763611104154477 69.5892
6.785949046381137 62.8423
6.808304671371482 60.9096
6.8306605557940046 61.0111
6.852999275508618 59.8598
6.875355681171544 59.41
6.897694923437771 58.9168
6.92005185377892 59.0624
6.9423916220322655 58.6711
6.964749080490181 57.8237
6.987106804399774 57.7957
7.009447368180821 58.2063
7.031805625367033 57.7631
7.054146723727803 57.5607
7.076505517631004 56.9461
7.098864581288365 57.2293
7.121206488070854 56.9145
7.143566093607822 57.3236
7.165908543567245 57.8959
7.188268694426048 57.7601
7.2106291193438095 57.2259
7.232972390625943 58.6915
7.255333366030969 69.7849
7.277677189091925 116.571
7.300038718428332 160.305
7.322400526130865 139.79
7.344745183422596 89.0849
7.367107550224791 63.5899
7.389452767901992 58.3681
7.411815697249891 57.243
7.434161478756298 56.357
7.456524974096713 56.2218
7.478888753837185 56.1307
7.501235387657368 56.7135
7.523599738562711 56.6071
7.545946944825532 56.9584
7.568311870344528 57.3327
7.5906770845765665 57.473
7.613025156078678 58.861000000000004
7.635390950099687 60.089
7.657739602662809 59.0722
7.680105979923558 58.3476
7.702472650212829 58.5888
7.724822180948224 58.3473
7.747189439655568 58.2579
7.769539560075357 58.3317
7.791907410653562 58.9956
7.81425812420825 58.6547
7.836626570110925 58.722
7.858995315087906 59.4883
7.881346924933401 60.0234
7.903716270417482 60.6864
7.926068482028405 60.7703
7.948438431475253 61.7389
7.9708086843180235 62.0922
7.993161805171116 62.419
8.015532667162402 63.223
8.037886398416653 64.1565
8.060257873014221 64.8457
8.082629655331942 65.3971
8.104984308787587 66.3656
8.127356708900503 69.7726
8.149711981398308 75.0107
8.172085002766314 77.5916
8.194458336181368 74.5917
8.216814543847752 72.2104
8.23918850371002 72.6373
8.26154533906492 73.4737
8.283919928836452 75.1862
8.306277395339652 75.8416
8.328652618483376 77.579
8.351028159736202 79.6591
8.373386579575245 82.3183
8.395762759396959 84.0629
8.418121819038275 89.3061
8.440498640894003 102.95200000000001
8.462875785192262 118.22200000000001
8.485235811156207 137.235
8.507613602688501 196.38099999999997
8.529974277114228 322.45799999999997
8.552352719347912 484.717
8.574731488360351 703.5889999999999
8.59709314210385 1075.76
8.619472567021075 1574.27
8.64183487789147 1993.63
8.664214962183097 1938.91
8.686577933647762 1272.05
8.708958680784317 574.286
8.731339760774953 234.821
8.753703729764451 132.316
8.77608547780821 109.76
8.798450116065078 103.425
8.820832535634787 99.027
8.843215292401656 96.7147
8.865580941199045 95.1858
8.887964374703538 93.7476
8.910330701447199 94.1872
8.932714815164482 96.1788
8.955099270424924 95.1402
8.977466620733543 91.9827
8.999851761421976 89.5077
9.022219798361645 87.7746
9.04460562795561 87.5335
9.066991803441677 86.9529
9.089360876979615 86.7734
9.111747746589993 86.2745
9.13411751544971 85.5314
9.156505082664324 85.352
9.178875550323522 85.5398
9.20126381862328 85.9302
9.223652438908596 86.2497
9.246023961427412 86.04700000000001
9.26841328802173 85.4935
9.290785518039224 85.6966
9.313175554425882 86.5462
9.335565947154315 87.1057
9.357939245086508 87.1971
9.380330352834827 87.1404
9.40270436697103 87.0233
9.425096193225055 86.792
9.447488380180165 87.6331
9.469863475295412 87.8114
9.492256385987508 88.1294
9.514632206018318 88.6917
9.537025843935714 89.0815
9.559402392368193 90.2062
9.581796761000229 91.7153
9.604191496441521 92.6539
9.626569144158516 95.8797
9.648964615551032 100.103
9.671343000390081 101.715
9.693739211225699 99.8953
9.716135793237463 97.6078
9.738515290448102 97.5405
9.760912617143402 98.3293
9.783292860202891 99.9639
9.805690935076182 101.522
9.828089385495742 102.38799999999999
9.850470754023561 104.73100000000001
9.872869957865444 111.69
9.89525208097539 125.971
9.917652041736662 138.502
9.940052382417589 141.21200000000002
9.962435644102392 155.232
9.984836746950979 206.614
10.007220771957746 301.83299999999997
10.029622640473708 429.725
10.052007432299963 581.1990000000001
10.074410069984072 781.735
10.096813093716005 1090.19
10.119199042482517 1474.0
10.141602840636468 1777.15
10.163989564971628 1718.71
10.186394141051062 1203.91
10.208799107559706 607.7869999999999
10.231187001965623 271.642
10.253592751657669 153.681
10.275981430388155 125.00200000000001
10.298387966769793 120.861
10.320794897965431 121.89200000000001
10.343184759907361 119.734
10.36559248305461 114.443
10.387983138083852 110.67399999999999
10.410391656691655 114.697
10.432800574501677 129.958
10.455192425893369 154.805
10.47760214443012 185.24
10.499994797678786 221.293
10.522405320453982 273.902
10.54479877906917 358.82099999999997
10.567210109595656 457.00300000000004
10.5896218454736 527.26
10.612016518879773 537.309
10.634429067781074 431.495
10.656824555333241 262.54
10.679237920773568 155.454
10.701651695961992 109.456
10.724048411481384 96.0713
10.746463008485165 91.4848
10.768860546937125 89.3451
10.791275969274796 87.3692
10.81369180576079 86.5111
10.836090585366925 84.6146
10.858507252467449 83.3862
10.88090686379991 82.5857
10.903324365036394 81.9958
10.925724811614439 82.2167
10.948143150509463 83.1128
10.970561909719066 82.1773
10.992963615930844 80.4427
11.015383218085756 78.3073
11.037785768347074 76.4167
11.06020621697282 75.9344
11.082627090322113 75.3711
11.105030913430326 75.1187
11.12745263854165 75.3396
11.149857314510728 77.8052
11.172279894912576 83.5276
11.194702904450653 83.7894
11.217108866490921 80.6511
11.239532736615194 76.6785
11.26193956033512 74.2534
11.284364294577085 72.8625
11.306789462371718 71.2123
11.329197585398376 70.0781
11.351623622610898 69.7935
11.37403261614354 68.8358
11.396459526308487 68.7092
11.418869393879497 68.071
11.441297180532617 67.6915
11.463725406927658 67.61
11.486136592353875 67.2894
11.508565700543707 67.5935
11.530977768845315 69.5345
11.553407762368774 70.3837
11.575838200059769 70.0403
11.598251599479612 67.8925
11.620682927815501 66.6544
11.64309721895548 66.3722
11.665529441478206 65.7302
11.687962112597958 65.4236
11.710377748130886 65.5846
11.732811318753434 65.5581
11.755227854859067 65.4051
11.777662328529495 65.5178
11.800079768750786 65.4799
11.822515149015453 64.9208
11.844950984084935 65.3968
11.867369787303163 64.9339
11.889806534289491 64.7874
11.912226250487029 65.2912
11.934663912939751 65.4756
11.9571020346363 65.6881
11.979523127133968 65.9308
12.001962169624331 66.5942
12.024384183972964 68.1067
12.046824150809913 71.8827
12.069264581333726 79.0653
12.091687985297767 86.8397
12.11412934550045 95.5907
12.136553680195208 106.729
12.158995973632788 123.075
12.181438735204349 142.829
12.20386447284199 168.30700000000002
12.226308172985636 194.609
12.24873485024193 205.88400000000001
12.271179492516982 187.857
12.293607112949127 153.347
12.316052700916226 114.073
12.338498763250042 88.2528
12.360927805303868 74.8039
12.383374818673879 69.8528
12.405804812803074 67.5125
12.428252780773262 67.4819
12.45070122756722 67.065
12.473132656675375 66.7291
12.49558206341869 67.3662
12.518014453510101 67.1484
12.540464823770117 67.2962
12.562915677315177 67.4137
12.58534951575545 68.0782
12.607801338171472 69.8997
12.630236146511358 74.3691
12.652688941369085 78.9431
12.675124723177234 79.6266
12.697578494048786 76.4108
12.720032754458185 72.4348
12.742470003354093 70.7264
12.764925245138771 70.6806
12.787363476431278 70.9835
12.809819703166806 71.2449
12.83227642391173 71.8793
12.854716135692716 72.5437
12.877173846755147 73.9155
12.899614549869717 74.1935
12.9220732548287 74.9105
12.94453245827299 75.49
12.966974655289818 76.5194
12.989434858002571 77.3137
13.011878055298721 77.6532
13.034339260862497 78.9061
13.056800969391883 80.4979
13.079245674017244 83.1338
13.101708390774869 85.5877
13.12415410463411 93.9548
13.146617833206086 109.286
13.169064559883248 126.816
13.191529303857127 144.775
13.213994557076367 163.732
13.236442809902437 188.787
13.258909083908291 225.951
13.28135835851934 272.658
13.30382565690295 327.553
13.326293469022952 385.777
13.348744283242008 425.158
13.371213125129904 399.551
13.39366497011003 324.138
13.416134845360597 224.68200000000002
13.438605238843131 153.96200000000002
13.46105863690397 120.62700000000001
13.483530069144786 116.40100000000001
13.505984506951902 124.007
13.528456981549432 137.29399999999998
13.550929978879088 150.718
13.573385983253365 166.81900000000002
13.595860028340867 191.736
13.618317081455832 227.801
13.64079217790333 271.315
13.663250283359057 316.76
13.685726434770173 354.716
13.708203115221277 355.20599999999996
13.730662806148091 307.901
13.75314054697177 236.243
13.775601299246777 163.47299999999998
13.798080104050406 114.155
13.820559442405358 93.4741
13.843021793671388 86.8312
13.865502201420897 84.4139
13.887965623051947 83.5355
13.910447103807167 82.3892
13.932929122629764 80.7415
13.955394156785959 80.2778
13.977877254034569 79.2707
14.000343367582113 78.3254
14.022827546871707 77.6827
14.045294743423524 76.6415
14.06778000837062 76.1327
14.090265817715476 76.2861
14.112734645763819 75.652
14.13522154619454 75.3195
14.157691466286913 75.6149
14.180179461423874 75.2074
14.202668005486178 74.5631
14.22513957064374 73.9599
14.247629214846473 73.3131
14.270101881097517 73.1705
14.29259262906496 73.0468
14.315083930490205 73.9132
14.337558255389705 74.0282
14.360050666019726 74.0245
14.382526101071944 73.0501
14.405019624534942 72.0014
14.427513705993134 71.7329
14.449990813291825 71.5969
14.47248601302899 71.4538
14.49496423954951 71.653
14.517460561197822 71.8841
14.539939910570322 71.5237
14.562437357763558 71.8555
14.58493536931253 73.0043
14.607416409993311 73.5388
14.62991555254159 74.1427
14.652397725157423 74.3809
14.674898002342799 74.1075
14.697398848433282 73.5418
14.719882725991326 74.0382
14.74238471217934 75.5056
14.764869730765593 79.1848
14.787372860692983 84.5494
14.809876564079925 91.39399999999999
14.83236330125751 98.5131
14.854868153850365 105.869
14.877356041159485 115.286
14.899862046604186 127.781
14.922351087688757 145.391
14.944858249632887 166.737
14.967365991421232 190.09900000000002
14.989856770231246 208.90900000000002
15.012365673994204 219.502
15.03485761569738 207.74400000000003
15.05736768508665 175.34799999999998
15.07987833888692 138.086
15.102372032001655 105.84899999999999
15.124883856909658 86.005
15.14737872204565 77.4781
15.169891721717274 74.3627
15.192405310371893 73.741
15.214901940621196 74.0282
15.237416709527137 74.0551
15.259914520936249 73.979
15.282430473753607 73.1631
15.304947020131227 72.1743
15.327446610371178 70.9818
15.349964346154254 70.1006
15.372465126703139 69.8544
15.394984055556009 69.3136
15.417486030076159 69.2232
15.44000615566487 68.9299
15.462526881230803 68.9815
15.485030653812652 69.0981
15.507552581617434 69.1027
15.530057557334603 69.0235
15.55258069104857 69.0953
15.575104429329837 68.946
15.597611216864632 68.7597
15.620136166564563 69.0098
15.6426441664095 70.1893
15.665170331202765 72.9516
15.687697105158826 77.1606
15.710206930593545 82.6049
15.732734925158933 88.1115
15.755245972089478 93.8616
15.77777519094324 100.245
15.800287463046663 108.59299999999999
15.822817909869592 121.58200000000001
15.84534897229804 137.319
15.867863089299354 155.71200000000002
15.890395385222186 174.144
15.912910736597423 189.06400000000002
15.935444269699861 191.67700000000002
15.957978423016485 177.19099999999997
15.980495633101265 146.795
16.003031029129367 116.398
16.02554948280019 89.7612
16.048086125229432 74.8209
16.070623392487107 69.5076
16.09314371869582 67.4621
16.11568223789321 66.3652
16.13820381691126 65.4414
16.160743591742527 64.3498
16.183283996022084 63.2812
16.205807461423195 62.0237
16.228349126881973 61.7388
16.25087385432698 61.551
16.27341678466365 60.7353
16.29594277784926 60.8282
16.31848697676433 60.8522
16.341031811604868 61.0445
16.36355971058487 61.3478
16.3861058195587 61.1474
16.40863499352978 60.0454
16.431182380342005 59.2392
16.453730407713202 58.4299
16.476261501364792 58.2079
16.498810812136167 57.9047
16.52134319004079 57.9405
16.54389378792203 57.7772
16.566445031001553 57.4875
16.588979342490088 57.4919
16.61153187824822 57.354
16.634067483263312 57.0983
16.656621315414416 57.0795
16.679175797408888 56.8654
16.701713349928728 56.8793
16.72426913389191 57.172
16.74680798922351 57.2626
16.76936507887444 57.0862
16.791905240734874 57.2342
16.814463639794468 57.2008
16.837022695210294 57.091
16.859564824093756 57.6079
16.882125194503903 58.0913
16.904668639217885 58.7986
16.927230328348003 58.9782
16.949792678493612 59.0616
16.972338104193863 58.538999999999994
16.994901778652235 57.9253
17.017448529496576 57.9968
17.040013531998152 58.4674
17.06257920018044 58.7715
17.0851279459922 59.8528
17.107694947817667 60.9429
17.130245028099072 62.2722
17.15281336730298 63.6288
17.17536478578733 64.7462
17.19793446610687 66.2383
17.220504818648422 68.1883
17.243058251703697 70.3973
17.265629950971032 73.9708
17.288184731571736 78.0096
17.310757781306908 82.0119
17.33333150794385 85.1317
17.355888317140174 85.3587
17.37846339986244 82.969
17.401021565958885 77.4604
17.42359800851343 71.8151
17.44617513265564 67.0458
17.468735341390783 63.9222
17.491261035594565 62.2244
17.51396340099364 61.4662
17.536490463869136 61.5786
17.559018209820174 61.6962
17.58154663977963 61.7813
17.604251766089718 61.7324
17.626781572227713 61.9802
17.64931206518155 62.5289
17.671843245885103 62.7921
17.69455114821572 62.9298
17.717083712612634 63.4146
17.739616967569667 63.5783
17.762150914021706 63.9567
17.78486160749854 64.1181
17.807396945166804 64.5544
17.829932977143503 65.4093
17.85246970436452 67.4129
17.875183204129467 70.0819
17.897721330097664 72.8259
17.920260154126645 76.3024
17.942799677153296 79.3618
17.9655159983646 82.1771
17.988056927677544 85.7054
18.010598558807683 90.8723
18.033140892692916 98.0182
18.05586005052525 106.35799999999999
18.07840379824407 115.375
18.10094825154059 126.009
18.12366954819864 136.227
18.146215420998306 141.28
18.16876200220057 142.064
18.191309292745153 132.249
18.214033452627167 119.505
18.236582170236648 104.45700000000001
18.259131600016456 94.7918
18.281681742907335 90.1468
18.304408781233683 90.8875
18.32696035875955 93.6832
18.349512652227624 97.9673
18.372065662579683 103.149
18.394795594587553 106.775
18.41735004715306 107.095
18.43990521943684 102.927
18.46246111238171 95.8038
18.485193953325208 85.5294
18.507751296070428 77.084
18.530309362314178 71.1327
18.552868153000343 67.541
18.57560391815056 65.3672
18.59816416623245 64.6416
18.620725141597372 64.0763
18.643286845190268 63.5724
18.666025549835414 62.9219
18.688588718427933 62.4552
18.711152618092243 62.3528
18.73389353884365 61.9004
18.75645890921984 61.6038
18.77902501351406 61.3764
18.801591852673102 61.1976
18.824335739722738 60.6798
18.846904057212626 60.5157
18.8694731124168 60.1526
18.89204290628315 60.2351
18.914789774966803 60.0116
18.937361054791623 59.6684
18.959933076131318 59.5142
18.982505839934877 59.4883
19.00525570560582 59.5286
19.027829963004184 59.2185
19.05040496572238 59.4799
19.072980714710468 59.3576
19.095733592739563 59.5718
19.11831084296757 59.9149
19.140888842324735 60.8164
19.16346759176222 61.2833
19.18622349753803 61.7947
19.208803755869358 62.6441
19.231384767143577 63.2957
19.253966532312948 64.1739
19.276725481241822 65.5318
19.29930876296784 67.1371
19.3218928014549 69.2451
19.34465404436217 72.14699999999999
19.36723960516257 75.3115
19.389825925592426 77.5747
19.412413006605938 78.2684
19.43517731967805 76.9411
19.457765930683355 73.6025
19.48035530514408 69.2829
19.50294544401556 64.7973
19.525712842708348 60.9261
19.54830451925909 58.578
19.570896963095727 56.922
19.593490175174704 56.4599
19.616260674962184 56.1895
19.638855432416964 55.8663
19.661450960992624 55.981
19.68404726164677 56.0948
19.706820878021247 55.7227
19.729418731756834 55.9319
19.752017360452857 55.6377
19.77461676506804 55.9796
19.797393513540218 55.9223
19.819994478951667 56.4677
19.84259622316767 57.1085
19.8651987471481 57.4835
19.887978643247177 58.0423
19.91058273574792 58.46
19.933187610901943 58.832
19.955969879466828 59.7885
19.97857632894404 60.5187
20.00118356396599 61.6125
20.023791585494575 63.2251
20.046577028914875 65.5599
20.069186632506966 67.7573
20.091797025500632 69.8383
20.114408208858933 71.5346
20.137196842715273 72.6008
20.159809615886765 72.7096
20.18242318232135 70.3939
20.20503754298326 67.9648
20.227829382875154 65.7038
20.250445341109344 64.6207
20.27306209647285 64.1069
20.29567964993108 64.7461
20.31847471147704 65.7351
20.34109387027612 66.9038
20.363713830075454 67.3306
20.386334591841646 67.2309
20.409132890679302 65.6963
20.431755265564437 62.9044
20.454378445325528 59.794
20.477002430930366 57.3839
20.499803982716553 55.5255
20.522429589228004 54.2737
20.54505600449589 53.4095
20.567683229489194 53.2963
20.590488049900088 52.8924
20.61311690359731 52.4615
20.63574656993626 52.2534
20.658553853717297 51.9288
20.681185154618298 51.8946
20.703817271080066 51.7359
20.72645020407368 51.391999999999996
20.749260783967177 51.2717
20.771895359337133 51.1163
20.794530754161617 51.091
20.817166969412938 51.007
20.83998086114876 50.8843
20.86261872660049 50.8054
20.885257415405402 50.8961
20.90789692853701 50.6816
20.930714147864748 50.5291
20.953355319030678 50.7556
20.97599731745334 50.9768
20.99864014410749 50.8921
21.021460706796564 50.8315
21.044105199328826 51.0762
21.06675052302631 51.1933
21.089396678865015 51.3164
21.112220600704806 51.5104
21.134868430275347 51.806999999999995
21.15751709492456 51.8118
21.180166595629693 51.9773
21.202993892429635 52.4292
21.22564507473034 52.7133
21.24829709602816 53.0824
21.27112693608965 53.2685
21.293780644891275 53.3897
21.316435195634053 53.0481
21.339090589297417 52.5203
21.361923832041875 52.1949
21.384580921090404 51.3798
21.407238856007325 50.802
21.429897637773326 50.6496
21.45273429906592 50.494
21.475394784108598 50.4039
21.498056118951983 50.5581
21.520718304578022 50.6773
21.543558400304388 50.8034
21.566222297108816 50.9375
21.58888704765135 51.083
21.61155265291521 51.5917
21.63439619898156 51.9933
21.657063523335786 52.3415
21.67973170537063 53.0415
21.7024007460706 53.5043
21.72524775840385 54.0195
21.747918526116475 54.7114
21.770590155457388 55.6433
21.79326264741238 56.8971
21.816113141960237 58.2932
21.838787368860547 59.8735
21.861462461341976 61.3444
21.884315579735777 63.2164
21.90699241312273 64.9022
21.92967011506078 66.0938
21.95234868653799 66.9604
21.9752053151131 66.9838
21.997885635446785 65.6807
22.020566828293532 63.7654
22.04324889464272 61.3639
22.066109049404666 59.2242
22.088792872571794 58.2945
22.111477572219204 57.7447
22.1341631493376 57.8278
22.157026846313123 57.9535
22.179714188221507 58.1814
22.202402410582668 57.2176
22.22509151438863 56.0108
22.24795876962584 54.5944
22.270649646204486 53.3982
22.293341407213727 52.4438
22.316034053646906 51.7496
22.338904883215342 51.3032
22.36159931041458 51.1538
22.38429462602756 51.0717
22.40699083104897 50.9813
22.429865251039757 50.9785
22.452563244831367 51.1525
22.47526213102522 50.9893
22.49813925616515 50.9059
22.520839937143307 50.736999999999995
22.543541513520587 50.6354
22.56624398629403 50.5758
22.589124730075895 50.4662
22.611829005656723 50.6917
22.63453418063466 50.6566
22.657240256008077 51.1209
22.680124634582935 51.3097
22.70283252079775 51.5602
22.725541310413075 51.9349
22.74825100442868 52.0916
22.771139033969575 52.6003
22.79385054687155 52.6641
22.81656296718292 53.0383
22.83927629590484 53.7725
22.862167992606945 54.3392
22.88488314827121 55.3756
22.907599215359284 56.1254
22.93031619487366 57.037
22.953211574954405 57.9381
22.975930389478226 58.9524
22.998650119445763 59.8316
23.02137076586092 59.9954
23.044269845560063 59.2965
23.06699233506288 58.0574
23.089715744034912 56.4344
23.112617610931565 54.6828
23.135342869061212 53.0519
23.158069049684816 51.8978
23.1807961538087 51.1703
23.20370174880544 51.2486
23.226430710184808 51.123999999999995
23.249160598093425 51.0681
23.271891413539002 51.07899999999999
23.294800752937697 51.1994
23.31753343374794 51.5002
23.340267045128353 51.5605
23.36300158808808 51.9853
23.38591468821339 51.9579
23.408651104658304 52.2466
23.431388455719986 52.7009
23.454126742409 53.2632
23.4770436196085 53.9133
23.499783787914662 54.9649
23.522524894889884 55.6455
23.54526694154616 56.5958
23.56818761219047 57.8452
23.59093154860734 58.6646
23.613676427751283 59.4743
23.636422250635754 59.5594
23.659346731118656 58.7511
23.68209445191868 57.2911
23.704843119509587 55.3454
23.72759273490623 53.1834
23.750521041644767 51.3644
23.77327256312355 50.0033
23.796025035462787 48.9671
23.818956224555475 48.25
23.841710609113413 48.0774
23.86446594758979 47.8075
23.887222241002014 47.5869
23.910157285144578 47.3121
23.932915498962537 47.1418
23.955674670778713 46.8755
23.978434801611975 46.9138
24.001373717286125 46.5146
24.024135776723917 46.549
24.046898798245582 46.5123
24.06966278287146 46.5334
24.092605586582614 46.0902
24.115371508023642 46.0458
24.1381383956401 45.8596
24.16090625045381 45.8838
24.183852958731244 45.8329
24.206622758582608 45.6579
24.229393528706886 45.5063
24.252165270127392 45.5267
24.27511589952438 45.6879
24.297889594216997 45.4333
24.32066426328598 45.191
24.34343990775613 45.1627
24.36639447485003 45.0965
24.38917208083877 44.9844
24.41195066531332 44.8596
24.43490819850244 44.9919
24.457688750692377 44.7853
24.48047028445616 44.7839
24.503252800821233 44.8242
24.526214300784112 44.8343
24.548998793132213 44.9294
24.57178427117417 44.8161
24.59457073593893 44.8224
24.617536219319863 44.7684
24.64032466834748 44.7844
24.663114107195035 44.6778
24.685904536893013 44.3903
24.708874020360852 44.2066
24.731666442613744 44.2136
24.754459858818787 44.1495
24.777254270007962 44.2289
24.80022777025625 44.0043
24.82302418230472 43.9826
24.845821592443674 44.0736
24.86862000170663 44.0323
24.891597535453727 44.0785
24.914397953892728 44.1944
24.93719937456671 44.0517
24.96000179851076 44.1635
24.98298338249997 44.2846
25.00578782394922 44.4734
25.028593271784167 44.573
25.05157790644186 44.8989
25.07438537804115 44.9354
25.097193859145293 45.1582
25.120003350792075 45.4826
25.142992065061257 45.7024
25.165803588823465 45.9509
25.18861612625217 46.2157
25.211429678386736 46.3785
25.234422489079968 46.468999999999994
25.257238081693636 46.4996
25.280054692141732 46.6112
25.3028723214652 46.3519
25.325869245420463 46.4609
25.348688923599397 46.5097
25.371509623787006 46.4464
25.394331347025812 46.3959
25.41733240110666 46.2066
25.440156181590016 45.6903
25.46298098826268 45.4108
25.48580682216873 44.8136
25.50881202326435 43.9824
25.53163992281684 43.6315
25.55446885274561 43.2414
25.577298814096377 42.6838
25.600308179121807 42.6358
25.623140214533745 42.7174
25.64597328451537 42.4944
25.66898578564376 42.2294
25.691820936010206 42.4035
25.714657124097695 42.3634
25.737494350954734 42.3786
25.760511045684957 42.1426
25.783350361364224 42.3034
25.806190718969255 42.272
25.82903211955018 42.3881
25.852053024868923 42.3815
25.874896522722523 42.41
25.897741066713106 42.3188
25.920586657892454 42.434
25.943611790812668 42.4468
25.966459487728237 42.613
25.989308234998564 42.6106
26.01215803367705 42.9742
26.03518741123814 43.0429
26.05803932412957 43.0138
26.080892291600094 43.0886
26.10374631470478 43.0877
26.12677995397268 43.3526
26.14963609978026 43.4501
26.172493304397875 43.2546
26.19535156888223 43.0414
26.218389486949604 42.7424
26.241249882640123 42.6356
26.26411134137826 42.2131
26.28715248187403 42.1142
26.31001607820869 41.8324
26.3328807407756 41.7049
26.35574647063438 42.0
26.37879191991473 41.8761
26.401659795896734 41.7228
26.424528742360263 41.9604
26.447398760366614 42.1587
26.470448535598294 42.3283
26.49332070826805 42.2797
26.516193955675355 42.6142
26.53906827888316 42.7903
26.562122397260108 42.7837
26.584998883685063 43.0839
26.607876449110325 43.3068
26.63075509460056 43.5876
26.65381357334404 43.6255
26.67669439061878 43.6955
26.699576291163382 43.883
26.722459276044212 43.7495
26.745522132402975 43.7559
26.768407297649354 43.3219
26.791293550442003 42.8978
26.814180891848974 42.6627
26.837248143099337 42.3852
26.860137673466657 42.2446
26.88302829566349 42.0107
26.90592001075963 41.7146
26.92899167420566 41.7552
26.951885586870763 41.4163
26.974780595655517 41.0346
26.99785558178161 41.04
27.020752794605112 40.8677
27.043651106772522 40.6901
27.06655051935668 40.5733
27.089629948036183 40.4032
27.112531573292053 40.3423
27.135434302194138 40.4292
27.158338135817015 40.0888
27.181422024430987 40.1772
27.204328079372566 40.0706
27.22723524226965 40.1495
27.250143514198573 40.2359
27.273231880156334 40.1925
27.296142382065014 40.048
27.319053996245536 40.0162
27.341966723775965 40.0699
27.365059584515222 39.9662
27.38797455070062 40.1348
27.410890633481237 39.9387
27.433807833936918 39.9789
27.456905206923906 40.0018
27.47982465472398 39.9885
27.502745223449743 40.1048
27.525666914182825 40.2374
27.548768816912457 40.2878
27.571692763693633 40.225
27.59461783573812 40.0019
27.617723149491244 39.8282
27.640650484125285 39.955
27.66357894728264 39.7916
27.686508540048052 39.7597
27.709618414237887 39.5782
27.732550278321757 39.4762
27.755483275279115 39.4581
27.778417406196485 39.5399
27.801531858397514 39.5589
27.824468269376716 39.4982
27.847405817586786 39.3662
27.870344504116094 39.546
27.893463551932008 39.6267
27.916404527281053 39.8669
27.93934664422563 39.7551
27.962289903855886 39.8468
27.98541356491974 40.0963
28.00835912214229 40.2207
28.03130582533231 40.3192
28.054253675581805 40.3752
28.077381967556104 40.4309
28.100332124185126 40.5416
28.123283431160893 40.5296
28.146235889577238 40.4434
28.169368830154156 40.3061
28.192323603752033 40.1869
28.215279532083304 39.83
28.238415973016764 39.6401
28.261374223145094 39.5674
28.284333631303806 39.341
28.307294198589954 39.1835
28.330435319167677 38.8645
28.353398217078915 38.5899
28.376362277420153 38.4254
28.39932750129032 38.2812
28.422473319286713 38.0972
28.44544088262495 37.9147
28.468409612800283 37.9542
28.491379510913497 37.5344
28.51453004413313 37.4544
28.53750229057244 37.5164
28.56047570826344 37.3666
28.583450298308804 37.4256
28.606605564586562 37.086999999999996
28.629582511831156 37.225
28.65256063474956 37.0888
28.675539934446338 37.1064
28.698699951647605 37.0471
28.72168161743193 37.0014
28.74466446331978 36.9718
28.767648490417624 36.8988
28.790813276438353 36.8963
28.813799678527303 36.8303
28.836787265157085 36.8107
28.859955641890075 36.8599
28.882945610203045 36.8976
28.905936766392035 36.7522
28.928929111566863 36.7859
28.952102288520145 36.6709
28.975097024308607 36.5776
28.998092952423807 36.4477
29.021090073977508 36.4944
29.04426806913204 36.2852
29.067267590245258 36.1518
29.090268308143695 36.129
29.11327022394099 36.0561
29.13645305530891 35.9015
29.159457379627167 35.8192
29.18246290519685 35.7949
29.20546963313352 35.7671
29.22865731875826 35.655
29.25166646419296 35.7242
29.27467681535305 35.7618
29.29768837335608 35.7315
29.320880931312562 35.7029
29.34389491580634 35.5585
29.366910110507334 35.5744
29.38992651653503 35.6328
29.41312396492981 35.6797
29.436142806456754 35.6692
29.45916286268059 35.443000000000005
29.48236399319994 35.409
29.50538649169417 35.2751
29.528410208259935 35.2685
29.55143514402014 34.9851
29.574641196749695 34.8828
29.597668583816574 34.738
29.6206971934585 34.6516
29.64372702680042 34.6171
29.666938019934474 34.4207
29.689970313635285 34.4659
29.713003834422636 34.3715
29.73603858342347 34.3134
29.759254535188578 34.2428
29.78229175361658 34.2208
29.80533020365064 34.330999999999996
29.82836988641968 34.2263
29.85159081507472 34.2435
29.874632976355343 34.1697
29.89767637376955 34.2105
29.920721008448314 34.1341
29.9439469322847 34.0253
29.96699405457564 33.9727
29.9900424175358 33.9156
30.013092022298157 33.7838
30.03632295963995 33.8153
30.059375061131373 33.8936
30.08242840783577 33.814
30.105483000888153 33.8648
30.128718970092244 33.7718
30.151776069006917 33.7518
30.17483441768648 33.7343
30.198074175317235 33.6262
30.221135036724256 33.7718
30.24419715131772 33.6026
30.267260520236203 33.5952
30.290505341942243 33.7476
30.313571232750228 33.746
30.336638381310948 33.6965
30.35970678876503 33.6367
30.38295669299435 33.4765
30.40602763151657 33.5583
30.429099832366074 33.5033
30.452173296685572 33.4824
30.47542830191959 33.3805
30.498504306502497 33.3531
30.521581577995562 33.4808
30.544660117543582 33.4821
30.56792024229725 33.537
30.59100133132069 33.5127
30.614083691845494 33.3973
30.637167325018545 33.4926
30.660432587840603 33.5335
30.683518779717886 33.4149
30.70660624769615 33.5271
30.729694992924372 33.4523
30.75296541239743 33.4958
30.77605672557558 33.4313
30.799149319462742 33.4058
30.8224236211637 33.3493
30.845518789950724 33.2211
30.868615242910597 33.1829
30.891712981195973 32.9689
30.91499247215866 33.0112
30.938092794619365 33.043
30.96119440587579 32.7706
30.984297307082752 32.8256
31.00758200598383 32.7005
31.030687500658694 32.6162
31.053794288760695 32.5283
31.076902371446767 32.3318
31.100192296997445 32.3408
31.12330298246119 32.3693
31.14641496599209 32.2321
31.169528248749216 32.3694
31.19282341969534 32.3542
31.215939314557186 32.2858
31.239056512134788 32.353
31.262175013589378 32.2647
31.28547544871168 32.1223
31.30859657161541 32.0595
31.331719001892175 32.2072
31.35484274070538 32.2298
31.378148458819545 32.1801
31.401274828443725 32.1663
31.424402510106933 32.1655
31.447712205419993 32.1767
31.470842524931633 31.9805
31.493974159989783 32.0359
31.51710711176168 31.9433
31.54042212308802 31.9543
31.563557722100917 32.0984
31.586694641341655 31.9529
31.609832881979628 31.838
31.63315322823208 31.8371
31.656294125521327 31.6256
31.679436347728515 31.601
31.70257989602529 31.5425
31.725905596152327 31.5278
31.74905181052835 31.3751
31.772199354521323 31.4084
31.79534822930507 31.3934
31.818679302290967 31.4121
31.84183085259981 31.3452
31.864983737233473 31.4224
31.88813795736804 31.506
31.911474422233013 31.2514
31.934631327356435 31.3919
31.9577895715215 31.3094
31.980949155906522 31.3645
32.004291031706956 31.2368
32.027453310562606 31.1706
32.05061693318573 31.023000000000003
32.07396288236386 31.0713
32.09712920658542 30.9876
32.12029687812702 30.9473
32.14346589817093 30.8425
32.166817291729984 30.8287
32.18998902288583 30.698
32.21316210610336 30.6626
32.23633654256711 30.578000000000003
32.259693399663725 30.463
32.282870556771144 30.4667
32.30604907069099 30.4612
32.329228942610065 30.4375
32.35259128243769 30.1401
32.375773884550505 30.1303
32.398957848235646 30.1946
32.422143174682176 30.1686
32.445511016471215 30.0778
32.468699082679954 30.0023
32.49188851523011 29.9435
32.51507931531304 29.8632
32.538452678331 29.808000000000003
32.56164622776311 29.766
32.58484114831493 29.6902
32.60803744118015 29.6928
32.631416344731896 29.7308
32.654615396551876 29.7226
32.67781582427913 29.564
32.701198898634416 29.5232
32.72440209253756 29.4341
32.747606665947124 29.4971
32.77081262006088 29.3667
32.79420126883317 29.3508
32.81740999876112 29.3631
32.840620112999424 29.2505
32.86383161274818 29.1337
32.88722585534586 29.1619
32.91044014056596 29.3139
32.933655814909734 29.1104
32.95687287957963 29.2122
32.98027273544904 29.1487
33.00349259526636 29.0646
33.026713849030116 29.103
33.04993649794511 28.9816
33.073341986570746 29.0267
33.09656744032826 28.994
33.11979429286444 28.9219
33.14302254538647 28.9111
33.166433686291185 28.87
33.18966475336992 28.8056
33.212897224069096 28.7376
33.23613109959831 28.7044
33.259547912343415 28.7414
33.2827846121627 28.7499
33.306022720453775 28.6781
33.32926223842861 28.5404
33.352684742614166 28.5091
33.37592709463173 28.4669
33.399170859982064 28.5172
33.422597648419426 28.4126
33.44584425514446 28.3011
33.46909227885668 28.2448
33.4923417207723 28.116999999999997
33.51577423505344 28.1606
33.539026528130385 28.0888
33.56228024307245 27.971
33.585535381098246 27.9168
33.60897364093058 27.9215
33.63223163992385 27.9183
33.6554910656699 27.7767
33.678751919389796 27.8726
33.702195944520106 27.718000000000004
33.72545966903325 27.6396
33.74872482519663 27.6262
33.771991414233746 27.656999999999996
33.79544122444841 27.5317
33.81871069412428 27.4935
33.84198160035767 27.4493
33.86525394437455 27.4398
33.88870955949969 27.4915
33.911984794020626 27.4498
33.93526147001624 27.4119
33.958539588715006 27.3292
33.98200102861669 27.2893
34.0052820477047 27.2226
34.02856451319451 27.2353
34.05203033759056 27.1139
34.07531571090147 27.0372
34.09860253431845 27.0313
34.121890809074316 26.9559
34.145362493118924 26.9119
34.16865368561615 26.9056
34.191946333164054 26.8468
34.21524043699793 26.8426
34.23871800066799 26.7897
34.26201503218366 26.7193
34.28531352370466 26.6678
34.30861347646881 26.6715
34.33209693978188 26.6651
34.3553998301885 26.5658
34.378704185565205 26.5726
34.402010007152356 26.4969
34.42549939016683 26.4865
34.44880815937748 26.4263
34.472118398533134 26.3863
34.49543010887669 26.4142
34.51892543169198 26.2486
34.54224009966052 26.2827
34.56555624255917 26.3067
34.58887386163339 26.0461
34.61237514439016 26.0646
34.6356957311114 26.0038
34.65901779775809 25.9848
34.68252356662995 25.8698
34.705848608458616 25.9957
34.72917513396849 25.9016
34.75250314440949 25.849
34.77601490857862 25.82
34.799345904259795 25.6619
34.82267838863559 25.756
34.846012362958525 25.8363
34.869530142679984 25.7199
34.89286711232212 25.6326
34.91620557568269 25.6339
34.93954553401677 25.6354
34.9630693495876 25.5755
34.986412313340814 25.498
35.00975677584668 25.4795
35.033102738362956 25.4892
35.05663261012228 25.3519
35.0799815881786 25.3633
35.10333207003229 25.2821
35.12668405694369 25.2442
35.150220005273056 25.2704
35.17357501786656 25.2171
35.19693153931268 25.1521
35.220289570874385 25.1642
35.24383161619786 25.1731
35.267192683604904 25.1208
35.290555264930376 25.1686
35.314101899412165 25.1133
35.33746752422433 25.0187
35.36083466676374 25.0617
35.38420332829803 25.0143
35.407756095629054 25.0035
35.43112781085063 24.9889
35.45450104888391 24.9734
35.477875810999194 24.9552
35.50143473172161 24.8533
35.52481255774625 24.9176
35.54819191167777 24.785999999999998
35.57157279478914 24.6761
35.595137889488406 24.6475
35.61852184675279 24.6887
35.641907337029984 24.596999999999998
35.665294361595684 24.6038
35.68886565090076 24.4653
35.7122557598848 24.4449
35.73564740699838 24.4705
35.759040593519934 24.3857
35.78261809810353 24.3876
35.80601437933051 24.3571
35.829412203814705 24.2368
35.85281157283719 24.2334
35.876395313415884 24.247
35.8997977874528 24.1801
35.92320180988546 24.1237
35.946790244133936 24.0736
35.97019737933222 24.1135
35.993606066789866 23.9797
36.01701630779276 24.0221
36.04061101440684 23.9379
36.06402437852291 23.9726
36.08743930005611 24.0043
36.1108557802951 23.8008
36.13445678011326 23.8873
36.15787639383515 23.7832
36.18129757014299 23.7363
36.20472031032821 23.6894
36.22832762423364 23.6475
36.25175350829375 23.6074
36.275180960119776 23.5605
36.298609981005924 23.6296
36.32222362992669 23.5849
36.34565580510207 23.4958
36.36908955323448 23.4343
36.39252487562093 23.3774
36.416144880530226 23.369
36.43958336764275 23.3549
36.463023432914625 23.3495
36.486465077645676 23.2925
36.51009145956204 23.3467
36.53353627947859 23.3104
36.55698268276811 23.2106
36.58043067073321 23.1371
36.60406345072071 23.1063
36.62751462435344 23.1252
36.65096738658405 23.1576
36.67460498210655 23.0278
36.69806093788647 23.0067
36.72151848619297 22.9582
36.744977628333636 22.9444
36.76862165890998 22.8477
36.79208400512205 22.9032
36.81554794910557 22.8657
36.83901349217101 22.7775
36.862663978991606 22.7653
36.88613273667352 22.6956
36.90960309738324 22.6986
36.933075062434064 22.7132
36.95673202673572 22.6365
36.98020721697122 22.6356
37.003684015502365 22.5184
37.027162423645365 22.5137
37.050825886711465 22.4813
37.07430753063053 22.3578
37.09779078812467 22.3821
37.121275660513014 22.3406
37.144945643673694 22.3374
37.16843376245278 22.3255
37.19192350009803 22.2838
37.215414857931435 22.1792
37.239091382563885 22.2116
37.262585997426164 22.1481
37.28608223645736 22.1747
37.309763684451696 22.1215
37.33326318851098 22.0345
37.356764320726555 22.0143
37.380267082425526 21.9672
37.40395510942588 21.9738
37.42746114683234 21.9985
37.45096881771841 21.9191
37.474478123414166 21.8364
37.49817275092816 21.7411
37.52168534303452 21.7483
37.54519957395567 21.7327
37.568715445024665 21.7292
37.592416694607714 21.6717
37.61593586281424 21.7015
37.63945667518264 21.7112
37.66297913304891 21.5534
37.68668702630454 21.5586
37.710212792059274 21.5389
37.733740207334854 21.4498
37.757269273470364 21.4934
37.780983832050374 21.3851
37.80451621684926 21.3822
37.82805025654007 21.3538
37.851585952464795 21.313000000000002
37.8753071980695 21.2449
37.89884622345676 21.2458
37.92238690911902 21.1922
37.94611318753442 21.1369
37.969657210779765 21.0037
37.99320289834801 21.0745
38.016750251586465 21.0674
38.04048325513017 21.0741
38.06403395679343 21.0296
38.087586328183946 20.9672
38.11114037065203 21.0282
38.13488012115898 20.9483
38.1584375229181 20.8252
38.181996599821 20.7836
38.205557353221124 20.7231
38.229303872575656 20.7174
38.2528679961576 20.6911
38.27643380031219 20.7104
38.30000128639589 20.684
38.32375459653193 20.62
38.34732546371299 20.6455
38.37089801690786 20.5737
38.39447225747609 20.5796
38.418232380377425 20.4887
38.441810012983396 20.5133
38.46538933705673 20.3867
38.488970353960084 20.4104
38.51273731166058 20.3691
38.536321731567014 20.282
38.55990784840681 20.3133
38.58367995004091 20.2719
38.60726947812959 20.1831
38.63086070726198 20.2214
38.654453638806274 20.1971
38.678232613930824 20.1994
38.70182896773327 20.0058
38.72542702806741 20.0176
38.7490267963045 20.070999999999998
38.77281266709232 20.0317
38.79641586862214 19.9754
38.8200207821842 19.9038
38.843627409152944 19.9132
38.86742019782782 19.923
38.891030269149255 19.875999999999998
38.914642058016156 19.8727
38.938255565806124 19.8398
38.96205529464307 19.7394
38.98567225787121 19.7904
39.00929094417078 19.7349
39.03291135492255 19.7288
39.05671804624804 19.6343
39.080341923549106 19.5977
39.103967529460334 19.6239
39.127594865365744 19.5609
39.15140854155791 19.539
39.17503935514948 19.5059
39.19867190290282 19.4789
39.22249083587951 19.4617
39.24612686969409 19.4731
39.269764641845306 19.404
39.293404153722804 19.3566
39.317230110864074 19.2857
39.34087311998506 19.2041
39.36451787301696 19.2382
39.388164371352595 19.1169
39.41199737518003 19.1711
39.43564738196752 19.1651
39.45929913825317 19.0756
39.48295264543308 19.0541
39.506792718520884 18.9983
39.530449745387216 18.9935
39.55410852735203 18.9981
39.57776906581474 19.0237
39.60161623079 18.9729
39.625280300200025 18.9717
39.64894613032202 18.8826
39.67261372255866 18.8734
39.6964680021016 18.8625
39.72013913657293 18.8509
39.74381203738292 18.7813
39.76748670593756 18.711
39.79134812278169 18.6903
39.81502634488497 18.6574
39.83870633896685 18.6507
39.862388106436654 18.6234
39.88625668336918 18.5957
39.90994201572829 18.5793
39.933629125719285 18.5176
39.957503091207826 18.4771
39.9811937746168 18.4369
40.00488623990914 18.41
40.02858048850006 18.3798
40.05246165409549 18.3613
40.076159487492085 18.2883
40.099859108448875 18.3058
40.123560518384345 18.2398
40.1474489070226 18.2838
40.171153913178564 18.2356
40.194860712584955 18.249000000000002
40.2185693066637 18.1662
40.242464941335314 18.0805
40.26617714307655 18.073
40.289891143772046 18.0275
40.3136069448471 18.0396
40.33750984859743 18.1064
40.3612292688043 18.0538
40.3849504936829 17.9967
40.40867352466194 17.9991
40.43258372059144 17.8931
40.45631038219906 17.9036
40.48003885420956 17.8477
40.503769138055105 17.8286
40.52768664931955 17.8251
40.55142057531802 17.803
40.57515631746428 17.7391
40.599079334038514 17.71
40.62281872700477 17.6014
40.64655994043941 17.6636
40.67030297578061 17.6713
40.69423334835778 17.6013
40.71798004609188 17.5789
40.74172857006355 17.5442
40.76547892171441 17.5436
40.7894166736039 17.4826
40.813170699248566 17.4559
40.83692655691388 17.4732
40.86068424804498 17.4597
40.884629402612525 17.4094
40.908390779366385 17.3957
40.932153993938 17.3463
40.95591904777605 17.3235
40.979871628443995 17.3221
41.003640379561936 17.2634
41.02741097430883 17.2771
41.05118341413683 17.1899
41.075143444384416 17.1769
41.098919593177826 17.171
41.1226975914255 17.1582
41.14647744058318 17.0783
41.170444943946755 17.0223
41.19422851378379 17.0334
41.218013938914645 17.016
41.24198706625173 16.9145
41.26577622087193 16.9144
41.289567235177785 16.915
41.31336011063129 16.8733
41.337340752422875 16.8171
41.361137369129835 16.8259
41.38493585138705 16.7592
41.40873620066004 16.7071
41.43272438060107 16.7702
41.45652848292052 16.6554
41.48033445666918 16.658
41.50414230331616 16.5998
41.528138045159764 16.6254
41.551949656675205 16.5453
41.575763145513235 16.5663
41.59957851314666 16.544
41.62358184070442 16.5108
41.64740098505737 16.4645
41.6712220126409 16.4676
41.69504492493139 16.4354
41.71905586207357 16.4047
41.74288256296395 16.3683
41.766711153007456 16.3248
41.79054163368412 16.2696
41.814560204340054 16.2882
41.838394485526365 16.2844
41.86223066180303 16.2191
41.88625497706819 16.2361
41.910094962812 16.1741
41.93393684811168 16.1932
41.95778063445365 16.1036
41.981812625263366 16.079
42.00566023303407 16.0631
42.029509746323676 16.0314
42.05336116662236 16.0554
42.077400857069705 16.0683
42.10125611078846 16.0029
42.12511327600405 15.873
42.14897235421036 15.9038
42.173019768448455 15.9285
42.19688269209613 15.8555
42.22074753323349 15.8835
42.24461429335818 15.8166
42.268669455600495 15.7676
42.292540073217886 15.7894
42.31641261433284 15.7143
42.34028708044675 15.6968
42.36435001496739 15.6577
42.38822835065557 15.639000000000001
42.41210861586426 15.6108
42.4359908120986 15.63
42.46006154323262 15.5545
42.48394762115317 15.5046
42.507835634632315 15.5616
42.531912233047436 15.5033
42.55580413732265 15.4215
42.579697981698 15.425999999999998
42.60359376768525 15.4257
42.62767820545945 15.3959
42.65157789440821 15.4108
42.67547952952185 15.3103
42.699383112316 15.3073
42.72347541395347 15.2633
42.74738291190531 15.2318
42.771292362102166 15.2342
42.795203766063516 15.1897
42.819303956130405 15.2029
42.843219287476536 15.1516
42.86713657716324 15.1366
42.89105582671383 15.0969
42.91516392983864 15.0882
42.939087119032166 15.0183
42.963012272677304 14.992
42.98693939230129 15.036
43.01105543317513 14.9576
43.034986504731386 14.9243
43.05891954686589 14.8969
43.08285456110972 14.9022
43.10697856448665 14.8963
43.130917542983475 14.799000000000001
43.15485849820081 14.8071
43.17880143167367 14.7798
43.20293342237094 14.7479
43.226880332449 14.7255
43.25082922540554 14.706
43.27496722682525 14.6938
43.29892010567796 14.6581
43.32287497204102 14.671
43.34683182745632 14.6079
43.370977859791836 14.5711
43.39493871351105 14.5538
43.41890156092628 14.5795
43.44286640358341 14.5436
43.46702049182749 14.5076
43.49098934522816 14.4629
43.51496019852649 14.4921
43.5389330532723 14.4158
43.56309522248204 14.415999999999999
43.58707210044314 14.3489
43.61105098451946 14.3263
43.63503187626491 14.2992
43.659202151562134 14.2637
43.68318707902681 14.2308
43.70717401884041 14.2556
43.731162972560874 14.1952
43.75534137913236 14.1484
43.779334381108384 14.1894
43.803329401683186 14.1352
43.82732644241872 14.1197
43.8515130055166 14.1131
43.87551410707659 14.079
43.89951723350145 14.0426
43.923709934595614 14.0545
43.94771713129917 14.0288
43.97172635758096 14.0034
43.99573761501002 13.9375
44.0199385169922 13.9339
44.04395385732619 13.8822
44.067971233533086 13.894
44.09199064718605 13.8664
44.11619977548961 13.8281
44.14022328470671 13.7736
44.16424883610785 13.7936
44.18827643127035 13.8264
44.21249381139513 13.7175
44.236525514814076 13.6922
44.26055926674478 13.6629
44.28459506876863 13.6931
44.3088207262813 13.6332
44.33286064928722 13.6027
44.35690262714919 13.6022
44.38094666145278 13.5327
44.4051806219871 13.5627
44.42922879003185 13.5277
44.45327901929361 13.5127
44.477331311362136 13.475999999999999
44.501573600619416 13.3947
44.525630039221795 13.3851
44.54968854541895 13.4158
44.573937102200176 13.3919
44.5979997645541 13.34
44.622064499300315 13.3482
44.64613130803592 13.3226
44.67038823869318 13.2663
44.69445921643748 13.2495
44.718532272981385 13.2152
44.742607409926194 13.2201
44.76687274034801 13.1875
44.79095205918753 13.1602
44.81503346325094 13.1656
44.839116954143876 13.1313
44.86339071028742 13.1013
44.88747839599524 13.0799
44.91156817336837 13.07
44.93566004401666 13.0398
44.959942251908146 13.0163
44.984038330325966 12.9585
45.00813650686762 12.93
45.03223678314731 12.9357
45.05652746888232 12.8795
45.08063196592069 12.8791
45.104738567558705 12.8457
45.128847275414856 12.8456
45.15314646515866 12.7986
45.17725940679741 12.8329
45.20137445952892 12.8031
45.22568004865265 12.7496
45.24979934496396 12.7046
45.27392075725247 12.6804
45.29804428714431 12.6821
45.322358426247604 12.6147
45.346486212804315 12.622
45.370616121861914 12.5685
45.39474815505086 12.5692
45.41907087049246 12.5476
45.4432071734666 12.5241
45.46734560548283 12.5342
45.49148616817604 12.5578
45.51581748638564 12.4937
45.5399623320197 12.4404
45.56410931325473 12.4086
45.58825843173002 12.4132
45.61259837920865 12.4251
45.636751793816 12.3909
45.66090735060093 12.354000000000001
45.68506505120716 12.3271
45.7094136545275 12.3143
45.73357566449271 12.294
45.75773982322992 12.2631
45.78190613238733 12.1899
45.806263418194064 12.1561
45.83043404997326 12.1828
45.85460683713677 12.1597
45.87897065658495 12.1204
45.90314777634752 12.1063
45.92732705646868 12.1397
45.9515084986045 12.1029
45.97588104735473 12.0951
46.00006683541565 12.0365
46.02425479047904 12.0281
46.04844491420549 12.0027
46.0728262191024 12.0108
46.09702070211635 11.9573
46.12121735879483 11.963
46.14541619080294 11.9241
46.169806278764455 11.9133
46.194009483459034 11.8817
46.21821486849841 11.8427
46.24242243555223 11.8296
46.266821333570014 11.7953
46.29103328674601 11.7698
46.31524742696538 11.7861
46.33946375590237 11.7739
46.36387149104216 11.7211
46.38809221957392 11.6904
46.41231514186606 11.7017
46.436540259597464 11.6712
46.460956858999374 11.6018
46.48518638983522 11.6209
46.509418121166966 11.5887
46.533652054678114 11.5562
46.55807754555709 11.539000000000001
46.58231590571962 11.5207
46.60655647313217 11.4581
46.630988654873654 11.4247
46.655233659129024 11.4108
46.67948087571551 11.4406
46.70373030632484 11.4121
46.72817142736393 11.368
46.752425308428684 11.389000000000001
46.77668140861147 11.3703
46.80093972960865 11.3234
46.82538981736788 11.3347
46.849652602470904 11.3089
46.87391761349769 11.2654
46.8981848521493 11.2379
46.9226439341274 11.2422
46.946915650573224 11.2049
46.97118959976749 11.189
46.99546578341598 11.1148
47.019933887188216 11.1242
47.04421456235744 11.0997
47.06849747711879 11.1229
47.09278263318286 11.0995
47.11725978640143 11.0969
47.14154944775105 11.0359
47.165841355555656 10.9849
47.1901355115306 10.9981
47.214621741924994 11.0068
47.23892041698887 10.988
47.26322134538975 10.9158
47.28771440635075 10.8526
47.31201986422527 10.9049
47.33632758061436 10.913
47.360637557241866 10.8659
47.38513974410611 10.8815
47.40945426407847 10.8301
47.43377104948137 10.8007
47.45809010204344 10.7552
47.48260144275502 10.7629
47.506925052572285 10.6928
47.53125093475548 10.7092
47.55557909103813 10.683
47.58009961361992 10.6346
47.60443234110732 10.6429
47.62876734791564 10.6107
47.65310463578333 10.6316
47.6776343683373 10.6106
47.7019762413987 10.6024
47.72632040075572 10.5425
47.75066684815169 10.5595
47.77520581885936 10.5184
47.799556865477655 10.5335
47.823910205386 10.5083
47.84826584033272 10.474
47.87281407745551 10.4719
47.89717432569297 10.4125
47.92153687423484 10.3832
47.94609208429692 10.4007
47.97045925671401 10.4267
47.99482873471275 10.3524
48.01920052005013 10.2952
48.04376504619224 10.3303
48.068141469543484 10.3355
48.09252020552573 10.2785
48.11690125590099 10.2484
48.1414751266064 10.2602
48.16586082917454 10.234
48.19024885144316 10.1869
48.2146391951793 10.1949
48.239222439012764 10.1598
48.26361744916137 10.1407
48.28801478610016 10.1405
48.31241445160131 10.1585
48.337007097209366 10.1063
48.36141144338331 10.0952
48.38581812345755 10.0588
48.41022713920929 10.0843
48.434829215320704 10.0226
48.45924292604658 10.0014
48.48365897780325 9.97165
48.50807737237308 9.9607
48.532688907799276 9.962769999999999
48.55711201168574 9.954839999999999
48.581537463754074 9.89622
48.60615611725119 9.89049
48.63058628942721 9.89985
48.65501881516546 9.88396
48.6794536962573 9.862169999999999
48.70408185970339 9.82915
48.72852147531801 9.81493
48.75296345168211 9.76548
48.77740779059232 9.80139
48.80204549302823 9.77215
48.82649458091802 9.73968
48.85094603676547 9.71237
48.87539986237231 9.70607
48.90004713292306 9.647639999999999
48.92450572200832 9.65885
48.94896668628025 9.63461
48.97343002754588 9.63296
48.99808689542115 9.61962
49.02255501470614 9.56329
49.04702551642794 9.54681
49.0714984023988 9.53887
49.096164896893235 9.55176
49.120642575466796 9.501619999999999
49.145122643748394 9.51464
49.16960510355558 9.50661
49.19428125404938 9.46545
49.2187685210852 9.455119999999999
49.243258185121555 9.42457
49.26794160167084 9.39294
49.2924360839405 9.38315
49.31693296869764 9.37694
49.34143225776915 9.32312
49.36612538195438 9.332189999999999
49.39062950396021 9.33797
49.41513603578346 9.30608
49.4396449792564 9.27192
49.46434784069503 9.267510000000001
49.488861631846454 9.273589999999999
49.513377840166804 9.22705
49.537896467493745 9.1869
49.56260909589029 9.143469999999999
49.587132585683285 9.23588
49.611658500018365 9.208839999999999
49.636186840738596 9.14334
49.66090926588511 9.11351
49.685442483902584 9.13204
49.70997813385706 9.07142
49.734516217597076 9.02404
49.75924846937352 9.051810000000001
49.7837914452858 9.0161
49.80833686055187 8.98921
49.83288471702571 8.987210000000001
49.85762682540054 9.007589999999999
49.882179588965734 8.95262
49.9067347993235 8.92822
49.93129245833333 8.926160000000001
49.95604445336378 8.887369999999999
49.98060703442832 8.86266
50.005172069746266 8.90065
50.02993150438364 8.862639999999999
50.05450147301533 8.85874
50.07907390151433 8.8173
50.10364879174981 8.8179
50.12841816587289 8.78598
50.1529980044635 8.75822
50.17758031042124 8.75041
50.20216508562089 8.74132
50.22694442953363 8.7243
50.25153416817468 8.672139999999999
50.27612638170508 8.6917
50.300721072005196 8.64136
50.325510416102105 8.6371
50.350110084975064 8.64977
50.37471223628208 8.62889
50.39931687190919 8.58155
50.424116246675766 8.601
50.44872587605249 8.55745
50.47333799543065 8.592
50.49795260670191 8.53013
50.52276204271512 8.53958
50.54738166295838 8.51079
50.57200378079314 8.51136
50.596628398116835 8.46734
50.62144792604559 8.44841
50.646077567609396 8.42114
50.670709714377715 8.39585
50.69553683636198 8.42038
50.72017401885922 8.378789999999999
50.7448137122895 8.38229
50.76945591856022 8.37571
50.79429318636823 8.34261
50.818940443716784 8.35037
50.84359021965163 8.33794
50.868242516085964 8.30124
50.893089960641895 8.25718
50.917747323549435 8.24775
50.94240721271973 8.23355
50.96706963007175 8.20852
50.99192728239342 8.20787
51.01659478166073 8.21212
51.04126481489051 8.1789
51.06593738400761 8.16579
51.090805275207074 8.17404
51.11548294172845 8.14761
51.14016314993547 8.10225
51.164845901758845 8.115860000000001
51.18972406304274 8.094439999999999
51.21441192780656 8.05856
51.23910234200271 8.06398
51.2637953075678 8.0651
51.288683770237945 8.02091
51.31338186432707 7.9839199999999995
51.33808251561888 7.9615800000000005
51.362978729967345 7.95851
51.387684521509755 7.975810000000001
51.41239287610203 7.928669999999999
51.437103795691165 7.9073199999999995
51.46201036644977 7.90675
51.486726441956634 7.892339999999999
51.51144508832545 7.88899
51.536166307509156 7.874860000000001
51.56108326624387 7.84426
51.58580965706056 7.8269
51.61053862657523 7.83252
51.635270176746864 7.79167
51.66019755512065 7.7753
51.68493429268881 7.800210000000001
51.70967361681515 7.79343
51.73441552946465 7.721019999999999
51.759353359237934 7.740060000000001
51.7841004750961 7.71058
51.80885018539685 7.6744
51.833602492111254 7.676819999999999
51.8585508051424 7.65943
51.883308330926425 7.643619999999999
51.90806845906181 7.6364399999999995
51.932831191525715 7.58886
51.95779001977161 7.58449
51.98255798721516 7.53143
52.00732856494335 7.54427
52.03229530577543 7.538360000000001
52.057071130455945 7.5096
52.081849571391054 7.490880000000001
52.106630630568695 7.48182
52.13160794279417 7.471489999999999
52.15639426492067 7.4426
52.18118321127822 7.44955
52.205974783860896 7.40401
52.23096269971011 7.39416
52.255759551287994 7.372999999999999
52.280559035098186 7.375369999999999
52.30536115314103 7.37391
52.33035970494467 7.40185
52.35516711807904 7.332380000000001
52.37997717147198 7.3098
52.40478986713005 7.3113
52.42979908731974 7.3021899999999995
52.454617094216 7.2976
52.47943774942214 7.28213
52.50426105495102 7.26686
52.529280976059844 7.24182
52.554109609024096 7.20905
52.57894089837482 7.226
52.60377484613117 7.192060000000001
52.62880550079408 7.16732
52.65364479223379 7.1844
52.67848674816189 7.11601
52.70352547971946 7.084739999999999
52.72837279155837 7.145919999999999
52.753222773982785 7.09322
52.778075429022984 7.1071
52.80312495150885 7.07118
52.827982978797436 7.057460000000001
52.85284368481815 7.014939999999999
52.87770707160767 6.99614
52.90276741793998 6.987
52.92763619336701 6.980989999999999
52.952507655698504 6.98522
52.977381806977576 6.9595199999999995
53.00245301017842 6.953869999999999
53.02733256653592 6.957489999999999
53.052214817996074 6.8870000000000005
53.077099766608484 6.881069999999999
53.102181859804446 6.8760699999999995
53.127072229988265 6.849260000000001
53.15196530349892 6.83038
53.17686108239249 6.819960000000001
53.20195409881522 6.81902
53.22685531582556 6.787260000000001
53.25175924441303 6.73883
53.27666588664027 6.793080000000001
53.30176985962693 6.782889999999999
53.3266819565689 6.79138
53.35159677336455 6.75828
53.376514312083096 6.72342
53.40162927507703 6.717230000000001
53.42655228516116 6.72158
53.45147802340193 6.69318
53.47660125628886 6.71564
53.50153247842639 6.65756
53.52646643496923 6.63703
53.55140312799818 6.638160000000001
53.576537409691696 6.642739999999999
53.60147960336152 6.5866
53.626424539786164 6.53824
53.65137222105307 6.55934
53.67651758529126 6.55175
53.70147078399681 6.48152
53.72642673383343 6.5282800000000005
53.75138543689533 6.5081
53.776541917524526 6.520630000000001
53.801506154876755 6.4758
53.826473151763246 6.479019999999999
53.851442910284916 6.43001
53.87661054126026 6.42551
53.9015858509782 6.42762
53.92656392866066 6.42542
53.95154477641532 6.41076
53.976723591801296 6.3798699999999995
54.00171000771266 6.34694
54.02669920004598 6.34802
54.051691170915745 6.3264
54.076881204886796 6.3654
54.101878760928514 6.320790000000001
54.12687910187696 6.30671
54.152077577768296 6.2826
54.1770835166946 6.22887
54.20209224691339 6.22526
54.22710377055121 6.24172
54.25231352511594 6.21572
54.27733066384342 6.21596
54.30235060239643 6.23918
54.32737334290836 6.1841
54.35259441062629 6.15235
54.377622783395324 6.14026
54.40265396455061 6.12857
54.42768795623251 6.12191
54.45292037169559 6.09096
54.477960012857906 6.11113
54.50300247099511 6.04363
54.52804774825457 6.0549
54.55329154616743 6.008859999999999
54.57834249018678 5.99829
54.6033962597977 5.940919999999999
54.6284528571545 5.9195400000000005
54.653708072335164 5.90417
54.67877035378786 5.90606
54.70383546947698 5.86145
54.72890342156389 5.84909
54.7541700889442 5.8454
54.77924374251975 5.78188
54.8043202390049 5.81818
54.82959552413022 5.81107
54.8546777351945 5.74103
54.87976279569621 5.6839699999999995
54.90485070780914 5.75585
54.930137506558005 5.68424
54.95523115074295 5.7136
54.98032765308844 5.73095
55.005427015775496 5.6275699999999995
55.03072536339621 5.66575
55.05583047570572 5.5879199999999996
55.080938454927676 5.57793
55.10604930325027 5.537669999999999
55.131359235107396 5.54467
55.15647585066083 5.49691
55.181595341907496 5.4783800000000005
55.20671771104285 5.47656
55.232039262617704 5.40611
55.25716741665048 5.397
55.28229845518636 5.4106
55.30743238042802 5.38472
55.33276558731939 5.35827
55.357905315183636 5.33713
55.383047936390035 5.29507
55.40819345314859 5.2415400000000005
55.433538351073295 5.23985
55.458689688238415 5.19944
55.483843927614096 5.147069999999999
55.509197623043605 5.18452
55.53435769621134 5.12314
55.55952067826466 5.10072
55.5846865714265 5.11534
55.61005202069737 5.08329
55.63522376553902 5.05309
55.66039842818645 5.07419
55.68557601087004 5.06329
55.7109532500271 4.97116
55.73613670233794 4.9777
