TT I
1.2716486653135266 6.927169999999999
1.2939594142134223 6.4501800000000005
1.3162702121660406 6.4024
1.3385810600174564 6.32894
1.3608919586137629 5.85568
1.383202908801069 5.8104
1.405513911425503 6.34681
1.4278249673332093 5.97866
1.4501343378461518 5.71354
1.4724455028545926 5.8057300000000005
1.4947567236847858 6.08576
1.517068001182951 5.4086
1.5393793361953272 5.10859
1.5616907295681737 5.42415
1.5840021821477681 5.14762
1.60631369478041 4.7362
1.6286252683124185 4.7344
1.6509369035901333 4.82905
1.6732468618895553 4.31668
1.695558623192809 4.29343
1.7178704487808514 5.11888
1.7401823395001077 4.12997
1.7625012545597203 4.3076300000000005
1.7848028405262486 4.23442
1.8071218901122095 4.0519099999999995
1.8294236121921872 3.98855
1.8517427996910911 4.42704
1.8740620574440425 4.246630000000001
1.8963639900671978 4.0212699999999995
1.9186833908139995 4.6521
1.9409854680117449 4.4111199999999995
1.9633050151394713 4.44358
1.9856246367570705 4.45028
2.0079269371922672 4.814430000000001
2.03024671027244 4.66297
2.0525491637446027 4.09136
2.074869091674931 3.70419
2.097171701569106 3.97231
2.1194917877373847 4.57792
2.141811954326636 4.6048
2.164114805233074 4.27382
2.186435135143035 4.47363
2.208738150935709 4.72591
2.231058647554722 6.42507
2.2533792288321184 6.19147
2.275682498336085 5.53005
2.298003251406138 5.16995
2.3203066942619714 4.918130000000001
2.3426276225136022 5.18841
2.3649486396617507 5.3539699999999995
2.387252348930071 5.95907
2.4095735463442893 5.616169999999999
2.4318774374315884 5.26053
2.4541988185014043 5.93227
2.476502894794693 7.15943
2.498824462909887 6.52108
2.521146125856138 6.937130000000001
2.5434504863470337 6.61123
2.5657723414244717 7.6829
2.588076895590662 8.08971
2.610398946189713 8.85643
2.6327210958598384 8.575560000000001
2.6550259469304716 8.735339999999999
2.6773482972090137 8.382589999999999
2.6996533504259 8.99709
2.7219759047039602 8.56429
2.744298562293959 8.76886
2.7666039251246595 8.61027
2.7889267918020164 8.417819999999999
2.8112323652516555 8.95215
2.833555444408179 8.946860000000001
2.8558786311183852 8.77537
2.8781845268938557 8.90301
2.9005079311721484 9.37585
2.9228140460410397 8.7302
2.9451376712799635 8.856819999999999
2.967444008632326 9.44813
2.9897678582247247 9.91039
3.0120918213106695 10.4117
3.0343984987899373 10.6845
3.0567226913198637 10.7636
3.079029599759726 10.9987
3.101354025127254 11.8335
3.123678568232338 12.6354
3.145985829517914 12.8572
3.16831061055229 13.5915
3.1906181112775593 14.6363
3.212943133635653 14.7571
3.2352682779763207 14.8977
3.2575761442691227 14.5123
3.2799015350264273 15.3709
3.302209649240067 15.5386
3.3245352898092655 15.8549
3.3468436553365257 16.4181
3.369169549113219 17.119
3.3914955708171384 17.6611
3.413804319727358 18.3372
3.4361305997334863 18.2644
3.4584396084414553 18.7552
3.4807661501462652 19.3879
3.503092824025881 19.795
3.5254022288463154 20.2111
3.5477291695206588 20.7719
3.5700388426251948 20.9432
3.5923660534916446 21.4359
3.6146934007816114 22.5574
3.637003482731501 28.0844
3.6593311053109985 29.8955
3.681641464033634 27.03
3.7039693653009733 24.6369
3.726297407241705 24.3676
3.7486081875460804 24.1146
3.7709365132734978 24.7022
3.793247578841633 25.223000000000003
3.8155761917550093 25.7256
3.8378875459837216 25.7709
3.8602164494827234 25.8364
3.882545499606844 26.6719
3.9048572932539183 27.6619
3.9271866390645718 27.8856
3.9494987298666713 28.3148
3.971828374764527 28.9101
3.9941581705403255 29.8218
4.016470713506008 29.819000000000003
4.038800813471445 30.53
4.061113662089144 30.534000000000002
4.0834440696459176 31.8433
4.105774632334751 31.9475
4.128087945865126 32.5178
4.150418821249301 33.0869
4.172732448931298 33.7373
4.195063640413578 34.2007
4.2173775856475215 35.6884
4.239709096631102 37.5279
4.262040768704612 51.9135
4.284355196706267 63.5241
4.306687193387355 56.1068
4.329001947444346 43.4334
4.35133427213731 40.4164
4.373666762177566 40.9613
4.395982011761091 41.1542
4.418314834921175 42.0707
4.44063041906622 43.2816
4.4629635787515625 44.9142
4.4852969080429785 46.2796
4.5076130004776225 46.3898
4.529946671403969 46.9394
4.552263106909177 47.276
4.574597122877047 48.6162
4.596931312711224 50.0032
4.619248269273446 50.3374
4.6415828092605835 51.842
4.663900117405352 52.5038
4.686235010953232 53.9066
4.708552674085913 55.5388
4.730887924602802 56.7436
4.753223354952695 57.7984
4.775541557023902 59.4731
4.797877349456786 60.833
4.820195915032126 63.0568
4.842532072957498 64.2108
4.864868414979744 65.9456
4.88718753227192 67.9986
4.909524244902505 70.0802
4.931843734218147 71.6609
4.954180820867835 74.2311
4.976518095879839 77.2633
4.998838149695359 79.4591
5.021175803844231 82.881
5.043496238205739 85.6497
5.065834274903528 89.1343
5.088172504230693 93.0627
5.1104935158799565 97.693
5.132832132875765 105.72200000000001
5.155153533596801 118.734
5.1774925416746225 138.08100000000002
5.199814334878411 232.67
5.2221537374521505 804.9760000000001
5.244493338631803 2506.15
5.266815727034316 7165.07
5.289155727832427 13502.0
5.311478517248165 9500.71
5.333818921080011 3298.31
5.356159527788849 683.565
5.3784829252032536 209.785
5.400823940070432 144.732
5.423147747031976 123.82700000000001
5.445489173474152 113.78399999999999
5.467830807066149 108.095
5.490155234831516 104.63600000000001
5.512497285125229 101.348
5.534822130975162 99.2924
5.557164601388673 97.4854
5.579489868738879 94.7674
5.601832762690846 93.3489
5.6241758697774475 92.2812
5.646501775867269 91.3354
5.668845311622074 90.3793
5.691171647754637 89.601
5.713515615597765 88.5125
5.735859800852677 87.9585
5.758186788542988 87.5144
5.780531411018185 87.6458
5.802858837297399 86.8514
5.825203900414495 86.1652
5.8475491852224 86.3136
5.869877275883075 87.1897
5.892223006467101 88.4118
5.914551544266608 89.0955
5.936897724049891 91.0676
5.959244129804903 95.1959
5.981573344815301 106.542
6.0039202049061 164.076
6.026249875609095 397.019
6.04859719346037 895.577
6.070927323278297 2066.48
6.093275102315365 4546.63
6.115623113320588 5554.8
6.137953938319995 3613.22
6.160302415650845 1075.15
6.182633708324452 238.372
6.2049826554078376 109.088
6.227331838745022 87.4269
6.249663839443684 80.3377
6.27201349767565 75.7627
6.294345974611799 73.8008
6.316696111167083 73.221
6.339046488263839 72.0893
6.361379686074702 68.7127
6.383730546639482 66.7898
6.406064229255215 64.4923
6.428415576718203 64.27199999999999
6.450749747566656 63.65
6.47310158535871 62.397
6.495453669698332 61.8025
6.517788579421056 61.1027
6.540141159237969 60.1108
6.562476565766648 59.6631
6.5848296444934045 59.071999999999996
6.607182974060425 58.3253
6.6295191323281015 58.115
6.651872965955752 57.5689
6.6742096296068985 58.6704
6.6965639707294615 63.1329
6.71891856698715 64.067
6.741255995248479 59.8636
6.763611104154477 56.7024
6.785949046381137 55.3113
6.808304671371482 54.8645
6.8306605557940046 54.6853
6.852999275508618 53.9337
6.875355681171544 53.846000000000004
6.897694923437771 53.5717
6.92005185377892 53.3547
6.9423916220322655 53.2433
6.964749080490181 52.7858
6.987106804399774 52.7719
7.009447368180821 52.4085
7.031805625367033 52.4313
7.054146723727803 52.0687
7.076505517631004 52.4737
7.098864581288365 51.9519
7.121206488070854 51.8422
7.143566093607822 51.68899999999999
7.165908543567245 51.5408
7.188268694426048 51.5899
7.2106291193438095 51.4064
7.232972390625943 51.3386
7.255333366030969 51.58
7.277677189091925 55.8073
7.300038718428332 61.6149
7.322400526130865 60.916000000000004
7.344745183422596 55.786
7.367107550224791 52.2405
7.389452767901992 51.7087
7.411815697249891 51.2695
7.434161478756298 50.8201
7.456524974096713 51.2465
7.478888753837185 51.6075
7.501235387657368 53.0286
7.523599738562711 58.6255
7.545946944825532 69.4691
7.568311870344528 73.3275
7.5906770845765665 65.3721
7.613025156078678 56.667
7.635390950099687 53.7559
7.657739602662809 52.8695
7.680105979923558 52.5629
7.702472650212829 53.1599
7.724822180948224 52.8111
7.747189439655568 53.2483
7.769539560075357 53.3329
7.791907410653562 53.7172
7.81425812420825 53.6402
7.836626570110925 54.1705
7.858995315087906 54.9606
7.881346924933401 54.8248
7.903716270417482 55.4245
7.926068482028405 55.6954
7.948438431475253 56.1813
7.9708086843180235 57.0252
7.993161805171116 57.2519
8.015532667162402 57.3908
8.037886398416653 58.5316
8.060257873014221 59.0451
8.082629655331942 59.7444
8.104984308787587 60.1885
8.127356708900503 61.3153
8.149711981398308 62.5288
8.172085002766314 63.5646
8.194458336181368 64.0874
8.216814543847752 64.3486
8.23918850371002 65.5017
8.26154533906492 66.6286
8.283919928836452 68.1765
8.306277395339652 69.0077
8.328652618483376 70.2909
8.351028159736202 72.1936
8.373386579575245 74.3076
8.395762759396959 75.7252
8.418121819038275 78.0406
8.440498640894003 81.6341
8.462875785192262 86.4749
8.485235811156207 94.6158
8.507613602688501 128.65
8.529974277114228 230.31400000000002
8.552352719347912 374.858
8.574731488360351 619.207
8.59709314210385 1096.01
8.619472567021075 1835.52
8.64183487789147 2281.64
8.664214962183097 1969.75
8.686577933647762 1105.07
8.708958680784317 413.09
8.731339760774953 172.352
8.753703729764451 109.21700000000001
8.77608547780821 94.889
8.798450116065078 91.4482
8.820832535634787 88.4734
8.843215292401656 86.9515
8.865580941199045 85.772
8.887964374703538 84.6027
8.910330701447199 83.7762
8.932714815164482 83.3651
8.955099270424924 82.4094
8.977466620733543 81.7673
8.999851761421976 81.1668
9.022219798361645 80.2484
9.04460562795561 80.5798
9.066991803441677 79.9108
9.089360876979615 79.7068
9.111747746589993 79.4281
9.13411751544971 79.2343
9.156505082664324 79.1638
9.178875550323522 79.5762
9.20126381862328 81.9714
9.223652438908596 91.6119
9.246023961427412 106.969
9.26841328802173 113.352
9.290785518039224 103.60600000000001
9.313175554425882 89.5001
9.335565947154315 81.5717
9.357939245086508 79.8817
9.380330352834827 79.77199999999999
9.40270436697103 80.0319
9.425096193225055 79.6203
9.447488380180165 80.6562
9.469863475295412 80.9515
9.492256385987508 80.9937
9.514632206018318 81.5269
9.537025843935714 81.8852
9.559402392368193 82.5781
9.581796761000229 83.5885
9.604191496441521 83.6039
9.626569144158516 84.2864
9.648964615551032 85.31200000000001
9.671343000390081 86.4279
9.693739211225699 87.4355
9.716135793237463 87.9378
9.738515290448102 88.16799999999999
9.760912617143402 89.5094
9.783292860202891 90.4949
9.805690935076182 91.7518
9.828089385495742 92.4672
9.850470754023561 93.9835
9.872869957865444 96.2145
9.89525208097539 98.8625
9.917652041736662 102.735
9.940052382417589 106.42399999999999
9.962435644102392 115.485
9.984836746950979 147.645
10.007220771957746 228.399
10.029622640473708 350.918
10.052007432299963 518.134
10.074410069984072 778.5980000000001
10.096813093716005 1203.96
10.119199042482517 1769.04
10.141602840636468 2090.35
10.163989564971628 1683.98
10.186394141051062 1003.53
10.208799107559706 439.18699999999995
10.231187001965623 199.387
10.253592751657669 124.796
10.275981430388155 107.295
10.298387966769793 103.288
10.320794897965431 101.645
10.343184759907361 100.428
10.36559248305461 98.9236
10.387983138083852 97.6708
10.410391656691655 98.8317
10.432800574501677 107.89399999999999
10.455192425893369 129.799
10.47760214443012 162.158
10.499994797678786 203.014
10.522405320453982 272.373
10.54479877906917 382.36
10.567210109595656 506.23699999999997
10.5896218454736 586.312
10.612016518879773 567.92
10.634429067781074 398.306
10.656824555333241 227.79
10.679237920773568 140.69
10.701651695961992 104.022
10.724048411481384 92.5828
10.746463008485165 86.5518
10.768860546937125 82.6999
10.791275969274796 80.3773
10.81369180576079 78.83
10.836090585366925 77.6118
10.858507252467449 76.6325
10.88090686379991 75.6643
10.903324365036394 74.8066
10.925724811614439 73.4217
10.948143150509463 73.6273
10.970561909719066 72.7681
10.992963615930844 72.0283
11.015383218085756 70.5364
11.037785768347074 69.5943
11.06020621697282 69.3633
11.082627090322113 68.8041
11.105030913430326 68.1279
11.12745263854165 67.558
11.149857314510728 67.2989
11.172279894912576 67.7728
11.194702904450653 67.3332
11.217108866490921 66.467
11.239532736615194 66.07
11.26193956033512 65.414
11.284364294577085 65.1389
11.306789462371718 64.2154
11.329197585398376 63.7921
11.351623622610898 63.7093
11.37403261614354 63.0172
11.396459526308487 63.1396
11.418869393879497 62.5261
11.441297180532617 62.3008
11.463725406927658 61.9094
11.486136592353875 61.711999999999996
11.508565700543707 61.1925
11.530977768845315 61.5529
11.553407762368774 61.1477
11.575838200059769 61.2608
11.598251599479612 60.7357
11.620682927815501 60.6233
11.64309721895548 60.6448
11.665529441478206 60.3407
11.687962112597958 60.2155
11.710377748130886 60.0954
11.732811318753434 59.795
11.755227854859067 60.123000000000005
11.777662328529495 59.8883
11.800079768750786 59.7119
11.822515149015453 59.5873
11.844950984084935 59.9107
11.867369787303163 59.7032
11.889806534289491 60.1825
11.912226250487029 61.6654
11.934663912939751 65.20100000000001
11.9571020346363 68.264
11.979523127133968 68.5572
12.001962169624331 66.5403
12.024384183972964 63.851000000000006
12.046824150809913 64.6179
12.069264581333726 69.6402
12.091687985297767 76.6773
12.11412934550045 86.1919
12.136553680195208 99.0242
12.158995973632788 120.12200000000001
12.181438735204349 146.30200000000002
12.20386447284199 179.69400000000002
12.226308172985636 202.095
12.24873485024193 211.67
12.271179492516982 174.679
12.293607112949127 135.709
12.316052700916226 98.2746
12.338498763250042 74.3214
12.360927805303868 64.5126
12.383374818673879 62.2922
12.405804812803074 61.3507
12.428252780773262 61.4955
12.45070122756722 61.3521
12.473132656675375 61.2692
12.49558206341869 61.4494
12.518014453510101 61.4779
12.540464823770117 61.46
12.562915677315177 61.4688
12.58534951575545 61.8826
12.607801338171472 61.9337
12.630236146511358 62.7242
12.652688941369085 63.8574
12.675124723177234 64.0021
12.697578494048786 64.4179
12.720032754458185 63.9596
12.742470003354093 64.1642
12.764925245138771 64.5759
12.787363476431278 65.0464
12.809819703166806 65.2195
12.83227642391173 65.9311
12.854716135692716 66.5958
12.877173846755147 67.4958
12.899614549869717 68.0242
12.9220732548287 68.8457
12.94453245827299 69.3662
12.966974655289818 70.1487
12.989434858002571 71.0736
13.011878055298721 71.6302
13.034339260862497 72.813
13.056800969391883 74.5263
13.079245674017244 76.78399999999999
13.101708390774869 78.459
13.12415410463411 82.5127
13.146617833206086 92.6933
13.169064559883248 107.887
13.191529303857127 125.764
13.213994557076367 148.46
13.236442809902437 181.081
13.258909083908291 229.247
13.28135835851934 292.52
13.30382565690295 368.435
13.326293469022952 432.907
13.348744283242008 446.8
13.371213125129904 380.69800000000004
13.39366497011003 279.281
13.416134845360597 184.18200000000002
13.438605238843131 127.639
13.46105863690397 102.65100000000001
13.483530069144786 99.2959
13.505984506951902 107.221
13.528456981549432 120.757
13.550929978879088 136.233
13.573385983253365 157.049
13.595860028340867 189.76
13.618317081455832 237.815
13.64079217790333 298.068
13.663250283359057 356.656
13.685726434770173 392.48800000000006
13.708203115221277 360.051
13.730662806148091 287.317
13.75314054697177 206.005
13.775601299246777 138.235
13.798080104050406 100.215
13.820559442405358 84.5354
13.843021793671388 79.4595
13.865502201420897 77.55199999999999
13.887965623051947 77.0818
13.910447103807167 75.9754
13.932929122629764 74.6692
13.955394156785959 74.3493
13.977877254034569 73.5266
14.000343367582113 72.7252
14.022827546871707 72.3743
14.045294743423524 71.5085
14.06778000837062 70.9297
14.090265817715476 71.1299
14.112734645763819 71.5445
14.13522154619454 73.5602
14.157691466286913 75.1973
14.180179461423874 75.3559
14.202668005486178 73.5385
14.22513957064374 70.824
14.247629214846473 69.0631
14.270101881097517 68.1359
14.29259262906496 67.4528
14.315083930490205 67.3532
14.337558255389705 67.3684
14.360050666019726 67.085
14.382526101071944 66.7194
14.405019624534942 66.5283
14.427513705993134 66.3574
14.449990813291825 66.553
14.47248601302899 66.3734
14.49496423954951 66.4094
14.517460561197822 66.5949
14.539939910570322 66.199
14.562437357763558 66.405
14.58493536931253 66.8422
14.607416409993311 66.6993
14.62991555254159 67.0875
14.652397725157423 66.9453
14.674898002342799 67.4708
14.697398848433282 67.5024
14.719882725991326 68.3396
14.74238471217934 68.6726
14.764869730765593 70.7224
14.787372860692983 74.517
14.809876564079925 81.3673
14.83236330125751 88.7332
14.854868153850365 97.8636
14.877356041159485 110.169
14.899862046604186 125.975
14.922351087688757 148.733
14.944858249632887 178.97
14.967365991421232 208.456
14.989856770231246 228.916
15.012365673994204 228.024
15.03485761569738 200.65200000000002
15.05736768508665 160.25
15.07987833888692 121.891
15.102372032001655 93.9012
15.124883856909658 77.4294
15.14737872204565 71.053
15.169891721717274 68.8626
15.192405310371893 67.9855
15.214901940621196 67.2565
15.237416709527137 66.5136
15.259914520936249 66.3626
15.282430473753607 66.0609
15.304947020131227 65.1968
15.327446610371178 64.9991
15.349964346154254 64.4199
15.372465126703139 64.3401
15.394984055556009 64.1954
15.417486030076159 64.1356
15.44000615566487 63.9754
15.462526881230803 63.6658
15.485030653812652 63.6073
15.507552581617434 63.3433
15.530057557334603 63.3394
15.55258069104857 63.4974
15.575104429329837 63.5663
15.597611216864632 63.485
15.620136166564563 63.4107
15.6426441664095 63.8311
15.665170331202765 65.282
15.687697105158826 68.7971
15.710206930593545 73.957
15.732734925158933 79.6224
15.755245972089478 86.655
15.77777519094324 94.8602
15.800287463046663 105.948
15.822817909869592 122.35799999999999
15.84534897229804 143.377
15.867863089299354 169.201
15.890395385222186 190.88299999999998
15.912910736597423 202.593
15.935444269699861 193.33599999999998
15.957978423016485 168.862
15.980495633101265 133.582
16.003031029129367 104.1
16.02554948280019 81.055
16.048086125229432 69.2477
16.070623392487107 64.7662
16.09314371869582 62.8863
16.11568223789321 61.1307
16.13820381691126 59.9832
16.160743591742527 59.1501
16.183283996022084 58.2488
16.205807461423195 57.4087
16.228349126881973 56.8861
16.25087385432698 57.021
16.27341678466365 56.2956
16.29594277784926 56.1326
16.31848697676433 55.6165
16.341031811604868 55.3623
16.36355971058487 55.2682
16.3861058195587 55.0868
16.40863499352978 54.6407
16.431182380342005 54.1672
16.453730407713202 53.8704
16.476261501364792 53.6102
16.498810812136167 53.3242
16.52134319004079 53.7409
16.54389378792203 53.5512
16.566445031001553 53.4025
16.588979342490088 53.2335
16.61153187824822 53.0094
16.634067483263312 52.928999999999995
16.656621315414416 52.9878
16.679175797408888 52.5423
16.701713349928728 52.6189
16.72426913389191 52.9022
16.74680798922351 52.9566
16.76936507887444 52.8144
16.791905240734874 52.8239
16.814463639794468 52.6428
16.837022695210294 52.8555
16.859564824093756 53.0435
16.882125194503903 53.254
16.904668639217885 53.672
16.927230328348003 53.669
16.949792678493612 54.0629
16.972338104193863 54.2035
16.994901778652235 53.9926
17.017448529496576 53.7187
17.040013531998152 53.8449
17.06257920018044 54.0458
17.0851279459922 54.7951
17.107694947817667 55.8354
17.130245028099072 57.1573
17.15281336730298 58.7437
17.17536478578733 60.1065
17.19793446610687 62.0452
17.220504818648422 64.6929
17.243058251703697 67.6735
17.265629950971032 72.4216
17.288184731571736 77.3389
17.310757781306908 82.0903
17.33333150794385 83.3087
17.355888317140174 82.5706
17.37846339986244 78.7929
17.401021565958885 72.2864
17.42359800851343 65.9356
17.44617513265564 61.5915
17.468735341390783 59.1132
17.491261035594565 57.5254
17.51396340099364 57.0378
17.536490463869136 57.0824
17.559018209820174 57.102
17.58154663977963 57.463
17.604251766089718 57.6158
17.626781572227713 57.6034
17.64931206518155 57.8841
17.671843245885103 58.2713
17.69455114821572 58.458
17.717083712612634 58.8087
17.739616967569667 59.2207
17.762150914021706 60.137
17.78486160749854 60.4626
17.807396945166804 60.9641
17.829932977143503 61.2155
17.85246970436452 61.8085
17.875183204129467 63.3861
17.897721330097664 66.4575
17.920260154126645 69.8217
17.942799677153296 73.5155
17.9655159983646 77.2213
17.988056927677544 82.0578
18.010598558807683 88.8878
18.033140892692916 98.1469
18.05586005052525 109.38
18.07840379824407 121.545
18.10094825154059 133.485
18.12366954819864 142.327
18.146215420998306 143.808
18.16876200220057 137.284
18.191309292745153 123.054
18.214033452627167 108.988
18.236582170236648 95.9302
18.259131600016456 88.3836
18.281681742907335 85.889
18.304408781233683 88.801
18.32696035875955 94.2231
18.349512652227624 99.5242
18.372065662579683 105.243
18.394795594587553 107.751
18.41735004715306 104.906
18.43990521943684 98.8051
18.46246111238171 89.2664
18.485193953325208 79.0545
18.507751296070428 70.6982
18.530309362314178 65.9031
18.552868153000343 62.9962
18.57560391815056 61.2525
18.59816416623245 60.8151
18.620725141597372 60.1995
18.643286845190268 59.5596
18.666025549835414 58.9437
18.688588718427933 58.222
18.711152618092243 58.1512
18.73389353884365 57.7723
18.75645890921984 57.4412
18.77902501351406 57.2019
18.801591852673102 57.2364
18.824335739722738 56.5845
18.846904057212626 56.2742
18.8694731124168 56.1065
18.89204290628315 56.0112
18.914789774966803 55.8923
18.937361054791623 55.6517
18.959933076131318 55.452
18.982505839934877 55.22
19.00525570560582 55.2287
19.027829963004184 55.0121
19.05040496572238 55.3379
19.072980714710468 55.1944
19.095733592739563 54.9736
19.11831084296757 55.1735
19.140888842324735 55.8405
19.16346759176222 56.3351
19.18622349753803 57.2915
19.208803755869358 58.1242
19.231384767143577 59.2782
19.253966532312948 60.6088
19.276725481241822 62.5504
19.29930876296784 65.6748
19.3218928014549 69.0241
19.34465404436217 72.2815
19.36723960516257 74.9675
19.389825925592426 76.2279
19.412413006605938 75.1488
19.43517731967805 72.1026
19.457765930683355 67.7901
19.48035530514408 63.461999999999996
19.50294544401556 59.3612
19.525712842708348 56.1313
19.54830451925909 54.3129
19.570896963095727 53.0912
19.593490175174704 52.7196
19.616260674962184 52.5094
19.638855432416964 52.3097
19.661450960992624 52.1238
19.68404726164677 52.0852
19.706820878021247 51.7942
19.729418731756834 52.1136
19.752017360452857 51.7909
19.77461676506804 51.9569
19.797393513540218 51.8079
19.819994478951667 52.1243
19.84259622316767 52.6669
19.8651987471481 53.2639
19.887978643247177 53.8868
19.91058273574792 54.3551
19.933187610901943 55.3333
19.955969879466828 56.2722
19.97857632894404 57.556999999999995
20.00118356396599 59.0816
20.023791585494575 60.8369
20.046577028914875 63.8627
20.069186632506966 66.4835
20.091797025500632 69.0043
20.114408208858933 70.5537
20.137196842715273 70.6686
20.159809615886765 69.0761
20.18242318232135 66.665
20.20503754298326 64.2363
20.227829382875154 62.5584
20.250445341109344 61.9876
20.27306209647285 62.1642
20.29567964993108 63.4821
20.31847471147704 64.7372
20.34109387027612 65.5425
20.363713830075454 65.4801
20.386334591841646 64.0603
20.409132890679302 61.4892
20.431755265564437 58.3524
20.454378445325528 55.347
20.477002430930366 52.9237
20.499803982716553 51.3677
20.522429589228004 50.172
20.54505600449589 49.5363
20.567683229489194 49.2836
20.590488049900088 49.1369
20.61311690359731 49.018
20.63574656993626 48.7717
20.658553853717297 48.3546
20.681185154618298 48.3863
20.703817271080066 48.3631
20.72645020407368 47.9671
20.749260783967177 47.9686
20.771895359337133 47.9773
20.794530754161617 48.1298
20.817166969412938 48.1905
20.83998086114876 47.9187
20.86261872660049 47.5478
20.885257415405402 47.5543
20.90789692853701 47.4803
20.930714147864748 47.2498
20.953355319030678 47.2652
20.97599731745334 47.3514
20.99864014410749 47.2243
21.021460706796564 47.4784
21.044105199328826 47.6833
21.06675052302631 47.7792
21.089396678865015 47.9458
21.112220600704806 48.2273
21.134868430275347 48.4399
21.15751709492456 48.9355
21.180166595629693 49.3565
21.202993892429635 49.7465
21.22564507473034 50.105
21.24829709602816 50.3428
21.27112693608965 50.6195
21.293780644891275 50.403999999999996
21.316435195634053 49.9844
21.339090589297417 49.3359
21.361923832041875 48.6337
21.384580921090404 48.0242
21.407238856007325 47.4034
21.429897637773326 47.3407
21.45273429906592 47.3363
21.475394784108598 47.4317
21.498056118951983 47.2419
21.520718304578022 47.6221
21.543558400304388 47.6388
21.566222297108816 47.7057
21.58888704765135 47.5375
21.61155265291521 48.0419
21.63439619898156 48.5085
21.657063523335786 48.8195
21.67973170537063 49.5087
21.7024007460706 50.08
21.72524775840385 50.795
21.747918526116475 51.8476
21.770590155457388 52.94
21.79326264741238 54.3155
21.816113141960237 55.9781
21.838787368860547 58.0715
21.861462461341976 60.4842
21.884315579735777 62.7962
21.90699241312273 64.6011
21.92967011506078 65.4401
21.95234868653799 65.415
21.9752053151131 64.0627
21.997885635446785 61.9945
22.020566828293532 59.8285
22.04324889464272 57.9419
22.066109049404666 56.372
22.088792872571794 55.9115
22.111477572219204 56.0099
22.1341631493376 56.1537
22.157026846313123 55.8558
22.179714188221507 55.3379
22.202402410582668 54.2217
22.22509151438863 52.7214
22.24795876962584 51.1096
22.270649646204486 49.9695
22.293341407213727 49.2075
22.316034053646906 48.4431
22.338904883215342 48.1156
22.36159931041458 47.8837
22.38429462602756 47.6512
22.40699083104897 47.613
22.429865251039757 47.5628
22.452563244831367 47.5669
22.47526213102522 47.6318
22.49813925616515 47.5768
22.520839937143307 47.5199
22.543541513520587 47.6143
22.56624398629403 47.4399
22.589124730075895 47.3983
22.611829005656723 47.6904
22.63453418063466 47.5458
22.657240256008077 47.6804
22.680124634582935 47.9939
22.70283252079775 48.3139
22.725541310413075 48.7358
22.74825100442868 49.1148
22.771139033969575 49.6699
22.79385054687155 49.8381
22.81656296718292 50.4444
22.83927629590484 51.3356
22.862167992606945 52.2503
22.88488314827121 53.3916
22.907599215359284 54.3727
22.93031619487366 55.7382
22.953211574954405 56.9253
22.975930389478226 57.7665
22.998650119445763 58.3664
23.02137076586092 57.5185
23.044269845560063 56.2376
23.06699233506288 54.6399
23.089715744034912 52.6992
23.112617610931565 50.8937
23.135342869061212 49.666000000000004
23.158069049684816 48.6384
23.1807961538087 48.0422
23.20370174880544 47.8015
23.226430710184808 47.8492
23.249160598093425 47.7193
23.271891413539002 47.7771
23.294800752937697 47.9699
23.31753343374794 48.5469
23.340267045128353 48.695
23.36300158808808 48.9523
23.38591468821339 49.4007
23.408651104658304 49.9607
23.431388455719986 50.4397
23.454126742409 51.1911
23.4770436196085 52.0888
23.499783787914662 53.3787
23.522524894889884 54.5315
23.54526694154616 55.8534
23.56818761219047 57.3792
23.59093154860734 58.0879
23.613676427751283 58.5586
23.636422250635754 57.9326
23.659346731118656 56.5668
23.68209445191868 54.3936
23.704843119509587 51.9328
23.72759273490623 49.9694
23.750521041644767 48.3326
23.77327256312355 46.8598
23.796025035462787 46.0023
23.818956224555475 45.3918
23.841710609113413 45.1383
23.86446594758979 44.953
23.887222241002014 44.5986
23.910157285144578 44.2734
23.932915498962537 44.2501
23.955674670778713 44.2073
23.978434801611975 44.0218
24.001373717286125 43.9019
24.024135776723917 43.7956
24.046898798245582 43.6169
24.06966278287146 43.638000000000005
24.092605586582614 43.2643
24.115371508023642 43.1792
24.1381383956401 43.1995
24.16090625045381 43.0817
24.183852958731244 42.8981
24.206622758582608 42.8053
24.229393528706886 42.5882
24.252165270127392 42.5946
24.27511589952438 42.6705
24.297889594216997 42.5375
24.32066426328598 42.4298
24.34343990775613 42.3548
24.36639447485003 42.0965
24.38917208083877 42.1146
24.41195066531332 42.0538
24.43490819850244 42.2587
24.457688750692377 41.9907
24.48047028445616 42.0176
24.503252800821233 42.1362
24.526214300784112 42.0886
24.548998793132213 42.2403
24.57178427117417 42.1072
24.59457073593893 42.2897
24.617536219319863 42.2265
24.64032466834748 42.3675
24.663114107195035 42.0542
24.685904536893013 41.7722
24.708874020360852 41.6387
24.731666442613744 41.5269
24.754459858818787 41.4529
24.777254270007962 41.282
24.80022777025625 41.2542
24.82302418230472 41.398999999999994
24.845821592443674 41.3639
24.86862000170663 41.2558
24.891597535453727 41.2054
24.914397953892728 41.4435
24.93719937456671 41.4936
24.96000179851076 41.6447
24.98298338249997 41.5656
25.00578782394922 41.9218
25.028593271784167 42.035
25.05157790644186 42.3749
25.07438537804115 42.6285
25.097193859145293 42.9132
25.120003350792075 43.1047
25.142992065061257 43.593999999999994
25.165803588823465 43.778999999999996
25.18861612625217 44.0859
25.211429678386736 44.1487
25.234422489079968 44.4063
25.257238081693636 44.4855
25.280054692141732 44.5511
25.3028723214652 44.4847
25.325869245420463 44.6682
25.348688923599397 44.6597
25.371509623787006 44.7155
25.394331347025812 44.3276
25.41733240110666 43.8621
25.440156181590016 43.2603
25.46298098826268 42.7127
25.48580682216873 42.0503
25.50881202326435 41.4516
25.53163992281684 40.8385
25.55446885274561 40.6357
25.577298814096377 40.1626
25.600308179121807 40.0614
25.623140214533745 40.2084
25.64597328451537 39.9793
25.66898578564376 39.7829
25.691820936010206 39.7956
25.714657124097695 39.5824
25.737494350954734 39.7376
25.760511045684957 39.5742
25.783350361364224 39.8279
25.806190718969255 39.8721
25.82903211955018 39.8322
25.852053024868923 39.9798
25.874896522722523 39.9679
25.897741066713106 39.9469
25.920586657892454 39.8651
25.943611790812668 40.0609
25.966459487728237 40.1856
25.989308234998564 40.2224
26.01215803367705 40.6779
26.03518741123814 40.9213
26.05803932412957 41.07899999999999
26.080892291600094 41.1962
26.10374631470478 41.262
26.12677995397268 41.3769
26.14963609978026 41.3544
26.172493304397875 40.9899
26.19535156888223 40.8281
26.218389486949604 40.4161
26.241249882640123 40.0912
26.26411134137826 39.6063
26.28715248187403 39.6324
26.31001607820869 39.4171
26.3328807407756 39.3263
26.35574647063438 39.6287
26.37879191991473 39.3949
26.401659795896734 39.4992
26.424528742360263 39.6084
26.447398760366614 39.701
26.470448535598294 39.8173
26.49332070826805 40.0107
26.516193955675355 40.417
26.53906827888316 40.5553
26.562122397260108 40.7361
26.584998883685063 41.2479
26.607876449110325 41.6059
26.63075509460056 41.7643
26.65381357334404 41.9951
26.67669439061878 41.8099
26.699576291163382 41.88
26.722459276044212 41.7307
26.745522132402975 41.3946
26.768407297649354 41.1497
26.791293550442003 40.8552
26.814180891848974 40.4901
26.837248143099337 40.1393
26.860137673466657 40.0505
26.88302829566349 39.809
26.90592001075963 39.5713
26.92899167420566 39.5452
26.951885586870763 39.1511
26.974780595655517 38.9773
26.99785558178161 38.758
27.020752794605112 38.5024
27.043651106772522 38.2865
27.06655051935668 38.2344
27.089629948036183 38.1298
27.112531573292053 38.0136
27.135434302194138 38.0676
27.158338135817015 37.965
27.181422024430987 37.9541
27.204328079372566 37.7723
27.22723524226965 37.8749
27.250143514198573 37.9198
27.273231880156334 38.0123
27.296142382065014 37.7172
27.319053996245536 37.7194
27.341966723775965 37.7643
27.365059584515222 37.9221
27.38797455070062 37.8979
27.410890633481237 37.7513
27.433807833936918 37.7327
27.456905206923906 37.8672
27.47982465472398 37.9553
27.502745223449743 37.9766
27.525666914182825 38.2225
27.548768816912457 37.9602
27.571692763693633 37.9482
27.59461783573812 38.0407
27.617723149491244 37.8486
27.640650484125285 37.6989
27.66357894728264 37.7554
27.686508540048052 37.6441
27.709618414237887 37.4945
27.732550278321757 37.3274
27.755483275279115 37.3272
27.778417406196485 37.4238
27.801531858397514 37.4529
27.824468269376716 37.2429
27.847405817586786 37.2194
27.870344504116094 37.4612
27.893463551932008 37.6045
27.916404527281053 37.7641
27.93934664422563 37.8271
27.962289903855886 38.0756
27.98541356491974 38.4199
28.00835912214229 38.4621
28.03130582533231 38.6929
28.054253675581805 38.9419
28.077381967556104 38.9643
28.100332124185126 38.9131
28.123283431160893 38.8309
28.146235889577238 38.8585
28.169368830154156 38.5666
28.192323603752033 38.2614
28.215279532083304 37.973
28.238415973016764 37.8361
28.261374223145094 37.5194
28.284333631303806 37.3773
28.307294198589954 37.09
28.330435319167677 36.8938
28.353398217078915 36.4745
28.376362277420153 36.284
28.39932750129032 36.1044
28.422473319286713 35.8952
28.44544088262495 35.7667
28.468409612800283 35.7507
28.491379510913497 35.6005
28.51453004413313 35.4298
28.53750229057244 35.4499
28.56047570826344 35.3522
28.583450298308804 35.4088
28.606605564586562 35.2136
28.629582511831156 35.1966
28.65256063474956 35.0278
28.675539934446338 35.0154
28.698699951647605 35.1328
28.72168161743193 34.9196
28.74466446331978 34.9179
28.767648490417624 34.900999999999996
28.790813276438353 34.7021
28.813799678527303 34.8861
28.836787265157085 34.907
28.859955641890075 34.9038
28.882945610203045 34.9591
28.905936766392035 34.8795
28.928929111566863 34.8541
28.952102288520145 34.6785
28.975097024308607 34.6388
28.998092952423807 34.544000000000004
29.021090073977508 34.5009
29.04426806913204 34.3878
29.067267590245258 34.2338
29.090268308143695 33.9481
29.11327022394099 33.9038
29.13645305530891 33.8881
29.159457379627167 33.8474
29.18246290519685 33.7253
29.20546963313352 33.7893
29.22865731875826 33.823
29.25166646419296 33.8159
29.27467681535305 33.6483
29.29768837335608 33.7109
29.320880931312562 33.8582
29.34389491580634 33.7566
29.366910110507334 33.7349
29.38992651653503 33.7509
29.41312396492981 33.7644
29.436142806456754 33.7994
29.45916286268059 33.6112
29.48236399319994 33.5143
29.50538649169417 33.4276
29.528410208259935 33.244
29.55143514402014 32.999
29.574641196749695 32.923
29.597668583816574 32.72
29.6206971934585 32.6193
29.64372702680042 32.5833
29.666938019934474 32.5524
29.689970313635285 32.4414
29.713003834422636 32.4653
29.73603858342347 32.3479
29.759254535188578 32.2785
29.78229175361658 32.2
29.80533020365064 32.2729
29.82836988641968 32.3276
29.85159081507472 32.2084
29.874632976355343 32.1706
29.89767637376955 32.2
29.920721008448314 31.9808
29.9439469322847 32.0982
29.96699405457564 32.0529
29.9900424175358 32.037
30.013092022298157 31.9469
30.03632295963995 31.8667
30.059375061131373 31.9805
30.08242840783577 32.0145
30.105483000888153 31.9296
30.128718970092244 31.8046
30.151776069006917 31.8387
30.17483441768648 31.8757
30.198074175317235 31.9791
30.221135036724256 31.9605
30.24419715131772 31.9493
30.267260520236203 31.8285
30.290505341942243 31.8865
30.313571232750228 31.8557
30.336638381310948 31.8308
30.35970678876503 31.8091
30.38295669299435 31.6827
30.40602763151657 31.6998
30.429099832366074 31.6356
30.452173296685572 31.5352
30.47542830191959 31.645
30.498504306502497 31.5786
30.521581577995562 31.5963
30.544660117543582 31.7167
30.56792024229725 31.7664
30.59100133132069 31.6756
30.614083691845494 31.8161
30.637167325018545 31.8332
30.660432587840603 31.7798
30.683518779717886 31.7776
30.70660624769615 31.9197
30.729694992924372 31.9536
30.75296541239743 31.7829
30.77605672557558 31.7792
30.799149319462742 31.7646
30.8224236211637 31.6136
30.845518789950724 31.496
30.868615242910597 31.4685
30.891712981195973 31.3291
30.91499247215866 31.2873
30.938092794619365 31.1864
30.96119440587579 31.1313
30.984297307082752 30.9839
31.00758200598383 30.9125
31.030687500658694 30.914
31.053794288760695 30.7472
31.076902371446767 30.656
31.100192296997445 30.676
31.12330298246119 30.6767
31.14641496599209 30.4579
31.169528248749216 30.5157
31.19282341969534 30.5176
31.215939314557186 30.502
31.239056512134788 30.6107
31.262175013589378 30.5382
31.28547544871168 30.4687
31.30859657161541 30.4873
31.331719001892175 30.3279
31.35484274070538 30.4684
31.378148458819545 30.54
31.401274828443725 30.5453
31.424402510106933 30.4866
31.447712205419993 30.5578
31.470842524931633 30.4002
31.493974159989783 30.465999999999998
31.51710711176168 30.4339
31.54042212308802 30.4306
31.563557722100917 30.3659
31.586694641341655 30.3001
31.609832881979628 30.076
31.63315322823208 30.1239
31.656294125521327 29.9388
31.679436347728515 29.9321
31.70257989602529 29.9013
31.725905596152327 29.8332
31.74905181052835 29.761
31.772199354521323 29.7609
31.79534822930507 29.7667
31.818679302290967 29.7197
31.84183085259981 29.733
31.864983737233473 29.7405
31.88813795736804 29.8171
31.911474422233013 29.6364
31.934631327356435 29.6464
31.9577895715215 29.7624
31.980949155906522 29.664
32.004291031706956 29.7518
32.027453310562606 29.5751
32.05061693318573 29.5331
32.07396288236386 29.4621
32.09712920658542 29.3648
32.12029687812702 29.2284
32.14346589817093 29.2436
32.166817291729984 29.2133
32.18998902288583 29.0317
32.21316210610336 28.9789
32.23633654256711 28.9067
32.259693399663725 28.8251
32.282870556771144 28.8468
32.30604907069099 28.7594
32.329228942610065 28.6779
32.35259128243769 28.5934
32.375773884550505 28.6063
32.398957848235646 28.5315
32.422143174682176 28.486
32.445511016471215 28.3527
32.468699082679954 28.34
32.49188851523011 28.331
32.51507931531304 28.1851
32.538452678331 28.115
32.56164622776311 28.2088
32.58484114831493 28.1898
32.60803744118015 28.1088
32.631416344731896 28.0735
32.654615396551876 28.0058
32.67781582427913 28.0108
32.701198898634416 27.8813
32.72440209253756 27.8542
32.747606665947124 27.8723
32.77081262006088 27.743000000000002
32.79420126883317 27.6914
32.81740999876112 27.6904
32.840620112999424 27.6245
32.86383161274818 27.5861
32.88722585534586 27.6731
32.91044014056596 27.7775
32.933655814909734 27.6202
32.95687287957963 27.5849
32.98027273544904 27.549
33.00349259526636 27.4871
33.026713849030116 27.5579
33.04993649794511 27.4879
33.073341986570746 27.4616
33.09656744032826 27.441999999999997
33.11979429286444 27.476
33.14302254538647 27.4506
33.166433686291185 27.3748
33.18966475336992 27.3546
33.212897224069096 27.2683
33.23613109959831 27.2916
33.259547912343415 27.3056
33.2827846121627 27.2564
33.306022720453775 27.2352
33.32926223842861 27.055999999999997
33.352684742614166 27.0961
33.37592709463173 27.0764
33.399170859982064 26.9717
33.422597648419426 26.8863
33.44584425514446 26.8519
33.46909227885668 26.7991
33.4923417207723 26.7035
33.51577423505344 26.6959
33.539026528130385 26.5093
33.56228024307245 26.5194
33.585535381098246 26.3841
33.60897364093058 26.4474
33.63223163992385 26.4391
33.6554910656699 26.340999999999998
33.678751919389796 26.2827
33.702195944520106 26.1652
33.72545966903325 26.275
33.74872482519663 26.1175
33.771991414233746 26.1783
33.79544122444841 26.2214
33.81871069412428 26.0111
33.84198160035767 25.9996
33.86525394437455 26.113000000000003
33.88870955949969 25.9021
33.911984794020626 25.9691
33.93526147001624 25.9566
33.958539588715006 25.808000000000003
33.98200102861669 25.7693
34.0052820477047 25.6523
34.02856451319451 25.7167
34.05203033759056 25.6508
34.07531571090147 25.6255
34.09860253431845 25.5129
34.121890809074316 25.4883
34.145362493118924 25.5691
34.16865368561615 25.5383
34.191946333164054 25.4607
34.21524043699793 25.4168
34.23871800066799 25.361
34.26201503218366 25.2382
34.28531352370466 25.3087
34.30861347646881 25.1908
34.33209693978188 25.2248
34.3553998301885 25.2001
34.378704185565205 25.0956
34.402010007152356 25.0676
34.42549939016683 25.044
34.44880815937748 24.8604
34.472118398533134 24.9007
34.49543010887669 24.824
34.51892543169198 24.7029
34.54224009966052 24.7716
34.56555624255917 24.7894
34.58887386163339 24.660999999999998
34.61237514439016 24.6648
34.6356957311114 24.6417
34.65901779775809 24.5802
34.68252356662995 24.5716
34.705848608458616 24.5343
34.72917513396849 24.4827
34.75250314440949 24.4589
34.77601490857862 24.3896
34.799345904259795 24.326
34.82267838863559 24.3993
34.846012362958525 24.3513
34.869530142679984 24.2357
34.89286711232212 24.2246
34.91620557568269 24.1811
34.93954553401677 24.217
34.9630693495876 24.1428
34.986412313340814 24.1464
35.00975677584668 24.0858
35.033102738362956 24.0527
35.05663261012228 23.9681
35.0799815881786 23.9773
35.10333207003229 23.9712
35.12668405694369 23.965
35.150220005273056 23.894000000000002
35.17357501786656 23.9265
35.19693153931268 23.8815
35.220289570874385 23.9143
35.24383161619786 23.8203
35.267192683604904 23.7833
35.290555264930376 23.7966
35.314101899412165 23.7109
35.33746752422433 23.7003
35.36083466676374 23.7172
35.38420332829803 23.6691
35.407756095629054 23.7061
35.43112781085063 23.664
35.45450104888391 23.668000000000003
35.477875810999194 23.6768
35.50143473172161 23.5104
35.52481255774625 23.6361
35.54819191167777 23.5124
35.57157279478914 23.4668
35.595137889488406 23.4087
35.61852184675279 23.4237
35.641907337029984 23.3627
35.665294361595684 23.2458
35.68886565090076 23.2053
35.7122557598848 23.2234
35.73564740699838 23.1838
35.759040593519934 23.1994
35.78261809810353 23.1233
35.80601437933051 23.0302
35.829412203814705 23.013
35.85281157283719 22.9425
35.876395313415884 23.0167
35.8997977874528 22.883000000000003
35.92320180988546 22.8797
35.946790244133936 22.8209
35.97019737933222 22.772
35.993606066789866 22.7655
36.01701630779276 22.789
36.04061101440684 22.694000000000003
36.06402437852291 22.6946
36.08743930005611 22.6376
36.1108557802951 22.5516
36.13445678011326 22.5949
36.15787639383515 22.5669
36.18129757014299 22.5602
36.20472031032821 22.4952
36.22832762423364 22.436
36.25175350829375 22.3859
36.275180960119776 22.1846
36.298609981005924 22.3267
36.32222362992669 22.305999999999997
36.34565580510207 22.2128
36.36908955323448 22.2275
36.39252487562093 22.2347
36.416144880530226 22.1921
36.43958336764275 22.2085
36.463023432914625 22.1636
36.486465077645676 22.1068
36.51009145956204 22.1755
36.53353627947859 22.0916
36.55698268276811 21.9892
36.58043067073321 21.9435
36.60406345072071 21.875
36.62751462435344 21.8821
36.65096738658405 21.9201
36.67460498210655 21.869
36.69806093788647 21.8206
36.72151848619297 21.758000000000003
36.744977628333636 21.7372
36.76862165890998 21.6981
36.79208400512205 21.6646
36.81554794910557 21.6206
36.83901349217101 21.5747
36.862663978991606 21.5574
36.88613273667352 21.4982
36.90960309738324 21.5152
36.933075062434064 21.4929
36.95673202673572 21.401
36.98020721697122 21.3519
37.003684015502365 21.2863
37.027162423645365 21.2592
37.050825886711465 21.2504
37.07430753063053 21.2394
37.09779078812467 21.1527
37.121275660513014 21.2022
37.144945643673694 21.0714
37.16843376245278 21.104
37.19192350009803 21.1184
37.215414857931435 21.0388
37.239091382563885 21.0022
37.262585997426164 20.9671
37.28608223645736 21.0391
37.309763684451696 20.936999999999998
37.33326318851098 20.8918
37.356764320726555 20.816
37.380267082425526 20.8602
37.40395510942588 20.791
37.42746114683234 20.750999999999998
37.45096881771841 20.6966
37.474478123414166 20.706999999999997
37.49817275092816 20.7041
37.52168534303452 20.6766
37.54519957395567 20.590999999999998
37.568715445024665 20.5995
37.592416694607714 20.5132
37.61593586281424 20.5532
37.63945667518264 20.5308
37.66297913304891 20.4053
37.68668702630454 20.4235
37.710212792059274 20.3116
37.733740207334854 20.3259
37.757269273470364 20.2817
37.780983832050374 20.2593
37.80451621684926 20.2617
37.82805025654007 20.1914
37.851585952464795 20.0991
37.8753071980695 20.0524
37.89884622345676 20.0543
37.92238690911902 20.0267
37.94611318753442 19.9993
37.969657210779765 19.980999999999998
37.99320289834801 20.0164
38.016750251586465 19.9624
38.04048325513017 19.9065
38.06403395679343 19.8344
38.087586328183946 19.7485
38.11114037065203 19.7564
38.13488012115898 19.8303
38.1584375229181 19.7478
38.181996599821 19.6626
38.205557353221124 19.6309
38.229303872575656 19.6147
38.2528679961576 19.6369
38.27643380031219 19.5722
38.30000128639589 19.5896
38.32375459653193 19.5597
38.34732546371299 19.5549
38.37089801690786 19.4279
38.39447225747609 19.4192
38.418232380377425 19.3593
38.441810012983396 19.4249
38.46538933705673 19.4218
38.488970353960084 19.3393
38.51273731166058 19.3594
38.536321731567014 19.2117
38.55990784840681 19.1975
38.58367995004091 19.1687
38.60726947812959 19.1068
38.63086070726198 19.1396
38.654453638806274 19.1806
38.678232613930824 19.0195
38.70182896773327 18.992
38.72542702806741 18.9346
38.7490267963045 18.9558
38.77281266709232 18.9463
38.79641586862214 18.8697
38.8200207821842 18.8407
38.843627409152944 18.9274
38.86742019782782 18.8358
38.891030269149255 18.7608
38.914642058016156 18.7889
38.938255565806124 18.7142
38.96205529464307 18.6405
38.98567225787121 18.6781
39.00929094417078 18.6848
39.03291135492255 18.5896
39.05671804624804 18.5788
39.080341923549106 18.561
39.103967529460334 18.4893
39.127594865365744 18.4689
39.15140854155791 18.4593
39.17503935514948 18.4911
39.19867190290282 18.4701
39.22249083587951 18.4178
39.24612686969409 18.3525
39.269764641845306 18.2493
39.293404153722804 18.2916
39.317230110864074 18.1915
39.34087311998506 18.2586
39.36451787301696 18.2184
39.388164371352595 18.1462
39.41199737518003 18.115
39.43564738196752 18.1008
39.45929913825317 18.0624
39.48295264543308 18.1029
39.506792718520884 18.0355
39.530449745387216 18.0196
39.55410852735203 17.9644
39.57776906581474 17.9826
39.60161623079 17.9725
39.625280300200025 17.8516
39.64894613032202 17.7956
39.67261372255866 17.794
39.6964680021016 17.8058
39.72013913657293 17.8348
39.74381203738292 17.8026
39.76748670593756 17.7911
39.79134812278169 17.6773
39.81502634488497 17.639
39.83870633896685 17.6478
39.862388106436654 17.6354
39.88625668336918 17.5873
39.90994201572829 17.5966
39.933629125719285 17.5502
39.957503091207826 17.463
39.9811937746168 17.502
40.00488623990914 17.4407
40.02858048850006 17.4359
40.05246165409549 17.4137
40.076159487492085 17.3333
40.099859108448875 17.3719
40.123560518384345 17.2825
40.1474489070226 17.2301
40.171153913178564 17.2402
40.194860712584955 17.1787
40.2185693066637 17.2107
40.242464941335314 17.1404
40.26617714307655 17.1486
40.289891143772046 17.1215
40.3136069448471 17.1147
40.33750984859743 17.0925
40.3612292688043 17.0348
40.3849504936829 16.9893
40.40867352466194 17.0114
40.43258372059144 16.934
40.45631038219906 16.9763
40.48003885420956 16.9132
40.503769138055105 16.895
40.52768664931955 16.867
40.55142057531802 16.8357
40.57515631746428 16.783
40.599079334038514 16.7538
40.62281872700477 16.7544
40.64655994043941 16.7387
40.67030297578061 16.7207
40.69423334835778 16.6792
40.71798004609188 16.6492
40.74172857006355 16.578
40.76547892171441 16.604
40.7894166736039 16.5801
40.813170699248566 16.5262
40.83692655691388 16.5328
40.86068424804498 16.5496
40.884629402612525 16.4741
40.908390779366385 16.4556
40.932153993938 16.4199
40.95591904777605 16.365
40.979871628443995 16.3476
41.003640379561936 16.3563
41.02741097430883 16.3408
41.05118341413683 16.307000000000002
41.075143444384416 16.2309
41.098919593177826 16.2372
41.1226975914255 16.1676
41.14647744058318 16.1492
41.170444943946755 16.1577
41.19422851378379 16.1664
41.218013938914645 16.0615
41.24198706625173 16.0049
41.26577622087193 15.9847
41.289567235177785 15.9696
41.31336011063129 15.9669
41.337340752422875 15.9465
41.361137369129835 15.9508
41.38493585138705 15.9256
41.40873620066004 15.8642
41.43272438060107 15.8072
41.45652848292052 15.7911
41.48033445666918 15.7497
41.50414230331616 15.7164
41.528138045159764 15.7225
41.551949656675205 15.6607
41.575763145513235 15.6368
41.59957851314666 15.6454
41.62358184070442 15.6369
41.64740098505737 15.6223
41.6712220126409 15.5596
41.69504492493139 15.5694
41.71905586207357 15.5052
41.74288256296395 15.4839
41.766711153007456 15.4899
41.79054163368412 15.3944
41.814560204340054 15.4194
41.838394485526365 15.4219
41.86223066180303 15.3772
41.88625497706819 15.3149
41.910094962812 15.2852
41.93393684811168 15.2777
41.95778063445365 15.2116
41.981812625263366 15.1714
42.00566023303407 15.1998
42.029509746323676 15.1379
42.05336116662236 15.1495
42.077400857069705 15.1085
42.10125611078846 15.1366
42.12511327600405 15.0879
42.14897235421036 15.049000000000001
42.173019768448455 15.0349
42.19688269209613 14.9597
42.22074753323349 14.9551
42.24461429335818 15.0105
42.268669455600495 14.9315
42.292540073217886 14.9265
42.31641261433284 14.8844
42.34028708044675 14.8286
42.36435001496739 14.8214
42.38822835065557 14.8207
42.41210861586426 14.8014
42.4359908120986 14.7892
42.46006154323262 14.7135
42.48394762115317 14.6894
42.507835634632315 14.7207
42.531912233047436 14.6608
42.55580413732265 14.6596
42.579697981698 14.6126
42.60359376768525 14.5843
42.62767820545945 14.6204
42.65157789440821 14.5641
42.67547952952185 14.4912
42.699383112316 14.5086
42.72347541395347 14.3957
42.74738291190531 14.3875
42.771292362102166 14.439
42.795203766063516 14.3773
42.819303956130405 14.3654
42.843219287476536 14.3169
42.86713657716324 14.2922
42.89105582671383 14.2573
42.91516392983864 14.2819
42.939087119032166 14.2348
42.963012272677304 14.2336
42.98693939230129 14.1666
43.01105543317513 14.1586
43.034986504731386 14.186
43.05891954686589 14.1431
43.08285456110972 14.1689
43.10697856448665 14.0915
43.130917542983475 14.0328
43.15485849820081 14.0191
43.17880143167367 13.9817
43.20293342237094 13.9666
43.226880332449 13.8961
43.25082922540554 13.9045
43.27496722682525 13.8975
43.29892010567796 13.8948
43.32287497204102 13.886
43.34683182745632 13.7909
43.370977859791836 13.7817
43.39493871351105 13.7961
43.41890156092628 13.8228
43.44286640358341 13.7827
43.46702049182749 13.7156
43.49098934522816 13.6772
43.51496019852649 13.6317
43.5389330532723 13.6428
43.56309522248204 13.5617
43.58707210044314 13.5661
43.61105098451946 13.5654
43.63503187626491 13.5417
43.659202151562134 13.5339
43.68318707902681 13.4952
43.70717401884041 13.4519
43.731162972560874 13.4221
43.75534137913236 13.4184
43.779334381108384 13.4085
43.803329401683186 13.3859
43.82732644241872 13.3787
43.8515130055166 13.3389
43.87551410707659 13.3303
43.89951723350145 13.3027
43.923709934595614 13.2642
43.94771713129917 13.2397
43.97172635758096 13.2315
43.99573761501002 13.1818
44.0199385169922 13.1684
44.04395385732619 13.1517
44.067971233533086 13.1566
44.09199064718605 13.1276
44.11619977548961 13.0818
44.14022328470671 13.0154
44.16424883610785 13.0443
44.18827643127035 13.0408
44.21249381139513 13.0343
44.236525514814076 12.978
44.26055926674478 12.9417
44.28459506876863 12.9182
44.3088207262813 12.9084
44.33286064928722 12.8404
44.35690262714919 12.8593
44.38094666145278 12.8289
44.4051806219871 12.8532
44.42922879003185 12.8102
44.45327901929361 12.7455
44.477331311362136 12.7441
44.501573600619416 12.6971
44.525630039221795 12.6709
44.54968854541895 12.6873
44.573937102200176 12.6618
44.5979997645541 12.6532
44.622064499300315 12.6104
44.64613130803592 12.562999999999999
44.67038823869318 12.5886
44.69445921643748 12.523
44.718532272981385 12.508
44.742607409926194 12.5313
44.76687274034801 12.514000000000001
44.79095205918753 12.437000000000001
44.81503346325094 12.4544
44.839116954143876 12.4249
44.86339071028742 12.4013
44.88747839599524 12.3244
44.91156817336837 12.3865
44.93566004401666 12.3669
44.959942251908146 12.3668
44.984038330325966 12.3427
45.00813650686762 12.2414
45.03223678314731 12.2039
45.05652746888232 12.1942
45.08063196592069 12.1963
45.104738567558705 12.1789
45.128847275414856 12.1786
45.15314646515866 12.1064
45.17725940679741 12.1286
45.20137445952892 12.0979
45.22568004865265 12.0699
45.24979934496396 12.0636
45.27392075725247 12.0261
45.29804428714431 12.0168
45.322358426247604 12.0003
45.346486212804315 11.9643
45.370616121861914 11.9135
45.39474815505086 11.9273
45.41907087049246 11.863
45.4432071734666 11.8464
45.46734560548283 11.868
45.49148616817604 11.8358
45.51581748638564 11.8227
45.5399623320197 11.8441
45.56410931325473 11.7661
45.58825843173002 11.7284
45.61259837920865 11.7203
45.636751793816 11.7164
45.66090735060093 11.6922
45.68506505120716 11.6552
45.7094136545275 11.6562
45.73357566449271 11.5962
45.75773982322992 11.6154
45.78190613238733 11.5671
45.806263418194064 11.5159
45.83043404997326 11.5335
45.85460683713677 11.5402
45.87897065658495 11.5211
45.90314777634752 11.4794
45.92732705646868 11.4766
45.9515084986045 11.4605
45.97588104735473 11.4225
46.00006683541565 11.3893
46.02425479047904 11.3819
46.04844491420549 11.3561
46.0728262191024 11.3139
46.09702070211635 11.306
46.12121735879483 11.3189
46.14541619080294 11.3171
46.169806278764455 11.3013
46.194009483459034 11.2428
46.21821486849841 11.2013
46.24242243555223 11.1527
46.266821333570014 11.1811
46.29103328674601 11.1867
46.31524742696538 11.1488
46.33946375590237 11.0979
46.36387149104216 11.0592
46.38809221957392 11.0605
46.41231514186606 11.0589
46.436540259597464 11.0578
46.460956858999374 11.0291
46.48518638983522 11.0163
46.509418121166966 10.9661
46.533652054678114 10.9445
46.55807754555709 10.9122
46.58231590571962 10.9333
46.60655647313217 10.8923
46.630988654873654 10.8904
46.655233659129024 10.8462
46.67948087571551 10.8672
46.70373030632484 10.7963
46.72817142736393 10.7735
46.752425308428684 10.7705
46.77668140861147 10.7433
46.80093972960865 10.7012
46.82538981736788 10.6945
46.849652602470904 10.6583
46.87391761349769 10.6789
46.8981848521493 10.6426
46.9226439341274 10.6482
46.946915650573224 10.6101
46.97118959976749 10.62
46.99546578341598 10.5739
47.019933887188216 10.5427
47.04421456235744 10.5455
47.06849747711879 10.5391
47.09278263318286 10.4739
47.11725978640143 10.4467
47.14154944775105 10.4538
47.165841355555656 10.4539
47.1901355115306 10.4416
47.214621741924994 10.3837
47.23892041698887 10.366
47.26322134538975 10.3053
47.28771440635075 10.3198
47.31201986422527 10.3274
47.33632758061436 10.3125
47.360637557241866 10.3101
47.38513974410611 10.3097
47.40945426407847 10.2407
47.43377104948137 10.2428
47.45809010204344 10.2099
47.48260144275502 10.191
47.506925052572285 10.1785
47.53125093475548 10.1336
47.55557909103813 10.0923
47.58009961361992 10.1005
47.60443234110732 10.0656
47.62876734791564 10.0935
47.65310463578333 10.0504
47.6776343683373 10.046
47.7019762413987 10.0068
47.72632040075572 10.0019
47.75066684815169 9.94556
47.77520581885936 9.94078
47.799556865477655 9.92077
47.823910205386 9.93215
47.84826584033272 9.897219999999999
47.87281407745551 9.87467
47.89717432569297 9.8893
47.92153687423484 9.90119
47.94609208429692 9.886239999999999
47.97045925671401 9.83126
47.99482873471275 9.810260000000001
48.01920052005013 9.82996
48.04376504619224 9.77605
48.068141469543484 9.7581
48.09252020552573 9.7491
48.11690125590099 9.72989
48.1414751266064 9.71909
48.16586082917454 9.70805
48.19024885144316 9.675189999999999
48.2146391951793 9.66511
48.239222439012764 9.63412
48.26361744916137 9.59666
48.28801478610016 9.62565
48.31241445160131 9.59936
48.337007097209366 9.5754
48.36141144338331 9.5343
48.38581812345755 9.5573
48.41022713920929 9.53627
48.434829215320704 9.50424
48.45924292604658 9.51442
48.48365897780325 9.48364
48.50807737237308 9.45358
48.532688907799276 9.44947
48.55711201168574 9.388869999999999
48.581537463754074 9.36969
48.60615611725119 9.39222
48.63058628942721 9.37464
48.65501881516546 9.368310000000001
48.6794536962573 9.33977
48.70408185970339 9.30176
48.72852147531801 9.26684
48.75296345168211 9.24592
48.77740779059232 9.24008
48.80204549302823 9.25586
48.82649458091802 9.22614
48.85094603676547 9.21574
48.87539986237231 9.20662
48.90004713292306 9.17152
48.92450572200832 9.19594
48.94896668628025 9.14771
48.97343002754588 9.13643
48.99808689542115 9.09632
49.02255501470614 9.09355
49.04702551642794 9.08578
49.0714984023988 9.04296
49.096164896893235 8.97449
49.120642575466796 8.981710000000001
49.145122643748394 8.99831
49.16960510355558 8.95924
49.19428125404938 8.95528
49.2187685210852 8.93571
49.243258185121555 8.93432
49.26794160167084 8.9147
49.2924360839405 8.91333
49.31693296869764 8.84035
49.34143225776915 8.84181
49.36612538195438 8.79795
49.39062950396021 8.83083
49.41513603578346 8.80592
49.4396449792564 8.81626
49.46434784069503 8.781419999999999
49.488861631846454 8.75495
49.513377840166804 8.76057
49.537896467493745 8.70508
49.56260909589029 8.67327
49.587132585683285 8.71405
49.611658500018365 8.69704
49.636186840738596 8.65576
49.66090926588511 8.62403
49.685442483902584 8.60971
49.70997813385706 8.61571
49.734516217597076 8.61234
49.75924846937352 8.55246
49.7837914452858 8.55207
49.80833686055187 8.55658
49.83288471702571 8.52699
49.85762682540054 8.48899
49.882179588965734 8.48812
49.9067347993235 8.48424
49.93129245833333 8.472719999999999
49.95604445336378 8.45616
49.98060703442832 8.42465
50.005172069746266 8.42178
50.02993150438364 8.40725
50.05450147301533 8.39817
50.07907390151433 8.36021
50.10364879174981 8.34636
50.12841816587289 8.32359
50.1529980044635 8.341460000000001
50.17758031042124 8.2925
50.20216508562089 8.31714
50.22694442953363 8.2682
50.25153416817468 8.23559
50.27612638170508 8.24142
50.300721072005196 8.208110000000001
50.325510416102105 8.20324
50.350110084975064 8.17837
50.37471223628208 8.1856
50.39931687190919 8.1193
50.424116246675766 8.138630000000001
50.44872587605249 8.109119999999999
50.47333799543065 8.114189999999999
50.49795260670191 8.10799
50.52276204271512 8.07141
50.54738166295838 8.04076
50.57200378079314 8.0412
50.596628398116835 8.03333
50.62144792604559 8.069980000000001
50.646077567609396 8.03786
50.670709714377715 7.99004
50.69553683636198 7.95626
50.72017401885922 7.95355
50.7448137122895 7.9382600000000005
50.76945591856022 7.91362
50.79429318636823 7.93544
50.818940443716784 7.8929800000000006
50.84359021965163 7.8537
50.868242516085964 7.861789999999999
50.893089960641895 7.851369999999999
50.917747323549435 7.839010000000001
50.94240721271973 7.86464
50.96706963007175 7.80435
50.99192728239342 7.794230000000001
51.01659478166073 7.7816399999999994
51.04126481489051 7.79277
51.06593738400761 7.77223
51.090805275207074 7.7377199999999995
51.11548294172845 7.6827
51.14016314993547 7.7192300000000005
51.164845901758845 7.706010000000001
51.18972406304274 7.66407
51.21441192780656 7.628610000000001
51.23910234200271 7.60275
51.2637953075678 7.61787
51.288683770237945 7.61379
51.31338186432707 7.56205
51.33808251561888 7.57792
51.362978729967345 7.54847
51.387684521509755 7.5317300000000005
51.41239287610203 7.52987
51.437103795691165 7.51386
51.46201036644977 7.47007
51.486726441956634 7.46702
51.51144508832545 7.464360000000001
51.536166307509156 7.441139999999999
51.56108326624387 7.426080000000001
51.58580965706056 7.40914
51.61053862657523 7.40245
51.635270176746864 7.3356
51.66019755512065 7.37431
51.68493429268881 7.362989999999999
51.70967361681515 7.33007
51.73441552946465 7.30248
51.759353359237934 7.33585
51.7841004750961 7.3145
51.80885018539685 7.30143
51.833602492111254 7.254519999999999
51.8585508051424 7.236110000000001
51.883308330926425 7.230919999999999
51.90806845906181 7.199210000000001
51.932831191525715 7.1940100000000005
51.95779001977161 7.201010000000001
51.98255798721516 7.17457
52.00732856494335 7.1565199999999995
52.03229530577543 7.1459
52.057071130455945 7.12838
52.081849571391054 7.10763
52.106630630568695 7.10802
52.13160794279417 7.064539999999999
52.15639426492067 7.07942
52.18118321127822 7.0487
52.205974783860896 7.01173
52.23096269971011 7.008939999999999
52.255759551287994 7.00462
52.280559035098186 6.98805
52.30536115314103 6.979139999999999
52.33035970494467 6.98243
52.35516711807904 6.9795300000000005
52.37997717147198 6.909730000000001
52.40478986713005 6.9198
52.42979908731974 6.898460000000001
52.454617094216 6.8816
52.47943774942214 6.89032
52.50426105495102 6.89985
52.529280976059844 6.83178
52.554109609024096 6.856
52.57894089837482 6.81894
52.60377484613117 6.815510000000001
52.62880550079408 6.801589999999999
52.65364479223379 6.78752
52.67848674816189 6.78127
52.70352547971946 6.762060000000001
52.72837279155837 6.7550300000000005
52.753222773982785 6.729030000000001
52.778075429022984 6.71846
52.80312495150885 6.70671
52.827982978797436 6.688219999999999
52.85284368481815 6.660939999999999
52.87770707160767 6.639239999999999
52.90276741793998 6.64801
52.92763619336701 6.6158
52.952507655698504 6.590660000000001
52.977381806977576 6.606730000000001
53.00245301017842 6.585889999999999
53.02733256653592 6.5128900000000005
53.052214817996074 6.52334
53.077099766608484 6.53843
53.102181859804446 6.50805
53.127072229988265 6.51538
53.15196530349892 6.54057
53.17686108239249 6.50402
53.20195409881522 6.47382
53.22685531582556 6.45167
53.25175924441303 6.42091
53.27666588664027 6.43432
53.30176985962693 6.42393
53.3266819565689 6.41469
53.35159677336455 6.3745199999999995
53.376514312083096 6.3554699999999995
53.40162927507703 6.3436900000000005
53.42655228516116 6.33611
53.45147802340193 6.30399
53.47660125628886 6.3295
53.50153247842639 6.31363
53.52646643496923 6.27899
53.55140312799818 6.24765
53.576537409691696 6.27019
53.60147960336152 6.26336
53.626424539786164 6.24183
53.65137222105307 6.2491
53.67651758529126 6.21976
53.70147078399681 6.20348
53.72642673383343 6.21518
53.75138543689533 6.19541
53.776541917524526 6.15873
53.801506154876755 6.12368
53.826473151763246 6.1224
53.851442910284916 6.11716
53.87661054126026 6.1275
53.9015858509782 6.12151
53.92656392866066 6.0810900000000006
53.95154477641532 6.08595
53.976723591801296 6.04117
54.00171000771266 6.05132
54.02669920004598 6.059419999999999
54.051691170915745 6.05324
54.076881204886796 6.05692
54.101878760928514 5.9997
54.12687910187696 5.97635
54.152077577768296 5.97024
54.1770835166946 5.9330099999999995
54.20209224691339 5.90377
54.22710377055121 5.92454
54.25231352511594 5.90294
54.27733066384342 5.8558699999999995
54.30235060239643 5.889069999999999
54.32737334290836 5.86937
54.35259441062629 5.80552
54.377622783395324 5.8230900000000005
54.40265396455061 5.79183
54.42768795623251 5.80694
54.45292037169559 5.764069999999999
54.477960012857906 5.787640000000001
54.50300247099511 5.75871
54.52804774825457 5.76387
54.55329154616743 5.69546
54.57834249018678 5.66937
54.6033962597977 5.68619
54.6284528571545 5.69108
54.653708072335164 5.62601
54.67877035378786 5.624219999999999
54.70383546947698 5.59514
54.72890342156389 5.5557
54.7541700889442 5.5271300000000005
54.77924374251975 5.5372699999999995
54.8043202390049 5.51159
54.82959552413022 5.46629
54.8546777351945 5.454680000000001
54.87976279569621 5.427630000000001
54.90485070780914 5.50392
54.930137506558005 5.46756
54.95523115074295 5.43886
54.98032765308844 5.3902
55.005427015775496 5.37552
55.03072536339621 5.35682
55.05583047570572 5.364730000000001
55.080938454927676 5.30779
55.10604930325027 5.27451
55.131359235107396 5.3011800000000004
55.15647585066083 5.22619
55.181595341907496 5.20372
55.20671771104285 5.1922
55.232039262617704 5.20688
55.25716741665048 5.1771199999999995
55.28229845518636 5.15639
55.30743238042802 5.069459999999999
55.33276558731939 5.0657
55.357905315183636 5.04606
55.383047936390035 4.98842
55.40819345314859 5.057580000000001
55.433538351073295 5.037669999999999
55.458689688238415 5.00965
55.483843927614096 4.9666
55.509197623043605 4.948180000000001
55.53435769621134 4.87785
55.55952067826466 4.86829
55.5846865714265 4.92097
55.61005202069737 4.82827
55.63522376553902 4.81719
55.66039842818645 4.76732
55.68557601087004 4.7435
55.7109532500271 4.68521
55.73613670233794 4.76536
