TT I
1.2716486653135266 7.40568
1.2939594142134223 7.4512
1.3162702121660406 6.97491
1.3385810600174564 6.7446
1.3608919586137629 6.69225
1.383202908801069 6.65901
1.405513911425503 6.3198300000000005
1.4278249673332093 6.764139999999999
1.4501343378461518 6.617439999999999
1.4724455028545926 5.79789
1.4947567236847858 5.80399
1.517068001182951 5.85533
1.5393793361953272 6.1062
1.5616907295681737 5.56211
1.5840021821477681 5.30654
1.60631369478041 4.8057099999999995
1.6286252683124185 4.69002
1.6509369035901333 4.70031
1.6732468618895553 5.12781
1.695558623192809 4.74686
1.7178704487808514 5.43053
1.7401823395001077 4.77912
1.7625012545597203 5.33826
1.7848028405262486 5.41616
1.8071218901122095 4.99414
1.8294236121921872 4.28852
1.8517427996910911 4.88861
1.8740620574440425 4.69163
1.8963639900671978 4.42696
1.9186833908139995 5.0573
1.9409854680117449 5.04447
1.9633050151394713 5.36952
1.9856246367570705 4.57599
2.0079269371922672 4.77004
2.03024671027244 4.63296
2.0525491637446027 4.3661900000000005
2.074869091674931 4.54983
2.097171701569106 4.534590000000001
2.1194917877373847 4.6356
2.141811954326636 4.8089699999999995
2.164114805233074 5.27284
2.186435135143035 6.22601
2.208738150935709 12.7656
2.231058647554722 25.4404
2.2533792288321184 20.0688
2.275682498336085 9.227210000000001
2.298003251406138 5.45746
2.3203066942619714 4.92403
2.3426276225136022 4.57343
2.3649486396617507 5.476780000000001
2.387252348930071 5.563269999999999
2.4095735463442893 5.45125
2.4318774374315884 5.31881
2.4541988185014043 6.199669999999999
2.476502894794693 6.66736
2.498824462909887 5.89964
2.521146125856138 5.998480000000001
2.5434504863470337 6.48069
2.5657723414244717 6.9054199999999994
2.588076895590662 8.02946
2.610398946189713 7.66573
2.6327210958598384 7.31568
2.6550259469304716 7.1094100000000005
2.6773482972090137 7.5103800000000005
2.6996533504259 7.907539999999999
2.7219759047039602 7.58438
2.744298562293959 7.39124
2.7666039251246595 7.292619999999999
2.7889267918020164 7.7424800000000005
2.8112323652516555 8.2186
2.833555444408179 8.29397
2.8558786311183852 8.00891
2.8781845268938557 8.89692
2.9005079311721484 8.93645
2.9228140460410397 9.20606
2.9451376712799635 9.57209
2.967444008632326 9.6774
2.9897678582247247 9.40588
3.0120918213106695 10.037
3.0343984987899373 10.4562
3.0567226913198637 10.9428
3.079029599759726 11.4565
3.101354025127254 12.5436
3.123678568232338 12.6559
3.145985829517914 13.0006
3.16831061055229 13.5133
3.1906181112775593 14.0181
3.212943133635653 14.6454
3.2352682779763207 14.7518
3.2575761442691227 15.4306
3.2799015350264273 16.137999999999998
3.302209649240067 16.2157
3.3245352898092655 16.9079
3.3468436553365257 17.1505
3.369169549113219 17.2924
3.3914955708171384 18.4124
3.413804319727358 18.9747
3.4361305997334863 18.8248
3.4584396084414553 19.5818
3.4807661501462652 20.7299
3.503092824025881 20.9276
3.5254022288463154 21.5984
3.5477291695206588 22.1408
3.5700388426251948 22.3599
3.5923660534916446 24.006
3.6146934007816114 37.4625
3.637003482731501 82.8039
3.6593311053109985 91.0954
3.681641464033634 53.7896
3.7039693653009733 30.6668
3.726297407241705 26.4134
3.7486081875460804 25.6942
3.7709365132734978 26.1987
3.793247578841633 26.913
3.8155761917550093 27.0387
3.8378875459837216 27.4794
3.8602164494827234 27.5918
3.882545499606844 28.1897
3.9048572932539183 29.1724
3.9271866390645718 29.6596
3.9494987298666713 30.2623
3.971828374764527 30.9774
3.9941581705403255 31.1904
4.016470713506008 31.914
4.038800813471445 32.78
4.061113662089144 32.7751
4.0834440696459176 33.492
4.105774632334751 34.224000000000004
4.128087945865126 35.4435
4.150418821249301 36.1782
4.172732448931298 37.1758
4.195063640413578 38.8499
4.2173775856475215 42.9011
4.239709096631102 72.1504
4.262040768704612 215.824
4.284355196706267 286.22
4.306687193387355 184.437
4.329001947444346 77.4147
4.35133427213731 48.0332
4.373666762177566 45.1177
4.395982011761091 45.0678
4.418314834921175 46.591
4.44063041906622 53.4012
4.4629635787515625 63.5109
4.4852969080429785 62.5029
4.5076130004776225 54.0238
4.529946671403969 50.8719
4.552263106909177 51.1282
4.574597122877047 51.7434
4.596931312711224 53.2675
4.619248269273446 54.1367
4.6415828092605835 54.9137
4.663900117405352 56.2402
4.686235010953232 57.613
4.708552674085913 58.6667
4.730887924602802 60.306000000000004
4.753223354952695 61.7053
4.775541557023902 63.5126
4.797877349456786 64.95
4.820195915032126 66.7186
4.842532072957498 68.01
4.864868414979744 70.2071
4.88718753227192 72.5005
4.909524244902505 74.3822
4.931843734218147 76.475
4.954180820867835 78.8186
4.976518095879839 81.9592
4.998838149695359 84.814
5.021175803844231 88.7992
5.043496238205739 92.2237
5.065834274903528 96.7325
5.088172504230693 101.802
5.1104935158799565 109.15100000000001
5.132832132875765 131.71200000000002
5.155153533596801 173.623
5.1774925416746225 214.325
5.199814334878411 413.796
5.2221537374521505 1176.51
5.244493338631803 3145.1
5.266815727034316 7516.08
5.289155727832427 11770.7
5.311478517248165 8936.17
5.333818921080011 3208.79
5.356159527788849 655.049
5.3784829252032536 204.347
5.400823940070432 153.208
5.423147747031976 134.236
5.445489173474152 123.117
5.467830807066149 117.325
5.490155234831516 112.68299999999999
5.512497285125229 109.014
5.534822130975162 106.87299999999999
5.557164601388673 104.12799999999999
5.579489868738879 101.274
5.601832762690846 100.488
5.6241758697774475 99.8945
5.646501775867269 98.6513
5.668845311622074 96.4907
5.691171647754637 95.8313
5.713515615597765 95.022
5.735859800852677 94.0549
5.758186788542988 93.6842
5.780531411018185 93.6114
5.802858837297399 92.9994
5.825203900414495 93.1473
5.8475491852224 93.8246
5.869877275883075 94.6366
5.892223006467101 95.2623
5.914551544266608 96.6544
5.936897724049891 99.9875
5.959244129804903 106.485
5.981573344815301 128.872
6.0039202049061 233.02599999999998
6.026249875609095 515.067
6.04859719346037 1072.31
6.070927323278297 2262.39
6.093275102315365 4152.82
6.115623113320588 5280.07
6.137953938319995 3515.54
6.160302415650845 1207.36
6.182633708324452 289.363
6.2049826554078376 124.149
6.227331838745022 97.225
6.249663839443684 88.0391
6.27201349767565 84.8172
6.294345974611799 89.7857
6.316696111167083 99.5675
6.339046488263839 94.3101
6.361379686074702 80.2758
6.383730546639482 72.8494
6.406064229255215 70.0996
6.428415576718203 69.2791
6.450749747566656 68.3503
6.47310158535871 67.2164
6.495453669698332 66.0524
6.517788579421056 65.3408
6.540141159237969 64.515
6.562476565766648 64.1363
6.5848296444934045 63.4461
6.607182974060425 63.4246
6.6295191323281015 63.5213
6.651872965955752 66.3336
6.6742096296068985 89.9939
6.6965639707294615 131.69299999999998
6.71891856698715 130.665
6.741255995248479 91.1302
6.763611104154477 67.4497
6.785949046381137 61.0411
6.808304671371482 59.0622
6.8306605557940046 58.788999999999994
6.852999275508618 57.8866
6.875355681171544 57.3563
6.897694923437771 57.773
6.92005185377892 57.342
6.9423916220322655 57.3424
6.964749080490181 56.5846
6.987106804399774 56.5859
7.009447368180821 56.431999999999995
7.031805625367033 56.1496
7.054146723727803 56.1487
7.076505517631004 55.8021
7.098864581288365 56.1125
7.121206488070854 55.8013
7.143566093607822 55.6844
7.165908543567245 56.2022
7.188268694426048 56.32
7.2106291193438095 56.4301
7.232972390625943 57.6114
7.255333366030969 68.7957
7.277677189091925 115.197
7.300038718428332 158.826
7.322400526130865 135.181
7.344745183422596 86.1328
7.367107550224791 61.5512
7.389452767901992 57.2198
7.411815697249891 55.9709
7.434161478756298 55.2197
7.456524974096713 54.9837
7.478888753837185 55.2119
7.501235387657368 55.2517
7.523599738562711 55.4138
7.545946944825532 55.7388
7.568311870344528 55.9867
7.5906770845765665 56.1987
7.613025156078678 57.5349
7.635390950099687 58.3553
7.657739602662809 57.8508
7.680105979923558 56.696000000000005
7.702472650212829 56.8441
7.724822180948224 56.9156
7.747189439655568 56.9541
7.769539560075357 56.8827
7.791907410653562 57.5563
7.81425812420825 57.0767
7.836626570110925 57.6612
7.858995315087906 58.4892
7.881346924933401 58.506
7.903716270417482 58.7725
7.926068482028405 59.5103
7.948438431475253 60.4622
7.9708086843180235 60.3731
7.993161805171116 61.0861
8.015532667162402 61.5585
8.037886398416653 62.5449
8.060257873014221 62.9453
8.082629655331942 63.7602
8.104984308787587 64.9495
8.127356708900503 68.1643
8.149711981398308 73.1067
8.172085002766314 75.0147
8.194458336181368 72.1343
8.216814543847752 70.122
8.23918850371002 70.2415
8.26154533906492 71.3914
8.283919928836452 72.9839
8.306277395339652 73.8352
8.328652618483376 75.2108
8.351028159736202 77.1261
8.373386579575245 79.9161
8.395762759396959 81.3439
8.418121819038275 86.6659
8.440498640894003 99.64399999999999
8.462875785192262 112.774
8.485235811156207 127.90100000000001
8.507613602688501 177.32299999999998
8.529974277114228 277.04400000000004
8.552352719347912 422.12199999999996
8.574731488360351 698.927
8.59709314210385 1207.13
8.619472567021075 1848.81
8.64183487789147 2151.64
8.664214962183097 1875.46
8.686577933647762 1071.34
8.708958680784317 425.55199999999996
8.731339760774953 183.68200000000002
8.753703729764451 117.927
8.77608547780821 102.322
8.798450116065078 98.0445
8.820832535634787 94.6331
8.843215292401656 92.6562
8.865580941199045 91.2099
8.887964374703538 90.6121
8.910330701447199 91.3517
8.932714815164482 93.2362
8.955099270424924 91.7687
8.977466620733543 88.8768
8.999851761421976 86.4493
9.022219798361645 85.0419
9.04460562795561 84.5966
9.066991803441677 84.3929
9.089360876979615 84.1493
9.111747746589993 83.7436
9.13411751544971 83.2757
9.156505082664324 83.0724
9.178875550323522 83.1558
9.20126381862328 83.1669
9.223652438908596 83.7127
9.246023961427412 83.7718
9.26841328802173 83.3872
9.290785518039224 83.4076
9.313175554425882 83.9475
9.335565947154315 83.9454
9.357939245086508 84.0943
9.380330352834827 84.3567
9.40270436697103 84.4745
9.425096193225055 84.3419
9.447488380180165 85.1778
9.469863475295412 84.9307
9.492256385987508 85.8679
9.514632206018318 86.5008
9.537025843935714 86.9654
9.559402392368193 87.4913
9.581796761000229 88.5342
9.604191496441521 89.2272
9.626569144158516 93.2115
9.648964615551032 97.0484
9.671343000390081 98.801
9.693739211225699 97.0405
9.716135793237463 94.654
9.738515290448102 94.1811
9.760912617143402 95.4807
9.783292860202891 96.6762
9.805690935076182 97.8412
9.828089385495742 98.7933
9.850470754023561 101.214
9.872869957865444 109.01100000000001
9.89525208097539 122.84200000000001
9.917652041736662 134.588
9.940052382417589 135.601
9.962435644102392 145.684
9.984836746950979 189.597
10.007220771957746 260.871
10.029622640473708 374.165
10.052007432299963 558.499
10.074410069984072 844.448
10.096813093716005 1258.85
10.119199042482517 1657.69
10.141602840636468 1898.7
10.163989564971628 1658.38
10.186394141051062 1006.29
10.208799107559706 463.663
10.231187001965623 218.06400000000002
10.253592751657669 136.203
10.275981430388155 117.125
10.298387966769793 114.98100000000001
10.320794897965431 116.662
10.343184759907361 115.105
10.36559248305461 110.23700000000001
10.387983138083852 106.626
10.410391656691655 110.311
10.432800574501677 122.49
10.455192425893369 140.471
10.47760214443012 167.78
10.499994797678786 211.908
10.522405320453982 292.147
10.54479877906917 398.85900000000004
10.567210109595656 497.49
10.5896218454736 558.128
10.612016518879773 503.996
10.634429067781074 373.031
10.656824555333241 224.331
10.679237920773568 132.96
10.701651695961992 99.6497
10.724048411481384 91.48
10.746463008485165 88.3306
10.768860546937125 86.4841
10.791275969274796 84.4364
10.81369180576079 83.3521
10.836090585366925 82.3663
10.858507252467449 81.2247
10.88090686379991 79.9448
10.903324365036394 79.5567
10.925724811614439 79.4389
10.948143150509463 80.278
10.970561909719066 79.62
10.992963615930844 77.7176
11.015383218085756 76.0837
11.037785768347074 74.3427
11.06020621697282 73.6916
11.082627090322113 73.3447
11.105030913430326 72.9084
11.12745263854165 73.4463
11.149857314510728 76.4824
11.172279894912576 81.9283
11.194702904450653 82.1762
11.217108866490921 78.4428
11.239532736615194 74.428
11.26193956033512 72.2983
11.284364294577085 70.9048
11.306789462371718 69.3418
11.329197585398376 67.9987
11.351623622610898 67.8906
11.37403261614354 66.8378
11.396459526308487 66.9343
11.418869393879497 66.3911
11.441297180532617 66.0795
11.463725406927658 65.6918
11.486136592353875 65.6035
11.508565700543707 66.0752
11.530977768845315 67.6093
11.553407762368774 68.6388
11.575838200059769 68.0484
11.598251599479612 66.1042
11.620682927815501 65.1272
11.64309721895548 64.4278
11.665529441478206 64.0214
11.687962112597958 63.7445
11.710377748130886 63.9407
11.732811318753434 63.8926
11.755227854859067 63.6206
11.777662328529495 63.6606
11.800079768750786 63.4882
11.822515149015453 63.1114
11.844950984084935 63.4773
11.867369787303163 63.3126
11.889806534289491 63.2507
11.912226250487029 63.7452
11.934663912939751 63.8411
11.9571020346363 63.7051
11.979523127133968 63.8875
12.001962169624331 64.4549
12.024384183972964 65.7101
12.046824150809913 69.7989
12.069264581333726 75.3649
12.091687985297767 82.0303
12.11412934550045 91.1824
12.136553680195208 106.57600000000001
12.158995973632788 129.51
12.181438735204349 155.681
12.20386447284199 180.921
12.226308172985636 198.847
12.24873485024193 203.43400000000003
12.271179492516982 169.111
12.293607112949127 131.596
12.316052700916226 100.29
12.338498763250042 80.6599
12.360927805303868 71.2946
12.383374818673879 67.3193
12.405804812803074 65.7037
12.428252780773262 65.3274
12.45070122756722 65.1699
12.473132656675375 65.043
12.49558206341869 65.4004
12.518014453510101 65.3527
12.540464823770117 65.5831
12.562915677315177 65.5535
12.58534951575545 66.4577
12.607801338171472 68.1488
12.630236146511358 72.931
12.652688941369085 77.5201
12.675124723177234 77.9257
12.697578494048786 74.305
12.720032754458185 70.3759
12.742470003354093 68.8736
12.764925245138771 68.7247
12.787363476431278 68.7623
12.809819703166806 69.0847
12.83227642391173 70.1159
12.854716135692716 70.6397
12.877173846755147 71.5197
12.899614549869717 71.8188
12.9220732548287 72.7709
12.94453245827299 73.1987
12.966974655289818 74.1708
12.989434858002571 74.9825
13.011878055298721 76.0285
13.034339260862497 77.0295
13.056800969391883 78.3272
13.079245674017244 80.4563
13.101708390774869 82.7933
13.12415410463411 90.7135
13.146617833206086 104.02799999999999
13.169064559883248 116.646
13.191529303857127 131.65
13.213994557076367 154.821
13.236442809902437 191.201
13.258909083908291 243.238
13.28135835851934 300.617
13.30382565690295 359.56699999999995
13.326293469022952 410.79900000000004
13.348744283242008 417.29900000000004
13.371213125129904 365.51599999999996
13.39366497011003 278.129
13.416134845360597 187.31599999999997
13.438605238843131 131.484
13.46105863690397 110.48899999999999
13.483530069144786 109.31299999999999
13.505984506951902 115.301
13.528456981549432 125.685
13.550929978879088 141.27700000000002
13.573385983253365 164.67700000000002
13.595860028340867 201.36599999999999
13.618317081455832 249.267
13.64079217790333 292.656
13.663250283359057 332.27099999999996
13.685726434770173 361.39599999999996
13.708203115221277 342.314
13.730662806148091 276.98
13.75314054697177 202.72
13.775601299246777 142.214
13.798080104050406 103.565
13.820559442405358 87.99799999999999
13.843021793671388 83.3639
13.865502201420897 81.3632
13.887965623051947 80.7634
13.910447103807167 79.8287
13.932929122629764 78.4896
13.955394156785959 77.8078
13.977877254034569 76.8865
14.000343367582113 76.0291
14.022827546871707 75.665
14.045294743423524 74.7596
14.06778000837062 74.0947
14.090265817715476 73.8883
14.112734645763819 73.5593
14.13522154619454 73.2891
14.157691466286913 73.4923
14.180179461423874 73.0806
14.202668005486178 72.4289
14.22513957064374 71.7712
14.247629214846473 71.426
14.270101881097517 71.1939
14.29259262906496 71.4137
14.315083930490205 72.2133
14.337558255389705 72.4494
14.360050666019726 72.2318
14.382526101071944 71.2086
14.405019624534942 70.5669
14.427513705993134 70.0667
14.449990813291825 69.7308
14.47248601302899 69.5871
14.49496423954951 69.9114
14.517460561197822 69.7906
14.539939910570322 69.6699
14.562437357763558 69.8482
14.58493536931253 70.9328
14.607416409993311 71.7917
14.62991555254159 72.3894
14.652397725157423 72.6575
14.674898002342799 72.2581
14.697398848433282 71.4412
14.719882725991326 72.205
14.74238471217934 73.3375
14.764869730765593 76.9298
14.787372860692983 81.1318
14.809876564079925 85.6997
14.83236330125751 92.0104
14.854868153850365 100.98100000000001
14.877356041159485 114.236
14.899862046604186 131.849
14.922351087688757 154.679
14.944858249632887 180.046
14.967365991421232 200.489
14.989856770231246 213.894
15.012365673994204 214.82299999999998
15.03485761569738 193.355
15.05736768508665 157.244
15.07987833888692 122.728
15.102372032001655 96.1086
15.124883856909658 79.8314
15.14737872204565 73.7036
15.169891721717274 71.9523
15.192405310371893 71.5753
15.214901940621196 71.6253
15.237416709527137 71.8174
15.259914520936249 71.9585
15.282430473753607 70.7582
15.304947020131227 69.527
15.327446610371178 69.1519
15.349964346154254 68.0581
15.372465126703139 67.9229
15.394984055556009 67.5875
15.417486030076159 67.6273
15.44000615566487 67.1299
15.462526881230803 66.98100000000001
15.485030653812652 67.2602
15.507552581617434 67.0733
15.530057557334603 67.1957
15.55258069104857 67.2569
15.575104429329837 67.1415
15.597611216864632 66.8995
15.620136166564563 66.8989
15.6426441664095 68.0188
15.665170331202765 70.5869
15.687697105158826 74.2383
15.710206930593545 78.1087
15.732734925158933 82.4458
15.755245972089478 88.9087
15.77777519094324 98.2041
15.800287463046663 110.604
15.822817909869592 128.619
15.84534897229804 147.485
15.867863089299354 166.548
15.890395385222186 180.32299999999998
15.912910736597423 188.00400000000002
15.935444269699861 180.61599999999999
15.957978423016485 159.26
15.980495633101265 129.218
16.003031029129367 102.389
16.02554948280019 80.8756
16.048086125229432 70.098
16.070623392487107 66.646
16.09314371869582 65.2908
16.11568223789321 64.34100000000001
16.13820381691126 63.3825
16.160743591742527 62.372
16.183283996022084 61.5638
16.205807461423195 60.4641
16.228349126881973 59.868
16.25087385432698 59.8596
16.27341678466365 59.176
16.29594277784926 59.0698
16.31848697676433 59.3609
16.341031811604868 59.8004
16.36355971058487 59.8398
16.3861058195587 59.68
16.40863499352978 58.4898
16.431182380342005 57.6651
16.453730407713202 57.0247
16.476261501364792 56.6284
16.498810812136167 56.372
16.52134319004079 56.4861
16.54389378792203 56.206
16.566445031001553 55.9652
16.588979342490088 56.1139
16.61153187824822 55.8855
16.634067483263312 55.6975
16.656621315414416 55.6284
16.679175797408888 55.2886
16.701713349928728 55.434
16.72426913389191 55.6649
16.74680798922351 55.7535
16.76936507887444 55.63399999999999
16.791905240734874 55.8813
16.814463639794468 55.5854
16.837022695210294 55.6777
16.859564824093756 56.0063
16.882125194503903 56.7065
16.904668639217885 57.4135
16.927230328348003 57.3707
16.949792678493612 57.478
16.972338104193863 57.0388
16.994901778652235 56.6373
17.017448529496576 56.5854
17.040013531998152 56.6852
17.06257920018044 57.1703
17.0851279459922 58.031000000000006
17.107694947817667 58.9351
17.130245028099072 59.8237
17.15281336730298 61.1738
17.17536478578733 62.9053
17.19793446610687 65.2313
17.220504818648422 68.0023
17.243058251703697 71.0488
17.265629950971032 74.6886
17.288184731571736 78.1182
17.310757781306908 81.2726
17.33333150794385 82.7904
17.355888317140174 82.0061
17.37846339986244 78.4605
17.401021565958885 72.9192
17.42359800851343 67.6837
17.44617513265564 63.8493
17.468735341390783 61.4037
17.491261035594565 60.0177
17.51396340099364 59.9237
17.536490463869136 60.1641
17.559018209820174 60.0155
17.58154663977963 60.0495
17.604251766089718 60.2445
17.626781572227713 60.4985
17.64931206518155 60.855
17.671843245885103 61.3706
17.69455114821572 61.6057
17.717083712612634 61.8541
17.739616967569667 61.8919
17.762150914021706 62.2573
17.78486160749854 62.2307
17.807396945166804 62.9267
17.829932977143503 63.8977
17.85246970436452 65.4713
17.875183204129467 67.3628
17.897721330097664 69.7926
17.920260154126645 72.3207
17.942799677153296 75.68
17.9655159983646 79.3454
17.988056927677544 84.5925
18.010598558807683 92.4885
18.033140892692916 101.426
18.05586005052525 110.985
18.07840379824407 120.37
18.10094825154059 129.408
18.12366954819864 136.369
18.146215420998306 138.834
18.16876200220057 133.418
18.191309292745153 121.964
18.214033452627167 108.18299999999999
18.236582170236648 96.4981
18.259131600016456 89.7069
18.281681742907335 88.5042
18.304408781233683 91.7936
18.32696035875955 95.9536
18.349512652227624 99.4565
18.372065662579683 103.667
18.394795594587553 104.78
18.41735004715306 103.65100000000001
18.43990521943684 98.3595
18.46246111238171 90.066
18.485193953325208 80.7045
18.507751296070428 73.1445
18.530309362314178 67.888
18.552868153000343 64.9867
18.57560391815056 63.2611
18.59816416623245 62.7895
18.620725141597372 62.1479
18.643286845190268 61.6703
18.666025549835414 61.17100000000001
18.688588718427933 60.9413
18.711152618092243 60.7073
18.73389353884365 60.2414
18.75645890921984 59.746
18.77902501351406 59.4713
18.801591852673102 59.4444
18.824335739722738 58.9645
18.846904057212626 58.946000000000005
18.8694731124168 58.8183
18.89204290628315 58.6207
18.914789774966803 58.251999999999995
18.937361054791623 58.0638
18.959933076131318 57.9455
18.982505839934877 57.8768
19.00525570560582 57.8658
19.027829963004184 57.6615
19.05040496572238 57.7802
19.072980714710468 57.9729
19.095733592739563 57.9436
19.11831084296757 58.4333
19.140888842324735 58.9251
19.16346759176222 59.0738
19.18622349753803 59.8209
19.208803755869358 60.4589
19.231384767143577 61.6421
19.253966532312948 63.2819
19.276725481241822 65.4035
19.29930876296784 67.7534
19.3218928014549 70.3995
19.34465404436217 72.9556
19.36723960516257 75.5086
19.389825925592426 76.2422
19.412413006605938 76.0602
19.43517731967805 73.3606
19.457765930683355 69.501
19.48035530514408 64.8517
19.50294544401556 60.8353
19.525712842708348 57.9687
19.54830451925909 56.4577
19.570896963095727 55.0636
19.593490175174704 54.7259
19.616260674962184 54.6139
19.638855432416964 54.2807
19.661450960992624 54.4871
19.68404726164677 54.343999999999994
19.706820878021247 54.1908
19.729418731756834 54.4482
19.752017360452857 54.1392
19.77461676506804 54.34
19.797393513540218 54.3078
19.819994478951667 54.7504
19.84259622316767 55.4821
19.8651987471481 55.9989
19.887978643247177 55.9953
19.91058273574792 56.4948
19.933187610901943 57.313
19.955969879466828 58.3032
19.97857632894404 59.8064
20.00118356396599 61.3543
20.023791585494575 63.1548
20.046577028914875 65.3276
20.069186632506966 67.1428
20.091797025500632 68.801
20.114408208858933 69.9072
20.137196842715273 70.4074
20.159809615886765 69.4112
20.18242318232135 67.2305
20.20503754298326 65.1259
20.227829382875154 63.6713
20.250445341109344 63.4048
20.27306209647285 63.5114
20.29567964993108 64.1744
20.31847471147704 65.0005
20.34109387027612 65.5765
20.363713830075454 65.7542
20.386334591841646 64.7678
20.409132890679302 62.5872
20.431755265564437 59.9158
20.454378445325528 56.8666
20.477002430930366 54.7925
20.499803982716553 53.4086
20.522429589228004 52.5097
20.54505600449589 51.8212
20.567683229489194 51.772
20.590488049900088 51.4793
20.61311690359731 51.0168
20.63574656993626 50.8404
20.658553853717297 50.5378
20.681185154618298 50.2912
20.703817271080066 50.3905
20.72645020407368 49.9117
20.749260783967177 49.894
20.771895359337133 49.7546
20.794530754161617 49.7406
20.817166969412938 49.6574
20.83998086114876 49.6117
20.86261872660049 49.5929
20.885257415405402 49.4236
20.90789692853701 49.2206
20.930714147864748 49.2762
20.953355319030678 49.2135
20.97599731745334 49.4722
20.99864014410749 49.3657
21.021460706796564 49.3637
21.044105199328826 49.5291
21.06675052302631 49.7591
21.089396678865015 49.7984
21.112220600704806 50.1668
21.134868430275347 50.6221
21.15751709492456 50.9325
21.180166595629693 51.0683
21.202993892429635 51.4542
21.22564507473034 51.8472
21.24829709602816 51.9318
21.27112693608965 51.9358
21.293780644891275 52.1405
21.316435195634053 51.4263
21.339090589297417 50.9776
21.361923832041875 50.5463
21.384580921090404 49.8483
21.407238856007325 49.2219
21.429897637773326 49.0701
21.45273429906592 49.1377
21.475394784108598 49.0729
21.498056118951983 48.8922
21.520718304578022 49.2645
21.543558400304388 49.485
21.566222297108816 49.5627
21.58888704765135 49.6347
21.61155265291521 50.1223
21.63439619898156 50.7485
21.657063523335786 50.7607
21.67973170537063 51.1847
21.7024007460706 51.7049
21.72524775840385 52.5056
21.747918526116475 53.5449
21.770590155457388 54.8017
21.79326264741238 56.253
21.816113141960237 57.9433
21.838787368860547 59.6227
21.861462461341976 60.9937
21.884315579735777 62.7278
21.90699241312273 63.9971
21.92967011506078 64.7505
21.95234868653799 64.7092
21.9752053151131 64.0065
21.997885635446785 62.6418
22.020566828293532 60.9754
22.04324889464272 59.0718
22.066109049404666 57.6917
22.088792872571794 56.7289
22.111477572219204 56.544
22.1341631493376 56.6172
22.157026846313123 56.6164
22.179714188221507 55.9935
22.202402410582668 54.9779
22.22509151438863 53.806000000000004
22.24795876962584 52.6669
22.270649646204486 51.73
22.293341407213727 50.7999
22.316034053646906 50.2138
22.338904883215342 49.8936
22.36159931041458 49.9292
22.38429462602756 49.6642
22.40699083104897 49.419
22.429865251039757 49.5657
22.452563244831367 49.6511
22.47526213102522 49.5463
22.49813925616515 49.5243
22.520839937143307 49.1657
22.543541513520587 49.3419
22.56624398629403 49.2802
22.589124730075895 49.2646
22.611829005656723 49.3372
22.63453418063466 49.2681
22.657240256008077 49.6055
22.680124634582935 49.6991
22.70283252079775 50.1557
22.725541310413075 50.3826
22.74825100442868 50.4845
22.771139033969575 51.001000000000005
22.79385054687155 51.2489
22.81656296718292 51.8922
22.83927629590484 52.7085
22.862167992606945 53.6304
22.88488314827121 54.6953
22.907599215359284 55.5719
22.93031619487366 56.5263
22.953211574954405 57.2081
22.975930389478226 58.0506
22.998650119445763 58.4491
23.02137076586092 57.9474
23.044269845560063 56.9263
23.06699233506288 55.5503
23.089715744034912 53.7665
23.112617610931565 52.3492
23.135342869061212 50.8965
23.158069049684816 50.0828
23.1807961538087 49.5431
23.20370174880544 49.4923
23.226430710184808 49.615
23.249160598093425 49.6136
23.271891413539002 49.7031
23.294800752937697 49.724
23.31753343374794 49.9049
23.340267045128353 49.9275
23.36300158808808 50.3607
23.38591468821339 50.6214
23.408651104658304 51.0792
23.431388455719986 51.6971
23.454126742409 52.3973
23.4770436196085 53.3276
23.499783787914662 54.5925
23.522524894889884 55.4025
23.54526694154616 56.1804
23.56818761219047 56.9509
23.59093154860734 57.5098
23.613676427751283 58.0597
23.636422250635754 57.5136
23.659346731118656 56.4606
23.68209445191868 54.7584
23.704843119509587 52.6071
23.72759273490623 50.7758
23.750521041644767 49.2778
23.77327256312355 48.0977
23.796025035462787 47.3773
23.818956224555475 46.8299
23.841710609113413 46.6519
23.86446594758979 46.5331
23.887222241002014 46.2558
23.910157285144578 45.9109
23.932915498962537 45.9711
23.955674670778713 45.7369
23.978434801611975 45.5908
24.001373717286125 45.2655
24.024135776723917 45.2702
24.046898798245582 45.1087
24.06966278287146 45.0936
24.092605586582614 44.8644
24.115371508023642 44.7625
24.1381383956401 44.6451
24.16090625045381 44.5676
24.183852958731244 44.6963
24.206622758582608 44.5341
24.229393528706886 44.1705
24.252165270127392 44.3033
24.27511589952438 44.3868
24.297889594216997 44.2181
24.32066426328598 44.0193
24.34343990775613 44.0385
24.36639447485003 43.7286
24.38917208083877 43.7967
24.41195066531332 43.7534
24.43490819850244 43.8123
24.457688750692377 43.5605
24.48047028445616 43.5186
24.503252800821233 43.6967
24.526214300784112 43.7636
24.548998793132213 43.7321
24.57178427117417 43.6779
24.59457073593893 43.7001
24.617536219319863 43.5344
24.64032466834748 43.6359
24.663114107195035 43.4052
24.685904536893013 43.2258
24.708874020360852 43.225
24.731666442613744 43.2018
24.754459858818787 43.0377
24.777254270007962 43.0314
24.80022777025625 42.9025
24.82302418230472 42.8807
24.845821592443674 42.9705
24.86862000170663 42.9298
24.891597535453727 42.6403
24.914397953892728 43.0417
24.93719937456671 42.7914
24.96000179851076 42.8386
24.98298338249997 43.1313
25.00578782394922 43.3159
25.028593271784167 43.5234
25.05157790644186 43.7542
25.07438537804115 44.0088
25.097193859145293 44.1427
25.120003350792075 44.445
25.142992065061257 44.622
25.165803588823465 44.9017
25.18861612625217 45.1886
25.211429678386736 45.1776
25.234422489079968 45.2833
25.257238081693636 45.3508
25.280054692141732 45.3877
25.3028723214652 45.3842
25.325869245420463 45.3696
25.348688923599397 45.2275
25.371509623787006 45.2802
25.394331347025812 45.0769
25.41733240110666 44.8761
25.440156181590016 44.3162
25.46298098826268 43.7718
25.48580682216873 43.1929
25.50881202326435 42.6854
25.53163992281684 42.192
25.55446885274561 41.821999999999996
25.577298814096377 41.6368
25.600308179121807 41.411
25.623140214533745 41.4198
25.64597328451537 41.2833
25.66898578564376 41.2965
25.691820936010206 41.2022
25.714657124097695 41.1927
25.737494350954734 41.2009
25.760511045684957 40.9616
25.783350361364224 41.0867
25.806190718969255 41.1184
25.82903211955018 41.2912
25.852053024868923 41.1711
25.874896522722523 41.2728
25.897741066713106 41.2729
25.920586657892454 41.3624
25.943611790812668 41.3946
25.966459487728237 41.4902
25.989308234998564 41.4923
26.01215803367705 41.9047
26.03518741123814 42.0188
26.05803932412957 42.1553
26.080892291600094 42.1516
26.10374631470478 42.1739
26.12677995397268 42.2613
26.14963609978026 42.3235
26.172493304397875 42.098
26.19535156888223 41.6958
26.218389486949604 41.4035
26.241249882640123 41.2703
26.26411134137826 40.9483
26.28715248187403 40.8785
26.31001607820869 40.7942
26.3328807407756 40.5035
26.35574647063438 40.794000000000004
26.37879191991473 40.6151
26.401659795896734 40.718
26.424528742360263 40.9598
26.447398760366614 41.0866
26.470448535598294 41.2522
26.49332070826805 41.4012
26.516193955675355 41.6717
26.53906827888316 41.8007
26.562122397260108 41.9341
26.584998883685063 42.3313
26.607876449110325 42.533
26.63075509460056 42.4654
26.65381357334404 42.6443
26.67669439061878 42.6316
26.699576291163382 42.6169
26.722459276044212 42.5721
26.745522132402975 42.3772
26.768407297649354 42.0563
26.791293550442003 41.7065
26.814180891848974 41.42100000000001
26.837248143099337 41.1675
26.860137673466657 41.0146
26.88302829566349 40.646
26.90592001075963 40.5151
26.92899167420566 40.5119
26.951885586870763 40.0949
26.974780595655517 40.0206
26.99785558178161 39.8735
27.020752794605112 39.5749
27.043651106772522 39.4673
27.06655051935668 39.3029
27.089629948036183 39.3849
27.112531573292053 39.2469
27.135434302194138 39.2688
27.158338135817015 39.0987
27.181422024430987 39.1056
27.204328079372566 39.0132
27.22723524226965 39.0933
27.250143514198573 39.2287
27.273231880156334 39.2409
27.296142382065014 39.0623
27.319053996245536 38.9816
27.341966723775965 39.0279
27.365059584515222 39.0997
27.38797455070062 39.0896
27.410890633481237 38.9555
27.433807833936918 38.8774
27.456905206923906 39.0053
27.47982465472398 39.02
27.502745223449743 39.0275
27.525666914182825 39.0643
27.548768816912457 39.0371
27.571692763693633 38.84
27.59461783573812 38.757
27.617723149491244 38.7653
27.640650484125285 38.7081
27.66357894728264 38.699
27.686508540048052 38.5341
27.709618414237887 38.578
27.732550278321757 38.4114
27.755483275279115 38.4103
27.778417406196485 38.4888
27.801531858397514 38.5025
27.824468269376716 38.3602
27.847405817586786 38.3892
27.870344504116094 38.6064
27.893463551932008 38.6992
27.916404527281053 38.8495
27.93934664422563 38.9473
27.962289903855886 38.9916
27.98541356491974 39.0714
28.00835912214229 39.1376
28.03130582533231 39.4113
28.054253675581805 39.4917
28.077381967556104 39.5293
28.100332124185126 39.5406
28.123283431160893 39.4898
28.146235889577238 39.3239
28.169368830154156 39.1536
28.192323603752033 39.0513
28.215279532083304 38.7902
28.238415973016764 38.5581
28.261374223145094 38.3849
28.284333631303806 38.3349
28.307294198589954 38.2088
28.330435319167677 37.7874
28.353398217078915 37.5686
28.376362277420153 37.4136
28.39932750129032 37.1582
28.422473319286713 36.9257
28.44544088262495 36.9509
28.468409612800283 36.9132
28.491379510913497 36.643
28.51453004413313 36.4918
28.53750229057244 36.4643
28.56047570826344 36.3576
28.583450298308804 36.4793
28.606605564586562 36.1815
28.629582511831156 36.2063
28.65256063474956 36.1607
28.675539934446338 36.1891
28.698699951647605 36.1289
28.72168161743193 35.9196
28.74466446331978 36.0076
28.767648490417624 36.0717
28.790813276438353 35.9311
28.813799678527303 36.0
28.836787265157085 35.9328
28.859955641890075 35.9352
28.882945610203045 35.8562
28.905936766392035 35.9155
28.928929111566863 35.8024
28.952102288520145 35.7783
28.975097024308607 35.7058
28.998092952423807 35.5321
29.021090073977508 35.5279
29.04426806913204 35.3672
29.067267590245258 35.1492
29.090268308143695 35.0799
29.11327022394099 35.0347
29.13645305530891 34.9954
29.159457379627167 34.9198
29.18246290519685 34.8073
29.20546963313352 34.7998
29.22865731875826 34.7413
29.25166646419296 34.8817
29.27467681535305 34.7482
29.29768837335608 34.8433
29.320880931312562 34.7771
29.34389491580634 34.5987
29.366910110507334 34.6956
29.38992651653503 34.7741
29.41312396492981 34.739000000000004
29.436142806456754 34.5714
29.45916286268059 34.4533
29.48236399319994 34.4732
29.50538649169417 34.3576
29.528410208259935 34.3354
29.55143514402014 34.0334
29.574641196749695 33.9097
29.597668583816574 33.7452
29.6206971934585 33.6402
29.64372702680042 33.7702
29.666938019934474 33.5751
29.689970313635285 33.4555
29.713003834422636 33.4688
29.73603858342347 33.4774
29.759254535188578 33.4478
29.78229175361658 33.2015
29.80533020365064 33.3785
29.82836988641968 33.3879
29.85159081507472 33.3377
29.874632976355343 33.1784
29.89767637376955 33.2783
29.920721008448314 32.9992
29.9439469322847 33.0667
29.96699405457564 33.0156
29.9900424175358 33.104
30.013092022298157 32.9434
30.03632295963995 33.013000000000005
30.059375061131373 32.9971
30.08242840783577 32.9783
30.105483000888153 33.0098
30.128718970092244 32.9829
30.151776069006917 32.8761
30.17483441768648 32.9563
30.198074175317235 32.806
30.221135036724256 32.8363
30.24419715131772 32.7848
30.267260520236203 32.7391
30.290505341942243 32.7698
30.313571232750228 32.8574
30.336638381310948 32.9009
30.35970678876503 32.7626
30.38295669299435 32.7085
30.40602763151657 32.6461
30.429099832366074 32.6898
30.452173296685572 32.6082
30.47542830191959 32.5599
30.498504306502497 32.5631
30.521581577995562 32.5354
30.544660117543582 32.6502
30.56792024229725 32.6104
30.59100133132069 32.6766
30.614083691845494 32.6794
30.637167325018545 32.7025
30.660432587840603 32.7411
30.683518779717886 32.5633
30.70660624769615 32.7106
30.729694992924372 32.7184
30.75296541239743 32.7417
30.77605672557558 32.6694
30.799149319462742 32.5561
30.8224236211637 32.4419
30.845518789950724 32.4152
30.868615242910597 32.3751
30.891712981195973 32.1365
30.91499247215866 32.0595
30.938092794619365 32.0406
30.96119440587579 31.8881
30.984297307082752 31.8277
31.00758200598383 31.7699
31.030687500658694 31.7541
31.053794288760695 31.7033
31.076902371446767 31.5545
31.100192296997445 31.5555
31.12330298246119 31.5002
31.14641496599209 31.4006
31.169528248749216 31.4633
31.19282341969534 31.4078
31.215939314557186 31.4456
31.239056512134788 31.3308
31.262175013589378 31.3245
31.28547544871168 31.3995
31.30859657161541 31.3193
31.331719001892175 31.252
31.35484274070538 31.409000000000002
31.378148458819545 31.4375
31.401274828443725 31.3837
31.424402510106933 31.325
31.447712205419993 31.3807
31.470842524931633 31.2216
31.493974159989783 31.2132
31.51710711176168 31.2379
31.54042212308802 31.3112
31.563557722100917 31.2394
31.586694641341655 31.0821
31.609832881979628 30.9297
31.63315322823208 30.9366
31.656294125521327 30.7964
31.679436347728515 30.7918
31.70257989602529 30.6909
31.725905596152327 30.7147
31.74905181052835 30.5667
31.772199354521323 30.555
31.79534822930507 30.6487
31.818679302290967 30.5954
31.84183085259981 30.5641
31.864983737233473 30.5839
31.88813795736804 30.6315
31.911474422233013 30.4545
31.934631327356435 30.5004
31.9577895715215 30.4516
31.980949155906522 30.4877
32.004291031706956 30.4215
32.027453310562606 30.2825
32.05061693318573 30.2245
32.07396288236386 30.2265
32.09712920658542 30.1912
32.12029687812702 30.0259
32.14346589817093 30.0171
32.166817291729984 30.0117
32.18998902288583 29.9187
32.21316210610336 29.7533
32.23633654256711 29.717
32.259693399663725 29.6757
32.282870556771144 29.5886
32.30604907069099 29.6202
32.329228942610065 29.529
32.35259128243769 29.3878
32.375773884550505 29.3563
32.398957848235646 29.2907
32.422143174682176 29.253
32.445511016471215 29.2779
32.468699082679954 29.1565
32.49188851523011 29.1133
32.51507931531304 28.9683
32.538452678331 29.1315
32.56164622776311 29.0002
32.58484114831493 28.8939
32.60803744118015 28.888
32.631416344731896 28.899
32.654615396551876 28.8803
32.67781582427913 28.8621
32.701198898634416 28.8046
32.72440209253756 28.6202
32.747606665947124 28.7563
32.77081262006088 28.52
32.79420126883317 28.5345
32.81740999876112 28.4285
32.840620112999424 28.4646
32.86383161274818 28.3773
32.88722585534586 28.3266
32.91044014056596 28.5174
32.933655814909734 28.4353
32.95687287957963 28.4859
32.98027273544904 28.3682
33.00349259526636 28.3117
33.026713849030116 28.3686
33.04993649794511 28.2634
33.073341986570746 28.1556
33.09656744032826 28.1876
33.11979429286444 28.2759
33.14302254538647 28.2511
33.166433686291185 28.218000000000004
33.18966475336992 28.075
33.212897224069096 27.9201
33.23613109959831 27.9859
33.259547912343415 27.9741
33.2827846121627 27.9622
33.306022720453775 27.8218
33.32926223842861 27.8125
33.352684742614166 27.8443
33.37592709463173 27.7658
33.399170859982064 27.6599
33.422597648419426 27.6081
33.44584425514446 27.4876
33.46909227885668 27.4606
33.4923417207723 27.3893
33.51577423505344 27.44
33.539026528130385 27.3506
33.56228024307245 27.3437
33.585535381098246 27.2542
33.60897364093058 27.1298
33.63223163992385 27.0904
33.6554910656699 26.974
33.678751919389796 27.1247
33.702195944520106 27.0823
33.72545966903325 27.0239
33.74872482519663 26.9122
33.771991414233746 26.8999
33.79544122444841 26.9582
33.81871069412428 26.8154
33.84198160035767 26.7709
33.86525394437455 26.7272
33.88870955949969 26.6261
33.911984794020626 26.6644
33.93526147001624 26.6283
33.958539588715006 26.6625
33.98200102861669 26.5331
34.0052820477047 26.4147
34.02856451319451 26.4345
34.05203033759056 26.3496
34.07531571090147 26.3893
34.09860253431845 26.3729
34.121890809074316 26.252
34.145362493118924 26.2821
34.16865368561615 26.213
34.191946333164054 26.1354
34.21524043699793 26.1333
34.23871800066799 26.1337
34.26201503218366 26.0249
34.28531352370466 26.0282
34.30861347646881 25.9564
34.33209693978188 25.901
34.3553998301885 25.8183
34.378704185565205 25.7495
34.402010007152356 25.7112
34.42549939016683 25.799
34.44880815937748 25.6105
34.472118398533134 25.6315
34.49543010887669 25.6249
34.51892543169198 25.5508
34.54224009966052 25.5654
34.56555624255917 25.5768
34.58887386163339 25.43
34.61237514439016 25.3397
34.6356957311114 25.3592
34.65901779775809 25.3249
34.68252356662995 25.2787
34.705848608458616 25.2669
34.72917513396849 25.2469
34.75250314440949 25.2105
34.77601490857862 25.0097
34.799345904259795 25.0201
34.82267838863559 25.0958
34.846012362958525 25.0407
34.869530142679984 24.9953
34.89286711232212 24.9877
34.91620557568269 24.9798
34.93954553401677 24.8984
34.9630693495876 24.9101
34.986412313340814 24.8146
35.00975677584668 24.8909
35.033102738362956 24.8041
35.05663261012228 24.6767
35.0799815881786 24.6859
35.10333207003229 24.6579
35.12668405694369 24.7107
35.150220005273056 24.6696
35.17357501786656 24.5436
35.19693153931268 24.5855
35.220289570874385 24.4727
35.24383161619786 24.5056
35.267192683604904 24.3975
35.290555264930376 24.4521
35.314101899412165 24.4538
35.33746752422433 24.445
35.36083466676374 24.4584
35.38420332829803 24.3367
35.407756095629054 24.3707
35.43112781085063 24.331999999999997
35.45450104888391 24.2211
35.477875810999194 24.3214
35.50143473172161 24.119
35.52481255774625 24.2339
35.54819191167777 24.0373
35.57157279478914 24.1627
35.595137889488406 24.1632
35.61852184675279 24.1185
35.641907337029984 24.0001
35.665294361595684 23.98
35.68886565090076 23.9693
35.7122557598848 23.8931
35.73564740699838 23.8682
35.759040593519934 23.8675
35.78261809810353 23.7988
35.80601437933051 23.7182
35.829412203814705 23.6133
35.85281157283719 23.6466
35.876395313415884 23.6084
35.8997977874528 23.531
35.92320180988546 23.5372
35.946790244133936 23.4685
35.97019737933222 23.4385
35.993606066789866 23.3845
36.01701630779276 23.3377
36.04061101440684 23.2543
36.06402437852291 23.3269
36.08743930005611 23.3045
36.1108557802951 23.2029
36.13445678011326 23.2518
36.15787639383515 23.2338
36.18129757014299 23.1767
36.20472031032821 23.1025
36.22832762423364 22.9826
36.25175350829375 22.991
36.275180960119776 22.944000000000003
36.298609981005924 22.9928
36.32222362992669 22.9925
36.34565580510207 22.8758
36.36908955323448 22.9338
36.39252487562093 22.8544
36.416144880530226 22.8392
36.43958336764275 22.7094
36.463023432914625 22.7826
36.486465077645676 22.7034
36.51009145956204 22.7146
36.53353627947859 22.7334
36.55698268276811 22.6474
36.58043067073321 22.6403
36.60406345072071 22.5952
36.62751462435344 22.5613
36.65096738658405 22.4616
36.67460498210655 22.4909
36.69806093788647 22.5062
36.72151848619297 22.4173
36.744977628333636 22.3954
36.76862165890998 22.2904
36.79208400512205 22.3651
36.81554794910557 22.264
36.83901349217101 22.1846
36.862663978991606 22.1407
36.88613273667352 22.0934
36.90960309738324 22.1001
36.933075062434064 21.9823
36.95673202673572 22.0476
36.98020721697122 22.0862
37.003684015502365 21.9007
37.027162423645365 21.8991
37.050825886711465 21.8999
37.07430753063053 21.8192
37.09779078812467 21.764
37.121275660513014 21.7031
37.144945643673694 21.7535
37.16843376245278 21.6949
37.19192350009803 21.6571
37.215414857931435 21.6135
37.239091382563885 21.5487
37.262585997426164 21.6286
37.28608223645736 21.5651
37.309763684451696 21.6156
37.33326318851098 21.5293
37.356764320726555 21.4057
37.380267082425526 21.3633
37.40395510942588 21.4266
37.42746114683234 21.3857
37.45096881771841 21.3185
37.474478123414166 21.24
37.49817275092816 21.2282
37.52168534303452 21.2406
37.54519957395567 21.1472
37.568715445024665 21.1857
37.592416694607714 21.0833
37.61593586281424 21.1343
37.63945667518264 21.1557
37.66297913304891 21.0087
37.68668702630454 20.9826
37.710212792059274 20.9829
37.733740207334854 20.9101
37.757269273470364 20.892
37.780983832050374 20.8412
37.80451621684926 20.833000000000002
37.82805025654007 20.7538
37.851585952464795 20.733
37.8753071980695 20.7104
37.89884622345676 20.6352
37.92238690911902 20.6134
37.94611318753442 20.518
37.969657210779765 20.5486
37.99320289834801 20.5291
38.016750251586465 20.5042
38.04048325513017 20.557
38.06403395679343 20.4184
38.087586328183946 20.3938
38.11114037065203 20.381
38.13488012115898 20.4449
38.1584375229181 20.3632
38.181996599821 20.2948
38.205557353221124 20.2952
38.229303872575656 20.2468
38.2528679961576 20.1748
38.27643380031219 20.1221
38.30000128639589 20.059
38.32375459653193 20.0864
38.34732546371299 20.1176
38.37089801690786 20.003
38.39447225747609 19.9893
38.418232380377425 19.9342
38.441810012983396 19.9467
38.46538933705673 19.927
38.488970353960084 19.8719
38.51273731166058 19.8247
38.536321731567014 19.7747
38.55990784840681 19.754
38.58367995004091 19.7356
38.60726947812959 19.5928
38.63086070726198 19.6802
38.654453638806274 19.6437
38.678232613930824 19.6032
38.70182896773327 19.559
38.72542702806741 19.6517
38.7490267963045 19.6094
38.77281266709232 19.5458
38.79641586862214 19.4822
38.8200207821842 19.3812
38.843627409152944 19.482
38.86742019782782 19.4167
38.891030269149255 19.3298
38.914642058016156 19.3187
38.938255565806124 19.2768
38.96205529464307 19.2709
38.98567225787121 19.2215
39.00929094417078 19.1866
39.03291135492255 19.1283
39.05671804624804 19.1789
39.080341923549106 19.1146
39.103967529460334 19.0994
39.127594865365744 18.9941
39.15140854155791 19.0322
39.17503935514948 19.016
39.19867190290282 19.000999999999998
39.22249083587951 18.929000000000002
39.24612686969409 18.9081
39.269764641845306 18.9622
39.293404153722804 18.8315
39.317230110864074 18.7841
39.34087311998506 18.7
39.36451787301696 18.7044
39.388164371352595 18.6744
39.41199737518003 18.6675
39.43564738196752 18.6582
39.45929913825317 18.5832
39.48295264543308 18.6153
39.506792718520884 18.5616
39.530449745387216 18.5227
39.55410852735203 18.4939
39.57776906581474 18.4884
39.60161623079 18.4532
39.625280300200025 18.4585
39.64894613032202 18.3728
39.67261372255866 18.4045
39.6964680021016 18.3378
39.72013913657293 18.2708
39.74381203738292 18.3175
39.76748670593756 18.2294
39.79134812278169 18.2455
39.81502634488497 18.1968
39.83870633896685 18.1566
39.862388106436654 18.0634
39.88625668336918 18.0669
39.90994201572829 18.13
39.933629125719285 18.0043
39.957503091207826 17.9632
39.9811937746168 17.9931
40.00488623990914 17.9437
40.02858048850006 17.8964
40.05246165409549 17.9195
40.076159487492085 17.8424
40.099859108448875 17.8062
40.123560518384345 17.7401
40.1474489070226 17.7658
40.171153913178564 17.7037
40.194860712584955 17.7424
40.2185693066637 17.6662
40.242464941335314 17.5753
40.26617714307655 17.6697
40.289891143772046 17.6082
40.3136069448471 17.6132
40.33750984859743 17.6328
40.3612292688043 17.5158
40.3849504936829 17.4789
40.40867352466194 17.5159
40.43258372059144 17.3529
40.45631038219906 17.3791
40.48003885420956 17.3
40.503769138055105 17.3479
40.52768664931955 17.363
40.55142057531802 17.3502
40.57515631746428 17.3206
40.599079334038514 17.2651
40.62281872700477 17.2191
40.64655994043941 17.1959
40.67030297578061 17.1427
40.69423334835778 17.1461
40.71798004609188 17.0777
40.74172857006355 17.0889
40.76547892171441 17.0608
40.7894166736039 17.0545
40.813170699248566 17.034000000000002
40.83692655691388 16.9898
40.86068424804498 17.0203
40.884629402612525 16.8972
40.908390779366385 16.9124
40.932153993938 16.8789
40.95591904777605 16.8358
40.979871628443995 16.8367
41.003640379561936 16.8263
41.02741097430883 16.7821
41.05118341413683 16.8327
41.075143444384416 16.7135
41.098919593177826 16.7096
41.1226975914255 16.618
41.14647744058318 16.5802
41.170444943946755 16.5868
41.19422851378379 16.5516
41.218013938914645 16.4778
41.24198706625173 16.468
41.26577622087193 16.4154
41.289567235177785 16.4348
41.31336011063129 16.4002
41.337340752422875 16.3889
41.361137369129835 16.3987
41.38493585138705 16.3496
41.40873620066004 16.3642
41.43272438060107 16.2707
41.45652848292052 16.2468
41.48033445666918 16.1974
41.50414230331616 16.194000000000003
41.528138045159764 16.1431
41.551949656675205 16.1177
41.575763145513235 16.1115
41.59957851314666 16.0571
41.62358184070442 16.0736
41.64740098505737 16.0479
41.6712220126409 15.9979
41.69504492493139 15.9592
41.71905586207357 15.8961
41.74288256296395 15.8913
41.766711153007456 15.9097
41.79054163368412 15.8736
41.814560204340054 15.9049
41.838394485526365 15.9075
41.86223066180303 15.8373
41.88625497706819 15.755999999999998
41.910094962812 15.7464
41.93393684811168 15.7483
41.95778063445365 15.6733
41.981812625263366 15.6516
42.00566023303407 15.632
42.029509746323676 15.6476
42.05336116662236 15.6094
42.077400857069705 15.6104
42.10125611078846 15.5659
42.12511327600405 15.5145
42.14897235421036 15.5253
42.173019768448455 15.4488
42.19688269209613 15.3616
42.22074753323349 15.4233
42.24461429335818 15.3784
42.268669455600495 15.3977
42.292540073217886 15.3857
42.31641261433284 15.3473
42.34028708044675 15.2595
42.36435001496739 15.2841
42.38822835065557 15.3383
42.41210861586426 15.200999999999999
42.4359908120986 15.1959
42.46006154323262 15.1161
42.48394762115317 15.085
42.507835634632315 15.0943
42.531912233047436 15.0235
42.55580413732265 15.0193
42.579697981698 14.981
42.60359376768525 14.9944
42.62767820545945 14.9815
42.65157789440821 14.9569
42.67547952952185 14.9463
42.699383112316 14.8641
42.72347541395347 14.8366
42.74738291190531 14.8239
42.771292362102166 14.7999
42.795203766063516 14.7789
42.819303956130405 14.7477
42.843219287476536 14.7443
42.86713657716324 14.7246
42.89105582671383 14.6999
42.91516392983864 14.6794
42.939087119032166 14.6511
42.963012272677304 14.6347
42.98693939230129 14.5742
43.01105543317513 14.5684
43.034986504731386 14.555
43.05891954686589 14.5415
43.08285456110972 14.5386
43.10697856448665 14.4501
43.130917542983475 14.4448
43.15485849820081 14.4079
43.17880143167367 14.3704
43.20293342237094 14.345999999999998
43.226880332449 14.3302
43.25082922540554 14.322000000000001
43.27496722682525 14.2721
43.29892010567796 14.2688
43.32287497204102 14.2748
43.34683182745632 14.2171
43.370977859791836 14.1531
43.39493871351105 14.1691
43.41890156092628 14.1391
43.44286640358341 14.1159
43.46702049182749 14.1731
43.49098934522816 14.0686
43.51496019852649 14.110999999999999
43.5389330532723 14.0427
43.56309522248204 13.9805
43.58707210044314 13.933
43.61105098451946 13.9037
43.63503187626491 13.9284
43.659202151562134 13.9471
43.68318707902681 13.8838
43.70717401884041 13.8405
43.731162972560874 13.8401
43.75534137913236 13.8083
43.779334381108384 13.7405
43.803329401683186 13.7509
43.82732644241872 13.7477
43.8515130055166 13.749
43.87551410707659 13.6954
43.89951723350145 13.6696
43.923709934595614 13.6495
43.94771713129917 13.6222
43.97172635758096 13.6086
43.99573761501002 13.5781
44.0199385169922 13.5114
44.04395385732619 13.5356
44.067971233533086 13.5283
44.09199064718605 13.4849
44.11619977548961 13.4324
44.14022328470671 13.4134
44.16424883610785 13.4355
44.18827643127035 13.364
44.21249381139513 13.3254
44.236525514814076 13.3624
44.26055926674478 13.3282
44.28459506876863 13.3784
44.3088207262813 13.289000000000001
44.33286064928722 13.2213
44.35690262714919 13.2087
44.38094666145278 13.1949
44.4051806219871 13.1783
44.42922879003185 13.1744
44.45327901929361 13.0983
44.477331311362136 13.1098
44.501573600619416 13.0916
44.525630039221795 13.0473
44.54968854541895 13.0754
44.573937102200176 13.0385
44.5979997645541 13.0028
44.622064499300315 12.997
44.64613130803592 12.9409
44.67038823869318 12.9494
44.69445921643748 12.8861
44.718532272981385 12.8872
44.742607409926194 12.8799
44.76687274034801 12.8346
44.79095205918753 12.805
44.81503346325094 12.7728
44.839116954143876 12.7849
44.86339071028742 12.7375
44.88747839599524 12.6867
44.91156817336837 12.6887
44.93566004401666 12.6832
44.959942251908146 12.6751
44.984038330325966 12.6167
45.00813650686762 12.6066
45.03223678314731 12.6171
45.05652746888232 12.5825
45.08063196592069 12.5737
45.104738567558705 12.4722
45.128847275414856 12.4985
45.15314646515866 12.4306
45.17725940679741 12.4503
45.20137445952892 12.4868
45.22568004865265 12.4642
45.24979934496396 12.3644
45.27392075725247 12.3314
45.29804428714431 12.3508
45.322358426247604 12.3343
45.346486212804315 12.2848
45.370616121861914 12.3024
45.39474815505086 12.2378
45.41907087049246 12.2593
45.4432071734666 12.2244
45.46734560548283 12.2247
45.49148616817604 12.2166
45.51581748638564 12.1402
45.5399623320197 12.1071
45.56410931325473 12.1301
45.58825843173002 12.1038
45.61259837920865 12.0669
45.636751793816 12.0349
45.66090735060093 11.9964
45.68506505120716 11.9958
45.7094136545275 11.9369
45.73357566449271 11.9087
45.75773982322992 11.942
45.78190613238733 11.8875
45.806263418194064 11.8624
45.83043404997326 11.8905
45.85460683713677 11.8584
45.87897065658495 11.7889
45.90314777634752 11.8076
45.92732705646868 11.8338
45.9515084986045 11.7361
45.97588104735473 11.7397
46.00006683541565 11.7163
46.02425479047904 11.700999999999999
46.04844491420549 11.7056
46.0728262191024 11.7093
46.09702070211635 11.5917
46.12121735879483 11.6293
46.14541619080294 11.6663
46.169806278764455 11.5666
46.194009483459034 11.5463
46.21821486849841 11.572000000000001
46.24242243555223 11.5625
46.266821333570014 11.5274
46.29103328674601 11.4303
46.31524742696538 11.4512
46.33946375590237 11.4121
46.36387149104216 11.3496
46.38809221957392 11.3249
46.41231514186606 11.3612
46.436540259597464 11.3674
46.460956858999374 11.3313
46.48518638983522 11.3383
46.509418121166966 11.2659
46.533652054678114 11.2748
46.55807754555709 11.2711
46.58231590571962 11.2617
46.60655647313217 11.2185
46.630988654873654 11.192
46.655233659129024 11.1598
46.67948087571551 11.1749
46.70373030632484 11.1658
46.72817142736393 11.1267
46.752425308428684 11.0867
46.77668140861147 11.0871
46.80093972960865 11.0341
46.82538981736788 10.9841
46.849652602470904 10.9739
46.87391761349769 10.9703
46.8981848521493 10.9247
46.9226439341274 10.9324
46.946915650573224 10.8858
46.97118959976749 10.9083
46.99546578341598 10.874
47.019933887188216 10.865
47.04421456235744 10.8219
47.06849747711879 10.8238
47.09278263318286 10.7943
47.11725978640143 10.7702
47.14154944775105 10.7177
47.165841355555656 10.7142
47.1901355115306 10.7198
47.214621741924994 10.6931
47.23892041698887 10.6424
47.26322134538975 10.6438
47.28771440635075 10.6753
47.31201986422527 10.6631
47.33632758061436 10.59
47.360637557241866 10.5548
47.38513974410611 10.5402
47.40945426407847 10.5427
47.43377104948137 10.5539
47.45809010204344 10.5174
47.48260144275502 10.492
47.506925052572285 10.4523
47.53125093475548 10.4272
47.55557909103813 10.4036
47.58009961361992 10.3778
47.60443234110732 10.3971
47.62876734791564 10.3428
47.65310463578333 10.3224
47.6776343683373 10.3449
47.7019762413987 10.3395
47.72632040075572 10.3168
47.75066684815169 10.2797
47.77520581885936 10.2444
47.799556865477655 10.2111
47.823910205386 10.2318
47.84826584033272 10.2358
47.87281407745551 10.1835
47.89717432569297 10.1461
47.92153687423484 10.142999999999999
47.94609208429692 10.1216
47.97045925671401 10.0945
47.99482873471275 10.0887
48.01920052005013 10.1081
48.04376504619224 10.0096
48.068141469543484 10.0564
48.09252020552573 10.0199
48.11690125590099 10.0004
48.1414751266064 9.99118
48.16586082917454 9.98598
48.19024885144316 9.91719
48.2146391951793 9.929910000000001
48.239222439012764 9.90864
48.26361744916137 9.86321
48.28801478610016 9.8738
48.31241445160131 9.87532
48.337007097209366 9.82753
48.36141144338331 9.80718
48.38581812345755 9.819980000000001
48.41022713920929 9.757539999999999
48.434829215320704 9.72829
48.45924292604658 9.79213
48.48365897780325 9.807160000000001
48.50807737237308 9.72787
48.532688907799276 9.69464
48.55711201168574 9.71055
48.581537463754074 9.687669999999999
48.60615611725119 9.63472
48.63058628942721 9.62608
48.65501881516546 9.64707
48.6794536962573 9.605260000000001
48.70408185970339 9.58792
48.72852147531801 9.58243
48.75296345168211 9.52481
48.77740779059232 9.522219999999999
48.80204549302823 9.5264
48.82649458091802 9.503630000000001
48.85094603676547 9.442039999999999
48.87539986237231 9.451839999999999
48.90004713292306 9.41906
48.92450572200832 9.43116
48.94896668628025 9.41314
48.97343002754588 9.404869999999999
48.99808689542115 9.36363
49.02255501470614 9.334589999999999
49.04702551642794 9.331389999999999
49.0714984023988 9.2967
49.096164896893235 9.28076
49.120642575466796 9.28469
49.145122643748394 9.250110000000001
49.16960510355558 9.23505
49.19428125404938 9.21593
49.2187685210852 9.21193
49.243258185121555 9.19557
49.26794160167084 9.15449
49.2924360839405 9.124189999999999
49.31693296869764 9.10324
49.34143225776915 9.0711
49.36612538195438 9.08467
49.39062950396021 9.09864
49.41513603578346 9.10603
49.4396449792564 9.03474
49.46434784069503 9.05825
49.488861631846454 9.03075
49.513377840166804 9.0138
49.537896467493745 8.97335
49.56260909589029 8.94535
49.587132585683285 8.940439999999999
49.611658500018365 8.93822
49.636186840738596 8.90007
49.66090926588511 8.91944
49.685442483902584 8.869019999999999
49.70997813385706 8.848310000000001
49.734516217597076 8.83955
49.75924846937352 8.81435
49.7837914452858 8.7619
49.80833686055187 8.73282
49.83288471702571 8.76189
49.85762682540054 8.75725
49.882179588965734 8.71827
49.9067347993235 8.74606
49.93129245833333 8.71375
49.95604445336378 8.677
49.98060703442832 8.62834
50.005172069746266 8.66404
50.02993150438364 8.64005
50.05450147301533 8.61613
50.07907390151433 8.59954
50.10364879174981 8.5921
50.12841816587289 8.58248
50.1529980044635 8.57131
50.17758031042124 8.5467
50.20216508562089 8.531310000000001
50.22694442953363 8.53363
50.25153416817468 8.48213
50.27612638170508 8.478530000000001
50.300721072005196 8.41589
50.325510416102105 8.42258
50.350110084975064 8.41475
50.37471223628208 8.40702
50.39931687190919 8.38367
50.424116246675766 8.37065
50.44872587605249 8.35398
50.47333799543065 8.342839999999999
50.49795260670191 8.33151
50.52276204271512 8.27823
50.54738166295838 8.29694
50.57200378079314 8.25474
50.596628398116835 8.2768
50.62144792604559 8.2555
50.646077567609396 8.224160000000001
50.670709714377715 8.21989
50.69553683636198 8.190430000000001
50.72017401885922 8.15659
50.7448137122895 8.1708
50.76945591856022 8.1588
50.79429318636823 8.14447
50.818940443716784 8.11111
50.84359021965163 8.1115
50.868242516085964 8.10365
50.893089960641895 8.09112
50.917747323549435 8.04147
50.94240721271973 8.05158
50.96706963007175 8.02977
50.99192728239342 8.031239999999999
51.01659478166073 8.03299
51.04126481489051 8.00928
51.06593738400761 7.996010000000001
51.090805275207074 7.9605
51.11548294172845 7.939080000000001
51.14016314993547 7.92917
51.164845901758845 7.938210000000001
51.18972406304274 7.90523
51.21441192780656 7.8620399999999995
51.23910234200271 7.8258
51.2637953075678 7.8417699999999995
51.288683770237945 7.811039999999999
51.31338186432707 7.766310000000001
51.33808251561888 7.77642
51.362978729967345 7.75422
51.387684521509755 7.73889
51.41239287610203 7.73457
51.437103795691165 7.73307
51.46201036644977 7.7182699999999995
51.486726441956634 7.68918
51.51144508832545 7.68796
51.536166307509156 7.632619999999999
51.56108326624387 7.67209
51.58580965706056 7.61522
51.61053862657523 7.62133
51.635270176746864 7.57493
51.66019755512065 7.5925899999999995
51.68493429268881 7.57715
51.70967361681515 7.514760000000001
51.73441552946465 7.5622
51.759353359237934 7.516260000000001
51.7841004750961 7.49073
51.80885018539685 7.46218
51.833602492111254 7.442819999999999
51.8585508051424 7.4163
51.883308330926425 7.436139999999999
51.90806845906181 7.40787
51.932831191525715 7.4097
51.95779001977161 7.4097
51.98255798721516 7.39723
52.00732856494335 7.362830000000001
52.03229530577543 7.3082899999999995
52.057071130455945 7.30742
52.081849571391054 7.30214
52.106630630568695 7.31648
52.13160794279417 7.266610000000001
52.15639426492067 7.264139999999999
52.18118321127822 7.23945
52.205974783860896 7.26191
52.23096269971011 7.2273
52.255759551287994 7.1998
52.280559035098186 7.1714199999999995
52.30536115314103 7.1886600000000005
52.33035970494467 7.17824
52.35516711807904 7.14205
52.37997717147198 7.11992
52.40478986713005 7.132219999999999
52.42979908731974 7.09041
52.454617094216 7.0992
52.47943774942214 7.09886
52.50426105495102 7.072089999999999
52.529280976059844 7.06307
52.554109609024096 7.00565
52.57894089837482 7.0483199999999995
52.60377484613117 7.02636
52.62880550079408 6.98262
52.65364479223379 6.96157
52.67848674816189 6.97285
52.70352547971946 6.973510000000001
52.72837279155837 6.9513300000000005
52.753222773982785 6.91818
52.778075429022984 6.91058
52.80312495150885 6.93835
52.827982978797436 6.9044300000000005
52.85284368481815 6.85866
52.87770707160767 6.8239
52.90276741793998 6.815860000000001
52.92763619336701 6.83783
52.952507655698504 6.79425
52.977381806977576 6.7782100000000005
53.00245301017842 6.794639999999999
53.02733256653592 6.79275
53.052214817996074 6.757999999999999
53.077099766608484 6.73623
53.102181859804446 6.7046399999999995
53.127072229988265 6.70028
53.15196530349892 6.69003
53.17686108239249 6.70688
53.20195409881522 6.67275
53.22685531582556 6.678039999999999
53.25175924441303 6.63465
53.27666588664027 6.630610000000001
53.30176985962693 6.58897
53.3266819565689 6.5895
53.35159677336455 6.5538
53.376514312083096 6.56215
53.40162927507703 6.5315
53.42655228516116 6.530959999999999
53.45147802340193 6.5202800000000005
53.47660125628886 6.4775
53.50153247842639 6.45375
53.52646643496923 6.41111
53.55140312799818 6.45567
53.576537409691696 6.46759
53.60147960336152 6.4289
53.626424539786164 6.37735
53.65137222105307 6.39272
53.67651758529126 6.419980000000001
53.70147078399681 6.36147
53.72642673383343 6.33697
53.75138543689533 6.369680000000001
53.776541917524526 6.3709
53.801506154876755 6.309830000000001
53.826473151763246 6.29862
53.851442910284916 6.2667
53.87661054126026 6.24432
53.9015858509782 6.25729
53.92656392866066 6.27153
53.95154477641532 6.240469999999999
53.976723591801296 6.209969999999999
54.00171000771266 6.26077
54.02669920004598 6.22927
54.051691170915745 6.15935
54.076881204886796 6.176740000000001
54.101878760928514 6.18475
54.12687910187696 6.1778900000000005
54.152077577768296 6.14389
54.1770835166946 6.12046
54.20209224691339 6.13427
54.22710377055121 6.1154
54.25231352511594 6.08387
54.27733066384342 6.024290000000001
54.30235060239643 6.05199
54.32737334290836 5.99212
54.35259441062629 5.9690199999999995
54.377622783395324 5.96547
54.40265396455061 5.95144
54.42768795623251 5.96034
54.45292037169559 5.95792
54.477960012857906 5.91078
54.50300247099511 5.90585
54.52804774825457 5.88821
54.55329154616743 5.87866
54.57834249018678 5.8543199999999995
54.6033962597977 5.78293
54.6284528571545 5.8068800000000005
54.653708072335164 5.76779
54.67877035378786 5.7821
54.70383546947698 5.74519
54.72890342156389 5.7434
54.7541700889442 5.652019999999999
54.77924374251975 5.6872300000000005
54.8043202390049 5.70811
54.82959552413022 5.62785
54.8546777351945 5.591480000000001
54.87976279569621 5.56682
54.90485070780914 5.6096900000000005
54.930137506558005 5.56159
54.95523115074295 5.57699
54.98032765308844 5.5037199999999995
55.005427015775496 5.50025
55.03072536339621 5.5173
55.05583047570572 5.4305900000000005
55.080938454927676 5.419919999999999
55.10604930325027 5.40229
55.131359235107396 5.41554
55.15647585066083 5.362509999999999
55.181595341907496 5.37701
55.20671771104285 5.34598
55.232039262617704 5.3284
55.25716741665048 5.2750900000000005
55.28229845518636 5.25176
55.30743238042802 5.232480000000001
55.33276558731939 5.241709999999999
55.357905315183636 5.22008
55.383047936390035 5.1524
55.40819345314859 5.19195
55.433538351073295 5.15816
55.458689688238415 5.14725
55.483843927614096 5.018
55.509197623043605 5.07014
55.53435769621134 5.02853
55.55952067826466 4.99127
55.5846865714265 4.97013
55.61005202069737 4.97631
55.63522376553902 4.93353
55.66039842818645 4.91022
55.68557601087004 4.9233199999999995
55.7109532500271 4.8758300000000006
55.73613670233794 4.862080000000001
