TT I
1.2716486653135266 7.83656
1.2939594142134223 7.19118
1.3162702121660406 7.657710000000001
1.3385810600174564 6.9994
1.3608919586137629 6.99515
1.383202908801069 6.504980000000001
1.405513911425503 6.29472
1.4278249673332093 6.35075
1.4501343378461518 5.92178
1.4724455028545926 5.96588
1.4947567236847858 6.00151
1.517068001182951 6.34636
1.5393793361953272 6.27833
1.5616907295681737 5.87309
1.5840021821477681 5.62314
1.60631369478041 5.87742
1.6286252683124185 5.34935
1.6509369035901333 4.60016
1.6732468618895553 5.4339900000000005
1.695558623192809 4.4013599999999995
1.7178704487808514 5.14446
1.7401823395001077 5.60125
1.7625012545597203 5.45655
1.7848028405262486 5.487019999999999
1.8071218901122095 5.47345
1.8294236121921872 4.52104
1.8517427996910911 5.34691
1.8740620574440425 5.23917
1.8963639900671978 4.953930000000001
1.9186833908139995 5.12531
1.9409854680117449 5.061640000000001
1.9633050151394713 5.4316
1.9856246367570705 4.783580000000001
2.0079269371922672 5.23123
2.03024671027244 5.56033
2.0525491637446027 5.16526
2.074869091674931 4.86864
2.097171701569106 4.48458
2.1194917877373847 4.4393
2.141811954326636 4.89023
2.164114805233074 4.91825
2.186435135143035 6.3150900000000005
2.208738150935709 16.7814
2.231058647554722 37.1316
2.2533792288321184 28.8937
2.275682498336085 12.0324
2.298003251406138 6.14041
2.3203066942619714 5.18381
2.3426276225136022 4.76575
2.3649486396617507 4.84159
2.387252348930071 5.07225
2.4095735463442893 4.92327
2.4318774374315884 4.5465
2.4541988185014043 5.43997
2.476502894794693 5.59549
2.498824462909887 5.29317
2.521146125856138 6.3302
2.5434504863470337 6.25199
2.5657723414244717 5.805
2.588076895590662 6.5533
2.610398946189713 6.866439999999999
2.6327210958598384 6.701289999999999
2.6550259469304716 6.42005
2.6773482972090137 6.47006
2.6996533504259 6.49136
2.7219759047039602 7.446619999999999
2.744298562293959 7.55064
2.7666039251246595 6.426830000000001
2.7889267918020164 7.3925
2.8112323652516555 7.230860000000001
2.833555444408179 7.843999999999999
2.8558786311183852 7.61331
2.8781845268938557 8.3757
2.9005079311721484 8.910219999999999
2.9228140460410397 8.814919999999999
2.9451376712799635 9.531930000000001
2.967444008632326 9.8296
2.9897678582247247 9.599110000000001
3.0120918213106695 10.2964
3.0343984987899373 10.395
3.0567226913198637 11.1004
3.079029599759726 11.3622
3.101354025127254 12.5789
3.123678568232338 12.7821
3.145985829517914 13.0673
3.16831061055229 13.8102
3.1906181112775593 13.7488
3.212943133635653 14.7115
3.2352682779763207 15.4747
3.2575761442691227 15.9105
3.2799015350264273 16.0481
3.302209649240067 16.1968
3.3245352898092655 17.2177
3.3468436553365257 17.5824
3.369169549113219 17.701
3.3914955708171384 18.864
3.413804319727358 19.6287
3.4361305997334863 19.1697
3.4584396084414553 19.8263
3.4807661501462652 20.6941
3.503092824025881 21.3684
3.5254022288463154 21.5911
3.5477291695206588 22.5441
3.5700388426251948 23.5633
3.5923660534916446 25.2094
3.6146934007816114 43.281000000000006
3.637003482731501 114.22
3.6593311053109985 131.204
3.681641464033634 72.3901
3.7039693653009733 34.1543
3.726297407241705 27.1393
3.7486081875460804 26.7877
3.7709365132734978 26.9008
3.793247578841633 27.2802
3.8155761917550093 27.4338
3.8378875459837216 27.5761
3.8602164494827234 27.9398
3.882545499606844 28.995
3.9048572932539183 29.4031
3.9271866390645718 29.9248
3.9494987298666713 30.6381
3.971828374764527 30.8936
3.9941581705403255 31.5661
4.016470713506008 32.352
4.038800813471445 32.9812
4.061113662089144 33.9704
4.0834440696459176 34.4201
4.105774632334751 34.9799
4.128087945865126 36.2437
4.150418821249301 37.1811
4.172732448931298 38.5651
4.195063640413578 40.81
4.2173775856475215 46.4693
4.239709096631102 86.3461
4.262040768704612 307.76599999999996
4.284355196706267 435.904
4.306687193387355 282.072
4.329001947444346 100.932
4.35133427213731 51.8657
4.373666762177566 46.9368
4.395982011761091 46.5319
4.418314834921175 47.4284
4.44063041906622 57.1024
4.4629635787515625 72.6691
4.4852969080429785 72.9947
4.5076130004776225 58.6839
4.529946671403969 53.6903
4.552263106909177 53.3366
4.574597122877047 53.0615
4.596931312711224 53.8111
4.619248269273446 54.6344
4.6415828092605835 56.2092
4.663900117405352 56.6913
4.686235010953232 58.1347
4.708552674085913 59.7651
4.730887924602802 61.0805
4.753223354952695 62.8834
4.775541557023902 64.8543
4.797877349456786 66.2084
4.820195915032126 67.9563
4.842532072957498 69.4417
4.864868414979744 71.8609
4.88718753227192 74.3209
4.909524244902505 75.9666
4.931843734218147 77.9791
4.954180820867835 80.1841
4.976518095879839 83.5209
4.998838149695359 87.0926
5.021175803844231 90.7981
5.043496238205739 94.429
5.065834274903528 99.3706
5.088172504230693 105.735
5.1104935158799565 113.99600000000001
5.132832132875765 145.844
5.155153533596801 208.903
5.1774925416746225 262.764
5.199814334878411 500.55699999999996
5.2221537374521505 1349.14
5.244493338631803 3098.28
5.266815727034316 6407.36
5.289155727832427 10937.1
5.311478517248165 9788.43
5.333818921080011 4277.01
5.356159527788849 964.1460000000001
5.3784829252032536 259.389
5.400823940070432 174.851
5.423147747031976 146.33100000000002
5.445489173474152 131.789
5.467830807066149 123.889
5.490155234831516 118.28
5.512497285125229 113.33
5.534822130975162 110.462
5.557164601388673 107.51899999999999
5.579489868738879 103.975
5.601832762690846 103.208
5.6241758697774475 102.28200000000001
5.646501775867269 101.152
5.668845311622074 99.4291
5.691171647754637 98.3015
5.713515615597765 97.0144
5.735859800852677 96.6637
5.758186788542988 96.2225
5.780531411018185 96.9615
5.802858837297399 96.0604
5.825203900414495 96.3594
5.8475491852224 97.1775
5.869877275883075 97.6287
5.892223006467101 98.6904
5.914551544266608 100.788
5.936897724049891 104.71
5.959244129804903 111.985
5.981573344815301 138.232
6.0039202049061 256.274
6.026249875609095 557.332
6.04859719346037 1072.88
6.070927323278297 1989.62
6.093275102315365 3721.3
6.115623113320588 4814.53
6.137953938319995 3816.7
6.160302415650845 1469.31
6.182633708324452 372.51800000000003
6.2049826554078376 146.40200000000002
6.227331838745022 107.212
6.249663839443684 94.7536
6.27201349767565 89.7857
6.294345974611799 97.8261
6.316696111167083 115.50200000000001
6.339046488263839 108.67399999999999
6.361379686074702 87.6197
6.383730546639482 76.2623
6.406064229255215 72.9772
6.428415576718203 71.7203
6.450749747566656 70.3596
6.47310158535871 69.0502
6.495453669698332 68.2262
6.517788579421056 67.5145
6.540141159237969 65.9746
6.562476565766648 65.5946
6.5848296444934045 65.5719
6.607182974060425 65.3152
6.6295191323281015 65.5581
6.651872965955752 69.6274
6.6742096296068985 103.154
6.6965639707294615 170.862
6.71891856698715 176.16400000000002
6.741255995248479 114.3
6.763611104154477 74.9534
6.785949046381137 63.8618
6.808304671371482 61.6037
6.8306605557940046 61.3051
6.852999275508618 59.9252
6.875355681171544 59.6712
6.897694923437771 59.1548
6.92005185377892 59.1671
6.9423916220322655 58.8647
6.964749080490181 57.8606
6.987106804399774 57.7643
7.009447368180821 57.8643
7.031805625367033 57.7861
7.054146723727803 57.5564
7.076505517631004 57.5406
7.098864581288365 57.5469
7.121206488070854 57.5102
7.143566093607822 57.7207
7.165908543567245 58.0683
7.188268694426048 57.7558
7.2106291193438095 58.0567
7.232972390625943 59.5316
7.255333366030969 75.452
7.277677189091925 148.931
7.300038718428332 221.83599999999998
7.322400526130865 188.03599999999997
7.344745183422596 107.846
7.367107550224791 67.3732
7.389452767901992 58.9737
7.411815697249891 57.7442
7.434161478756298 56.8161
7.456524974096713 56.7101
7.478888753837185 56.1704
7.501235387657368 56.6443
7.523599738562711 56.9333
7.545946944825532 56.6488
7.568311870344528 57.4701
7.5906770845765665 57.396
7.613025156078678 59.7379
7.635390950099687 61.2963
7.657739602662809 60.2075
7.680105979923558 58.2272
7.702472650212829 58.4768
7.724822180948224 58.4371
7.747189439655568 58.2295
7.769539560075357 58.2186
7.791907410653562 58.7064
7.81425812420825 58.5341
7.836626570110925 58.9757
7.858995315087906 60.0182
7.881346924933401 60.0372
7.903716270417482 60.5195
7.926068482028405 60.8487
7.948438431475253 61.3352
7.9708086843180235 61.5173
7.993161805171116 62.3272
8.015532667162402 62.7574
8.037886398416653 64.212
8.060257873014221 64.5755
8.082629655331942 65.2875
8.104984308787587 66.0213
8.127356708900503 70.3686
8.149711981398308 78.3335
8.172085002766314 82.057
8.194458336181368 76.8716
8.216814543847752 72.5319
8.23918850371002 72.0677
8.26154533906492 72.8399
8.283919928836452 74.4593
8.306277395339652 75.2351
8.328652618483376 76.8964
8.351028159736202 79.0702
8.373386579575245 81.37100000000001
8.395762759396959 83.5617
8.418121819038275 89.2307
8.440498640894003 106.96799999999999
8.462875785192262 127.065
8.485235811156207 143.423
8.507613602688501 190.388
8.529974277114228 297.251
8.552352719347912 439.92699999999996
8.574731488360351 643.658
8.59709314210385 1011.3
8.619472567021075 1530.59
8.64183487789147 2040.14
8.664214962183097 1996.66
8.686577933647762 1257.25
8.708958680784317 560.599
8.731339760774953 225.567
8.753703729764451 129.687
8.77608547780821 108.462
8.798450116065078 102.5
8.820832535634787 97.6481
8.843215292401656 95.5956
8.865580941199045 94.2791
8.887964374703538 92.9018
8.910330701447199 94.6272
8.932714815164482 98.3456
8.955099270424924 97.0713
8.977466620733543 92.882
8.999851761421976 89.0973
9.022219798361645 86.5799
9.04460562795561 86.6472
9.066991803441677 85.7008
9.089360876979615 85.9317
9.111747746589993 85.1888
9.13411751544971 84.4611
9.156505082664324 84.4789
9.178875550323522 84.7425
9.20126381862328 85.2882
9.223652438908596 86.0318
9.246023961427412 85.6209
9.26841328802173 85.1054
9.290785518039224 84.7466
9.313175554425882 85.3573
9.335565947154315 85.6211
9.357939245086508 86.2365
9.380330352834827 85.8844
9.40270436697103 85.9538
9.425096193225055 85.6849
9.447488380180165 86.59200000000001
9.469863475295412 86.7984
9.492256385987508 87.2043
9.514632206018318 87.9078
9.537025843935714 88.3241
9.559402392368193 89.1114
9.581796761000229 90.7211
9.604191496441521 91.9619
9.626569144158516 96.1005
9.648964615551032 102.509
9.671343000390081 104.994
9.693739211225699 101.54799999999999
9.716135793237463 97.3647
9.738515290448102 96.5433
9.760912617143402 96.8728
9.783292860202891 98.3938
9.805690935076182 100.03
9.828089385495742 101.568
9.850470754023561 103.932
9.872869957865444 113.167
9.89525208097539 133.58700000000002
9.917652041736662 152.30200000000002
9.940052382417589 152.28
9.962435644102392 158.21
9.984836746950979 197.575
10.007220771957746 277.059
10.029622640473708 386.555
10.052007432299963 524.0319999999999
10.074410069984072 715.3810000000001
10.096813093716005 1035.58
10.119199042482517 1489.24
10.141602840636468 1866.71
10.163989564971628 1811.78
10.186394141051062 1210.61
10.208799107559706 606.477
10.231187001965623 271.493
10.253592751657669 152.484
10.275981430388155 124.398
10.298387966769793 121.741
10.320794897965431 124.928
10.343184759907361 123.845
10.36559248305461 116.655
10.387983138083852 110.697
10.410391656691655 113.304
10.432800574501677 126.40700000000001
10.455192425893369 147.289
10.47760214443012 172.84400000000002
10.499994797678786 204.78
10.522405320453982 255.28099999999998
10.54479877906917 340.561
10.567210109595656 445.504
10.5896218454736 540.194
10.612016518879773 553.476
10.634429067781074 421.49
10.656824555333241 263.85
10.679237920773568 155.3
10.701651695961992 107.086
10.724048411481384 94.6941
10.746463008485165 90.8736
10.768860546937125 88.8049
10.791275969274796 86.735
10.81369180576079 85.4682
10.836090585366925 84.2744
10.858507252467449 82.6699
10.88090686379991 81.9047
10.903324365036394 81.4074
10.925724811614439 82.0199
10.948143150509463 83.97399999999999
10.970561909719066 83.3739
10.992963615930844 80.8849
11.015383218085756 78.1668
11.037785768347074 76.5283
11.06020621697282 75.5814
11.082627090322113 74.9427
11.105030913430326 74.5202
11.12745263854165 75.2276
11.149857314510728 80.1806
11.172279894912576 88.6799
11.194702904450653 91.0528
11.217108866490921 85.5766
11.239532736615194 79.2596
11.26193956033512 76.1177
11.284364294577085 73.8487
11.306789462371718 71.5587
11.329197585398376 69.7018
11.351623622610898 69.3914
11.37403261614354 68.7303
11.396459526308487 68.5931
11.418869393879497 68.2257
11.441297180532617 67.873
11.463725406927658 67.0593
11.486136592353875 67.3076
11.508565700543707 68.1596
11.530977768845315 70.6622
11.553407762368774 72.1383
11.575838200059769 71.3541
11.598251599479612 68.6681
11.620682927815501 66.6613
11.64309721895548 65.8215
11.665529441478206 65.5556
11.687962112597958 64.9802
11.710377748130886 65.2156
11.732811318753434 65.351
11.755227854859067 65.3596
11.777662328529495 65.2524
11.800079768750786 64.9514
11.822515149015453 64.71300000000001
11.844950984084935 64.8766
11.867369787303163 64.5376
11.889806534289491 64.8089
11.912226250487029 64.8822
11.934663912939751 65.1912
11.9571020346363 65.3104
11.979523127133968 65.4014
12.001962169624331 66.1057
12.024384183972964 67.437
12.046824150809913 71.0445
12.069264581333726 77.3832
12.091687985297767 84.3819
12.11412934550045 92.4601
12.136553680195208 102.49700000000001
12.158995973632788 116.76100000000001
12.181438735204349 137.69899999999998
12.20386447284199 166.657
12.226308172985636 194.71599999999998
12.24873485024193 209.519
12.271179492516982 191.15400000000002
12.293607112949127 151.909
12.316052700916226 114.743
12.338498763250042 89.8819
12.360927805303868 76.8888
12.383374818673879 70.5011
12.405804812803074 67.9261
12.428252780773262 66.7697
12.45070122756722 66.9536
12.473132656675375 66.7186
12.49558206341869 67.0663
12.518014453510101 66.9535
12.540464823770117 67.0936
12.562915677315177 67.3819
12.58534951575545 67.957
12.607801338171472 70.5143
12.630236146511358 77.6924
12.652688941369085 84.8937
12.675124723177234 85.8889
12.697578494048786 80.5452
12.720032754458185 73.8516
12.742470003354093 71.0486
12.764925245138771 70.3976
12.787363476431278 70.2605
12.809819703166806 70.8653
12.83227642391173 71.8297
12.854716135692716 71.9295
12.877173846755147 73.3024
12.899614549869717 73.5606
12.9220732548287 74.0118
12.94453245827299 74.7476
12.966974655289818 75.8455
12.989434858002571 76.6338
13.011878055298721 77.4077
13.034339260862497 78.1904
13.056800969391883 79.4857
13.079245674017244 81.7932
13.101708390774869 84.6262
13.12415410463411 92.6832
13.146617833206086 106.734
13.169064559883248 121.616
13.191529303857127 137.319
13.213994557076367 154.673
13.236442809902437 177.73
13.258909083908291 213.09599999999998
13.28135835851934 260.421
13.30382565690295 325.632
13.326293469022952 395.591
13.348744283242008 438.18199999999996
13.371213125129904 413.085
13.39366497011003 326.501
13.416134845360597 221.489
13.438605238843131 149.774
13.46105863690397 119.264
13.483530069144786 114.271
13.505984506951902 120.15
13.528456981549432 130.435
13.550929978879088 142.482
13.573385983253365 157.342
13.595860028340867 181.075
13.618317081455832 215.62099999999998
13.64079217790333 262.191
13.663250283359057 314.586
13.685726434770173 364.38
13.708203115221277 371.722
13.730662806148091 317.472
13.75314054697177 240.64
13.775601299246777 160.695
13.798080104050406 114.47399999999999
13.820559442405358 92.92399999999999
13.843021793671388 86.15
13.865502201420897 83.8958
13.887965623051947 82.9156
13.910447103807167 81.7437
13.932929122629764 80.1561
13.955394156785959 79.8381
13.977877254034569 78.6855
14.000343367582113 77.7738
14.022827546871707 76.9704
14.045294743423524 76.3064
14.06778000837062 75.5476
14.090265817715476 75.4993
14.112734645763819 75.1804
14.13522154619454 75.3194
14.157691466286913 75.4368
14.180179461423874 75.0816
14.202668005486178 74.3673
14.22513957064374 73.7394
14.247629214846473 72.8667
14.270101881097517 73.0091
14.29259262906496 73.1456
14.315083930490205 74.4796
14.337558255389705 74.9326
14.360050666019726 74.5895
14.382526101071944 73.2613
14.405019624534942 71.8808
14.427513705993134 71.316
14.449990813291825 71.2134
14.47248601302899 71.1027
14.49496423954951 71.1531
14.517460561197822 71.4733
14.539939910570322 70.9519
14.562437357763558 71.2833
14.58493536931253 72.5726
14.607416409993311 74.1311
14.62991555254159 75.2203
14.652397725157423 74.7971
14.674898002342799 74.0372
14.697398848433282 73.2768
14.719882725991326 73.5068
14.74238471217934 74.6381
14.764869730765593 78.4928
14.787372860692983 82.9962
14.809876564079925 88.6853
14.83236330125751 94.7773
14.854868153850365 101.271
14.877356041159485 109.825
14.899862046604186 121.445
14.922351087688757 138.283
14.944858249632887 161.47899999999998
14.967365991421232 189.417
14.989856770231246 213.46099999999998
15.012365673994204 227.84400000000002
15.03485761569738 213.76
15.05736768508665 176.512
15.07987833888692 137.6
15.102372032001655 105.787
15.124883856909658 85.2988
15.14737872204565 76.8916
15.169891721717274 74.0525
15.192405310371893 73.7394
15.214901940621196 74.3103
15.237416709527137 74.8331
15.259914520936249 74.8816
15.282430473753607 73.8242
15.304947020131227 72.4465
15.327446610371178 71.083
15.349964346154254 70.0243
15.372465126703139 69.4555
15.394984055556009 69.1672
15.417486030076159 68.7772
15.44000615566487 68.3755
15.462526881230803 68.4316
15.485030653812652 68.8558
15.507552581617434 68.8422
15.530057557334603 69.1278
15.55258069104857 68.8213
15.575104429329837 68.6732
15.597611216864632 68.3022
15.620136166564563 68.4558
15.6426441664095 69.4526
15.665170331202765 72.1116
15.687697105158826 75.7078
15.710206930593545 80.366
15.732734925158933 84.9671
15.755245972089478 90.0633
15.77777519094324 96.0567
15.800287463046663 104.43700000000001
15.822817909869592 116.37
15.84534897229804 132.471
15.867863089299354 153.342
15.890395385222186 175.157
15.912910736597423 192.18400000000003
15.935444269699861 196.735
15.957978423016485 178.668
15.980495633101265 149.47799999999998
16.003031029129367 116.419
16.02554948280019 89.6812
16.048086125229432 74.5569
16.070623392487107 69.7743
16.09314371869582 68.6243
16.11568223789321 67.5192
16.13820381691126 66.1141
16.160743591742527 64.5252
16.183283996022084 63.3948
16.205807461423195 62.1087
16.228349126881973 61.288000000000004
16.25087385432698 61.402
16.27341678466365 60.7291
16.29594277784926 60.68899999999999
16.31848697676433 61.2722
16.341031811604868 61.8899
16.36355971058487 62.3614
16.3861058195587 62.198
16.40863499352978 60.6466
16.431182380342005 59.4741
16.453730407713202 58.7917
16.476261501364792 57.8687
16.498810812136167 57.8019
16.52134319004079 57.7008
16.54389378792203 57.6353
16.566445031001553 57.4594
16.588979342490088 57.3559
16.61153187824822 56.9824
16.634067483263312 57.0631
16.656621315414416 57.0935
16.679175797408888 56.7169
16.701713349928728 56.6094
16.72426913389191 56.8482
16.74680798922351 57.0124
16.76936507887444 56.9833
16.791905240734874 57.2283
16.814463639794468 57.0133
16.837022695210294 57.2357
16.859564824093756 57.4046
16.882125194503903 58.3669
16.904668639217885 59.4574
16.927230328348003 59.7404
16.949792678493612 59.8467
16.972338104193863 58.8993
16.994901778652235 58.0724
17.017448529496576 57.8154
17.040013531998152 57.8178
17.06257920018044 58.4541
17.0851279459922 59.4447
17.107694947817667 60.2108
17.130245028099072 61.4105
17.15281336730298 62.7458
17.17536478578733 63.9483
17.19793446610687 65.3808
17.220504818648422 67.1001
17.243058251703697 69.133
17.265629950971032 72.6213
17.288184731571736 76.7318
17.310757781306908 81.9405
17.33333150794385 84.9949
17.355888317140174 85.8854
17.37846339986244 83.2081
17.401021565958885 77.4338
17.42359800851343 71.4959
17.44617513265564 66.4318
17.468735341390783 63.3759
17.491261035594565 61.7216
17.51396340099364 61.2422
17.536490463869136 61.3363
17.559018209820174 61.288999999999994
17.58154663977963 61.2849
17.604251766089718 61.4992
17.626781572227713 61.8147
17.64931206518155 62.0147
17.671843245885103 62.7013
17.69455114821572 62.9585
17.717083712612634 63.3108
17.739616967569667 63.1809
17.762150914021706 63.5336
17.78486160749854 63.5335
17.807396945166804 63.9055
17.829932977143503 64.8509
17.85246970436452 66.6522
17.875183204129467 68.8216
17.897721330097664 71.7865
17.920260154126645 74.5463
17.942799677153296 77.4202
17.9655159983646 80.0248
17.988056927677544 83.2025
18.010598558807683 88.4666
18.033140892692916 94.9145
18.05586005052525 102.958
18.07840379824407 113.148
18.10094825154059 125.684
18.12366954819864 137.236
18.146215420998306 145.298
18.16876200220057 143.8
18.191309292745153 132.28
18.214033452627167 118.257
18.236582170236648 103.024
18.259131600016456 92.7628
18.281681742907335 88.0342
18.304408781233683 89.1722
18.32696035875955 92.2834
18.349512652227624 97.3011
18.372065662579683 103.535
18.394795594587553 108.491
18.41735004715306 109.535
18.43990521943684 104.939
18.46246111238171 96.943
18.485193953325208 85.7788
18.507751296070428 76.4768
18.530309362314178 70.4547
18.552868153000343 67.0406
18.57560391815056 65.1711
18.59816416623245 64.3915
18.620725141597372 63.7365
18.643286845190268 63.2982
18.666025549835414 63.0397
18.688588718427933 62.3942
18.711152618092243 62.0711
18.73389353884365 61.7252
18.75645890921984 61.2516
18.77902501351406 61.1149
18.801591852673102 60.8251
18.824335739722738 60.4686
18.846904057212626 60.2582
18.8694731124168 59.918
18.89204290628315 59.8583
18.914789774966803 59.6226
18.937361054791623 59.4131
18.959933076131318 59.2406
18.982505839934877 59.1881
19.00525570560582 59.1833
19.027829963004184 58.994
19.05040496572238 59.1769
19.072980714710468 59.1397
19.095733592739563 59.336999999999996
19.11831084296757 59.6581
19.140888842324735 60.5657
19.16346759176222 60.9862
19.18622349753803 61.39
19.208803755869358 61.8764
19.231384767143577 62.5298
19.253966532312948 63.2894
19.276725481241822 64.733
19.29930876296784 66.4181
19.3218928014549 68.6867
19.34465404436217 72.0117
19.36723960516257 75.4896
19.389825925592426 78.1277
19.412413006605938 79.5077
19.43517731967805 77.2811
19.457765930683355 73.954
19.48035530514408 68.9962
19.50294544401556 64.3103
19.525712842708348 60.425
19.54830451925909 58.2954
19.570896963095727 56.728
19.593490175174704 56.3339
19.616260674962184 55.9743
19.638855432416964 55.6679
19.661450960992624 55.7662
19.68404726164677 55.6129
19.706820878021247 55.3919
19.729418731756834 55.6042
19.752017360452857 55.2528
19.77461676506804 55.446999999999996
19.797393513540218 55.8111
19.819994478951667 56.0145
19.84259622316767 56.6924
19.8651987471481 57.1127
19.887978643247177 57.3505
19.91058273574792 57.9247
19.933187610901943 58.5692
19.955969879466828 59.1073
19.97857632894404 59.8399
20.00118356396599 60.808
20.023791585494575 62.4503
20.046577028914875 64.7111
20.069186632506966 66.96300000000001
20.091797025500632 69.4618
20.114408208858933 71.5389
20.137196842715273 72.767
20.159809615886765 72.4575
20.18242318232135 70.1507
20.20503754298326 67.5891
20.227829382875154 65.3083
20.250445341109344 63.8119
20.27306209647285 63.281000000000006
20.29567964993108 63.9494
20.31847471147704 65.2665
20.34109387027612 66.8414
20.363713830075454 67.5943
20.386334591841646 67.6155
20.409132890679302 65.8256
20.431755265564437 62.6564
20.454378445325528 59.5801
20.477002430930366 57.1131
20.499803982716553 55.4442
20.522429589228004 54.2408
20.54505600449589 53.5123
20.567683229489194 53.2252
20.590488049900088 52.8319
20.61311690359731 52.3988
20.63574656993626 52.013000000000005
20.658553853717297 51.7564
20.681185154618298 51.6692
20.703817271080066 51.4607
20.72645020407368 51.3594
20.749260783967177 51.0707
20.771895359337133 51.1173
20.794530754161617 50.843999999999994
20.817166969412938 50.7596
20.83998086114876 50.7185
20.86261872660049 50.5729
20.885257415405402 50.5187
20.90789692853701 50.4827
20.930714147864748 50.409
20.953355319030678 50.5043
20.97599731745334 50.637
20.99864014410749 50.5014
21.021460706796564 50.5885
21.044105199328826 50.8765
21.06675052302631 50.8314
21.089396678865015 50.9594
21.112220600704806 51.333
21.134868430275347 51.5706
21.15751709492456 51.702
21.180166595629693 51.7811
21.202993892429635 52.3591
21.22564507473034 52.6215
21.24829709602816 52.9921
21.27112693608965 53.1789
21.293780644891275 53.5157
21.316435195634053 52.9734
21.339090589297417 52.4467
21.361923832041875 51.9083
21.384580921090404 51.138000000000005
21.407238856007325 50.6321
21.429897637773326 50.3023
21.45273429906592 50.3189
21.475394784108598 50.2772
21.498056118951983 50.1625
21.520718304578022 50.3506
21.543558400304388 50.4433
21.566222297108816 50.5358
21.58888704765135 50.7154
21.61155265291521 51.2296
21.63439619898156 51.818000000000005
21.657063523335786 52.0678
21.67973170537063 52.4206
21.7024007460706 52.8824
21.72524775840385 53.397
21.747918526116475 54.1765
21.770590155457388 54.9593
21.79326264741238 55.8429
21.816113141960237 57.3378
21.838787368860547 59.1541
21.861462461341976 60.6752
21.884315579735777 62.8003
21.90699241312273 64.8888
21.92967011506078 66.5033
21.95234868653799 67.3187
21.9752053151131 67.0526
21.997885635446785 65.6886
22.020566828293532 63.7355
22.04324889464272 61.2129
22.066109049404666 58.937
22.088792872571794 57.8705
22.111477572219204 57.7103
22.1341631493376 57.7494
22.157026846313123 57.8618
22.179714188221507 57.8819
22.202402410582668 57.3707
22.22509151438863 55.8223
22.24795876962584 54.3028
22.270649646204486 53.276
22.293341407213727 52.4934
22.316034053646906 51.778999999999996
22.338904883215342 51.2875
22.36159931041458 51.2231
22.38429462602756 51.0656
22.40699083104897 51.0558
22.429865251039757 50.9934
22.452563244831367 50.8618
22.47526213102522 51.0321
22.49813925616515 50.6234
22.520839937143307 50.57
22.543541513520587 50.448
22.56624398629403 50.2623
22.589124730075895 50.4081
22.611829005656723 50.5457
22.63453418063466 50.6252
22.657240256008077 50.8691
22.680124634582935 50.9352
22.70283252079775 51.1883
22.725541310413075 51.479
22.74825100442868 51.6439
22.771139033969575 52.1219
22.79385054687155 52.2058
22.81656296718292 52.4862
22.83927629590484 53.108999999999995
22.862167992606945 53.9887
22.88488314827121 54.8874
22.907599215359284 55.5681
22.93031619487366 56.5701
22.953211574954405 57.7694
22.975930389478226 58.9973
22.998650119445763 59.9626
23.02137076586092 60.2284
23.044269845560063 59.6727
23.06699233506288 58.3086
23.089715744034912 56.2697
23.112617610931565 54.3784
23.135342869061212 52.6844
23.158069049684816 51.5406
23.1807961538087 51.0745
23.20370174880544 50.7353
23.226430710184808 50.6963
23.249160598093425 50.8272
23.271891413539002 50.7494
23.294800752937697 50.8218
23.31753343374794 50.9249
23.340267045128353 51.1051
23.36300158808808 51.4345
23.38591468821339 51.547
23.408651104658304 51.7385
23.431388455719986 52.1146
23.454126742409 52.7519
23.4770436196085 53.4518
23.499783787914662 54.5331
23.522524894889884 55.1057
23.54526694154616 56.1378
23.56818761219047 57.4228
23.59093154860734 58.5184
23.613676427751283 59.8839
23.636422250635754 60.0212
23.659346731118656 58.9592
23.68209445191868 57.5174
23.704843119509587 55.3709
23.72759273490623 52.948
23.750521041644767 51.1865
23.77327256312355 49.7611
23.796025035462787 48.818999999999996
23.818956224555475 48.1259
23.841710609113413 47.8645
23.86446594758979 47.4955
23.887222241002014 47.5008
23.910157285144578 47.0034
23.932915498962537 47.0726
23.955674670778713 46.9684
23.978434801611975 46.6641
24.001373717286125 46.5663
24.024135776723917 46.3915
24.046898798245582 46.188
24.06966278287146 46.2146
24.092605586582614 45.9712
24.115371508023642 45.7645
24.1381383956401 45.7731
24.16090625045381 45.7978
24.183852958731244 45.785
24.206622758582608 45.6203
24.229393528706886 45.3914
24.252165270127392 45.4431
24.27511589952438 45.3354
24.297889594216997 45.15
24.32066426328598 45.0071
24.34343990775613 45.0342
24.36639447485003 44.9585
24.38917208083877 44.8459
24.41195066531332 44.6031
24.43490819850244 44.7794
24.457688750692377 44.5605
24.48047028445616 44.6071
24.503252800821233 44.6347
24.526214300784112 44.5948
24.548998793132213 44.6633
24.57178427117417 44.5479
24.59457073593893 44.4629
24.617536219319863 44.4929
24.64032466834748 44.6066
24.663114107195035 44.5319
24.685904536893013 44.2614
24.708874020360852 44.2629
24.731666442613744 44.1968
24.754459858818787 44.1996
24.777254270007962 43.9917
24.80022777025625 43.9759
24.82302418230472 43.8723
24.845821592443674 43.8901
24.86862000170663 43.8356
24.891597535453727 43.6115
24.914397953892728 43.8844
24.93719937456671 43.8033
24.96000179851076 43.9684
24.98298338249997 44.1746
25.00578782394922 44.2721
25.028593271784167 44.3441
25.05157790644186 44.6565
25.07438537804115 44.6781
25.097193859145293 44.93600000000001
25.120003350792075 45.1181
25.142992065061257 45.4349
25.165803588823465 45.8492
25.18861612625217 46.0766
25.211429678386736 46.2759
25.234422489079968 46.4462
25.257238081693636 46.2763
25.280054692141732 46.3075
25.3028723214652 46.2588
25.325869245420463 46.2921
25.348688923599397 46.2926
25.371509623787006 46.6049
25.394331347025812 46.5187
25.41733240110666 46.3076
25.440156181590016 45.818999999999996
25.46298098826268 45.3563
25.48580682216873 44.7561
25.50881202326435 43.9925
25.53163992281684 43.4198
25.55446885274561 43.0013
25.577298814096377 42.5935
25.600308179121807 42.4538
25.623140214533745 42.4654
25.64597328451537 42.327
25.66898578564376 42.2123
25.691820936010206 42.3242
25.714657124097695 42.2344
25.737494350954734 42.2264
25.760511045684957 41.9597
25.783350361364224 42.1579
25.806190718969255 42.2209
25.82903211955018 42.3066
25.852053024868923 42.2455
25.874896522722523 42.1659
25.897741066713106 42.1423
25.920586657892454 42.263000000000005
25.943611790812668 42.3103
25.966459487728237 42.315
25.989308234998564 42.2532
26.01215803367705 42.6337
26.03518741123814 42.8496
26.05803932412957 42.8736
26.080892291600094 42.8514
26.10374631470478 43.0673
26.12677995397268 43.3792
26.14963609978026 43.2339
26.172493304397875 43.1993
26.19535156888223 42.9322
26.218389486949604 42.6478
26.241249882640123 42.4872
26.26411134137826 41.9933
26.28715248187403 41.9639
26.31001607820869 41.6017
26.3328807407756 41.4305
26.35574647063438 41.7569
26.37879191991473 41.6375
26.401659795896734 41.6523
26.424528742360263 41.7873
26.447398760366614 41.8322
26.470448535598294 41.9864
26.49332070826805 42.25899999999999
26.516193955675355 42.5004
26.53906827888316 42.4939
26.562122397260108 42.6654
26.584998883685063 42.7982
26.607876449110325 43.1314
26.63075509460056 43.3361
26.65381357334404 43.4114
26.67669439061878 43.5458
26.699576291163382 43.6857
26.722459276044212 43.5358
26.745522132402975 43.4703
26.768407297649354 43.278
26.791293550442003 43.0128
26.814180891848974 42.623999999999995
26.837248143099337 42.3296
26.860137673466657 42.1599
26.88302829566349 41.8352
26.90592001075963 41.6433
26.92899167420566 41.6042
26.951885586870763 41.0928
26.974780595655517 40.8368
26.99785558178161 40.7946
27.020752794605112 40.5847
27.043651106772522 40.4471
27.06655051935668 40.3988
27.089629948036183 40.2055
27.112531573292053 40.2236
27.135434302194138 40.2516
27.158338135817015 40.0371
27.181422024430987 40.1113
27.204328079372566 39.9482
27.22723524226965 39.9724
27.250143514198573 40.0672
27.273231880156334 40.0801
27.296142382065014 39.8499
27.319053996245536 39.7257
27.341966723775965 39.8337
27.365059584515222 39.9617
27.38797455070062 40.119
27.410890633481237 39.9203
27.433807833936918 39.7864
27.456905206923906 39.8792
27.47982465472398 39.8201
27.502745223449743 39.895
27.525666914182825 40.0182
27.548768816912457 39.9116
27.571692763693633 39.9106
27.59461783573812 39.9077
27.617723149491244 39.8063
27.640650484125285 39.6969
27.66357894728264 39.6727
27.686508540048052 39.5548
27.709618414237887 39.4404
27.732550278321757 39.2904
27.755483275279115 39.2376
27.778417406196485 39.1953
27.801531858397514 39.2515
27.824468269376716 39.1984
27.847405817586786 39.1418
27.870344504116094 39.4068
27.893463551932008 39.4008
27.916404527281053 39.6171
27.93934664422563 39.8053
27.962289903855886 39.6823
27.98541356491974 39.8208
28.00835912214229 39.968
28.03130582533231 40.1456
28.054253675581805 40.3245
28.077381967556104 40.3554
28.100332124185126 40.383
28.123283431160893 40.4427
28.146235889577238 40.3679
28.169368830154156 40.2585
28.192323603752033 39.8921
28.215279532083304 39.6172
28.238415973016764 39.5123
28.261374223145094 39.3883
28.284333631303806 39.207
28.307294198589954 39.2375
28.330435319167677 38.8154
28.353398217078915 38.5783
28.376362277420153 38.3656
28.39932750129032 38.2693
28.422473319286713 38.0014
28.44544088262495 37.9119
28.468409612800283 37.6803
28.491379510913497 37.5558
28.51453004413313 37.3588
28.53750229057244 37.2639
28.56047570826344 37.3117
28.583450298308804 37.233000000000004
28.606605564586562 37.0893
28.629582511831156 37.1544
28.65256063474956 37.0176
28.675539934446338 37.0971
28.698699951647605 36.9589
28.72168161743193 36.7766
28.74466446331978 36.8207
28.767648490417624 36.7047
28.790813276438353 36.7524
28.813799678527303 36.864000000000004
28.836787265157085 36.6414
28.859955641890075 36.8347
28.882945610203045 36.8504
28.905936766392035 36.7541
28.928929111566863 36.7686
28.952102288520145 36.6503
28.975097024308607 36.6245
28.998092952423807 36.3814
29.021090073977508 36.382
29.04426806913204 36.2752
29.067267590245258 36.0371
29.090268308143695 35.9693
29.11327022394099 35.9641
29.13645305530891 35.7953
29.159457379627167 35.6837
29.18246290519685 35.6125
29.20546963313352 35.5821
29.22865731875826 35.6873
29.25166646419296 35.6903
29.27467681535305 35.438
29.29768837335608 35.398
29.320880931312562 35.5136
29.34389491580634 35.4841
29.366910110507334 35.3543
29.38992651653503 35.4941
29.41312396492981 35.4291
29.436142806456754 35.4416
29.45916286268059 35.5128
29.48236399319994 35.445
29.50538649169417 35.2168
29.528410208259935 35.1264
29.55143514402014 34.9039
29.574641196749695 34.8675
29.597668583816574 34.7509
29.6206971934585 34.5961
29.64372702680042 34.5321
29.666938019934474 34.382
29.689970313635285 34.2568
29.713003834422636 34.3852
29.73603858342347 34.2305
29.759254535188578 34.2381
29.78229175361658 34.1206
29.80533020365064 34.2244
29.82836988641968 34.2507
29.85159081507472 34.0348
29.874632976355343 33.9645
29.89767637376955 34.0542
29.920721008448314 33.8554
29.9439469322847 33.8823
29.96699405457564 33.7462
29.9900424175358 33.8181
30.013092022298157 33.8316
30.03632295963995 33.733000000000004
30.059375061131373 33.7483
30.08242840783577 33.8115
30.105483000888153 33.8529
30.128718970092244 33.6824
30.151776069006917 33.6182
30.17483441768648 33.6399
30.198074175317235 33.6762
30.221135036724256 33.6786
30.24419715131772 33.5868
30.267260520236203 33.4818
30.290505341942243 33.6179
30.313571232750228 33.6654
30.336638381310948 33.6951
30.35970678876503 33.6141
30.38295669299435 33.4679
30.40602763151657 33.4518
30.429099832366074 33.3833
30.452173296685572 33.336999999999996
30.47542830191959 33.2827
30.498504306502497 33.2395
30.521581577995562 33.4
30.544660117543582 33.3782
30.56792024229725 33.3297
30.59100133132069 33.3262
30.614083691845494 33.3155
30.637167325018545 33.3818
30.660432587840603 33.3426
30.683518779717886 33.2421
30.70660624769615 33.4117
30.729694992924372 33.3505
30.75296541239743 33.4622
30.77605672557558 33.4332
30.799149319462742 33.3567
30.8224236211637 33.1549
30.845518789950724 33.0584
30.868615242910597 33.0717
30.891712981195973 32.9835
30.91499247215866 32.9536
30.938092794619365 32.9444
30.96119440587579 32.7841
30.984297307082752 32.6296
31.00758200598383 32.5592
31.030687500658694 32.4488
31.053794288760695 32.3224
31.076902371446767 32.3496
31.100192296997445 32.42
31.12330298246119 32.3258
31.14641496599209 32.1629
31.169528248749216 32.1773
31.19282341969534 32.1805
31.215939314557186 32.0773
31.239056512134788 32.0392
31.262175013589378 32.0188
31.28547544871168 31.9246
31.30859657161541 32.0481
31.331719001892175 32.0602
31.35484274070538 32.066
31.378148458819545 32.023
31.401274828443725 31.9798
31.424402510106933 32.0461
31.447712205419993 31.9932
31.470842524931633 31.928
31.493974159989783 32.0338
31.51710711176168 31.9591
31.54042212308802 31.97
31.563557722100917 32.1204
31.586694641341655 31.8141
31.609832881979628 31.7517
31.63315322823208 31.6305
31.656294125521327 31.5146
31.679436347728515 31.584
31.70257989602529 31.3635
31.725905596152327 31.362
31.74905181052835 31.2741
31.772199354521323 31.3915
31.79534822930507 31.415
31.818679302290967 31.2641
31.84183085259981 31.2925
31.864983737233473 31.2277
31.88813795736804 31.2343
31.911474422233013 31.1199
31.934631327356435 31.2242
31.9577895715215 31.2081
31.980949155906522 31.1696
32.004291031706956 31.1593
32.027453310562606 31.1224
32.05061693318573 30.9175
32.07396288236386 31.0089
32.09712920658542 30.9077
32.12029687812702 30.7748
32.14346589817093 30.7423
32.166817291729984 30.7377
32.18998902288583 30.6157
32.21316210610336 30.5395
32.23633654256711 30.4468
32.259693399663725 30.4796
32.282870556771144 30.3792
32.30604907069099 30.3669
32.329228942610065 30.2772
32.35259128243769 30.1084
32.375773884550505 30.141
32.398957848235646 29.9989
32.422143174682176 29.9295
32.445511016471215 29.9172
32.468699082679954 29.9258
32.49188851523011 29.7953
32.51507931531304 29.6869
32.538452678331 29.7248
32.56164622776311 29.7403
32.58484114831493 29.5949
32.60803744118015 29.6051
32.631416344731896 29.6559
32.654615396551876 29.5638
32.67781582427913 29.4237
32.701198898634416 29.441999999999997
32.72440209253756 29.3573
32.747606665947124 29.3224
32.77081262006088 29.2555
32.79420126883317 29.25
32.81740999876112 29.2527
32.840620112999424 29.2133
32.86383161274818 29.1862
32.88722585534586 29.1487
32.91044014056596 29.2336
32.933655814909734 29.1386
32.95687287957963 29.0696
32.98027273544904 28.971
33.00349259526636 28.9675
33.026713849030116 29.000999999999998
33.04993649794511 28.884
33.073341986570746 28.8463
33.09656744032826 28.8583
33.11979429286444 28.8037
33.14302254538647 28.8291
33.166433686291185 28.8279
33.18966475336992 28.733
33.212897224069096 28.6352
33.23613109959831 28.6445
33.259547912343415 28.614
33.2827846121627 28.6385
33.306022720453775 28.5415
33.32926223842861 28.4505
33.352684742614166 28.581999999999997
33.37592709463173 28.5069
33.399170859982064 28.3806
33.422597648419426 28.3525
33.44584425514446 28.1824
33.46909227885668 28.1663
33.4923417207723 28.0491
33.51577423505344 28.0894
33.539026528130385 27.906999999999996
33.56228024307245 27.9891
33.585535381098246 27.8633
33.60897364093058 27.8213
33.63223163992385 27.8492
33.6554910656699 27.7096
33.678751919389796 27.6991
33.702195944520106 27.6376
33.72545966903325 27.6393
33.74872482519663 27.5016
33.771991414233746 27.5249
33.79544122444841 27.4128
33.81871069412428 27.3954
33.84198160035767 27.4036
33.86525394437455 27.5415
33.88870955949969 27.3873
33.911984794020626 27.2426
33.93526147001624 27.2862
33.958539588715006 27.2642
33.98200102861669 27.2385
34.0052820477047 27.1474
34.02856451319451 27.1667
34.05203033759056 27.0274
34.07531571090147 27.0059
34.09860253431845 26.906999999999996
34.121890809074316 26.9113
34.145362493118924 26.8637
34.16865368561615 26.8016
34.191946333164054 26.804000000000002
34.21524043699793 26.7448
34.23871800066799 26.6652
34.26201503218366 26.6313
34.28531352370466 26.709
34.30861347646881 26.537
34.33209693978188 26.5258
34.3553998301885 26.5047
34.378704185565205 26.4178
34.402010007152356 26.3836
34.42549939016683 26.4
34.44880815937748 26.2473
34.472118398533134 26.1731
34.49543010887669 26.1588
34.51892543169198 26.1154
34.54224009966052 26.1514
34.56555624255917 26.1193
34.58887386163339 26.0295
34.61237514439016 25.9199
34.6356957311114 25.8903
34.65901779775809 25.9599
34.68252356662995 25.9099
34.705848608458616 25.9101
34.72917513396849 25.7574
34.75250314440949 25.7539
34.77601490857862 25.7062
34.799345904259795 25.714000000000002
34.82267838863559 25.7192
34.846012362958525 25.6961
34.869530142679984 25.5434
34.89286711232212 25.531
34.91620557568269 25.526
34.93954553401677 25.5047
34.9630693495876 25.3626
34.986412313340814 25.4762
35.00975677584668 25.5392
35.033102738362956 25.3694
35.05663261012228 25.2988
35.0799815881786 25.2784
35.10333207003229 25.2308
35.12668405694369 25.2076
35.150220005273056 25.1954
35.17357501786656 25.1737
35.19693153931268 25.114
35.220289570874385 25.1334
35.24383161619786 25.0396
35.267192683604904 24.980999999999998
35.290555264930376 24.9816
35.314101899412165 25.0049
35.33746752422433 24.9923
35.36083466676374 24.9874
35.38420332829803 24.9123
35.407756095629054 24.9417
35.43112781085063 24.8332
35.45450104888391 24.8474
35.477875810999194 24.8516
35.50143473172161 24.7752
35.52481255774625 24.8203
35.54819191167777 24.7873
35.57157279478914 24.73
35.595137889488406 24.7229
35.61852184675279 24.6125
35.641907337029984 24.5582
35.665294361595684 24.4426
35.68886565090076 24.469
35.7122557598848 24.3872
35.73564740699838 24.4126
35.759040593519934 24.4013
35.78261809810353 24.425
35.80601437933051 24.272
35.829412203814705 24.2531
35.85281157283719 24.158
35.876395313415884 24.1825
35.8997977874528 24.0274
35.92320180988546 24.0162
35.946790244133936 24.0219
35.97019737933222 24.0205
35.993606066789866 23.9685
36.01701630779276 23.9458
36.04061101440684 23.8669
36.06402437852291 23.8832
36.08743930005611 23.9046
36.1108557802951 23.7816
36.13445678011326 23.8057
36.15787639383515 23.6989
36.18129757014299 23.6561
36.20472031032821 23.627
36.22832762423364 23.5787
36.25175350829375 23.642
36.275180960119776 23.5074
36.298609981005924 23.5718
36.32222362992669 23.5026
36.34565580510207 23.5355
36.36908955323448 23.441
36.39252487562093 23.3613
36.416144880530226 23.266
36.43958336764275 23.2882
36.463023432914625 23.2703
36.486465077645676 23.2052
36.51009145956204 23.2994
36.53353627947859 23.3112
36.55698268276811 23.2704
36.58043067073321 23.2945
36.60406345072071 23.0776
36.62751462435344 23.0852
36.65096738658405 22.9743
36.67460498210655 22.9632
36.69806093788647 22.9112
36.72151848619297 22.8556
36.744977628333636 22.9216
36.76862165890998 22.8566
36.79208400512205 22.803
36.81554794910557 22.8215
36.83901349217101 22.7203
36.862663978991606 22.6979
36.88613273667352 22.6483
36.90960309738324 22.7279
36.933075062434064 22.6413
36.95673202673572 22.6009
36.98020721697122 22.5038
37.003684015502365 22.3794
37.027162423645365 22.3895
37.050825886711465 22.386
37.07430753063053 22.3283
37.09779078812467 22.3299
37.121275660513014 22.2915
37.144945643673694 22.2129
37.16843376245278 22.3028
37.19192350009803 22.2679
37.215414857931435 22.1715
37.239091382563885 22.1107
37.262585997426164 22.0648
37.28608223645736 22.0895
37.309763684451696 22.0508
37.33326318851098 21.9589
37.356764320726555 21.9133
37.380267082425526 21.9827
37.40395510942588 21.8708
37.42746114683234 21.8526
37.45096881771841 21.8551
37.474478123414166 21.8747
37.49817275092816 21.7677
37.52168534303452 21.746
37.54519957395567 21.5877
37.568715445024665 21.6536
37.592416694607714 21.5829
37.61593586281424 21.6565
37.63945667518264 21.6364
37.66297913304891 21.4979
37.68668702630454 21.5141
37.710212792059274 21.3774
37.733740207334854 21.4088
37.757269273470364 21.4168
37.780983832050374 21.3411
37.80451621684926 21.2752
37.82805025654007 21.2785
37.851585952464795 21.2682
37.8753071980695 21.1517
37.89884622345676 21.1753
37.92238690911902 21.059
37.94611318753442 21.0756
37.969657210779765 21.0697
37.99320289834801 21.076
38.016750251586465 21.0023
38.04048325513017 20.9474
38.06403395679343 20.8746
38.087586328183946 20.8967
38.11114037065203 20.8938
38.13488012115898 20.8458
38.1584375229181 20.8237
38.181996599821 20.7387
38.205557353221124 20.7093
38.229303872575656 20.775
38.2528679961576 20.6794
38.27643380031219 20.6231
38.30000128639589 20.6045
38.32375459653193 20.6089
38.34732546371299 20.6214
38.37089801690786 20.485
38.39447225747609 20.4344
38.418232380377425 20.4671
38.441810012983396 20.4691
38.46538933705673 20.3974
38.488970353960084 20.407
38.51273731166058 20.3589
38.536321731567014 20.2225
38.55990784840681 20.1601
38.58367995004091 20.2025
38.60726947812959 20.1102
38.63086070726198 20.1455
38.654453638806274 20.1465
38.678232613930824 20.0844
38.70182896773327 20.0284
38.72542702806741 20.0394
38.7490267963045 19.968
38.77281266709232 19.9782
38.79641586862214 19.9628
38.8200207821842 19.8351
38.843627409152944 19.8443
38.86742019782782 19.8753
38.891030269149255 19.7971
38.914642058016156 19.7558
38.938255565806124 19.7576
38.96205529464307 19.7269
38.98567225787121 19.6976
39.00929094417078 19.6461
39.03291135492255 19.599
39.05671804624804 19.6304
39.080341923549106 19.5067
39.103967529460334 19.5345
39.127594865365744 19.5098
39.15140854155791 19.439
39.17503935514948 19.3865
39.19867190290282 19.4104
39.22249083587951 19.3687
39.24612686969409 19.3122
39.269764641845306 19.2743
39.293404153722804 19.2879
39.317230110864074 19.2325
39.34087311998506 19.2435
39.36451787301696 19.1676
39.388164371352595 19.1404
39.41199737518003 19.1008
39.43564738196752 19.1143
39.45929913825317 19.0887
39.48295264543308 19.0425
39.506792718520884 18.9902
39.530449745387216 18.961
39.55410852735203 18.9523
39.57776906581474 18.9477
39.60161623079 18.8897
39.625280300200025 18.8994
39.64894613032202 18.8217
39.67261372255866 18.8131
39.6964680021016 18.7064
39.72013913657293 18.6981
39.74381203738292 18.6983
39.76748670593756 18.6878
39.79134812278169 18.71
39.81502634488497 18.6342
39.83870633896685 18.5679
39.862388106436654 18.5627
39.88625668336918 18.5143
39.90994201572829 18.5599
39.933629125719285 18.5311
39.957503091207826 18.4217
39.9811937746168 18.4119
40.00488623990914 18.3924
40.02858048850006 18.3599
40.05246165409549 18.3159
40.076159487492085 18.2323
40.099859108448875 18.2965
40.123560518384345 18.2709
40.1474489070226 18.1767
40.171153913178564 18.104
40.194860712584955 18.1086
40.2185693066637 18.1601
40.242464941335314 18.1087
40.26617714307655 18.1019
40.289891143772046 18.0218
40.3136069448471 17.9581
40.33750984859743 17.9592
40.3612292688043 17.9688
40.3849504936829 17.95
40.40867352466194 17.8352
40.43258372059144 17.8612
40.45631038219906 17.8836
40.48003885420956 17.6975
40.503769138055105 17.7651
40.52768664931955 17.7634
40.55142057531802 17.7916
40.57515631746428 17.714000000000002
40.599079334038514 17.7489
40.62281872700477 17.6854
40.64655994043941 17.5877
40.67030297578061 17.6219
40.69423334835778 17.5349
40.71798004609188 17.4853
40.74172857006355 17.4601
40.76547892171441 17.4133
40.7894166736039 17.4588
40.813170699248566 17.3989
40.83692655691388 17.3646
40.86068424804498 17.4001
40.884629402612525 17.3544
40.908390779366385 17.3627
40.932153993938 17.313
40.95591904777605 17.28
40.979871628443995 17.2816
41.003640379561936 17.2488
41.02741097430883 17.165
41.05118341413683 17.1552
41.075143444384416 17.1183
41.098919593177826 17.0707
41.1226975914255 17.0651
41.14647744058318 16.9767
41.170444943946755 16.9876
41.19422851378379 16.9778
41.218013938914645 16.9793
41.24198706625173 16.885
41.26577622087193 16.895
41.289567235177785 16.8152
41.31336011063129 16.8548
41.337340752422875 16.7872
41.361137369129835 16.8319
41.38493585138705 16.713
41.40873620066004 16.707
41.43272438060107 16.7125
41.45652848292052 16.6419
41.48033445666918 16.6186
41.50414230331616 16.5646
41.528138045159764 16.578
41.551949656675205 16.522000000000002
41.575763145513235 16.5353
41.59957851314666 16.4853
41.62358184070442 16.4103
41.64740098505737 16.4122
41.6712220126409 16.3897
41.69504492493139 16.3861
41.71905586207357 16.3691
41.74288256296395 16.3175
41.766711153007456 16.2391
41.79054163368412 16.2683
41.814560204340054 16.2852
41.838394485526365 16.2356
41.86223066180303 16.1579
41.88625497706819 16.1851
41.910094962812 16.1772
41.93393684811168 16.1233
41.95778063445365 16.0338
41.981812625263366 16.0768
42.00566023303407 16.0608
42.029509746323676 16.0126
42.05336116662236 16.0354
42.077400857069705 16.005
42.10125611078846 15.9382
42.12511327600405 15.8472
42.14897235421036 15.8063
42.173019768448455 15.8218
42.19688269209613 15.825999999999999
42.22074753323349 15.8147
42.24461429335818 15.7367
42.268669455600495 15.7559
42.292540073217886 15.6841
42.31641261433284 15.7181
42.34028708044675 15.6528
42.36435001496739 15.6019
42.38822835065557 15.5845
42.41210861586426 15.5576
42.4359908120986 15.5379
42.46006154323262 15.5091
42.48394762115317 15.4848
42.507835634632315 15.5167
42.531912233047436 15.4804
42.55580413732265 15.4075
42.579697981698 15.3618
42.60359376768525 15.3522
42.62767820545945 15.3775
42.65157789440821 15.3489
42.67547952952185 15.2968
42.699383112316 15.2025
42.72347541395347 15.1698
42.74738291190531 15.1976
42.771292362102166 15.2245
42.795203766063516 15.1796
42.819303956130405 15.1507
42.843219287476536 15.0906
42.86713657716324 15.0762
42.89105582671383 15.0036
42.91516392983864 15.0782
42.939087119032166 15.0264
42.963012272677304 14.9876
42.98693939230129 14.9672
43.01105543317513 14.9152
43.034986504731386 14.8915
43.05891954686589 14.8927
43.08285456110972 14.9263
43.10697856448665 14.8737
43.130917542983475 14.7456
43.15485849820081 14.739
43.17880143167367 14.7241
43.20293342237094 14.6907
43.226880332449 14.7516
43.25082922540554 14.6876
43.27496722682525 14.6374
43.29892010567796 14.5954
43.32287497204102 14.5536
43.34683182745632 14.5313
43.370977859791836 14.5141
43.39493871351105 14.5242
43.41890156092628 14.5262
43.44286640358341 14.4368
43.46702049182749 14.4353
43.49098934522816 14.4371
43.51496019852649 14.3839
43.5389330532723 14.3257
43.56309522248204 14.3272
43.58707210044314 14.3132
43.61105098451946 14.2971
43.63503187626491 14.2595
43.659202151562134 14.3067
43.68318707902681 14.2452
43.70717401884041 14.2372
43.731162972560874 14.1518
43.75534137913236 14.1541
43.779334381108384 14.1253
43.803329401683186 14.1347
43.82732644241872 14.092
43.8515130055166 14.0378
43.87551410707659 13.999
43.89951723350145 13.9963
43.923709934595614 13.9461
43.94771713129917 13.9452
43.97172635758096 13.921
43.99573761501002 13.9416
44.0199385169922 13.8868
44.04395385732619 13.8554
44.067971233533086 13.8578
44.09199064718605 13.8452
44.11619977548961 13.8128
44.14022328470671 13.7818
44.16424883610785 13.7802
44.18827643127035 13.7281
44.21249381139513 13.6429
44.236525514814076 13.6705
44.26055926674478 13.6477
44.28459506876863 13.6289
44.3088207262813 13.5525
44.33286064928722 13.5802
44.35690262714919 13.5586
44.38094666145278 13.4944
44.4051806219871 13.4921
44.42922879003185 13.4257
44.45327901929361 13.4178
44.477331311362136 13.4178
44.501573600619416 13.3869
44.525630039221795 13.3905
44.54968854541895 13.3651
44.573937102200176 13.3185
44.5979997645541 13.3606
44.622064499300315 13.3015
44.64613130803592 13.2564
44.67038823869318 13.2373
44.69445921643748 13.2248
44.718532272981385 13.2092
44.742607409926194 13.1842
44.76687274034801 13.152000000000001
44.79095205918753 13.134
44.81503346325094 13.0876
44.839116954143876 13.082
44.86339071028742 13.0568
44.88747839599524 13.0267
44.91156817336837 13.0297
44.93566004401666 12.9811
44.959942251908146 12.979000000000001
44.984038330325966 12.9614
45.00813650686762 12.9132
45.03223678314731 12.8636
45.05652746888232 12.7979
45.08063196592069 12.7859
45.104738567558705 12.8371
45.128847275414856 12.8179
45.15314646515866 12.765
45.17725940679741 12.7387
45.20137445952892 12.735999999999999
45.22568004865265 12.7139
45.24979934496396 12.661
45.27392075725247 12.6679
45.29804428714431 12.6143
45.322358426247604 12.6265
45.346486212804315 12.6141
45.370616121861914 12.5858
45.39474815505086 12.5652
45.41907087049246 12.5121
45.4432071734666 12.5159
45.46734560548283 12.5594
45.49148616817604 12.5143
45.51581748638564 12.4681
45.5399623320197 12.4036
45.56410931325473 12.3978
45.58825843173002 12.4009
45.61259837920865 12.3596
45.636751793816 12.3559
45.66090735060093 12.2708
45.68506505120716 12.2851
45.7094136545275 12.2177
45.73357566449271 12.2138
45.75773982322992 12.2577
45.78190613238733 12.175
45.806263418194064 12.192
45.83043404997326 12.1625
45.85460683713677 12.1564
45.87897065658495 12.0771
45.90314777634752 12.0502
45.92732705646868 12.0715
45.9515084986045 12.034
45.97588104735473 12.0212
46.00006683541565 11.9669
46.02425479047904 11.9542
46.04844491420549 11.9496
46.0728262191024 11.9429
46.09702070211635 11.9421
46.12121735879483 11.9484
46.14541619080294 11.937000000000001
46.169806278764455 11.9258
46.194009483459034 11.8732
46.21821486849841 11.8219
46.24242243555223 11.7717
46.266821333570014 11.7518
46.29103328674601 11.745999999999999
46.31524742696538 11.704
46.33946375590237 11.7264
46.36387149104216 11.6933
46.38809221957392 11.6724
46.41231514186606 11.6697
46.436540259597464 11.6554
46.460956858999374 11.6292
46.48518638983522 11.5762
46.509418121166966 11.5833
46.533652054678114 11.5616
46.55807754555709 11.5301
46.58231590571962 11.5355
46.60655647313217 11.4731
46.630988654873654 11.4459
46.655233659129024 11.4048
46.67948087571551 11.439
46.70373030632484 11.3836
46.72817142736393 11.3713
46.752425308428684 11.3812
46.77668140861147 11.2885
46.80093972960865 11.2547
46.82538981736788 11.2909
46.849652602470904 11.2213
46.87391761349769 11.2359
46.8981848521493 11.217
46.9226439341274 11.2281
46.946915650573224 11.1732
46.97118959976749 11.1622
46.99546578341598 11.1446
47.019933887188216 11.144
47.04421456235744 11.0611
47.06849747711879 11.1131
47.09278263318286 11.0433
47.11725978640143 11.0385
47.14154944775105 11.0101
47.165841355555656 10.9916
47.1901355115306 10.9668
47.214621741924994 10.9307
47.23892041698887 10.9324
47.26322134538975 10.8892
47.28771440635075 10.9167
47.31201986422527 10.8934
47.33632758061436 10.8423
47.360637557241866 10.8277
47.38513974410611 10.8034
47.40945426407847 10.7942
47.43377104948137 10.7921
47.45809010204344 10.7489
47.48260144275502 10.7409
47.506925052572285 10.7192
47.53125093475548 10.6905
47.55557909103813 10.7072
47.58009961361992 10.6578
47.60443234110732 10.65
47.62876734791564 10.637
47.65310463578333 10.5613
47.6776343683373 10.5345
47.7019762413987 10.5515
47.72632040075572 10.5306
47.75066684815169 10.5048
47.77520581885936 10.4691
47.799556865477655 10.4932
47.823910205386 10.4655
47.84826584033272 10.4197
47.87281407745551 10.3672
47.89717432569297 10.4108
47.92153687423484 10.3891
47.94609208429692 10.3764
47.97045925671401 10.387
47.99482873471275 10.3307
48.01920052005013 10.2992
48.04376504619224 10.2549
48.068141469543484 10.2785
48.09252020552573 10.2888
48.11690125590099 10.2271
48.1414751266064 10.2595
48.16586082917454 10.2116
48.19024885144316 10.1589
48.2146391951793 10.1205
48.239222439012764 10.1523
48.26361744916137 10.1524
48.28801478610016 10.1382
48.31241445160131 10.1151
48.337007097209366 10.0689
48.36141144338331 10.0371
48.38581812345755 10.0225
48.41022713920929 10.0613
48.434829215320704 10.0095
48.45924292604658 9.97081
48.48365897780325 9.97317
48.50807737237308 9.97862
48.532688907799276 9.95096
48.55711201168574 9.93985
48.581537463754074 9.880989999999999
48.60615611725119 9.91809
48.63058628942721 9.88942
48.65501881516546 9.85477
48.6794536962573 9.817210000000001
48.70408185970339 9.82704
48.72852147531801 9.762889999999999
48.75296345168211 9.75719
48.77740779059232 9.76913
48.80204549302823 9.78745
48.82649458091802 9.73356
48.85094603676547 9.69694
48.87539986237231 9.70435
48.90004713292306 9.68483
48.92450572200832 9.6338
48.94896668628025 9.612810000000001
48.97343002754588 9.58319
48.99808689542115 9.55815
49.02255501470614 9.58559
49.04702551642794 9.557269999999999
49.0714984023988 9.54003
49.096164896893235 9.5259
49.120642575466796 9.47638
49.145122643748394 9.45583
49.16960510355558 9.45588
49.19428125404938 9.4621
49.2187685210852 9.42756
49.243258185121555 9.42014
49.26794160167084 9.392439999999999
49.2924360839405 9.37695
49.31693296869764 9.373339999999999
49.34143225776915 9.33838
49.36612538195438 9.28303
49.39062950396021 9.28111
49.41513603578346 9.26395
49.4396449792564 9.288
49.46434784069503 9.23374
49.488861631846454 9.23695
49.513377840166804 9.236089999999999
49.537896467493745 9.193660000000001
49.56260909589029 9.13441
49.587132585683285 9.14299
49.611658500018365 9.1235
49.636186840738596 9.1345
49.66090926588511 9.11544
49.685442483902584 9.09843
49.70997813385706 9.03956
49.734516217597076 9.03324
49.75924846937352 9.03553
49.7837914452858 9.0411
49.80833686055187 8.993910000000001
49.83288471702571 8.96456
49.85762682540054 8.986239999999999
49.882179588965734 8.974
49.9067347993235 8.92928
49.93129245833333 8.894630000000001
49.95604445336378 8.948830000000001
49.98060703442832 8.88239
50.005172069746266 8.87613
50.02993150438364 8.83805
50.05450147301533 8.8348
50.07907390151433 8.830060000000001
50.10364879174981 8.7873
50.12841816587289 8.76422
50.1529980044635 8.75153
50.17758031042124 8.73484
50.20216508562089 8.73505
50.22694442953363 8.71442
50.25153416817468 8.692919999999999
50.27612638170508 8.66773
50.300721072005196 8.67115
50.325510416102105 8.64756
50.350110084975064 8.58799
50.37471223628208 8.57784
50.39931687190919 8.56955
50.424116246675766 8.55632
50.44872587605249 8.538789999999999
50.47333799543065 8.55425
50.49795260670191 8.507819999999999
50.52276204271512 8.47208
50.54738166295838 8.46597
50.57200378079314 8.46048
50.596628398116835 8.43688
50.62144792604559 8.445780000000001
50.646077567609396 8.42763
50.670709714377715 8.42682
50.69553683636198 8.389339999999999
50.72017401885922 8.34373
50.7448137122895 8.35494
50.76945591856022 8.36459
50.79429318636823 8.32494
50.818940443716784 8.30749
50.84359021965163 8.29248
50.868242516085964 8.2891
50.893089960641895 8.2823
50.917747323549435 8.23677
50.94240721271973 8.228819999999999
50.96706963007175 8.23679
50.99192728239342 8.210239999999999
51.01659478166073 8.208960000000001
51.04126481489051 8.176160000000001
51.06593738400761 8.14356
51.090805275207074 8.122489999999999
51.11548294172845 8.09945
51.14016314993547 8.10742
51.164845901758845 8.09527
51.18972406304274 8.09123
51.21441192780656 8.03077
51.23910234200271 8.02235
51.2637953075678 8.00114
51.288683770237945 7.97576
51.31338186432707 7.96842
51.33808251561888 7.98774
51.362978729967345 7.9642100000000005
51.387684521509755 7.93837
51.41239287610203 7.90799
51.437103795691165 7.911580000000001
51.46201036644977 7.89809
51.486726441956634 7.86198
51.51144508832545 7.884710000000001
51.536166307509156 7.8223899999999995
51.56108326624387 7.866510000000001
51.58580965706056 7.83396
51.61053862657523 7.82591
51.635270176746864 7.79166
51.66019755512065 7.739330000000001
51.68493429268881 7.71857
51.70967361681515 7.7337
51.73441552946465 7.72237
51.759353359237934 7.70297
51.7841004750961 7.7100100000000005
51.80885018539685 7.692080000000001
51.833602492111254 7.64542
51.8585508051424 7.64732
51.883308330926425 7.61282
51.90806845906181 7.61256
51.932831191525715 7.55213
51.95779001977161 7.5727899999999995
51.98255798721516 7.5418
52.00732856494335 7.49672
52.03229530577543 7.505389999999999
52.057071130455945 7.5093
52.081849571391054 7.472810000000001
52.106630630568695 7.450989999999999
52.13160794279417 7.465839999999999
52.15639426492067 7.47721
52.18118321127822 7.452319999999999
52.205974783860896 7.3961
52.23096269971011 7.39435
52.255759551287994 7.390689999999999
52.280559035098186 7.366389999999999
52.30536115314103 7.355360000000001
52.33035970494467 7.336939999999999
52.35516711807904 7.326510000000001
52.37997717147198 7.29892
52.40478986713005 7.319030000000001
52.42979908731974 7.25299
52.454617094216 7.2259
52.47943774942214 7.23342
52.50426105495102 7.220219999999999
52.529280976059844 7.1889899999999995
52.554109609024096 7.1932
52.57894089837482 7.2217199999999995
52.60377484613117 7.1966
52.62880550079408 7.16327
52.65364479223379 7.15493
52.67848674816189 7.12369
52.70352547971946 7.12706
52.72837279155837 7.12525
52.753222773982785 7.0800600000000005
52.778075429022984 7.036460000000001
52.80312495150885 7.02883
52.827982978797436 7.02345
52.85284368481815 7.03522
52.87770707160767 7.01088
52.90276741793998 6.994110000000001
52.92763619336701 6.9742
52.952507655698504 6.9558800000000005
52.977381806977576 6.94647
53.00245301017842 6.94517
53.02733256653592 6.910489999999999
53.052214817996074 6.88765
53.077099766608484 6.851789999999999
53.102181859804446 6.87288
53.127072229988265 6.86788
53.15196530349892 6.848839999999999
53.17686108239249 6.792860000000001
53.20195409881522 6.822430000000001
53.22685531582556 6.7960199999999995
53.25175924441303 6.742780000000001
53.27666588664027 6.77818
53.30176985962693 6.726439999999999
53.3266819565689 6.7511399999999995
53.35159677336455 6.77787
53.376514312083096 6.71793
53.40162927507703 6.720610000000001
53.42655228516116 6.68637
53.45147802340193 6.6547
53.47660125628886 6.64427
53.50153247842639 6.65826
53.52646643496923 6.621010000000001
53.55140312799818 6.5953800000000005
53.576537409691696 6.56434
53.60147960336152 6.56073
53.626424539786164 6.60545
53.65137222105307 6.53301
53.67651758529126 6.556760000000001
53.70147078399681 6.54662
53.72642673383343 6.52715
53.75138543689533 6.47438
53.776541917524526 6.48137
53.801506154876755 6.45951
53.826473151763246 6.45441
53.851442910284916 6.413819999999999
53.87661054126026 6.41694
53.9015858509782 6.409330000000001
53.92656392866066 6.41873
53.95154477641532 6.41574
53.976723591801296 6.36945
54.00171000771266 6.36265
54.02669920004598 6.348730000000001
54.051691170915745 6.31114
54.076881204886796 6.34638
54.101878760928514 6.33622
54.12687910187696 6.30762
54.152077577768296 6.2401599999999995
54.1770835166946 6.26308
54.20209224691339 6.2618
54.22710377055121 6.2348300000000005
54.25231352511594 6.18995
54.27733066384342 6.1946699999999995
54.30235060239643 6.17326
54.32737334290836 6.16254
54.35259441062629 6.133290000000001
54.377622783395324 6.082000000000001
54.40265396455061 6.09816
54.42768795623251 6.07555
54.45292037169559 6.09225
54.477960012857906 6.08386
54.50300247099511 6.0231699999999995
54.52804774825457 6.00358
54.55329154616743 6.01056
54.57834249018678 6.02341
54.6033962597977 5.97229
54.6284528571545 5.95213
54.653708072335164 5.8920900000000005
54.67877035378786 5.89806
54.70383546947698 5.8397
54.72890342156389 5.84399
54.7541700889442 5.81635
54.77924374251975 5.78495
54.8043202390049 5.76202
54.82959552413022 5.7159699999999996
54.8546777351945 5.7435599999999996
54.87976279569621 5.70657
54.90485070780914 5.72505
54.930137506558005 5.68391
54.95523115074295 5.723669999999999
54.98032765308844 5.64556
55.005427015775496 5.57402
55.03072536339621 5.63622
55.05583047570572 5.567080000000001
55.080938454927676 5.58381
55.10604930325027 5.56033
55.131359235107396 5.56901
55.15647585066083 5.4865
55.181595341907496 5.4724699999999995
55.20671771104285 5.46319
55.232039262617704 5.42123
55.25716741665048 5.42357
55.28229845518636 5.3727
55.30743238042802 5.35166
55.33276558731939 5.3341400000000005
55.357905315183636 5.2946599999999995
55.383047936390035 5.30106
55.40819345314859 5.26089
55.433538351073295 5.28731
55.458689688238415 5.18875
55.483843927614096 5.21205
55.509197623043605 5.16135
55.53435769621134 5.1359699999999995
55.55952067826466 5.06576
55.5846865714265 5.10346
55.61005202069737 5.08373
55.63522376553902 5.06573
55.66039842818645 4.99798
55.68557601087004 4.98594
55.7109532500271 4.94751
55.73613670233794 4.99712
