TT I
1.2716486653135266 7.05047
1.2939594142134223 6.7018
1.3162702121660406 6.47982
1.3385810600174564 6.62696
1.3608919586137629 6.33365
1.383202908801069 6.291519999999999
1.405513911425503 6.07681
1.4278249673332093 6.354419999999999
1.4501343378461518 6.39605
1.4724455028545926 6.3590599999999995
1.4947567236847858 5.50212
1.517068001182951 6.01955
1.5393793361953272 5.32106
1.5616907295681737 5.69857
1.5840021821477681 5.37673
1.60631369478041 4.80955
1.6286252683124185 4.84002
1.6509369035901333 5.26647
1.6732468618895553 5.173109999999999
1.695558623192809 4.81387
1.7178704487808514 5.41642
1.7401823395001077 4.629
1.7625012545597203 4.75327
1.7848028405262486 4.730169999999999
1.8071218901122095 4.439030000000001
1.8294236121921872 4.51133
1.8517427996910911 4.25137
1.8740620574440425 4.42101
1.8963639900671978 4.5862099999999995
1.9186833908139995 4.262490000000001
1.9409854680117449 5.028490000000001
1.9633050151394713 5.09411
1.9856246367570705 4.74682
2.0079269371922672 4.4309400000000005
2.03024671027244 3.9652199999999995
2.0525491637446027 4.53867
2.074869091674931 4.20786
2.097171701569106 4.56148
2.1194917877373847 4.98221
2.141811954326636 4.835369999999999
2.164114805233074 4.65302
2.186435135143035 4.784009999999999
2.208738150935709 8.29837
2.231058647554722 14.6428
2.2533792288321184 11.4041
2.275682498336085 6.86482
2.298003251406138 5.54096
2.3203066942619714 5.57028
2.3426276225136022 5.26468
2.3649486396617507 4.8327800000000005
2.387252348930071 5.41476
2.4095735463442893 5.60887
2.4318774374315884 6.33028
2.4541988185014043 6.14655
2.476502894794693 6.65215
2.498824462909887 7.019480000000001
2.521146125856138 7.30456
2.5434504863470337 7.24498
2.5657723414244717 7.21208
2.588076895590662 8.19663
2.610398946189713 7.95475
2.6327210958598384 8.13385
2.6550259469304716 8.51343
2.6773482972090137 8.3434
2.6996533504259 7.87369
2.7219759047039602 8.15627
2.744298562293959 8.586089999999999
2.7666039251246595 8.00496
2.7889267918020164 8.27089
2.8112323652516555 8.76961
2.833555444408179 8.342039999999999
2.8558786311183852 8.074019999999999
2.8781845268938557 9.18113
2.9005079311721484 9.03759
2.9228140460410397 8.381039999999999
2.9451376712799635 9.66416
2.967444008632326 9.50423
2.9897678582247247 10.0471
3.0120918213106695 10.8924
3.0343984987899373 10.6443
3.0567226913198637 11.0017
3.079029599759726 11.2897
3.101354025127254 12.2062
3.123678568232338 12.7365
3.145985829517914 12.9964
3.16831061055229 13.8349
3.1906181112775593 14.4612
3.212943133635653 14.8357
3.2352682779763207 14.9662
3.2575761442691227 14.8797
3.2799015350264273 15.4398
3.302209649240067 15.907
3.3245352898092655 16.4441
3.3468436553365257 16.9901
3.369169549113219 17.4607
3.3914955708171384 18.4164
3.413804319727358 19.1073
3.4361305997334863 18.839000000000002
3.4584396084414553 18.9273
3.4807661501462652 19.4245
3.503092824025881 20.5251
3.5254022288463154 20.458
3.5477291695206588 21.1607
3.5700388426251948 21.7228
3.5923660534916446 22.7761
3.6146934007816114 29.6163
3.637003482731501 49.3921
3.6593311053109985 52.0061
3.681641464033634 36.9727
3.7039693653009733 26.6722
3.726297407241705 25.3332
3.7486081875460804 25.0099
3.7709365132734978 25.4723
3.793247578841633 26.2562
3.8155761917550093 26.3193
3.8378875459837216 26.3205
3.8602164494827234 26.7918
3.882545499606844 27.9735
3.9048572932539183 28.6471
3.9271866390645718 29.076
3.9494987298666713 29.2335
3.971828374764527 29.9565
3.9941581705403255 30.684
4.016470713506008 31.1928
4.038800813471445 31.7943
4.061113662089144 32.448
4.0834440696459176 33.1527
4.105774632334751 33.2783
4.128087945865126 34.2382
4.150418821249301 34.37
4.172732448931298 35.7144
4.195063640413578 36.3572
4.2173775856475215 38.839
4.239709096631102 54.1346
4.262040768704612 120.704
4.284355196706267 152.695
4.306687193387355 106.963
4.329001947444346 56.6413
4.35133427213731 43.6823
4.373666762177566 42.6388
4.395982011761091 43.034
4.418314834921175 44.1579
4.44063041906622 48.2846
4.4629635787515625 53.2956
4.4852969080429785 53.5231
4.5076130004776225 52.8533
4.529946671403969 57.1391
4.552263106909177 60.7383
4.574597122877047 57.5996
4.596931312711224 54.1648
4.619248269273446 53.2636
4.6415828092605835 54.0422
4.663900117405352 54.9472
4.686235010953232 56.7713
4.708552674085913 57.974
4.730887924602802 59.1888
4.753223354952695 61.3314
4.775541557023902 64.8271
4.797877349456786 68.023
4.820195915032126 68.6562
4.842532072957498 68.4405
4.864868414979744 70.4181
4.88718753227192 74.9657
4.909524244902505 76.1062
4.931843734218147 76.6153
4.954180820867835 77.8939
4.976518095879839 80.7158
4.998838149695359 83.4129
5.021175803844231 86.8353
5.043496238205739 90.0712
5.065834274903528 94.2921
5.088172504230693 99.3591
5.1104935158799565 105.83
5.132832132875765 124.117
5.155153533596801 156.138
5.1774925416746225 196.62599999999998
5.199814334878411 399.324
5.2221537374521505 1021.57
5.244493338631803 2884.79
5.266815727034316 7986.56
5.289155727832427 12487.0
5.311478517248165 8161.76
5.333818921080011 2468.57
5.356159527788849 480.30199999999996
5.3784829252032536 190.993
5.400823940070432 152.028
5.423147747031976 129.653
5.445489173474152 118.641
5.467830807066149 118.391
5.490155234831516 119.11
5.512497285125229 111.818
5.534822130975162 105.63600000000001
5.557164601388673 101.556
5.579489868738879 98.2635
5.601832762690846 97.2887
5.6241758697774475 96.3722
5.646501775867269 95.2685
5.668845311622074 94.5527
5.691171647754637 93.3861
5.713515615597765 92.7392
5.735859800852677 92.4159
5.758186788542988 93.9242
5.780531411018185 97.2012
5.802858837297399 97.7208
5.825203900414495 97.5075
5.8475491852224 100.71
5.869877275883075 100.435
5.892223006467101 96.2916
5.914551544266608 94.6659
5.936897724049891 96.9949
5.959244129804903 103.87299999999999
5.981573344815301 131.15200000000002
6.0039202049061 239.303
6.026249875609095 475.20099999999996
6.04859719346037 964.985
6.070927323278297 2247.56
6.093275102315365 4602.28
6.115623113320588 5224.95
6.137953938319995 2997.92
6.160302415650845 864.8839999999999
6.182633708324452 206.56599999999997
6.2049826554078376 107.081
6.227331838745022 89.2286
6.249663839443684 82.3456
6.27201349767565 79.6178
6.294345974611799 80.8325
6.316696111167083 83.8966
6.339046488263839 80.6847
6.361379686074702 73.7217
6.383730546639482 70.3533
6.406064229255215 69.4148
6.428415576718203 70.5838
6.450749747566656 69.1492
6.47310158535871 66.3805
6.495453669698332 64.5005
6.517788579421056 63.9506
6.540141159237969 63.0062
6.562476565766648 62.3827
6.5848296444934045 62.2948
6.607182974060425 62.2249
6.6295191323281015 62.4309
6.651872965955752 62.8279
6.6742096296068985 72.9626
6.6965639707294615 90.1346
6.71891856698715 89.46600000000001
6.741255995248479 72.2164
6.763611104154477 61.7465
6.785949046381137 58.7705
6.808304671371482 59.1694
6.8306605557940046 60.2001
6.852999275508618 59.6381
6.875355681171544 57.4121
6.897694923437771 56.4301
6.92005185377892 55.7393
6.9423916220322655 55.5071
6.964749080490181 54.6721
6.987106804399774 54.8965
7.009447368180821 55.9271
7.031805625367033 55.6128
7.054146723727803 54.8486
7.076505517631004 54.1958
7.098864581288365 54.4753
7.121206488070854 54.1023
7.143566093607822 54.5854
7.165908543567245 55.6041
7.188268694426048 55.6758
7.2106291193438095 55.1759
7.232972390625943 54.8229
7.255333366030969 60.1382
7.277677189091925 80.7158
7.300038718428332 100.57700000000001
7.322400526130865 91.6864
7.344745183422596 67.8743
7.367107550224791 56.4648
7.389452767901992 54.3554
7.411815697249891 54.0012
7.434161478756298 53.2501
7.456524974096713 53.4128
7.478888753837185 53.5232
7.501235387657368 53.6605
7.523599738562711 53.93899999999999
7.545946944825532 54.1369
7.568311870344528 54.1675
7.5906770845765665 54.5816
7.613025156078678 55.1289
7.635390950099687 56.0502
7.657739602662809 55.8053
7.680105979923558 55.6503
7.702472650212829 56.3927
7.724822180948224 56.0943
7.747189439655568 55.8937
7.769539560075357 55.4798
7.791907410653562 55.9118
7.81425812420825 55.8797
7.836626570110925 56.0059
7.858995315087906 57.1461
7.881346924933401 57.2527
7.903716270417482 57.7389
7.926068482028405 58.3022
7.948438431475253 58.6696
7.9708086843180235 59.1143
7.993161805171116 60.0157
8.015532667162402 60.29
8.037886398416653 61.711999999999996
8.060257873014221 62.1023
8.082629655331942 62.7159
8.104984308787587 63.6197
8.127356708900503 66.4513
8.149711981398308 70.8303
8.172085002766314 72.5427
8.194458336181368 70.0906
8.216814543847752 68.5562
8.23918850371002 68.8418
8.26154533906492 69.3051
8.283919928836452 70.9426
8.306277395339652 71.9917
8.328652618483376 73.5058
8.351028159736202 75.5468
8.373386579575245 77.9906
8.395762759396959 79.612
8.418121819038275 83.1261
8.440498640894003 90.994
8.462875785192262 102.56700000000001
8.485235811156207 126.624
8.507613602688501 176.715
8.529974277114228 257.717
8.552352719347912 382.164
8.574731488360351 656.898
8.59709314210385 1221.61
8.619472567021075 1948.4
8.64183487789147 2196.61
8.664214962183097 1723.64
8.686577933647762 837.676
8.708958680784317 312.811
8.731339760774953 146.833
8.753703729764451 106.469
8.77608547780821 97.0345
8.798450116065078 93.6185
8.820832535634787 91.7943
8.843215292401656 91.8669
8.865580941199045 91.8265
8.887964374703538 91.4778
8.910330701447199 91.6731
8.932714815164482 91.3524
8.955099270424924 88.9155
8.977466620733543 86.4903
8.999851761421976 84.8771
9.022219798361645 83.6528
9.04460562795561 83.4274
9.066991803441677 83.5781
9.089360876979615 83.9343
9.111747746589993 83.2208
9.13411751544971 82.5238
9.156505082664324 81.6011
9.178875550323522 81.4263
9.20126381862328 81.7182
9.223652438908596 81.6317
9.246023961427412 81.5597
9.26841328802173 81.2347
9.290785518039224 81.809
9.313175554425882 84.3109
9.335565947154315 86.1843
9.357939245086508 86.0064
9.380330352834827 85.6134
9.40270436697103 85.4141
9.425096193225055 84.9869
9.447488380180165 84.8951
9.469863475295412 84.3281
9.492256385987508 84.3336
9.514632206018318 84.6648
9.537025843935714 85.5569
9.559402392368193 86.3229
9.581796761000229 88.70200000000001
9.604191496441521 90.9201
9.626569144158516 93.8233
9.648964615551032 95.1963
9.671343000390081 94.7173
9.693739211225699 93.0784
9.716135793237463 92.1775
9.738515290448102 92.4268
9.760912617143402 94.3727
9.783292860202891 96.6865
9.805690935076182 98.8383
9.828089385495742 99.6652
9.850470754023561 100.669
9.872869957865444 104.11
9.89525208097539 111.523
9.917652041736662 118.885
9.940052382417589 126.321
9.962435644102392 150.356
9.984836746950979 189.73
10.007220771957746 245.782
10.029622640473708 343.199
10.052007432299963 521.4630000000001
10.074410069984072 837.436
10.096813093716005 1320.2
10.119199042482517 1824.54
10.141602840636468 2002.75
10.163989564971628 1512.37
10.186394141051062 811.84
10.208799107559706 347.394
10.231187001965623 169.227
10.253592751657669 119.72
10.275981430388155 109.865
10.298387966769793 108.54
10.320794897965431 108.854
10.343184759907361 107.118
10.36559248305461 104.693
10.387983138083852 104.65299999999999
10.410391656691655 110.645
10.432800574501677 121.40700000000001
10.455192425893369 136.14700000000002
10.47760214443012 162.533
10.499994797678786 209.137
10.522405320453982 294.195
10.54479877906917 426.27099999999996
10.567210109595656 537.9580000000001
10.5896218454736 577.696
10.612016518879773 487.24699999999996
10.634429067781074 321.457
10.656824555333241 183.97799999999998
10.679237920773568 115.715
10.701651695961992 93.9252
10.724048411481384 87.9558
10.746463008485165 85.2229
10.768860546937125 83.9989
10.791275969274796 82.3682
10.81369180576079 81.2821
10.836090585366925 80.4239
10.858507252467449 79.1846
10.88090686379991 78.24
10.903324365036394 77.5014
10.925724811614439 77.47
10.948143150509463 78.3968
10.970561909719066 77.7008
10.992963615930844 76.5129
11.015383218085756 74.7941
11.037785768347074 72.8732
11.06020621697282 72.3278
11.082627090322113 71.4431
11.105030913430326 70.893
11.12745263854165 70.6449
11.149857314510728 71.6776
11.172279894912576 73.7648
11.194702904450653 73.4601
11.217108866490921 71.7857
11.239532736615194 70.0452
11.26193956033512 68.6512
11.284364294577085 67.7167
11.306789462371718 66.7239
11.329197585398376 66.006
11.351623622610898 66.2527
11.37403261614354 65.6286
11.396459526308487 65.3466
11.418869393879497 64.969
11.441297180532617 64.4659
11.463725406927658 64.0034
11.486136592353875 63.8889
11.508565700543707 64.1008
11.530977768845315 64.8013
11.553407762368774 64.5668
11.575838200059769 64.4439
11.598251599479612 63.4697
11.620682927815501 63.1088
11.64309721895548 62.9815
11.665529441478206 62.4367
11.687962112597958 61.7772
11.710377748130886 62.29600000000001
11.732811318753434 62.3084
11.755227854859067 62.4257
11.777662328529495 61.8975
11.800079768750786 61.8568
11.822515149015453 61.8685
11.844950984084935 62.563
11.867369787303163 61.9027
11.889806534289491 61.6674
11.912226250487029 62.2291
11.934663912939751 62.3525
11.9571020346363 62.396
11.979523127133968 62.5081
12.001962169624331 63.7335
12.024384183972964 65.3184
12.046824150809913 68.2641
12.069264581333726 72.1901
12.091687985297767 77.9768
12.11412934550045 86.9954
12.136553680195208 102.744
12.158995973632788 128.691
12.181438735204349 160.247
12.20386447284199 194.138
12.226308172985636 216.24099999999999
12.24873485024193 203.65400000000002
12.271179492516982 164.90400000000002
12.293607112949127 117.70100000000001
12.316052700916226 86.8768
12.338498763250042 71.8177
12.360927805303868 66.1178
12.383374818673879 64.3998
12.405804812803074 63.4051
12.428252780773262 63.0994
12.45070122756722 63.4803
12.473132656675375 63.736000000000004
12.49558206341869 64.2545
12.518014453510101 64.3197
12.540464823770117 64.5846
12.562915677315177 64.3006
12.58534951575545 64.4857
12.607801338171472 65.2897
12.630236146511358 67.4802
12.652688941369085 69.6064
12.675124723177234 70.5249
12.697578494048786 68.7702
12.720032754458185 67.4683
12.742470003354093 66.8166
12.764925245138771 66.8669
12.787363476431278 67.3356
12.809819703166806 67.9033
12.83227642391173 68.5639
12.854716135692716 69.0322
12.877173846755147 70.1146
12.899614549869717 70.5999
12.9220732548287 71.664
12.94453245827299 72.4374
12.966974655289818 73.2834
12.989434858002571 73.9849
13.011878055298721 74.7372
13.034339260862497 75.4838
13.056800969391883 77.1394
13.079245674017244 79.709
13.101708390774869 83.7972
13.12415410463411 91.9424
13.146617833206086 101.19200000000001
13.169064559883248 111.211
13.191529303857127 125.459
13.213994557076367 149.173
13.236442809902437 188.628
13.258909083908291 248.78599999999997
13.28135835851934 314.04
13.30382565690295 393.156
13.326293469022952 428.1
13.348744283242008 413.13
13.371213125129904 333.165
13.39366497011003 235.02
13.416134845360597 156.594
13.438605238843131 117.649
13.46105863690397 105.18700000000001
13.483530069144786 105.931
13.505984506951902 110.226
13.528456981549432 119.765
13.550929978879088 134.953
13.573385983253365 161.35399999999998
13.595860028340867 201.438
13.618317081455832 258.913
13.64079217790333 316.971
13.663250283359057 364.048
13.685726434770173 374.565
13.708203115221277 328.05800000000005
13.730662806148091 244.64700000000002
13.75314054697177 169.761
13.775601299246777 118.368
13.798080104050406 93.1718
13.820559442405358 83.7947
13.843021793671388 80.655
13.865502201420897 79.4162
13.887965623051947 79.0412
13.910447103807167 77.9149
13.932929122629764 76.4284
13.955394156785959 75.9444
13.977877254034569 74.9725
14.000343367582113 74.2655
14.022827546871707 73.593
14.045294743423524 73.14699999999999
14.06778000837062 72.2416
14.090265817715476 71.9567
14.112734645763819 71.7706
14.13522154619454 71.1461
14.157691466286913 71.1786
14.180179461423874 70.8103
14.202668005486178 70.6998
14.22513957064374 70.1596
14.247629214846473 69.6736
14.270101881097517 69.3386
14.29259262906496 69.5691
14.315083930490205 69.7436
14.337558255389705 69.6628
14.360050666019726 69.5424
14.382526101071944 69.0913
14.405019624534942 68.5195
14.427513705993134 68.4229
14.449990813291825 68.0868
14.47248601302899 68.1369
14.49496423954951 68.4783
14.517460561197822 68.2863
14.539939910570322 67.9699
14.562437357763558 68.268
14.58493536931253 68.9102
14.607416409993311 69.2997
14.62991555254159 69.7319
14.652397725157423 69.7962
14.674898002342799 70.0511
14.697398848433282 70.1655
14.719882725991326 71.6314
14.74238471217934 73.4179
14.764869730765593 76.6268
14.787372860692983 79.1046
14.809876564079925 82.8916
14.83236330125751 88.8613
14.854868153850365 97.4377
14.877356041159485 111.854
14.899862046604186 132.389
14.922351087688757 160.341
14.944858249632887 189.75
14.967365991421232 218.533
14.989856770231246 229.74099999999999
15.012365673994204 220.013
15.03485761569738 186.863
15.05736768508665 140.39
15.07987833888692 107.34299999999999
15.102372032001655 85.6463
15.124883856909658 74.7678
15.14737872204565 71.1694
15.169891721717274 69.766
15.192405310371893 69.5834
15.214901940621196 69.2395
15.237416709527137 68.6967
15.259914520936249 68.9275
15.282430473753607 68.2716
15.304947020131227 67.0277
15.327446610371178 66.685
15.349964346154254 66.402
15.372465126703139 66.0607
15.394984055556009 66.0857
15.417486030076159 65.5687
15.44000615566487 65.2728
15.462526881230803 64.97800000000001
15.485030653812652 65.4545
15.507552581617434 65.1793
15.530057557334603 65.4307
15.55258069104857 65.1873
15.575104429329837 65.5657
15.597611216864632 65.661
15.620136166564563 66.1173
15.6426441664095 67.7364
15.665170331202765 69.90899999999999
15.687697105158826 72.4818
15.710206930593545 75.4439
15.732734925158933 79.4923
15.755245972089478 85.9723
15.77777519094324 95.5976
15.800287463046663 109.618
15.822817909869592 129.97799999999998
15.84534897229804 152.907
15.867863089299354 177.31400000000002
15.890395385222186 194.71400000000003
15.912910736597423 197.095
15.935444269699861 179.606
15.957978423016485 145.952
15.980495633101265 112.98200000000001
16.003031029129367 88.6321
16.02554948280019 72.3478
16.048086125229432 65.7405
16.070623392487107 63.4574
16.09314371869582 62.2899
16.11568223789321 61.6043
16.13820381691126 61.0239
16.160743591742527 60.4277
16.183283996022084 59.5568
16.205807461423195 58.5561
16.228349126881973 58.2824
16.25087385432698 58.1834
16.27341678466365 57.6294
16.29594277784926 57.3763
16.31848697676433 57.3795
16.341031811604868 57.2762
16.36355971058487 57.1417
16.3861058195587 56.8715
16.40863499352978 56.3053
16.431182380342005 55.758
16.453730407713202 55.3334
16.476261501364792 55.0881
16.498810812136167 54.8001
16.52134319004079 54.923
16.54389378792203 54.8081
16.566445031001553 54.6197
16.588979342490088 54.476000000000006
16.61153187824822 54.2968
16.634067483263312 54.0833
16.656621315414416 53.9944
16.679175797408888 53.7364
16.701713349928728 53.8906
16.72426913389191 54.1825
16.74680798922351 54.2523
16.76936507887444 54.1019
16.791905240734874 54.2986
16.814463639794468 54.0629
16.837022695210294 54.0743
16.859564824093756 54.2718
16.882125194503903 54.5026
16.904668639217885 55.0315
16.927230328348003 54.9707
16.949792678493612 55.0802
16.972338104193863 54.9159
16.994901778652235 54.763999999999996
17.017448529496576 55.0847
17.040013531998152 55.3544
17.06257920018044 56.1044
17.0851279459922 56.7704
17.107694947817667 57.4033
17.130245028099072 58.2273
17.15281336730298 59.5161
17.17536478578733 61.2672
17.19793446610687 63.5992
17.220504818648422 66.8564
17.243058251703697 70.368
17.265629950971032 75.3433
17.288184731571736 80.4367
17.310757781306908 84.2016
17.33333150794385 83.7038
17.355888317140174 80.85600000000001
17.37846339986244 74.8808
17.401021565958885 68.2919
17.42359800851343 63.5428
17.44617513265564 60.5973
17.468735341390783 59.3595
17.491261035594565 58.6085
17.51396340099364 58.3895
17.536490463869136 58.6037
17.559018209820174 58.4739
17.58154663977963 58.674
17.604251766089718 58.7937
17.626781572227713 58.9185
17.64931206518155 59.106
17.671843245885103 59.5094
17.69455114821572 59.6624
17.717083712612634 60.0557
17.739616967569667 60.2871
17.762150914021706 60.6782
17.78486160749854 60.95
17.807396945166804 61.9815
17.829932977143503 63.2454
17.85246970436452 64.5676
17.875183204129467 66.1957
17.897721330097664 67.7437
17.920260154126645 69.94800000000001
17.942799677153296 73.1599
17.9655159983646 77.0092
17.988056927677544 82.4364
18.010598558807683 91.1752
18.033140892692916 101.74
18.05586005052525 113.56700000000001
18.07840379824407 125.586
18.10094825154059 136.268
18.12366954819864 141.286
18.146215420998306 138.059
18.16876200220057 126.50399999999999
18.191309292745153 111.78200000000001
18.214033452627167 98.4219
18.236582170236648 88.5705
18.259131600016456 84.8334
18.281681742907335 85.9636
18.304408781233683 91.2771
18.32696035875955 96.7684
18.349512652227624 101.932
18.372065662579683 105.59100000000001
18.394795594587553 105.18799999999999
18.41735004715306 99.8062
18.43990521943684 91.725
18.46246111238171 82.2953
18.485193953325208 73.8979
18.507751296070428 67.5734
18.530309362314178 64.4223
18.552868153000343 62.4176
18.57560391815056 61.2776
18.59816416623245 60.9068
18.620725141597372 60.4647
18.643286845190268 60.1963
18.666025549835414 59.6534
18.688588718427933 59.1596
18.711152618092243 59.0003
18.73389353884365 58.7057
18.75645890921984 58.3242
18.77902501351406 58.0692
18.801591852673102 58.2545
18.824335739722738 57.6532
18.846904057212626 57.4145
18.8694731124168 57.1116
18.89204290628315 57.1228
18.914789774966803 57.0713
18.937361054791623 56.4666
18.959933076131318 56.3762
18.982505839934877 56.3442
19.00525570560582 56.43600000000001
19.027829963004184 56.2869
19.05040496572238 56.2308
19.072980714710468 56.4287
19.095733592739563 56.6339
19.11831084296757 56.6463
19.140888842324735 56.916000000000004
19.16346759176222 57.1556
19.18622349753803 57.6354
19.208803755869358 58.6733
19.231384767143577 60.1436
19.253966532312948 61.937
19.276725481241822 63.9498
19.29930876296784 66.6757
19.3218928014549 69.6815
19.34465404436217 72.6748
19.36723960516257 75.3254
19.389825925592426 75.6846
19.412413006605938 74.3983
19.43517731967805 69.9992
19.457765930683355 65.4597
19.48035530514408 60.8184
19.50294544401556 57.6371
19.525712842708348 55.3212
19.54830451925909 54.262
19.570896963095727 53.5143
19.593490175174704 53.25899999999999
19.616260674962184 53.1443
19.638855432416964 52.8963
19.661450960992624 53.0372
19.68404726164677 52.9925
19.706820878021247 52.6482
19.729418731756834 53.0182
19.752017360452857 52.7211
19.77461676506804 52.9554
19.797393513540218 53.1595
19.819994478951667 53.3757
19.84259622316767 53.8024
19.8651987471481 54.0346
19.887978643247177 54.3568
19.91058273574792 54.6422
19.933187610901943 55.8332
19.955969879466828 56.8983
19.97857632894404 58.475
20.00118356396599 60.573
20.023791585494575 62.7139
20.046577028914875 65.5984
20.069186632506966 67.7891
20.091797025500632 69.5715
20.114408208858933 69.8025
20.137196842715273 69.0687
20.159809615886765 66.9557
20.18242318232135 64.3355
20.20503754298326 62.2727
20.227829382875154 61.4364
20.250445341109344 61.68899999999999
20.27306209647285 62.7277
20.29567964993108 64.0103
20.31847471147704 64.7985
20.34109387027612 65.3412
20.363713830075454 64.5462
20.386334591841646 62.5662
20.409132890679302 59.8644
20.431755265564437 56.7037
20.454378445325528 54.0109
20.477002430930366 52.4493
20.499803982716553 51.2037
20.522429589228004 50.4764
20.54505600449589 50.1817
20.567683229489194 50.0465
20.590488049900088 49.7868
20.61311690359731 49.566
20.63574656993626 49.4201
20.658553853717297 49.0741
20.681185154618298 49.1208
20.703817271080066 49.0274
20.72645020407368 48.7518
20.749260783967177 48.6418
20.771895359337133 48.5842
20.794530754161617 48.3615
20.817166969412938 48.2781
20.83998086114876 48.3426
20.86261872660049 48.2682
20.885257415405402 48.1499
20.90789692853701 48.1364
20.930714147864748 48.0217
20.953355319030678 48.0695
20.97599731745334 48.3992
20.99864014410749 48.1762
21.021460706796564 48.0442
21.044105199328826 48.0965
21.06675052302631 48.4493
21.089396678865015 48.5574
21.112220600704806 48.8675
21.134868430275347 49.2353
21.15751709492456 49.629
21.180166595629693 49.9702
21.202993892429635 50.603
21.22564507473034 50.8462
21.24829709602816 51.0906
21.27112693608965 51.0218
21.293780644891275 51.0037
21.316435195634053 50.1256
21.339090589297417 49.3411
21.361923832041875 48.8621
21.384580921090404 48.327
21.407238856007325 47.8973
21.429897637773326 47.7539
21.45273429906592 47.9852
21.475394784108598 47.943999999999996
21.498056118951983 48.0404
21.520718304578022 48.0311
21.543558400304388 48.2821
21.566222297108816 48.4662
21.58888704765135 48.5685
21.61155265291521 49.0367
21.63439619898156 49.4358
21.657063523335786 49.4006
21.67973170537063 49.7989
21.7024007460706 50.41
21.72524775840385 51.1365
21.747918526116475 52.1869
21.770590155457388 53.5281
21.79326264741238 55.1952
21.816113141960237 57.0793
21.838787368860547 59.1859
21.861462461341976 60.9028
21.884315579735777 62.9348
21.90699241312273 63.6601
21.92967011506078 63.992
21.95234868653799 63.2958
21.9752053151131 61.8221
21.997885635446785 59.6975
22.020566828293532 57.7921
22.04324889464272 56.6784
22.066109049404666 55.861999999999995
22.088792872571794 55.5358
22.111477572219204 55.8019
22.1341631493376 55.7547
22.157026846313123 55.2758
22.179714188221507 54.4614
22.202402410582668 53.1869
22.22509151438863 51.7043
22.24795876962584 50.2949
22.270649646204486 49.573
22.293341407213727 49.0873
22.316034053646906 48.6653
22.338904883215342 48.5144
22.36159931041458 48.4491
22.38429462602756 48.2732
22.40699083104897 48.0573
22.429865251039757 48.0044
22.452563244831367 48.2267
22.47526213102522 48.1256
22.49813925616515 48.0819
22.520839937143307 48.093999999999994
22.543541513520587 48.0732
22.56624398629403 47.803000000000004
22.589124730075895 47.9323
22.611829005656723 48.1833
22.63453418063466 48.1018
22.657240256008077 48.4127
22.680124634582935 48.5087
22.70283252079775 48.5774
22.725541310413075 48.9474
22.74825100442868 49.2958
22.771139033969575 49.7919
22.79385054687155 49.9437
22.81656296718292 50.7249
22.83927629590484 51.6982
22.862167992606945 52.7861
22.88488314827121 53.9642
22.907599215359284 55.2439
22.93031619487366 56.239
22.953211574954405 57.045
22.975930389478226 57.6337
22.998650119445763 57.4835
23.02137076586092 56.411
23.044269845560063 55.0452
23.06699233506288 53.2505
23.089715744034912 51.4301
23.112617610931565 50.2116
23.135342869061212 49.0109
23.158069049684816 48.3198
23.1807961538087 48.1483
23.20370174880544 48.2894
23.226430710184808 48.4419
23.249160598093425 48.2977
23.271891413539002 48.4172
23.294800752937697 48.3115
23.31753343374794 48.548
23.340267045128353 48.5497
23.36300158808808 49.0706
23.38591468821339 49.4412
23.408651104658304 49.805
23.431388455719986 50.4621
23.454126742409 51.2945
23.4770436196085 52.3986
23.499783787914662 53.6892
23.522524894889884 54.8674
23.54526694154616 55.9628
23.56818761219047 56.9303
23.59093154860734 57.3087
23.613676427751283 57.3508
23.636422250635754 56.2742
23.659346731118656 54.4648
23.68209445191868 52.4207
23.704843119509587 50.2379
23.72759273490623 48.608999999999995
23.750521041644767 47.4297
23.77327256312355 46.4904
23.796025035462787 46.0218
23.818956224555475 45.5245
23.841710609113413 45.6114
23.86446594758979 45.2896
23.887222241002014 44.9682
23.910157285144578 44.7354
23.932915498962537 44.7626
23.955674670778713 44.4948
23.978434801611975 44.555
24.001373717286125 44.3485
24.024135776723917 44.1399
24.046898798245582 44.1268
24.06966278287146 43.8792
24.092605586582614 43.6542
24.115371508023642 43.6003
24.1381383956401 43.3808
24.16090625045381 43.5333
24.183852958731244 43.3032
24.206622758582608 43.2325
24.229393528706886 43.1603
24.252165270127392 43.2553
24.27511589952438 43.1151
24.297889594216997 42.9175
24.32066426328598 42.7179
24.34343990775613 42.7981
24.36639447485003 42.6514
24.38917208083877 42.6934
24.41195066531332 42.6782
24.43490819850244 42.6351
24.457688750692377 42.5375
24.48047028445616 42.3771
24.503252800821233 42.5509
24.526214300784112 42.6777
24.548998793132213 42.5906
24.57178427117417 42.5704
24.59457073593893 42.6425
24.617536219319863 42.4312
24.64032466834748 42.5392
24.663114107195035 42.3435
24.685904536893013 42.0917
24.708874020360852 41.9664
24.731666442613744 41.9082
24.754459858818787 41.9269
24.777254270007962 41.935
24.80022777025625 41.7699
24.82302418230472 41.6827
24.845821592443674 41.6745
24.86862000170663 41.6644
24.891597535453727 41.6224
24.914397953892728 41.9013
24.93719937456671 41.803000000000004
24.96000179851076 41.9199
24.98298338249997 42.1396
25.00578782394922 42.4121
25.028593271784167 42.5137
25.05157790644186 42.8899
25.07438537804115 42.8151
25.097193859145293 43.1699
25.120003350792075 43.4028
25.142992065061257 43.7279
25.165803588823465 43.9891
25.18861612625217 44.1623
25.211429678386736 44.2656
25.234422489079968 44.3449
25.257238081693636 44.3599
25.280054692141732 44.4718
25.3028723214652 44.5312
25.325869245420463 44.6401
25.348688923599397 44.4613
25.371509623787006 44.3266
25.394331347025812 44.0747
25.41733240110666 43.549
25.440156181590016 42.7589
25.46298098826268 42.2966
25.48580682216873 41.7169
25.50881202326435 41.2103
25.53163992281684 40.9266
25.55446885274561 40.6765
25.577298814096377 40.458
25.600308179121807 40.3225
25.623140214533745 40.3908
25.64597328451537 40.2947
25.66898578564376 40.0516
25.691820936010206 40.0526
25.714657124097695 40.0474
25.737494350954734 40.0927
25.760511045684957 40.1118
25.783350361364224 40.1388
25.806190718969255 40.0434
25.82903211955018 40.2018
25.852053024868923 40.1171
25.874896522722523 40.2506
25.897741066713106 40.2422
25.920586657892454 40.3009
25.943611790812668 40.351
25.966459487728237 40.4589
25.989308234998564 40.5395
26.01215803367705 40.9451
26.03518741123814 41.1642
26.05803932412957 41.2728
26.080892291600094 41.2794
26.10374631470478 41.266999999999996
26.12677995397268 41.2181
26.14963609978026 41.2216
26.172493304397875 40.9617
26.19535156888223 40.6105
26.218389486949604 40.2755
26.241249882640123 40.0656
26.26411134137826 39.9777
26.28715248187403 39.8381
26.31001607820869 39.5326
26.3328807407756 39.4279
26.35574647063438 39.7616
26.37879191991473 39.7274
26.401659795896734 39.7715
26.424528742360263 39.8891
26.447398760366614 40.1751
26.470448535598294 40.2553
26.49332070826805 40.3731
26.516193955675355 40.6649
26.53906827888316 40.9252
26.562122397260108 41.001000000000005
26.584998883685063 41.4806
26.607876449110325 41.6401
26.63075509460056 41.8048
26.65381357334404 41.8582
26.67669439061878 41.7356
26.699576291163382 41.5231
26.722459276044212 41.4005
26.745522132402975 41.1844
26.768407297649354 40.948
26.791293550442003 40.5725
26.814180891848974 40.4255
26.837248143099337 40.0168
26.860137673466657 40.0221
26.88302829566349 39.7347
26.90592001075963 39.5761
26.92899167420566 39.3623
26.951885586870763 38.9994
26.974780595655517 38.8586
26.99785558178161 38.6901
27.020752794605112 38.5769
27.043651106772522 38.5716
27.06655051935668 38.3521
27.089629948036183 38.4262
27.112531573292053 38.3871
27.135434302194138 38.4532
27.158338135817015 38.2286
27.181422024430987 38.1885
27.204328079372566 38.359
27.22723524226965 38.2275
27.250143514198573 38.1021
27.273231880156334 38.2108
27.296142382065014 37.9857
27.319053996245536 37.9117
27.341966723775965 38.0093
27.365059584515222 38.0375
27.38797455070062 38.1805
27.410890633481237 38.0335
27.433807833936918 38.1481
27.456905206923906 38.1659
27.47982465472398 38.1397
27.502745223449743 38.1672
27.525666914182825 38.3155
27.548768816912457 38.2238
27.571692763693633 38.1075
27.59461783573812 38.0136
27.617723149491244 37.8017
27.640650484125285 37.7008
27.66357894728264 37.6163
27.686508540048052 37.6377
27.709618414237887 37.6295
27.732550278321757 37.538000000000004
27.755483275279115 37.3716
27.778417406196485 37.3852
27.801531858397514 37.4776
27.824468269376716 37.3731
27.847405817586786 37.433
27.870344504116094 37.6757
27.893463551932008 37.8267
27.916404527281053 37.968
27.93934664422563 38.0285
27.962289903855886 38.0499
27.98541356491974 38.3578
28.00835912214229 38.5106
28.03130582533231 38.797
28.054253675581805 38.8864
28.077381967556104 38.78
28.100332124185126 38.6223
28.123283431160893 38.5238
28.146235889577238 38.3707
28.169368830154156 38.1901
28.192323603752033 38.0809
28.215279532083304 37.6809
28.238415973016764 37.4229
28.261374223145094 37.358000000000004
28.284333631303806 37.1713
28.307294198589954 36.9716
28.330435319167677 36.6493
28.353398217078915 36.3751
28.376362277420153 36.2895
28.39932750129032 36.159
28.422473319286713 36.0245
28.44544088262495 36.0173
28.468409612800283 35.9262
28.491379510913497 35.7183
28.51453004413313 35.5637
28.53750229057244 35.5703
28.56047570826344 35.5019
28.583450298308804 35.5243
28.606605564586562 35.3107
28.629582511831156 35.4407
28.65256063474956 35.269
28.675539934446338 35.2673
28.698699951647605 35.2681
28.72168161743193 35.1374
28.74466446331978 35.1025
28.767648490417624 35.1697
28.790813276438353 35.1506
28.813799678527303 35.0972
28.836787265157085 35.1231
28.859955641890075 35.0795
28.882945610203045 35.0024
28.905936766392035 35.0505
28.928929111566863 35.0173
28.952102288520145 34.8935
28.975097024308607 34.7556
28.998092952423807 34.6297
29.021090073977508 34.4322
29.04426806913204 34.3916
29.067267590245258 34.2319
29.090268308143695 34.2542
29.11327022394099 34.2684
29.13645305530891 34.1632
29.159457379627167 34.0794
29.18246290519685 33.9163
29.20546963313352 33.9123
29.22865731875826 34.0378
29.25166646419296 33.9035
29.27467681535305 33.8334
29.29768837335608 34.0349
29.320880931312562 33.9696
29.34389491580634 33.8564
29.366910110507334 33.8925
29.38992651653503 33.9508
29.41312396492981 33.8471
29.436142806456754 33.6809
29.45916286268059 33.6241
29.48236399319994 33.4842
29.50538649169417 33.2794
29.528410208259935 33.2924
29.55143514402014 33.0816
29.574641196749695 33.1103
29.597668583816574 32.9776
29.6206971934585 32.6567
29.64372702680042 32.833
29.666938019934474 32.7489
29.689970313635285 32.6017
29.713003834422636 32.622
29.73603858342347 32.6032
29.759254535188578 32.5855
29.78229175361658 32.4604
29.80533020365064 32.5199
29.82836988641968 32.48
29.85159081507472 32.3467
29.874632976355343 32.3336
29.89767637376955 32.3899
29.920721008448314 32.3046
29.9439469322847 32.2626
29.96699405457564 32.2065
29.9900424175358 32.1834
30.013092022298157 32.1334
30.03632295963995 32.084
30.059375061131373 32.1654
30.08242840783577 32.1607
30.105483000888153 32.1164
30.128718970092244 32.0452
30.151776069006917 32.031
30.17483441768648 32.1344
30.198074175317235 32.0088
30.221135036724256 32.0386
30.24419715131772 32.0059
30.267260520236203 31.9046
30.290505341942243 31.8857
30.313571232750228 32.0074
30.336638381310948 32.0109
30.35970678876503 31.8675
30.38295669299435 31.8197
30.40602763151657 31.8797
30.429099832366074 31.8564
30.452173296685572 31.7897
30.47542830191959 31.805
30.498504306502497 31.8555
30.521581577995562 31.8712
30.544660117543582 31.8707
30.56792024229725 31.9016
30.59100133132069 31.892
30.614083691845494 31.8719
30.637167325018545 31.8947
30.660432587840603 31.9298
30.683518779717886 31.8768
30.70660624769615 31.9817
30.729694992924372 31.8737
30.75296541239743 31.9492
30.77605672557558 31.8511
30.799149319462742 31.7197
30.8224236211637 31.5828
30.845518789950724 31.5081
30.868615242910597 31.5336
30.891712981195973 31.3588
30.91499247215866 31.2836
30.938092794619365 31.2023
30.96119440587579 31.2033
30.984297307082752 31.1305
31.00758200598383 31.0115
31.030687500658694 30.9836
31.053794288760695 30.8694
31.076902371446767 30.739
31.100192296997445 30.9067
31.12330298246119 30.7681
31.14641496599209 30.718000000000004
31.169528248749216 30.7402
31.19282341969534 30.6101
31.215939314557186 30.643
31.239056512134788 30.6507
31.262175013589378 30.5814
31.28547544871168 30.526
31.30859657161541 30.4496
31.331719001892175 30.5434
31.35484274070538 30.6607
31.378148458819545 30.6833
31.401274828443725 30.5878
31.424402510106933 30.5699
31.447712205419993 30.6555
31.470842524931633 30.4607
31.493974159989783 30.5128
31.51710711176168 30.471999999999998
31.54042212308802 30.478
31.563557722100917 30.4363
31.586694641341655 30.3171
31.609832881979628 30.2233
31.63315322823208 30.16
31.656294125521327 30.0477
31.679436347728515 30.0149
31.70257989602529 29.8531
31.725905596152327 29.8745
31.74905181052835 29.741999999999997
31.772199354521323 29.8335
31.79534822930507 29.87
31.818679302290967 29.9148
31.84183085259981 29.8538
31.864983737233473 29.8006
31.88813795736804 29.8009
31.911474422233013 29.6271
31.934631327356435 29.7801
31.9577895715215 29.7866
31.980949155906522 29.7131
32.004291031706956 29.6498
32.027453310562606 29.6221
32.05061693318573 29.4185
32.07396288236386 29.5088
32.09712920658542 29.4545
32.12029687812702 29.1743
32.14346589817093 29.21
32.166817291729984 29.2153
32.18998902288583 29.2056
32.21316210610336 29.0507
32.23633654256711 29.039
32.259693399663725 28.9515
32.282870556771144 28.8223
32.30604907069099 28.7909
32.329228942610065 28.8208
32.35259128243769 28.6222
32.375773884550505 28.6194
32.398957848235646 28.579
32.422143174682176 28.5916
32.445511016471215 28.4643
32.468699082679954 28.4996
32.49188851523011 28.3277
32.51507931531304 28.3262
32.538452678331 28.3696
32.56164622776311 28.2273
32.58484114831493 28.2124
32.60803744118015 28.2043
32.631416344731896 28.1732
32.654615396551876 28.1129
32.67781582427913 28.1816
32.701198898634416 28.0225
32.72440209253756 27.9471
32.747606665947124 27.9271
32.77081262006088 27.9149
32.79420126883317 27.7685
32.81740999876112 27.8049
32.840620112999424 27.7973
32.86383161274818 27.7357
32.88722585534586 27.8011
32.91044014056596 27.7914
32.933655814909734 27.7822
32.95687287957963 27.6744
32.98027273544904 27.6279
33.00349259526636 27.6033
33.026713849030116 27.52
33.04993649794511 27.4884
33.073341986570746 27.5444
33.09656744032826 27.5527
33.11979429286444 27.503
33.14302254538647 27.5601
33.166433686291185 27.4881
33.18966475336992 27.4195
33.212897224069096 27.3221
33.23613109959831 27.311
33.259547912343415 27.2774
33.2827846121627 27.2479
33.306022720453775 27.2515
33.32926223842861 27.133000000000003
33.352684742614166 27.0425
33.37592709463173 27.1023
33.399170859982064 27.0332
33.422597648419426 26.8764
33.44584425514446 26.8087
33.46909227885668 26.8229
33.4923417207723 26.6456
33.51577423505344 26.6324
33.539026528130385 26.6915
33.56228024307245 26.6541
33.585535381098246 26.4928
33.60897364093058 26.4996
33.63223163992385 26.388
33.6554910656699 26.3816
33.678751919389796 26.3468
33.702195944520106 26.3181
33.72545966903325 26.381999999999998
33.74872482519663 26.2514
33.771991414233746 26.2623
33.79544122444841 26.2165
33.81871069412428 26.1102
33.84198160035767 26.1173
33.86525394437455 26.2059
33.88870955949969 26.1067
33.911984794020626 25.9571
33.93526147001624 25.9042
33.958539588715006 25.8553
33.98200102861669 25.8898
34.0052820477047 25.8308
34.02856451319451 25.7272
34.05203033759056 25.6926
34.07531571090147 25.647
34.09860253431845 25.6455
34.121890809074316 25.603
34.145362493118924 25.5831
34.16865368561615 25.604
34.191946333164054 25.4924
34.21524043699793 25.5582
34.23871800066799 25.4621
34.26201503218366 25.4041
34.28531352370466 25.4058
34.30861347646881 25.2935
34.33209693978188 25.2163
34.3553998301885 25.2561
34.378704185565205 25.1621
34.402010007152356 25.1895
34.42549939016683 25.1424
34.44880815937748 25.0757
34.472118398533134 25.028000000000002
34.49543010887669 24.9357
34.51892543169198 24.8441
34.54224009966052 24.9308
34.56555624255917 24.8884
34.58887386163339 24.8055
34.61237514439016 24.7361
34.6356957311114 24.6385
34.65901779775809 24.6833
34.68252356662995 24.645
34.705848608458616 24.6574
34.72917513396849 24.6097
34.75250314440949 24.585
34.77601490857862 24.5326
34.799345904259795 24.4878
34.82267838863559 24.4555
34.846012362958525 24.3644
34.869530142679984 24.4068
34.89286711232212 24.3117
34.91620557568269 24.3455
34.93954553401677 24.2579
34.9630693495876 24.2571
34.986412313340814 24.3494
35.00975677584668 24.3213
35.033102738362956 24.1681
35.05663261012228 24.0622
35.0799815881786 24.0981
35.10333207003229 24.0687
35.12668405694369 24.0744
35.150220005273056 24.0058
35.17357501786656 24.0109
35.19693153931268 23.9902
35.220289570874385 23.8851
35.24383161619786 23.9032
35.267192683604904 23.8969
35.290555264930376 23.8746
35.314101899412165 23.78
35.33746752422433 23.7812
35.36083466676374 23.7569
35.38420332829803 23.7662
35.407756095629054 23.8322
35.43112781085063 23.7729
35.45450104888391 23.7259
35.477875810999194 23.7621
35.50143473172161 23.5616
35.52481255774625 23.5688
35.54819191167777 23.5618
35.57157279478914 23.551
35.595137889488406 23.4906
35.61852184675279 23.4412
35.641907337029984 23.3982
35.665294361595684 23.3783
35.68886565090076 23.3497
35.7122557598848 23.3178
35.73564740699838 23.3078
35.759040593519934 23.226
35.78261809810353 23.1814
35.80601437933051 23.0926
35.829412203814705 23.1436
35.85281157283719 22.9731
35.876395313415884 23.0077
35.8997977874528 22.9819
35.92320180988546 22.9706
35.946790244133936 22.8762
35.97019737933222 22.8848
35.993606066789866 22.8692
36.01701630779276 22.8039
36.04061101440684 22.6988
36.06402437852291 22.7688
36.08743930005611 22.7825
36.1108557802951 22.6738
36.13445678011326 22.7159
36.15787639383515 22.6796
36.18129757014299 22.5984
36.20472031032821 22.5932
36.22832762423364 22.5062
36.25175350829375 22.4511
36.275180960119776 22.386999999999997
36.298609981005924 22.482
36.32222362992669 22.4519
36.34565580510207 22.3969
36.36908955323448 22.3069
36.39252487562093 22.1902
36.416144880530226 22.2393
36.43958336764275 22.2466
36.463023432914625 22.214000000000002
36.486465077645676 22.093000000000004
36.51009145956204 22.1358
36.53353627947859 22.1378
36.55698268276811 22.0744
36.58043067073321 22.0122
36.60406345072071 21.9288
36.62751462435344 21.8798
36.65096738658405 21.9503
36.67460498210655 21.9535
36.69806093788647 21.9331
36.72151848619297 21.7875
36.744977628333636 21.819000000000003
36.76862165890998 21.7539
36.79208400512205 21.7093
36.81554794910557 21.7135
36.83901349217101 21.6453
36.862663978991606 21.6289
36.88613273667352 21.5354
36.90960309738324 21.5836
36.933075062434064 21.5908
36.95673202673572 21.5243
36.98020721697122 21.4531
37.003684015502365 21.4048
37.027162423645365 21.3656
37.050825886711465 21.3141
37.07430753063053 21.2888
37.09779078812467 21.2849
37.121275660513014 21.2475
37.144945643673694 21.1882
37.16843376245278 21.230999999999998
37.19192350009803 21.1661
37.215414857931435 21.0898
37.239091382563885 21.0782
37.262585997426164 21.1091
37.28608223645736 21.1191
37.309763684451696 20.9913
37.33326318851098 20.9327
37.356764320726555 20.9212
37.380267082425526 20.9347
37.40395510942588 20.9029
37.42746114683234 20.8526
37.45096881771841 20.7613
37.474478123414166 20.7488
37.49817275092816 20.6596
37.52168534303452 20.7644
37.54519957395567 20.6415
37.568715445024665 20.7047
37.592416694607714 20.5961
37.61593586281424 20.5954
37.63945667518264 20.6279
37.66297913304891 20.5046
37.68668702630454 20.4684
37.710212792059274 20.3793
37.733740207334854 20.3931
37.757269273470364 20.3516
37.780983832050374 20.2704
37.80451621684926 20.3211
37.82805025654007 20.2921
37.851585952464795 20.2227
37.8753071980695 20.1662
37.89884622345676 20.0827
37.92238690911902 20.0973
37.94611318753442 20.0707
37.969657210779765 20.0636
37.99320289834801 20.0797
38.016750251586465 19.9989
38.04048325513017 20.0113
38.06403395679343 19.8725
38.087586328183946 19.8388
38.11114037065203 19.8709
38.13488012115898 19.8636
38.1584375229181 19.7835
38.181996599821 19.785
38.205557353221124 19.7565
38.229303872575656 19.658
38.2528679961576 19.7005
38.27643380031219 19.6893
38.30000128639589 19.5828
38.32375459653193 19.5994
38.34732546371299 19.5662
38.37089801690786 19.4548
38.39447225747609 19.4829
38.418232380377425 19.4766
38.441810012983396 19.4064
38.46538933705673 19.4724
38.488970353960084 19.3365
38.51273731166058 19.3385
38.536321731567014 19.2907
38.55990784840681 19.2863
38.58367995004091 19.2497
38.60726947812959 19.2182
38.63086070726198 19.2159
38.654453638806274 19.1613
38.678232613930824 19.0779
38.70182896773327 19.0416
38.72542702806741 19.0708
38.7490267963045 19.0526
38.77281266709232 19.0671
38.79641586862214 18.9875
38.8200207821842 18.9312
38.843627409152944 18.9147
38.86742019782782 18.8898
38.891030269149255 18.8281
38.914642058016156 18.8306
38.938255565806124 18.7854
38.96205529464307 18.6933
38.98567225787121 18.7013
39.00929094417078 18.7572
39.03291135492255 18.6647
39.05671804624804 18.6282
39.080341923549106 18.5572
39.103967529460334 18.5583
39.127594865365744 18.5381
39.15140854155791 18.5465
39.17503935514948 18.5323
39.19867190290282 18.4923
39.22249083587951 18.4829
39.24612686969409 18.4074
39.269764641845306 18.3878
39.293404153722804 18.4054
39.317230110864074 18.2769
39.34087311998506 18.2372
39.36451787301696 18.2571
39.388164371352595 18.2057
39.41199737518003 18.1969
39.43564738196752 18.1366
39.45929913825317 18.1088
39.48295264543308 18.1002
39.506792718520884 18.0382
39.530449745387216 18.0521
39.55410852735203 18.0024
39.57776906581474 18.01
39.60161623079 17.9675
39.625280300200025 17.9158
39.64894613032202 17.9023
39.67261372255866 17.8517
39.6964680021016 17.8406
39.72013913657293 17.8848
39.74381203738292 17.8504
39.76748670593756 17.7645
39.79134812278169 17.7663
39.81502634488497 17.7463
39.83870633896685 17.714000000000002
39.862388106436654 17.6803
39.88625668336918 17.6919
39.90994201572829 17.6597
39.933629125719285 17.5836
39.957503091207826 17.5551
39.9811937746168 17.5995
40.00488623990914 17.492
40.02858048850006 17.4868
40.05246165409549 17.4572
40.076159487492085 17.4221
40.099859108448875 17.3974
40.123560518384345 17.3528
40.1474489070226 17.3224
40.171153913178564 17.2768
40.194860712584955 17.2798
40.2185693066637 17.3117
40.242464941335314 17.1697
40.26617714307655 17.1534
40.289891143772046 17.1985
40.3136069448471 17.098
40.33750984859743 17.1027
40.3612292688043 17.0824
40.3849504936829 17.0482
40.40867352466194 17.038
40.43258372059144 17.0223
40.45631038219906 17.0302
40.48003885420956 16.8821
40.503769138055105 16.9156
40.52768664931955 16.9014
40.55142057531802 16.9136
40.57515631746428 16.8301
40.599079334038514 16.8252
40.62281872700477 16.8045
40.64655994043941 16.8018
40.67030297578061 16.8177
40.69423334835778 16.7154
40.71798004609188 16.6781
40.74172857006355 16.6352
40.76547892171441 16.6196
40.7894166736039 16.5882
40.813170699248566 16.5434
40.83692655691388 16.5598
40.86068424804498 16.5225
40.884629402612525 16.4791
40.908390779366385 16.5043
40.932153993938 16.4771
40.95591904777605 16.4563
40.979871628443995 16.4746
41.003640379561936 16.3611
41.02741097430883 16.3199
41.05118341413683 16.3366
41.075143444384416 16.2947
41.098919593177826 16.3017
41.1226975914255 16.27
41.14647744058318 16.1905
41.170444943946755 16.1639
41.19422851378379 16.1297
41.218013938914645 16.1537
41.24198706625173 16.0196
41.26577622087193 16.047
41.289567235177785 16.0593
41.31336011063129 16.0138
41.337340752422875 15.9848
41.361137369129835 15.9491
41.38493585138705 15.9269
41.40873620066004 15.909
41.43272438060107 15.8659
41.45652848292052 15.8238
41.48033445666918 15.7686
41.50414230331616 15.7645
41.528138045159764 15.7914
41.551949656675205 15.7334
41.575763145513235 15.6692
41.59957851314666 15.6712
41.62358184070442 15.6782
41.64740098505737 15.6523
41.6712220126409 15.6222
41.69504492493139 15.5447
41.71905586207357 15.5641
41.74288256296395 15.5093
41.766711153007456 15.5291
41.79054163368412 15.5139
41.814560204340054 15.4823
41.838394485526365 15.4781
41.86223066180303 15.4773
41.88625497706819 15.3685
41.910094962812 15.3275
41.93393684811168 15.3518
41.95778063445365 15.3015
41.981812625263366 15.2844
42.00566023303407 15.294
42.029509746323676 15.244000000000002
42.05336116662236 15.2543
42.077400857069705 15.1815
42.10125611078846 15.1928
42.12511327600405 15.1166
42.14897235421036 15.0774
42.173019768448455 15.0571
42.19688269209613 15.0487
42.22074753323349 14.9593
42.24461429335818 14.9788
42.268669455600495 15.0286
42.292540073217886 15.0071
42.31641261433284 14.9519
42.34028708044675 14.9569
42.36435001496739 14.8953
42.38822835065557 14.8894
42.41210861586426 14.8397
42.4359908120986 14.8464
42.46006154323262 14.758
42.48394762115317 14.7554
42.507835634632315 14.7453
42.531912233047436 14.6936
42.55580413732265 14.6918
42.579697981698 14.6918
42.60359376768525 14.6383
42.62767820545945 14.6231
42.65157789440821 14.622
42.67547952952185 14.5485
42.699383112316 14.5772
42.72347541395347 14.52
42.74738291190531 14.4425
42.771292362102166 14.459000000000001
42.795203766063516 14.4738
42.819303956130405 14.4221
42.843219287476536 14.3595
42.86713657716324 14.3958
42.89105582671383 14.3839
42.91516392983864 14.332
42.939087119032166 14.2605
42.963012272677304 14.26
42.98693939230129 14.2248
43.01105543317513 14.210999999999999
43.034986504731386 14.1857
43.05891954686589 14.1798
43.08285456110972 14.1529
43.10697856448665 14.1236
43.130917542983475 14.0443
43.15485849820081 14.0536
43.17880143167367 14.0215
43.20293342237094 14.0271
43.226880332449 13.9482
43.25082922540554 13.9463
43.27496722682525 13.9421
43.29892010567796 13.8995
43.32287497204102 13.8858
43.34683182745632 13.8933
43.370977859791836 13.8767
43.39493871351105 13.8396
43.41890156092628 13.7869
43.44286640358341 13.7619
43.46702049182749 13.7388
43.49098934522816 13.7332
43.51496019852649 13.6778
43.5389330532723 13.71
43.56309522248204 13.6787
43.58707210044314 13.6109
43.61105098451946 13.6083
43.63503187626491 13.55
43.659202151562134 13.5501
43.68318707902681 13.5958
43.70717401884041 13.535
43.731162972560874 13.5378
43.75534137913236 13.4881
43.779334381108384 13.454
43.803329401683186 13.4272
43.82732644241872 13.362
43.8515130055166 13.3827
43.87551410707659 13.3383
43.89951723350145 13.335999999999999
43.923709934595614 13.3315
43.94771713129917 13.3431
43.97172635758096 13.2354
43.99573761501002 13.2245
44.0199385169922 13.1921
44.04395385732619 13.222000000000001
44.067971233533086 13.2151
44.09199064718605 13.1511
44.11619977548961 13.1121
44.14022328470671 13.120999999999999
44.16424883610785 13.100999999999999
44.18827643127035 13.0802
44.21249381139513 13.0579
44.236525514814076 13.0387
44.26055926674478 12.9726
44.28459506876863 13.0117
44.3088207262813 12.9359
44.33286064928722 12.9241
44.35690262714919 12.9446
44.38094666145278 12.8637
44.4051806219871 12.8785
44.42922879003185 12.7961
44.45327901929361 12.8116
44.477331311362136 12.8286
44.501573600619416 12.7786
44.525630039221795 12.7209
44.54968854541895 12.7527
44.573937102200176 12.7344
44.5979997645541 12.6708
44.622064499300315 12.6339
44.64613130803592 12.6368
44.67038823869318 12.6883
44.69445921643748 12.6279
44.718532272981385 12.5615
44.742607409926194 12.5166
44.76687274034801 12.4976
44.79095205918753 12.5316
44.81503346325094 12.449000000000002
44.839116954143876 12.4657
44.86339071028742 12.4152
44.88747839599524 12.3798
44.91156817336837 12.388
44.93566004401666 12.3592
44.959942251908146 12.3295
44.984038330325966 12.3026
45.00813650686762 12.2951
45.03223678314731 12.2581
45.05652746888232 12.2701
45.08063196592069 12.2047
45.104738567558705 12.1886
45.128847275414856 12.1693
45.15314646515866 12.1311
45.17725940679741 12.158
45.20137445952892 12.0932
45.22568004865265 12.1195
45.24979934496396 12.1148
45.27392075725247 12.0686
45.29804428714431 12.0387
45.322358426247604 12.0162
45.346486212804315 11.9832
45.370616121861914 12.0249
45.39474815505086 11.9607
45.41907087049246 11.8988
45.4432071734666 11.8989
45.46734560548283 11.9258
45.49148616817604 11.9053
45.51581748638564 11.8224
45.5399623320197 11.8106
45.56410931325473 11.8439
45.58825843173002 11.7813
45.61259837920865 11.7624
45.636751793816 11.7642
45.66090735060093 11.6818
45.68506505120716 11.6703
45.7094136545275 11.654000000000002
45.73357566449271 11.6758
45.75773982322992 11.7029
45.78190613238733 11.6679
45.806263418194064 11.5965
45.83043404997326 11.5843
45.85460683713677 11.5595
45.87897065658495 11.5217
45.90314777634752 11.463
45.92732705646868 11.4799
45.9515084986045 11.5185
45.97588104735473 11.4701
46.00006683541565 11.4192
46.02425479047904 11.3873
46.04844491420549 11.4095
46.0728262191024 11.3771
46.09702070211635 11.3558
46.12121735879483 11.3572
46.14541619080294 11.3142
46.169806278764455 11.3223
46.194009483459034 11.3396
46.21821486849841 11.2456
46.24242243555223 11.1883
46.266821333570014 11.1987
46.29103328674601 11.193
46.31524742696538 11.183
46.33946375590237 11.1191
46.36387149104216 11.1306
46.38809221957392 11.09
46.41231514186606 11.0819
46.436540259597464 11.0545
46.460956858999374 11.0702
46.48518638983522 11.0739
46.509418121166966 10.9908
46.533652054678114 10.9798
46.55807754555709 11.0044
46.58231590571962 10.9863
46.60655647313217 10.9385
46.630988654873654 10.9154
46.655233659129024 10.8877
46.67948087571551 10.8647
46.70373030632484 10.8471
46.72817142736393 10.8489
46.752425308428684 10.8083
46.77668140861147 10.8095
46.80093972960865 10.722999999999999
46.82538981736788 10.7593
46.849652602470904 10.7294
46.87391761349769 10.6975
46.8981848521493 10.6954
46.9226439341274 10.6984
46.946915650573224 10.6663
46.97118959976749 10.6871
46.99546578341598 10.6129
47.019933887188216 10.6277
47.04421456235744 10.575999999999999
47.06849747711879 10.5334
47.09278263318286 10.5302
47.11725978640143 10.4888
47.14154944775105 10.49
47.165841355555656 10.4574
47.1901355115306 10.4397
47.214621741924994 10.4717
47.23892041698887 10.3893
47.26322134538975 10.3883
47.28771440635075 10.3518
47.31201986422527 10.3285
47.33632758061436 10.3207
47.360637557241866 10.3268
47.38513974410611 10.2978
47.40945426407847 10.255999999999998
47.43377104948137 10.2387
47.45809010204344 10.2474
47.48260144275502 10.2223
47.506925052572285 10.2426
47.53125093475548 10.1603
47.55557909103813 10.1922
47.58009961361992 10.162
47.60443234110732 10.141
47.62876734791564 10.1245
47.65310463578333 10.1051
47.6776343683373 10.1
47.7019762413987 10.0424
47.72632040075572 10.0441
47.75066684815169 10.0579
47.77520581885936 9.982669999999999
47.799556865477655 9.9899
47.823910205386 9.95373
47.84826584033272 9.96957
47.87281407745551 9.88987
47.89717432569297 9.91964
47.92153687423484 9.91122
47.94609208429692 9.88841
47.97045925671401 9.85375
47.99482873471275 9.82713
48.01920052005013 9.8113
48.04376504619224 9.811539999999999
48.068141469543484 9.7997
48.09252020552573 9.7535
48.11690125590099 9.78808
48.1414751266064 9.77245
48.16586082917454 9.70542
48.19024885144316 9.67707
48.2146391951793 9.67202
48.239222439012764 9.66544
48.26361744916137 9.64645
48.28801478610016 9.63464
48.31241445160131 9.61186
48.337007097209366 9.61782
48.36141144338331 9.58787
48.38581812345755 9.58193
48.41022713920929 9.568660000000001
48.434829215320704 9.525
48.45924292604658 9.52704
48.48365897780325 9.50428
48.50807737237308 9.51045
48.532688907799276 9.435260000000001
48.55711201168574 9.44242
48.581537463754074 9.42406
48.60615611725119 9.41917
48.63058628942721 9.41675
48.65501881516546 9.38
48.6794536962573 9.3692
48.70408185970339 9.326030000000001
48.72852147531801 9.33726
48.75296345168211 9.283389999999999
48.77740779059232 9.27299
48.80204549302823 9.27881
48.82649458091802 9.26452
48.85094603676547 9.21626
48.87539986237231 9.20701
48.90004713292306 9.17783
48.92450572200832 9.17779
48.94896668628025 9.14392
48.97343002754588 9.11468
48.99808689542115 9.12925
49.02255501470614 9.15306
49.04702551642794 9.10517
49.0714984023988 9.081430000000001
49.096164896893235 9.027560000000001
49.120642575466796 9.04763
49.145122643748394 8.98891
49.16960510355558 8.98789
49.19428125404938 8.98743
49.2187685210852 9.01332
49.243258185121555 8.983080000000001
49.26794160167084 8.94408
49.2924360839405 8.92088
49.31693296869764 8.905610000000001
49.34143225776915 8.88846
49.36612538195438 8.85764
49.39062950396021 8.83539
49.41513603578346 8.8434
49.4396449792564 8.8435
49.46434784069503 8.81113
49.488861631846454 8.778260000000001
49.513377840166804 8.7674
49.537896467493745 8.747489999999999
49.56260909589029 8.74752
49.587132585683285 8.70399
49.611658500018365 8.7017
49.636186840738596 8.65953
49.66090926588511 8.66272
49.685442483902584 8.6644
49.70997813385706 8.62027
49.734516217597076 8.62163
49.75924846937352 8.63368
49.7837914452858 8.57292
49.80833686055187 8.55363
49.83288471702571 8.55415
49.85762682540054 8.54471
49.882179588965734 8.52847
49.9067347993235 8.52075
49.93129245833333 8.46379
49.95604445336378 8.45112
49.98060703442832 8.468210000000001
50.005172069746266 8.42375
50.02993150438364 8.436169999999999
50.05450147301533 8.43787
50.07907390151433 8.37539
50.10364879174981 8.352310000000001
50.12841816587289 8.32583
50.1529980044635 8.35069
50.17758031042124 8.295589999999999
50.20216508562089 8.28588
50.22694442953363 8.27965
50.25153416817468 8.28373
50.27612638170508 8.27078
50.300721072005196 8.2181
50.325510416102105 8.21194
50.350110084975064 8.17447
50.37471223628208 8.20533
50.39931687190919 8.19175
50.424116246675766 8.17108
50.44872587605249 8.1482
50.47333799543065 8.14889
50.49795260670191 8.12038
50.52276204271512 8.08784
50.54738166295838 8.10709
50.57200378079314 8.06912
50.596628398116835 8.05437
50.62144792604559 8.04122
50.646077567609396 8.00869
50.670709714377715 8.023660000000001
50.69553683636198 7.99317
50.72017401885922 8.01414
50.7448137122895 7.961939999999999
50.76945591856022 7.9475
50.79429318636823 7.950889999999999
50.818940443716784 7.919010000000001
50.84359021965163 7.91705
50.868242516085964 7.90534
50.893089960641895 7.87202
50.917747323549435 7.82848
50.94240721271973 7.84845
50.96706963007175 7.838360000000001
50.99192728239342 7.8163800000000005
51.01659478166073 7.821739999999999
51.04126481489051 7.776269999999999
51.06593738400761 7.77597
51.090805275207074 7.72357
51.11548294172845 7.7271
51.14016314993547 7.71232
51.164845901758845 7.70578
51.18972406304274 7.70567
51.21441192780656 7.6795800000000005
51.23910234200271 7.636880000000001
51.2637953075678 7.62965
51.288683770237945 7.630139999999999
51.31338186432707 7.6154
51.33808251561888 7.60045
51.362978729967345 7.58493
51.387684521509755 7.546060000000001
51.41239287610203 7.520689999999999
51.437103795691165 7.51087
51.46201036644977 7.5338199999999995
51.486726441956634 7.54525
51.51144508832545 7.5086
51.536166307509156 7.48065
51.56108326624387 7.469469999999999
51.58580965706056 7.43688
51.61053862657523 7.463989999999999
51.635270176746864 7.416530000000001
51.66019755512065 7.388780000000001
51.68493429268881 7.3874
51.70967361681515 7.35865
51.73441552946465 7.36044
51.759353359237934 7.337280000000001
51.7841004750961 7.3506800000000005
51.80885018539685 7.29668
51.833602492111254 7.27787
51.8585508051424 7.264710000000001
51.883308330926425 7.25398
51.90806845906181 7.249410000000001
51.932831191525715 7.22267
51.95779001977161 7.22917
51.98255798721516 7.218719999999999
52.00732856494335 7.172219999999999
52.03229530577543 7.13347
52.057071130455945 7.1219399999999995
52.081849571391054 7.11878
52.106630630568695 7.13965
52.13160794279417 7.10588
52.15639426492067 7.10469
52.18118321127822 7.085789999999999
52.205974783860896 7.06268
52.23096269971011 7.0577
52.255759551287994 7.051810000000001
52.280559035098186 7.009010000000001
52.30536115314103 7.020989999999999
52.33035970494467 6.9854199999999995
52.35516711807904 6.998460000000001
52.37997717147198 6.99632
52.40478986713005 6.9688300000000005
52.42979908731974 6.95167
52.454617094216 6.91218
52.47943774942214 6.92001
52.50426105495102 6.91545
52.529280976059844 6.88514
52.554109609024096 6.866860000000001
52.57894089837482 6.8478699999999995
52.60377484613117 6.853330000000001
52.62880550079408 6.85513
52.65364479223379 6.849710000000001
52.67848674816189 6.80553
52.70352547971946 6.7638300000000005
52.72837279155837 6.74788
52.753222773982785 6.73033
52.778075429022984 6.73648
52.80312495150885 6.78295
52.827982978797436 6.7061399999999995
52.85284368481815 6.697019999999999
52.87770707160767 6.6451
52.90276741793998 6.66977
52.92763619336701 6.6524600000000005
52.952507655698504 6.616630000000001
52.977381806977576 6.63767
53.00245301017842 6.616639999999999
53.02733256653592 6.6037
53.052214817996074 6.575810000000001
53.077099766608484 6.561
53.102181859804446 6.537999999999999
53.127072229988265 6.54936
53.15196530349892 6.54408
53.17686108239249 6.5023
53.20195409881522 6.51051
53.22685531582556 6.46871
53.25175924441303 6.4606
53.27666588664027 6.45728
53.30176985962693 6.46477
53.3266819565689 6.42277
53.35159677336455 6.39297
53.376514312083096 6.37854
53.40162927507703 6.40583
53.42655228516116 6.35418
53.45147802340193 6.36698
53.47660125628886 6.36257
53.50153247842639 6.36725
53.52646643496923 6.28901
53.55140312799818 6.33712
53.576537409691696 6.33219
53.60147960336152 6.28346
53.626424539786164 6.234369999999999
53.65137222105307 6.2461
53.67651758529126 6.2509
53.70147078399681 6.24335
53.72642673383343 6.24132
53.75138543689533 6.178780000000001
53.776541917524526 6.21079
53.801506154876755 6.2027
53.826473151763246 6.1554199999999994
53.851442910284916 6.14847
53.87661054126026 6.14687
53.9015858509782 6.11221
53.92656392866066 6.09379
53.95154477641532 6.09422
53.976723591801296 6.07297
54.00171000771266 6.04865
54.02669920004598 6.0562
54.051691170915745 6.03884
54.076881204886796 6.02399
54.101878760928514 6.02155
54.12687910187696 5.96973
54.152077577768296 5.94876
54.1770835166946 5.92465
54.20209224691339 5.92901
54.22710377055121 5.93387
54.25231352511594 5.96139
54.27733066384342 5.88284
54.30235060239643 5.92475
54.32737334290836 5.88471
54.35259441062629 5.865069999999999
54.377622783395324 5.86402
54.40265396455061 5.8415
54.42768795623251 5.858169999999999
54.45292037169559 5.7902
54.477960012857906 5.79724
54.50300247099511 5.75934
54.52804774825457 5.73539
54.55329154616743 5.711869999999999
54.57834249018678 5.71051
54.6033962597977 5.69001
54.6284528571545 5.65859
54.653708072335164 5.6076
54.67877035378786 5.610580000000001
54.70383546947698 5.61492
54.72890342156389 5.5921400000000006
54.7541700889442 5.55811
54.77924374251975 5.49716
54.8043202390049 5.53514
54.82959552413022 5.47284
54.8546777351945 5.44423
54.87976279569621 5.4532099999999994
54.90485070780914 5.45314
54.930137506558005 5.4404699999999995
54.95523115074295 5.415430000000001
54.98032765308844 5.37223
55.005427015775496 5.4078
55.03072536339621 5.38445
55.05583047570572 5.30202
55.080938454927676 5.314080000000001
55.10604930325027 5.30371
55.131359235107396 5.26772
55.15647585066083 5.22783
55.181595341907496 5.21747
55.20671771104285 5.21185
55.232039262617704 5.15871
55.25716741665048 5.13933
55.28229845518636 5.101719999999999
55.30743238042802 5.05584
55.33276558731939 5.05278
55.357905315183636 5.0641099999999994
55.383047936390035 5.03996
55.40819345314859 5.00177
55.433538351073295 5.04515
55.458689688238415 4.99637
55.483843927614096 4.93305
55.509197623043605 4.9276599999999995
55.53435769621134 4.90643
55.55952067826466 4.896669999999999
55.5846865714265 4.92778
55.61005202069737 4.86399
55.63522376553902 4.86367
55.66039842818645 4.8570199999999994
55.68557601087004 4.83545
55.7109532500271 4.7426900000000005
55.73613670233794 4.79013
