TT I
1.2716486653135266 7.74918
1.2939594142134223 7.282769999999999
1.3162702121660406 6.482419999999999
1.3385810600174564 7.07397
1.3608919586137629 7.072780000000001
1.383202908801069 6.898689999999999
1.405513911425503 6.1046
1.4278249673332093 5.97497
1.4501343378461518 6.0993699999999995
1.4724455028545926 5.7195
1.4947567236847858 5.64245
1.517068001182951 5.40646
1.5393793361953272 6.38387
1.5616907295681737 6.40521
1.5840021821477681 5.523540000000001
1.60631369478041 5.39102
1.6286252683124185 5.7505
1.6509369035901333 6.636839999999999
1.6732468618895553 5.91878
1.695558623192809 5.0561
1.7178704487808514 5.036169999999999
1.7401823395001077 5.42358
1.7625012545597203 5.18494
1.7848028405262486 4.88388
1.8071218901122095 4.956869999999999
1.8294236121921872 4.77445
1.8517427996910911 4.5936699999999995
1.8740620574440425 4.85771
1.8963639900671978 5.12247
1.9186833908139995 5.02966
1.9409854680117449 5.24883
1.9633050151394713 5.12624
1.9856246367570705 4.3247800000000005
2.0079269371922672 4.64144
2.03024671027244 4.4560900000000006
2.0525491637446027 4.85998
2.074869091674931 5.3192699999999995
2.097171701569106 4.60136
2.1194917877373847 4.92087
2.141811954326636 4.81276
2.164114805233074 4.8983099999999995
2.186435135143035 5.063219999999999
2.208738150935709 8.969669999999999
2.231058647554722 14.5274
2.2533792288321184 11.7103
2.275682498336085 6.72081
2.298003251406138 5.4732
2.3203066942619714 4.7737300000000005
2.3426276225136022 5.3806199999999995
2.3649486396617507 5.74106
2.387252348930071 5.89348
2.4095735463442893 4.97666
2.4318774374315884 5.49129
2.4541988185014043 6.2073
2.476502894794693 6.062130000000001
2.498824462909887 6.44166
2.521146125856138 6.43929
2.5434504863470337 6.37486
2.5657723414244717 7.29945
2.588076895590662 7.54897
2.610398946189713 7.54661
2.6327210958598384 7.02159
2.6550259469304716 6.85623
2.6773482972090137 7.094710000000001
2.6996533504259 7.8053300000000005
2.7219759047039602 7.28282
2.744298562293959 7.25822
2.7666039251246595 7.51625
2.7889267918020164 7.70702
2.8112323652516555 7.5639199999999995
2.833555444408179 8.05878
2.8558786311183852 7.99073
2.8781845268938557 7.788189999999999
2.9005079311721484 8.47995
2.9228140460410397 8.129610000000001
2.9451376712799635 9.17603
2.967444008632326 9.24071
2.9897678582247247 9.387789999999999
3.0120918213106695 10.4323
3.0343984987899373 10.9392
3.0567226913198637 11.2363
3.079029599759726 11.7337
3.101354025127254 12.2136
3.123678568232338 12.5894
3.145985829517914 12.6265
3.16831061055229 13.6196
3.1906181112775593 14.069
3.212943133635653 14.6534
3.2352682779763207 15.1323
3.2575761442691227 15.4625
3.2799015350264273 15.5521
3.302209649240067 16.3308
3.3245352898092655 16.6187
3.3468436553365257 17.3699
3.369169549113219 17.5158
3.3914955708171384 18.5958
3.413804319727358 19.215
3.4361305997334863 18.8458
3.4584396084414553 19.7341
3.4807661501462652 20.1219
3.503092824025881 20.6164
3.5254022288463154 21.0048
3.5477291695206588 21.6231
3.5700388426251948 22.3903
3.5923660534916446 23.6709
3.6146934007816114 30.5478
3.637003482731501 53.7708
3.6593311053109985 58.7451
3.681641464033634 39.2094
3.7039693653009733 27.3995
3.726297407241705 25.8163
3.7486081875460804 25.7669
3.7709365132734978 26.1511
3.793247578841633 26.6455
3.8155761917550093 26.8801
3.8378875459837216 27.3239
3.8602164494827234 27.769000000000002
3.882545499606844 28.6206
3.9048572932539183 29.669
3.9271866390645718 29.3933
3.9494987298666713 29.9082
3.971828374764527 30.5638
3.9941581705403255 31.2786
4.016470713506008 31.9261
4.038800813471445 32.2891
4.061113662089144 32.762
4.0834440696459176 33.894
4.105774632334751 34.3713
4.128087945865126 35.0755
4.150418821249301 35.7214
4.172732448931298 37.0848
4.195063640413578 38.2776
4.2173775856475215 40.9285
4.239709096631102 56.2895
4.262040768704612 130.412
4.284355196706267 167.114
4.306687193387355 117.441
4.329001947444346 61.2538
4.35133427213731 45.3103
4.373666762177566 44.5445
4.395982011761091 44.7552
4.418314834921175 45.6434
4.44063041906622 49.9759
4.4629635787515625 55.7525
4.4852969080429785 55.9492
4.5076130004776225 52.7489
4.529946671403969 53.2533
4.552263106909177 53.566
4.574597122877047 53.4584
4.596931312711224 53.8578
4.619248269273446 54.4657
4.6415828092605835 55.9178
4.663900117405352 56.8878
4.686235010953232 58.5371
4.708552674085913 60.0756
4.730887924602802 62.0782
4.753223354952695 62.8691
4.775541557023902 64.9188
4.797877349456786 66.5002
4.820195915032126 68.0691
4.842532072957498 69.7362
4.864868414979744 72.2236
4.88718753227192 74.513
4.909524244902505 76.7105
4.931843734218147 78.3094
4.954180820867835 81.0173
4.976518095879839 83.8684
4.998838149695359 87.8717
5.021175803844231 92.1385
5.043496238205739 96.2905
5.065834274903528 100.82700000000001
5.088172504230693 107.164
5.1104935158799565 115.588
5.132832132875765 135.847
5.155153533596801 169.834
5.1774925416746225 243.264
5.199814334878411 615.185
5.2221537374521505 1624.43
5.244493338631803 3692.81
5.266815727034316 7472.11
5.289155727832427 11388.2
5.311478517248165 8636.18
5.333818921080011 3339.29
5.356159527788849 717.4860000000001
5.3784829252032536 220.11
5.400823940070432 161.64
5.423147747031976 138.871
5.445489173474152 126.802
5.467830807066149 121.964
5.490155234831516 117.18299999999999
5.512497285125229 112.316
5.534822130975162 109.545
5.557164601388673 106.824
5.579489868738879 104.04899999999999
5.601832762690846 102.12700000000001
5.6241758697774475 100.698
5.646501775867269 100.35
5.668845311622074 99.5275
5.691171647754637 98.6058
5.713515615597765 97.5529
5.735859800852677 96.8072
5.758186788542988 96.5856
5.780531411018185 97.5871
5.802858837297399 96.7587
5.825203900414495 97.7772
5.8475491852224 98.9829
5.869877275883075 98.984
5.892223006467101 100.07700000000001
5.914551544266608 101.788
5.936897724049891 106.271
5.959244129804903 117.223
5.981573344815301 160.332
6.0039202049061 328.94300000000004
6.026249875609095 680.7919999999999
6.04859719346037 1283.5
6.070927323278297 2341.1
6.093275102315365 4013.96
6.115623113320588 4930.3
6.137953938319995 3400.81
6.160302415650845 1158.2
6.182633708324452 284.875
6.2049826554078376 127.154
6.227331838745022 99.6792
6.249663839443684 89.9832
6.27201349767565 85.25200000000001
6.294345974611799 85.8549
6.316696111167083 89.5053
6.339046488263839 86.0919
6.361379686074702 77.8625
6.383730546639482 72.8692
6.406064229255215 71.0068
6.428415576718203 71.2814
6.450749747566656 69.6128
6.47310158535871 67.876
6.495453669698332 66.763
6.517788579421056 66.1572
6.540141159237969 65.0743
6.562476565766648 64.6592
6.5848296444934045 64.3535
6.607182974060425 63.8781
6.6295191323281015 63.6258
6.651872965955752 64.5811
6.6742096296068985 75.9878
6.6965639707294615 96.9518
6.71891856698715 97.0601
6.741255995248479 77.0921
6.763611104154477 64.4409
6.785949046381137 60.4241
6.808304671371482 59.7678
6.8306605557940046 59.5506
6.852999275508618 58.7723
6.875355681171544 57.9516
6.897694923437771 57.673
6.92005185377892 57.6341
6.9423916220322655 57.1249
6.964749080490181 56.9945
6.987106804399774 57.071000000000005
7.009447368180821 57.2497
7.031805625367033 56.7545
7.054146723727803 56.5845
7.076505517631004 56.3511
7.098864581288365 56.1233
7.121206488070854 56.0181
7.143566093607822 55.75899999999999
7.165908543567245 56.4021
7.188268694426048 56.5633
7.2106291193438095 55.9576
7.232972390625943 56.7933
7.255333366030969 62.8958
7.277677189091925 87.006
7.300038718428332 109.63
7.322400526130865 97.6118
7.344745183422596 72.3041
7.367107550224791 58.8774
7.389452767901992 56.2199
7.411815697249891 55.6476
7.434161478756298 54.9589
7.456524974096713 55.0655
7.478888753837185 55.3251
7.501235387657368 55.2506
7.523599738562711 55.512
7.545946944825532 56.1374
7.568311870344528 56.538000000000004
7.5906770845765665 56.3687
7.613025156078678 56.8653
7.635390950099687 57.798
7.657739602662809 57.5315
7.680105979923558 56.9646
7.702472650212829 57.3671
7.724822180948224 57.3059
7.747189439655568 57.2115
7.769539560075357 57.5524
7.791907410653562 57.923
7.81425812420825 57.7564
7.836626570110925 58.2352
7.858995315087906 58.9448
7.881346924933401 58.7937
7.903716270417482 59.4251
7.926068482028405 59.9702
7.948438431475253 60.3598
7.9708086843180235 61.4644
7.993161805171116 61.9587
8.015532667162402 62.4847
8.037886398416653 63.6873
8.060257873014221 63.9595
8.082629655331942 64.6502
8.104984308787587 65.57300000000001
8.127356708900503 68.1527
8.149711981398308 71.4304
8.172085002766314 73.043
8.194458336181368 71.8511
8.216814543847752 70.6038
8.23918850371002 71.3934
8.26154533906492 72.6707
8.283919928836452 74.3468
8.306277395339652 75.4465
8.328652618483376 76.9512
8.351028159736202 78.8932
8.373386579575245 81.4827
8.395762759396959 83.5069
8.418121819038275 87.9095
8.440498640894003 97.0262
8.462875785192262 111.586
8.485235811156207 146.47899999999998
8.507613602688501 227.71900000000002
8.529974277114228 346.654
8.552352719347912 506.846
8.574731488360351 764.883
8.59709314210385 1190.62
8.619472567021075 1724.05
8.64183487789147 2088.42
8.664214962183097 1840.76
8.686577933647762 1041.04
8.708958680784317 410.587
8.731339760774953 178.56599999999997
8.753703729764451 118.15
8.77608547780821 104.205
8.798450116065078 99.6591
8.820832535634787 96.2087
8.843215292401656 94.6955
8.865580941199045 93.1732
8.887964374703538 91.9132
8.910330701447199 92.4536
8.932714815164482 92.6981
8.955099270424924 91.0506
8.977466620733543 88.9591
8.999851761421976 87.2754
9.022219798361645 85.9625
9.04460562795561 85.9209
9.066991803441677 85.6428
9.089360876979615 86.0301
9.111747746589993 85.2038
9.13411751544971 84.3206
9.156505082664324 84.4132
9.178875550323522 84.8222
9.20126381862328 84.8257
9.223652438908596 84.7932
9.246023961427412 84.7146
9.26841328802173 84.4408
9.290785518039224 84.7827
9.313175554425882 86.0686
9.335565947154315 85.9233
9.357939245086508 85.861
9.380330352834827 85.7904
9.40270436697103 86.0893
9.425096193225055 86.0831
9.447488380180165 86.8912
9.469863475295412 86.8317
9.492256385987508 86.863
9.514632206018318 87.5674
9.537025843935714 88.1837
9.559402392368193 89.1069
9.581796761000229 91.1045
9.604191496441521 92.0022
9.626569144158516 93.8408
9.648964615551032 96.0587
9.671343000390081 96.7039
9.693739211225699 96.4146
9.716135793237463 96.0096
9.738515290448102 96.0161
9.760912617143402 97.2343
9.783292860202891 98.8396
9.805690935076182 100.4
9.828089385495742 101.12799999999999
9.850470754023561 103.536
9.872869957865444 108.775
9.89525208097539 117.414
9.917652041736662 126.279
9.940052382417589 137.034
9.962435644102392 174.014
9.984836746950979 238.703
10.007220771957746 324.892
10.029622640473708 443.98400000000004
10.052007432299963 624.905
10.074410069984072 874.6210000000001
10.096813093716005 1214.11
10.119199042482517 1596.84
10.141602840636468 1841.85
10.163989564971628 1617.61
10.186394141051062 995.168
10.208799107559706 454.936
10.231187001965623 208.743
10.253592751657669 134.77
10.275981430388155 118.12700000000001
10.298387966769793 114.73299999999999
10.320794897965431 114.41
10.343184759907361 112.855
10.36559248305461 110.221
10.387983138083852 110.24799999999999
10.410391656691655 119.88799999999999
10.432800574501677 137.51
10.455192425893369 158.64600000000002
10.47760214443012 188.89
10.499994797678786 233.16299999999998
10.522405320453982 299.762
10.54479877906917 388.222
10.567210109595656 488.056
10.5896218454736 550.903
10.612016518879773 521.9830000000001
10.634429067781074 366.603
10.656824555333241 215.916
10.679237920773568 130.857
10.701651695961992 99.8167
10.724048411481384 92.0764
10.746463008485165 89.4667
10.768860546937125 87.7461
10.791275969274796 85.1288
10.81369180576079 84.5562
10.836090585366925 83.1389
10.858507252467449 82.1287
10.88090686379991 80.9934
10.903324365036394 80.3474
10.925724811614439 79.726
10.948143150509463 80.15899999999999
10.970561909719066 79.6317
10.992963615930844 78.1739
11.015383218085756 76.5517
11.037785768347074 75.273
11.06020621697282 74.7482
11.082627090322113 73.9532
11.105030913430326 73.5162
11.12745263854165 73.4975
11.149857314510728 74.7054
11.172279894912576 77.2633
11.194702904450653 77.2449
11.217108866490921 75.2428
11.239532736615194 72.6505
11.26193956033512 71.5218
11.284364294577085 70.7805
11.306789462371718 69.3948
11.329197585398376 68.8722
11.351623622610898 68.7656
11.37403261614354 67.7795
11.396459526308487 67.8844
11.418869393879497 67.3845
11.441297180532617 66.8252
11.463725406927658 66.8232
11.486136592353875 66.5114
11.508565700543707 66.4168
11.530977768845315 67.5536
11.553407762368774 67.322
11.575838200059769 67.2032
11.598251599479612 66.1795
11.620682927815501 65.2559
11.64309721895548 65.3707
11.665529441478206 64.8306
11.687962112597958 64.596
11.710377748130886 64.7565
11.732811318753434 64.7038
11.755227854859067 64.4433
11.777662328529495 64.1313
11.800079768750786 64.0783
11.822515149015453 64.1973
11.844950984084935 64.5646
11.867369787303163 64.0375
11.889806534289491 64.1617
11.912226250487029 64.5168
11.934663912939751 64.86
11.9571020346363 64.9657
11.979523127133968 65.1541
12.001962169624331 66.5253
12.024384183972964 68.9887
12.046824150809913 74.0609
12.069264581333726 80.1497
12.091687985297767 87.0186
12.11412934550045 96.5561
12.136553680195208 110.083
12.158995973632788 129.525
12.181438735204349 151.033
12.20386447284199 176.554
12.226308172985636 201.84599999999998
12.24873485024193 202.965
12.271179492516982 171.18099999999998
12.293607112949127 131.687
12.316052700916226 96.3018
12.338498763250042 77.8665
12.360927805303868 69.7578
12.383374818673879 67.183
12.405804812803074 65.96
12.428252780773262 65.9503
12.45070122756722 65.8306
12.473132656675375 65.9554
12.49558206341869 66.4405
12.518014453510101 66.0087
12.540464823770117 66.1218
12.562915677315177 66.3555
12.58534951575545 66.9329
12.607801338171472 67.8474
12.630236146511358 70.3588
12.652688941369085 72.9394
12.675124723177234 73.4202
12.697578494048786 72.164
12.720032754458185 70.0615
12.742470003354093 69.296
12.764925245138771 69.7552
12.787363476431278 70.0304
12.809819703166806 70.2922
12.83227642391173 71.3012
12.854716135692716 71.6014
12.877173846755147 72.7843
12.899614549869717 73.1523
12.9220732548287 74.12899999999999
12.94453245827299 74.6984
12.966974655289818 75.5198
12.989434858002571 76.73899999999999
13.011878055298721 77.5798
13.034339260862497 78.4482
13.056800969391883 80.14399999999999
13.079245674017244 83.5731
13.101708390774869 88.4588
13.12415410463411 100.242
13.146617833206086 114.477
13.169064559883248 128.27700000000002
13.191529303857127 145.309
13.213994557076367 169.6
13.236442809902437 203.141
13.258909083908291 246.739
13.28135835851934 294.927
13.30382565690295 351.20099999999996
13.326293469022952 400.47
13.348744283242008 419.52099999999996
13.371213125129904 368.361
13.39366497011003 276.827
13.416134845360597 186.237
13.438605238843131 132.994
13.46105863690397 116.805
13.483530069144786 118.363
13.505984506951902 125.53299999999999
13.528456981549432 137.576
13.550929978879088 152.786
13.573385983253365 175.172
13.595860028340867 206.646
13.618317081455832 245.197
13.64079217790333 288.622
13.663250283359057 331.36
13.685726434770173 360.775
13.708203115221277 343.501
13.730662806148091 275.472
13.75314054697177 198.861
13.775601299246777 134.968
13.798080104050406 102.12
13.820559442405358 88.4893
13.843021793671388 84.3128
13.865502201420897 82.5489
13.887965623051947 81.8937
13.910447103807167 80.753
13.932929122629764 79.3653
13.955394156785959 78.7975
13.977877254034569 77.8917
14.000343367582113 77.2362
14.022827546871707 76.4819
14.045294743423524 75.8463
14.06778000837062 75.0593
14.090265817715476 75.0114
14.112734645763819 74.7191
14.13522154619454 73.9598
14.157691466286913 74.1798
14.180179461423874 73.8525
14.202668005486178 73.2216
14.22513957064374 73.1459
14.247629214846473 72.477
14.270101881097517 72.2479
14.29259262906496 72.2592
14.315083930490205 72.3134
14.337558255389705 72.4914
14.360050666019726 72.4421
14.382526101071944 71.6103
14.405019624534942 71.4112
14.427513705993134 70.7652
14.449990813291825 70.9612
14.47248601302899 70.9468
14.49496423954951 70.7477
14.517460561197822 70.8417
14.539939910570322 70.4801
14.562437357763558 70.8369
14.58493536931253 71.6986
14.607416409993311 72.2428
14.62991555254159 72.6484
14.652397725157423 72.8414
14.674898002342799 72.9265
14.697398848433282 72.9995
14.719882725991326 74.5188
14.74238471217934 77.1789
14.764869730765593 82.0284
14.787372860692983 86.3333
14.809876564079925 92.2148
14.83236330125751 98.7136
14.854868153850365 107.728
14.877356041159485 120.402
14.899862046604186 136.041
14.922351087688757 155.783
14.944858249632887 177.208
14.967365991421232 199.84799999999998
14.989856770231246 217.33599999999998
15.012365673994204 216.887
15.03485761569738 193.92700000000002
15.05736768508665 152.519
15.07987833888692 119.52
15.102372032001655 93.766
15.124883856909658 79.3099
15.14737872204565 74.6227
15.169891721717274 72.6151
15.192405310371893 72.1446
15.214901940621196 72.2638
15.237416709527137 71.3605
15.259914520936249 71.831
15.282430473753607 70.9693
15.304947020131227 70.0452
15.327446610371178 69.7198
15.349964346154254 68.884
15.372465126703139 68.61399999999999
15.394984055556009 68.2677
15.417486030076159 68.2389
15.44000615566487 67.9107
15.462526881230803 67.8867
15.485030653812652 68.0721
15.507552581617434 68.0945
15.530057557334603 68.0442
15.55258069104857 68.1482
15.575104429329837 68.0939
15.597611216864632 68.1448
15.620136166564563 69.0245
15.6426441664095 71.4024
15.665170331202765 75.3264
15.687697105158826 78.8144
15.710206930593545 83.0141
15.732734925158933 87.86
15.755245972089478 94.0675
15.77777519094324 103.37799999999999
15.800287463046663 114.795
15.822817909869592 129.363
15.84534897229804 144.951
15.867863089299354 164.662
15.890395385222186 180.81
15.912910736597423 192.71400000000003
15.935444269699861 186.80599999999998
15.957978423016485 161.741
15.980495633101265 130.474
16.003031029129367 101.24600000000001
16.02554948280019 80.1507
16.048086125229432 69.7416
16.070623392487107 66.2768
16.09314371869582 65.1349
16.11568223789321 64.0483
16.13820381691126 63.3898
16.160743591742527 62.5405
16.183283996022084 61.9456
16.205807461423195 60.9879
16.228349126881973 60.6045
16.25087385432698 60.398
16.27341678466365 59.9636
16.29594277784926 59.6784
16.31848697676433 59.6182
16.341031811604868 59.4176
16.36355971058487 59.5819
16.3861058195587 59.3781
16.40863499352978 58.608999999999995
16.431182380342005 58.1339
16.453730407713202 57.4752
16.476261501364792 57.2162
16.498810812136167 57.0656
16.52134319004079 57.0419
16.54389378792203 57.0059
16.566445031001553 56.8654
16.588979342490088 56.8447
16.61153187824822 56.5901
16.634067483263312 56.4782
16.656621315414416 56.2869
16.679175797408888 56.0466
16.701713349928728 56.1748
16.72426913389191 56.3227
16.74680798922351 56.3849
16.76936507887444 56.4333
16.791905240734874 56.1954
16.814463639794468 56.2517
16.837022695210294 56.2532
16.859564824093756 56.461999999999996
16.882125194503903 56.8574
16.904668639217885 57.2397
16.927230328348003 57.5024
16.949792678493612 57.5455
16.972338104193863 57.4279
16.994901778652235 57.1768
17.017448529496576 57.386
17.040013531998152 58.0075
17.06257920018044 58.7749
17.0851279459922 59.5033
17.107694947817667 60.665
17.130245028099072 61.417
17.15281336730298 62.7915
17.17536478578733 64.51
17.19793446610687 66.7323
17.220504818648422 69.4327
17.243058251703697 71.6175
17.265629950971032 74.9824
17.288184731571736 78.8594
17.310757781306908 82.6865
17.33333150794385 84.8188
17.355888317140174 83.7138
17.37846339986244 79.22
17.401021565958885 73.1639
17.42359800851343 68.0126
17.44617513265564 64.3951
17.468735341390783 61.8491
17.491261035594565 60.9009
17.51396340099364 60.5682
17.536490463869136 60.7208
17.559018209820174 60.8258
17.58154663977963 60.891999999999996
17.604251766089718 61.0424
17.626781572227713 61.3855
17.64931206518155 61.5126
17.671843245885103 62.0919
17.69455114821572 62.2473
17.717083712612634 62.4277
17.739616967569667 62.806000000000004
17.762150914021706 63.3328
17.78486160749854 63.5449
17.807396945166804 64.6555
17.829932977143503 66.324
17.85246970436452 68.551
17.875183204129467 70.5509
17.897721330097664 73.1556
17.920260154126645 76.0358
17.942799677153296 79.3003
17.9655159983646 83.2517
17.988056927677544 88.0866
18.010598558807683 94.7446
18.033140892692916 102.676
18.05586005052525 110.67
18.07840379824407 119.99
18.10094825154059 130.094
18.12366954819864 139.515
18.146215420998306 142.39600000000002
18.16876200220057 136.562
18.191309292745153 123.92299999999999
18.214033452627167 110.76
18.236582170236648 97.2619
18.259131600016456 90.9063
18.281681742907335 89.3889
18.304408781233683 91.8951
18.32696035875955 95.4019
18.349512652227624 99.2862
18.372065662579683 103.915
18.394795594587553 106.124
18.41735004715306 104.13600000000001
18.43990521943684 97.9298
18.46246111238171 88.9663
18.485193953325208 79.2767
18.507751296070428 71.6715
18.530309362314178 67.6776
18.552868153000343 65.3711
18.57560391815056 64.0136
18.59816416623245 63.5102
18.620725141597372 62.9483
18.643286845190268 62.7382
18.666025549835414 62.2345
18.688588718427933 61.5433
18.711152618092243 61.478
18.73389353884365 61.1618
18.75645890921984 60.6766
18.77902501351406 60.4047
18.801591852673102 60.2715
18.824335739722738 59.7758
18.846904057212626 59.6927
18.8694731124168 59.3239
18.89204290628315 59.2833
18.914789774966803 59.2975
18.937361054791623 58.924
18.959933076131318 58.63
18.982505839934877 58.6847
19.00525570560582 58.7382
19.027829963004184 58.5321
19.05040496572238 58.8011
19.072980714710468 59.0753
19.095733592739563 59.3129
19.11831084296757 59.6098
19.140888842324735 60.1591
19.16346759176222 60.2458
19.18622349753803 60.8146
19.208803755869358 61.9168
19.231384767143577 63.1298
19.253966532312948 64.4997
19.276725481241822 66.3294
19.29930876296784 67.8766
19.3218928014549 70.1192
19.34465404436217 72.6148
19.36723960516257 74.8745
19.389825925592426 76.7814
19.412413006605938 76.5899
19.43517731967805 74.2574
19.457765930683355 70.0374
19.48035530514408 65.2119
19.50294544401556 61.4208
19.525712842708348 58.6438
19.54830451925909 56.7749
19.570896963095727 55.7385
19.593490175174704 55.4911
19.616260674962184 55.2494
19.638855432416964 55.1341
19.661450960992624 55.068000000000005
19.68404726164677 55.0095
19.706820878021247 55.005
19.729418731756834 55.0776
19.752017360452857 54.7649
19.77461676506804 55.2592
19.797393513540218 55.6538
19.819994478951667 55.9232
19.84259622316767 56.5373
19.8651987471481 56.9291
19.887978643247177 57.0935
19.91058273574792 57.7105
19.933187610901943 58.6244
19.955969879466828 59.703
19.97857632894404 61.0101
20.00118356396599 62.2215
20.023791585494575 63.9428
20.046577028914875 66.2724
20.069186632506966 68.0376
20.091797025500632 70.2603
20.114408208858933 71.3973
20.137196842715273 71.8062
20.159809615886765 70.9985
20.18242318232135 68.2984
20.20503754298326 65.9833
20.227829382875154 64.3689
20.250445341109344 63.6768
20.27306209647285 63.8482
20.29567964993108 64.6052
20.31847471147704 65.5279
20.34109387027612 66.5158
20.363713830075454 66.9718
20.386334591841646 65.9902
20.409132890679302 63.5647
20.431755265564437 60.3965
20.454378445325528 57.2214
20.477002430930366 54.9569
20.499803982716553 53.6378
20.522429589228004 52.5619
20.54505600449589 52.2306
20.567683229489194 52.0429
20.590488049900088 51.7871
20.61311690359731 51.4152
20.63574656993626 51.3618
20.658553853717297 50.8867
20.681185154618298 50.9787
20.703817271080066 50.8541
20.72645020407368 50.578
20.749260783967177 50.5267
20.771895359337133 50.4497
20.794530754161617 50.3779
20.817166969412938 50.3142
20.83998086114876 50.3462
20.86261872660049 50.2034
20.885257415405402 50.0989
20.90789692853701 50.1038
20.930714147864748 50.0195
20.953355319030678 50.1236
20.97599731745334 50.3765
20.99864014410749 50.0442
21.021460706796564 50.2528
21.044105199328826 50.4235
21.06675052302631 50.553999999999995
21.089396678865015 50.6663
21.112220600704806 50.9363
21.134868430275347 51.2194
21.15751709492456 51.2847
21.180166595629693 51.5467
21.202993892429635 51.9048
21.22564507473034 52.438
21.24829709602816 52.5916
21.27112693608965 52.8477
21.293780644891275 52.9116
21.316435195634053 52.3101
21.339090589297417 51.6864
21.361923832041875 51.148
21.384580921090404 50.3635
21.407238856007325 49.8706
21.429897637773326 49.7188
21.45273429906592 49.9471
21.475394784108598 49.9983
21.498056118951983 49.7203
21.520718304578022 50.0482
21.543558400304388 50.3162
21.566222297108816 50.5547
21.58888704765135 50.8069
21.61155265291521 51.1282
21.63439619898156 51.6178
21.657063523335786 51.9031
21.67973170537063 52.5042
21.7024007460706 53.0255
21.72524775840385 53.5542
21.747918526116475 54.7012
21.770590155457388 55.8653
21.79326264741238 57.1657
21.816113141960237 58.6664
21.838787368860547 60.1682
21.861462461341976 61.7358
21.884315579735777 63.3712
21.90699241312273 64.9049
21.92967011506078 66.0599
21.95234868653799 66.5934
21.9752053151131 65.5867
21.997885635446785 63.4287
22.020566828293532 61.3619
22.04324889464272 59.3786
22.066109049404666 57.7429
22.088792872571794 57.2692
22.111477572219204 57.1388
22.1341631493376 57.3514
22.157026846313123 57.3287
22.179714188221507 56.7963
22.202402410582668 55.8964
22.22509151438863 54.318000000000005
22.24795876962584 53.1357
22.270649646204486 52.0893
22.293341407213727 51.3056
22.316034053646906 50.8625
22.338904883215342 50.3701
22.36159931041458 50.3907
22.38429462602756 50.4594
22.40699083104897 50.0831
22.429865251039757 50.114
22.452563244831367 50.2084
22.47526213102522 50.1379
22.49813925616515 50.0625
22.520839937143307 50.0102
22.543541513520587 50.0533
22.56624398629403 49.833
22.589124730075895 50.0296
22.611829005656723 50.2734
22.63453418063466 50.2969
22.657240256008077 50.5541
22.680124634582935 50.7138
22.70283252079775 50.9654
22.725541310413075 51.4107
22.74825100442868 51.631
22.771139033969575 51.9657
22.79385054687155 52.3173
22.81656296718292 52.957
22.83927629590484 53.7178
22.862167992606945 54.4857
22.88488314827121 55.4592
22.907599215359284 56.096000000000004
22.93031619487366 57.1228
22.953211574954405 57.9793
22.975930389478226 58.8781
22.998650119445763 59.3627
23.02137076586092 58.8808
23.044269845560063 57.8712
23.06699233506288 56.2748
23.089715744034912 54.4733
23.112617610931565 52.8001
23.135342869061212 51.4783
23.158069049684816 50.6951
23.1807961538087 50.3081
23.20370174880544 50.3173
23.226430710184808 50.4839
23.249160598093425 50.5365
23.271891413539002 50.5442
23.294800752937697 50.608999999999995
23.31753343374794 51.0068
23.340267045128353 50.9396
23.36300158808808 51.2956
23.38591468821339 51.57899999999999
23.408651104658304 52.2206
23.431388455719986 52.6274
23.454126742409 53.2901
23.4770436196085 54.0442
23.499783787914662 55.0157
23.522524894889884 55.6533
23.54526694154616 56.5236
23.56818761219047 57.7941
23.59093154860734 58.4895
23.613676427751283 59.2315
23.636422250635754 58.6204
23.659346731118656 57.3525
23.68209445191868 55.5882
23.704843119509587 53.1813
23.72759273490623 51.2997
23.750521041644767 49.6999
23.77327256312355 48.5278
23.796025035462787 47.8573
23.818956224555475 47.3461
23.841710609113413 47.2619
23.86446594758979 47.0235
23.887222241002014 46.8093
23.910157285144578 46.4656
23.932915498962537 46.6472
23.955674670778713 46.2704
23.978434801611975 46.2081
24.001373717286125 45.9794
24.024135776723917 45.7542
24.046898798245582 45.6602
24.06966278287146 45.696000000000005
24.092605586582614 45.4943
24.115371508023642 45.4697
24.1381383956401 45.2674
24.16090625045381 45.3032
24.183852958731244 45.2367
24.206622758582608 44.9656
24.229393528706886 44.8769
24.252165270127392 44.8867
24.27511589952438 44.8153
24.297889594216997 44.5654
24.32066426328598 44.4396
24.34343990775613 44.5738
24.36639447485003 44.4049
24.38917208083877 44.4652
24.41195066531332 44.4202
24.43490819850244 44.3063
24.457688750692377 44.2843
24.48047028445616 44.1544
24.503252800821233 44.4061
24.526214300784112 44.2244
24.548998793132213 44.4105
24.57178427117417 44.2065
24.59457073593893 44.1186
24.617536219319863 44.0407
24.64032466834748 44.1517
24.663114107195035 44.0634
24.685904536893013 43.7136
24.708874020360852 43.8228
24.731666442613744 43.8073
24.754459858818787 43.5304
24.777254270007962 43.4362
24.80022777025625 43.3974
24.82302418230472 43.3585
24.845821592443674 43.4866
24.86862000170663 43.4744
24.891597535453727 43.3785
24.914397953892728 43.6727
24.93719937456671 43.593
24.96000179851076 43.7446
24.98298338249997 43.7923
25.00578782394922 44.1302
25.028593271784167 44.2956
25.05157790644186 44.6529
25.07438537804115 44.5082
25.097193859145293 44.788999999999994
25.120003350792075 45.0165
25.142992065061257 45.2848
25.165803588823465 45.6506
25.18861612625217 45.8442
25.211429678386736 45.8399
25.234422489079968 46.056000000000004
25.257238081693636 45.9537
25.280054692141732 45.8844
25.3028723214652 45.743
25.325869245420463 45.9373
25.348688923599397 46.0197
25.371509623787006 46.0398
25.394331347025812 45.8862
25.41733240110666 45.4802
25.440156181590016 44.81
25.46298098826268 44.3071
25.48580682216873 43.6655
25.50881202326435 43.0362
25.53163992281684 42.6555
25.55446885274561 42.4181
25.577298814096377 41.9601
25.600308179121807 42.0519
25.623140214533745 42.0387
25.64597328451537 41.99
25.66898578564376 41.7649
25.691820936010206 41.7749
25.714657124097695 41.7456
25.737494350954734 41.7534
25.760511045684957 41.5974
25.783350361364224 41.6951
25.806190718969255 41.8287
25.82903211955018 41.78
25.852053024868923 41.744
25.874896522722523 41.8408
25.897741066713106 41.8967
25.920586657892454 41.9624
25.943611790812668 42.1441
25.966459487728237 42.1038
25.989308234998564 42.0117
26.01215803367705 42.4664
26.03518741123814 42.5297
26.05803932412957 42.5414
26.080892291600094 42.659
26.10374631470478 42.7749
26.12677995397268 42.9605
26.14963609978026 42.8257
26.172493304397875 42.4116
26.19535156888223 42.3737
26.218389486949604 42.0173
26.241249882640123 41.761
26.26411134137826 41.5137
26.28715248187403 41.4612
26.31001607820869 41.2569
26.3328807407756 41.1335
26.35574647063438 41.373999999999995
26.37879191991473 41.3214
26.401659795896734 41.2637
26.424528742360263 41.4613
26.447398760366614 41.6724
26.470448535598294 41.7664
26.49332070826805 41.8731
26.516193955675355 42.1973
26.53906827888316 42.3771
26.562122397260108 42.4694
26.584998883685063 42.7552
26.607876449110325 43.0212
26.63075509460056 43.1711
26.65381357334404 43.2484
26.67669439061878 43.3323
26.699576291163382 43.2717
26.722459276044212 43.1235
26.745522132402975 42.8847
26.768407297649354 42.6548
26.791293550442003 42.2643
26.814180891848974 42.0517
26.837248143099337 41.7213
26.860137673466657 41.4832
26.88302829566349 41.284
26.90592001075963 41.1873
26.92899167420566 40.9598
26.951885586870763 40.6151
26.974780595655517 40.5091
26.99785558178161 40.3226
27.020752794605112 40.1624
27.043651106772522 39.9837
27.06655051935668 39.9735
27.089629948036183 39.7744
27.112531573292053 39.7421
27.135434302194138 39.821999999999996
27.158338135817015 39.6663
27.181422024430987 39.6479
27.204328079372566 39.5853
27.22723524226965 39.6744
27.250143514198573 39.6791
27.273231880156334 39.650999999999996
27.296142382065014 39.5467
27.319053996245536 39.5293
27.341966723775965 39.6385
27.365059584515222 39.6928
27.38797455070062 39.5854
27.410890633481237 39.4889
27.433807833936918 39.5473
27.456905206923906 39.5724
27.47982465472398 39.4739
27.502745223449743 39.6219
27.525666914182825 39.7343
27.548768816912457 39.6508
27.571692763693633 39.6595
27.59461783573812 39.5167
27.617723149491244 39.286
27.640650484125285 39.3041
27.66357894728264 39.2986
27.686508540048052 39.2127
27.709618414237887 39.1289
27.732550278321757 39.0198
27.755483275279115 38.8882
27.778417406196485 38.9663
27.801531858397514 38.9393
27.824468269376716 38.8726
27.847405817586786 38.8177
27.870344504116094 39.1623
27.893463551932008 39.228
27.916404527281053 39.3537
27.93934664422563 39.4225
27.962289903855886 39.4627
27.98541356491974 39.6873
28.00835912214229 39.7808
28.03130582533231 40.005
28.054253675581805 40.0747
28.077381967556104 40.0263
28.100332124185126 40.1247
28.123283431160893 40.0326
28.146235889577238 39.928000000000004
28.169368830154156 39.6875
28.192323603752033 39.5053
28.215279532083304 39.2092
28.238415973016764 38.9713
28.261374223145094 38.9292
28.284333631303806 38.7906
28.307294198589954 38.5272
28.330435319167677 38.2473
28.353398217078915 38.033
28.376362277420153 37.9213
28.39932750129032 37.6447
28.422473319286713 37.4939
28.44544088262495 37.4335
28.468409612800283 37.3031
28.491379510913497 37.1336
28.51453004413313 36.9844
28.53750229057244 36.9412
28.56047570826344 36.9153
28.583450298308804 37.0019
28.606605564586562 36.6348
28.629582511831156 36.7491
28.65256063474956 36.5695
28.675539934446338 36.6747
28.698699951647605 36.6529
28.72168161743193 36.4121
28.74466446331978 36.4892
28.767648490417624 36.4247
28.790813276438353 36.381
28.813799678527303 36.4744
28.836787265157085 36.4476
28.859955641890075 36.435
28.882945610203045 36.3913
28.905936766392035 36.3063
28.928929111566863 36.2668
28.952102288520145 36.2449
28.975097024308607 36.0793
28.998092952423807 35.9429
29.021090073977508 35.9563
29.04426806913204 35.6992
29.067267590245258 35.6256
29.090268308143695 35.5127
29.11327022394099 35.4429
29.13645305530891 35.4079
29.159457379627167 35.4465
29.18246290519685 35.2674
29.20546963313352 35.2817
29.22865731875826 35.2598
29.25166646419296 35.2696
29.27467681535305 35.1018
29.29768837335608 35.3202
29.320880931312562 35.1406
29.34389491580634 35.0933
29.366910110507334 35.0988
29.38992651653503 35.1122
29.41312396492981 35.1382
29.436142806456754 34.9839
29.45916286268059 34.8757
29.48236399319994 34.8473
29.50538649169417 34.7486
29.528410208259935 34.6855
29.55143514402014 34.4893
29.574641196749695 34.3703
29.597668583816574 34.2354
29.6206971934585 34.0246
29.64372702680042 34.0948
29.666938019934474 34.0307
29.689970313635285 33.9269
29.713003834422636 33.961999999999996
29.73603858342347 33.8559
29.759254535188578 33.7777
29.78229175361658 33.6637
29.80533020365064 33.7759
29.82836988641968 33.8632
29.85159081507472 33.719
29.874632976355343 33.6694
29.89767637376955 33.6796
29.920721008448314 33.364000000000004
29.9439469322847 33.4913
29.96699405457564 33.444
29.9900424175358 33.5163
30.013092022298157 33.3582
30.03632295963995 33.4171
30.059375061131373 33.4116
30.08242840783577 33.4042
30.105483000888153 33.3942
30.128718970092244 33.3328
30.151776069006917 33.306999999999995
30.17483441768648 33.3693
30.198074175317235 33.2387
30.221135036724256 33.2249
30.24419715131772 33.2523
30.267260520236203 33.2532
30.290505341942243 33.2403
30.313571232750228 33.306999999999995
30.336638381310948 33.3586
30.35970678876503 33.2178
30.38295669299435 33.0967
30.40602763151657 33.0506
30.429099832366074 33.0306
30.452173296685572 32.9173
30.47542830191959 32.9747
30.498504306502497 33.0152
30.521581577995562 32.9827
30.544660117543582 32.9848
30.56792024229725 32.9968
30.59100133132069 32.9885
30.614083691845494 32.9876
30.637167325018545 32.9178
30.660432587840603 32.993
30.683518779717886 32.9351
30.70660624769615 33.1062
30.729694992924372 33.0726
30.75296541239743 33.1232
30.77605672557558 32.9678
30.799149319462742 33.0487
30.8224236211637 32.9138
30.845518789950724 32.8711
30.868615242910597 32.7446
30.891712981195973 32.558
30.91499247215866 32.4436
30.938092794619365 32.4712
30.96119440587579 32.3099
30.984297307082752 32.2808
31.00758200598383 32.149
31.030687500658694 32.1691
31.053794288760695 32.1319
31.076902371446767 31.9074
31.100192296997445 31.9229
31.12330298246119 31.9713
31.14641496599209 31.7554
31.169528248749216 31.8048
31.19282341969534 31.7189
31.215939314557186 31.7593
31.239056512134788 31.8437
31.262175013589378 31.6911
31.28547544871168 31.7016
31.30859657161541 31.6416
31.331719001892175 31.6794
31.35484274070538 31.7765
31.378148458819545 31.7006
31.401274828443725 31.7221
31.424402510106933 31.7204
31.447712205419993 31.7783
31.470842524931633 31.6587
31.493974159989783 31.6909
31.51710711176168 31.6653
31.54042212308802 31.6668
31.563557722100917 31.6252
31.586694641341655 31.4248
31.609832881979628 31.2706
31.63315322823208 31.3397
31.656294125521327 31.2291
31.679436347728515 31.1768
31.70257989602529 31.0257
31.725905596152327 31.0298
31.74905181052835 30.9298
31.772199354521323 31.0207
31.79534822930507 31.0307
31.818679302290967 30.9782
31.84183085259981 30.9395
31.864983737233473 30.9232
31.88813795736804 30.9081
31.911474422233013 30.8509
31.934631327356435 30.8462
31.9577895715215 30.8408
31.980949155906522 30.7772
32.004291031706956 30.7648
32.027453310562606 30.7061
32.05061693318573 30.6744
32.07396288236386 30.6004
32.09712920658542 30.5337
32.12029687812702 30.3646
32.14346589817093 30.4093
32.166817291729984 30.2905
32.18998902288583 30.3474
32.21316210610336 30.1789
32.23633654256711 30.0617
32.259693399663725 30.0191
32.282870556771144 29.9798
32.30604907069099 29.9731
32.329228942610065 29.9115
32.35259128243769 29.7813
32.375773884550505 29.7589
32.398957848235646 29.7285
32.422143174682176 29.6788
32.445511016471215 29.5472
32.468699082679954 29.491
32.49188851523011 29.4786
32.51507931531304 29.393
32.538452678331 29.4371
32.56164622776311 29.3972
32.58484114831493 29.3547
32.60803744118015 29.2545
32.631416344731896 29.2057
32.654615396551876 29.2671
32.67781582427913 29.252
32.701198898634416 29.1144
32.72440209253756 29.028000000000002
32.747606665947124 28.9987
32.77081262006088 28.8692
32.79420126883317 28.9275
32.81740999876112 29.0246
32.840620112999424 28.927
32.86383161274818 28.7241
32.88722585534586 28.7106
32.91044014056596 28.8923
32.933655814909734 28.8185
32.95687287957963 28.8094
32.98027273544904 28.6331
33.00349259526636 28.6082
33.026713849030116 28.6451
33.04993649794511 28.6442
33.073341986570746 28.5695
33.09656744032826 28.6559
33.11979429286444 28.5992
33.14302254538647 28.5483
33.166433686291185 28.4472
33.18966475336992 28.4584
33.212897224069096 28.3264
33.23613109959831 28.3363
33.259547912343415 28.3118
33.2827846121627 28.3777
33.306022720453775 28.3147
33.32926223842861 28.114
33.352684742614166 28.1579
33.37592709463173 28.1117
33.399170859982064 28.0992
33.422597648419426 27.988000000000003
33.44584425514446 27.8344
33.46909227885668 27.8482
33.4923417207723 27.7403
33.51577423505344 27.7825
33.539026528130385 27.6718
33.56228024307245 27.6899
33.585535381098246 27.5817
33.60897364093058 27.4545
33.63223163992385 27.5135
33.6554910656699 27.4505
33.678751919389796 27.4014
33.702195944520106 27.3583
33.72545966903325 27.2869
33.74872482519663 27.1553
33.771991414233746 27.2371
33.79544122444841 27.1948
33.81871069412428 27.08
33.84198160035767 27.1016
33.86525394437455 27.11
33.88870955949969 27.0277
33.911984794020626 27.0287
33.93526147001624 26.9973
33.958539588715006 26.864
33.98200102861669 26.8209
34.0052820477047 26.7822
34.02856451319451 26.7746
34.05203033759056 26.7341
34.07531571090147 26.6612
34.09860253431845 26.6796
34.121890809074316 26.6675
34.145362493118924 26.5627
34.16865368561615 26.4541
34.191946333164054 26.4812
34.21524043699793 26.4475
34.23871800066799 26.4254
34.26201503218366 26.2934
34.28531352370466 26.2569
34.30861347646881 26.2578
34.33209693978188 26.1812
34.3553998301885 26.3092
34.378704185565205 26.2318
34.402010007152356 26.0696
34.42549939016683 26.1253
34.44880815937748 26.0504
34.472118398533134 25.8818
34.49543010887669 25.8435
34.51892543169198 25.8714
34.54224009966052 25.8424
34.56555624255917 25.828000000000003
34.58887386163339 25.7852
34.61237514439016 25.6985
34.6356957311114 25.5971
34.65901779775809 25.5895
34.68252356662995 25.6074
34.705848608458616 25.6229
34.72917513396849 25.5446
34.75250314440949 25.4667
34.77601490857862 25.3559
34.799345904259795 25.3539
34.82267838863559 25.3583
34.846012362958525 25.278000000000002
34.869530142679984 25.3924
34.89286711232212 25.2898
34.91620557568269 25.2257
34.93954553401677 25.1106
34.9630693495876 25.0922
34.986412313340814 25.2079
35.00975677584668 25.0727
35.033102738362956 25.0759
35.05663261012228 25.0172
35.0799815881786 25.061
35.10333207003229 24.9204
35.12668405694369 25.0162
35.150220005273056 24.9311
35.17357501786656 24.8904
35.19693153931268 24.8234
35.220289570874385 24.8381
35.24383161619786 24.8466
35.267192683604904 24.7918
35.290555264930376 24.7058
35.314101899412165 24.6966
35.33746752422433 24.7168
35.36083466676374 24.678
35.38420332829803 24.5965
35.407756095629054 24.6314
35.43112781085063 24.588
35.45450104888391 24.5492
35.477875810999194 24.5816
35.50143473172161 24.593000000000004
35.52481255774625 24.4492
35.54819191167777 24.3813
35.57157279478914 24.3873
35.595137889488406 24.4223
35.61852184675279 24.4033
35.641907337029984 24.2541
35.665294361595684 24.2085
35.68886565090076 24.1585
35.7122557598848 24.2024
35.73564740699838 24.212
35.759040593519934 24.1023
35.78261809810353 24.0799
35.80601437933051 24.0349
35.829412203814705 23.9187
35.85281157283719 23.8934
35.876395313415884 23.9696
35.8997977874528 23.8584
35.92320180988546 23.8157
35.946790244133936 23.7179
35.97019737933222 23.8018
35.993606066789866 23.6935
36.01701630779276 23.5653
36.04061101440684 23.6116
36.06402437852291 23.6081
36.08743930005611 23.5415
36.1108557802951 23.486
36.13445678011326 23.4703
36.15787639383515 23.4827
36.18129757014299 23.5098
36.20472031032821 23.3958
36.22832762423364 23.2843
36.25175350829375 23.3049
36.275180960119776 23.1655
36.298609981005924 23.2938
36.32222362992669 23.2577
36.34565580510207 23.2519
36.36908955323448 23.1662
36.39252487562093 23.0315
36.416144880530226 23.0248
36.43958336764275 23.0419
36.463023432914625 22.9841
36.486465077645676 22.9841
36.51009145956204 22.9883
36.53353627947859 22.9949
36.55698268276811 22.9072
36.58043067073321 22.7957
36.60406345072071 22.7679
36.62751462435344 22.7908
36.65096738658405 22.7674
36.67460498210655 22.6923
36.69806093788647 22.7055
36.72151848619297 22.6289
36.744977628333636 22.6123
36.76862165890998 22.5323
36.79208400512205 22.5026
36.81554794910557 22.5202
36.83901349217101 22.4165
36.862663978991606 22.4639
36.88613273667352 22.4124
36.90960309738324 22.3937
36.933075062434064 22.3038
36.95673202673572 22.2639
36.98020721697122 22.289
37.003684015502365 22.203000000000003
37.027162423645365 22.1711
37.050825886711465 22.1205
37.07430753063053 21.980999999999998
37.09779078812467 22.0364
37.121275660513014 22.0252
37.144945643673694 22.0054
37.16843376245278 22.0042
37.19192350009803 22.0469
37.215414857931435 21.9038
37.239091382563885 21.859
37.262585997426164 21.8833
37.28608223645736 21.820999999999998
37.309763684451696 21.8018
37.33326318851098 21.7716
37.356764320726555 21.6879
37.380267082425526 21.6837
37.40395510942588 21.6931
37.42746114683234 21.5911
37.45096881771841 21.5694
37.474478123414166 21.5557
37.49817275092816 21.4892
37.52168534303452 21.5283
37.54519957395567 21.3893
37.568715445024665 21.3792
37.592416694607714 21.3522
37.61593586281424 21.436
37.63945667518264 21.3855
37.66297913304891 21.3644
37.68668702630454 21.3112
37.710212792059274 21.1982
37.733740207334854 21.1664
37.757269273470364 21.076999999999998
37.780983832050374 21.0163
37.80451621684926 21.0494
37.82805025654007 21.0717
37.851585952464795 21.0195
37.8753071980695 20.9531
37.89884622345676 20.8876
37.92238690911902 20.8243
37.94611318753442 20.7975
37.969657210779765 20.8235
37.99320289834801 20.7432
38.016750251586465 20.7807
38.04048325513017 20.7404
38.06403395679343 20.7336
38.087586328183946 20.6176
38.11114037065203 20.6061
38.13488012115898 20.605
38.1584375229181 20.5594
38.181996599821 20.494
38.205557353221124 20.5174
38.229303872575656 20.4443
38.2528679961576 20.444000000000003
38.27643380031219 20.4114
38.30000128639589 20.3416
38.32375459653193 20.3228
38.34732546371299 20.3506
38.37089801690786 20.2566
38.39447225747609 20.2032
38.418232380377425 20.208
38.441810012983396 20.208
38.46538933705673 20.1063
38.488970353960084 20.0777
38.51273731166058 20.0788
38.536321731567014 20.0439
38.55990784840681 20.0098
38.58367995004091 20.0037
38.60726947812959 19.9135
38.63086070726198 19.9967
38.654453638806274 19.9229
38.678232613930824 19.8748
38.70182896773327 19.8449
38.72542702806741 19.8023
38.7490267963045 19.7602
38.77281266709232 19.7515
38.79641586862214 19.6578
38.8200207821842 19.6728
38.843627409152944 19.66
38.86742019782782 19.5642
38.891030269149255 19.5647
38.914642058016156 19.452
38.938255565806124 19.5035
38.96205529464307 19.4619
38.98567225787121 19.4188
39.00929094417078 19.3953
39.03291135492255 19.4067
39.05671804624804 19.3377
39.080341923549106 19.3326
39.103967529460334 19.3032
39.127594865365744 19.2565
39.15140854155791 19.1941
39.17503935514948 19.2245
39.19867190290282 19.2282
39.22249083587951 19.1444
39.24612686969409 19.0441
39.269764641845306 19.1501
39.293404153722804 18.9921
39.317230110864074 18.9663
39.34087311998506 18.951
39.36451787301696 19.0322
39.388164371352595 18.8788
39.41199737518003 18.8459
39.43564738196752 18.8701
39.45929913825317 18.7431
39.48295264543308 18.787
39.506792718520884 18.7524
39.530449745387216 18.7286
39.55410852735203 18.7158
39.57776906581474 18.7261
39.60161623079 18.6581
39.625280300200025 18.6446
39.64894613032202 18.5755
39.67261372255866 18.6002
39.6964680021016 18.6047
39.72013913657293 18.509
39.74381203738292 18.5476
39.76748670593756 18.5171
39.79134812278169 18.4523
39.81502634488497 18.398
39.83870633896685 18.3531
39.862388106436654 18.3395
39.88625668336918 18.291
39.90994201572829 18.3065
39.933629125719285 18.2225
39.957503091207826 18.2257
39.9811937746168 18.2297
40.00488623990914 18.1074
40.02858048850006 18.0429
40.05246165409549 18.0528
40.076159487492085 17.991
40.099859108448875 18.0574
40.123560518384345 18.0257
40.1474489070226 17.9889
40.171153913178564 17.9597
40.194860712584955 17.9277
40.2185693066637 17.9157
40.242464941335314 17.9076
40.26617714307655 17.875999999999998
40.289891143772046 17.8113
40.3136069448471 17.8639
40.33750984859743 17.8095
40.3612292688043 17.7312
40.3849504936829 17.6884
40.40867352466194 17.7141
40.43258372059144 17.6916
40.45631038219906 17.7111
40.48003885420956 17.6458
40.503769138055105 17.5983
40.52768664931955 17.5847
40.55142057531802 17.5721
40.57515631746428 17.483
40.599079334038514 17.4912
40.62281872700477 17.4622
40.64655994043941 17.4026
40.67030297578061 17.3918
40.69423334835778 17.3638
40.71798004609188 17.2747
40.74172857006355 17.266
40.76547892171441 17.2895
40.7894166736039 17.239
40.813170699248566 17.2161
40.83692655691388 17.1755
40.86068424804498 17.1935
40.884629402612525 17.1461
40.908390779366385 17.1046
40.932153993938 17.0618
40.95591904777605 17.0777
40.979871628443995 17.0414
41.003640379561936 16.97
41.02741097430883 16.9795
41.05118341413683 16.9996
41.075143444384416 16.9304
41.098919593177826 16.9544
41.1226975914255 16.926
41.14647744058318 16.8703
41.170444943946755 16.8629
41.19422851378379 16.8506
41.218013938914645 16.7176
41.24198706625173 16.6586
41.26577622087193 16.6488
41.289567235177785 16.6393
41.31336011063129 16.6704
41.337340752422875 16.546
41.361137369129835 16.5842
41.38493585138705 16.5153
41.40873620066004 16.5146
41.43272438060107 16.4724
41.45652848292052 16.4494
41.48033445666918 16.4213
41.50414230331616 16.4206
41.528138045159764 16.4103
41.551949656675205 16.3971
41.575763145513235 16.2954
41.59957851314666 16.282
41.62358184070442 16.2209
41.64740098505737 16.2116
41.6712220126409 16.2099
41.69504492493139 16.2576
41.71905586207357 16.1439
41.74288256296395 16.1656
41.766711153007456 16.0991
41.79054163368412 16.0184
41.814560204340054 16.0475
41.838394485526365 16.0634
41.86223066180303 15.9833
41.88625497706819 15.9708
41.910094962812 15.9448
41.93393684811168 15.9299
41.95778063445365 15.8303
41.981812625263366 15.8708
42.00566023303407 15.8471
42.029509746323676 15.7951
42.05336116662236 15.7594
42.077400857069705 15.7582
42.10125611078846 15.6917
42.12511327600405 15.693
42.14897235421036 15.6253
42.173019768448455 15.648
42.19688269209613 15.6319
42.22074753323349 15.5824
42.24461429335818 15.548
42.268669455600495 15.5289
42.292540073217886 15.4629
42.31641261433284 15.5052
42.34028708044675 15.4735
42.36435001496739 15.4288
42.38822835065557 15.3959
42.41210861586426 15.3985
42.4359908120986 15.3664
42.46006154323262 15.3597
42.48394762115317 15.3124
42.507835634632315 15.3053
42.531912233047436 15.2478
42.55580413732265 15.2264
42.579697981698 15.216
42.60359376768525 15.1803
42.62767820545945 15.1518
42.65157789440821 15.1031
42.67547952952185 15.1334
42.699383112316 15.0666
42.72347541395347 15.0196
42.74738291190531 15.0211
42.771292362102166 15.0142
42.795203766063516 14.9976
42.819303956130405 14.9227
42.843219287476536 14.9248
42.86713657716324 14.8772
42.89105582671383 14.8333
42.91516392983864 14.8593
42.939087119032166 14.8552
42.963012272677304 14.7748
42.98693939230129 14.7516
43.01105543317513 14.7179
43.034986504731386 14.6958
43.05891954686589 14.7226
43.08285456110972 14.6745
43.10697856448665 14.6323
43.130917542983475 14.609000000000002
43.15485849820081 14.5991
43.17880143167367 14.5727
43.20293342237094 14.5345
43.226880332449 14.5119
43.25082922540554 14.5084
43.27496722682525 14.4785
43.29892010567796 14.4606
43.32287497204102 14.4305
43.34683182745632 14.4339
43.370977859791836 14.3684
43.39493871351105 14.3348
43.41890156092628 14.3187
43.44286640358341 14.2973
43.46702049182749 14.2757
43.49098934522816 14.2447
43.51496019852649 14.2072
43.5389330532723 14.2333
43.56309522248204 14.1883
43.58707210044314 14.1615
43.61105098451946 14.1327
43.63503187626491 14.0797
43.659202151562134 14.0614
43.68318707902681 14.0324
43.70717401884041 14.0392
43.731162972560874 14.0
43.75534137913236 13.9725
43.779334381108384 13.9231
43.803329401683186 13.8741
43.82732644241872 13.8715
43.8515130055166 13.8826
43.87551410707659 13.8425
43.89951723350145 13.865
43.923709934595614 13.8078
43.94771713129917 13.8202
43.97172635758096 13.8163
43.99573761501002 13.6978
44.0199385169922 13.6697
44.04395385732619 13.6798
44.067971233533086 13.6646
44.09199064718605 13.6484
44.11619977548961 13.6416
44.14022328470671 13.56
44.16424883610785 13.5651
44.18827643127035 13.5627
44.21249381139513 13.520999999999999
44.236525514814076 13.5037
44.26055926674478 13.4918
44.28459506876863 13.4858
44.3088207262813 13.4019
44.33286064928722 13.4167
44.35690262714919 13.3907
44.38094666145278 13.3304
44.4051806219871 13.3598
44.42922879003185 13.3251
44.45327901929361 13.2408
44.477331311362136 13.2541
44.501573600619416 13.247
44.525630039221795 13.2215
44.54968854541895 13.2392
44.573937102200176 13.1661
44.5979997645541 13.1372
44.622064499300315 13.2112
44.64613130803592 13.1526
44.67038823869318 13.1141
44.69445921643748 13.0768
44.718532272981385 13.0215
44.742607409926194 13.0466
44.76687274034801 12.9889
44.79095205918753 12.9717
44.81503346325094 12.9352
44.839116954143876 12.9469
44.86339071028742 12.9342
44.88747839599524 12.8906
44.91156817336837 12.8215
44.93566004401666 12.8363
44.959942251908146 12.7954
44.984038330325966 12.7685
45.00813650686762 12.7291
45.03223678314731 12.716
45.05652746888232 12.6726
45.08063196592069 12.6454
45.104738567558705 12.6524
45.128847275414856 12.6034
45.15314646515866 12.5955
45.17725940679741 12.6287
45.20137445952892 12.517999999999999
45.22568004865265 12.5033
45.24979934496396 12.5686
45.27392075725247 12.532
45.29804428714431 12.4917
45.322358426247604 12.4626
45.346486212804315 12.4136
45.370616121861914 12.4572
45.39474815505086 12.4049
45.41907087049246 12.3592
45.4432071734666 12.34
45.46734560548283 12.3197
45.49148616817604 12.3344
45.51581748638564 12.3188
45.5399623320197 12.2979
45.56410931325473 12.2471
45.58825843173002 12.2938
45.61259837920865 12.2123
45.636751793816 12.1806
45.66090735060093 12.1201
45.68506505120716 12.085
45.7094136545275 12.124
45.73357566449271 12.0697
45.75773982322992 12.0724
45.78190613238733 12.0531
45.806263418194064 11.9988
45.83043404997326 12.0317
45.85460683713677 11.9893
45.87897065658495 11.9353
45.90314777634752 11.9074
45.92732705646868 11.9301
45.9515084986045 11.8989
45.97588104735473 11.9049
46.00006683541565 11.8313
46.02425479047904 11.8189
46.04844491420549 11.8205
46.0728262191024 11.7538
46.09702070211635 11.7782
46.12121735879483 11.8063
46.14541619080294 11.7692
46.169806278764455 11.720999999999998
46.194009483459034 11.7028
46.21821486849841 11.7249
46.24242243555223 11.6185
46.266821333570014 11.6163
46.29103328674601 11.5916
46.31524742696538 11.6179
46.33946375590237 11.5322
46.36387149104216 11.5157
46.38809221957392 11.5065
46.41231514186606 11.4928
46.436540259597464 11.4824
46.460956858999374 11.4447
46.48518638983522 11.4423
46.509418121166966 11.4258
46.533652054678114 11.424000000000001
46.55807754555709 11.3986
46.58231590571962 11.3827
46.60655647313217 11.3274
46.630988654873654 11.2746
46.655233659129024 11.2615
46.67948087571551 11.2809
46.70373030632484 11.2585
46.72817142736393 11.2591
46.752425308428684 11.2216
46.77668140861147 11.2352
46.80093972960865 11.1565
46.82538981736788 11.1505
46.849652602470904 11.1395
46.87391761349769 11.0977
46.8981848521493 11.095
46.9226439341274 11.0268
46.946915650573224 11.0491
46.97118959976749 10.9941
46.99546578341598 10.953
47.019933887188216 10.9954
47.04421456235744 11.0002
47.06849747711879 10.9605
47.09278263318286 10.9188
47.11725978640143 10.8682
47.14154944775105 10.8727
47.165841355555656 10.8787
47.1901355115306 10.824000000000002
47.214621741924994 10.8882
47.23892041698887 10.8546
47.26322134538975 10.7704
47.28771440635075 10.7493
47.31201986422527 10.7482
47.33632758061436 10.7351
47.360637557241866 10.6679
47.38513974410611 10.6825
47.40945426407847 10.6983
47.43377104948137 10.648
47.45809010204344 10.6317
47.48260144275502 10.5892
47.506925052572285 10.5759
47.53125093475548 10.5672
47.55557909103813 10.5251
47.58009961361992 10.5513
47.60443234110732 10.4896
47.62876734791564 10.4938
47.65310463578333 10.4907
47.6776343683373 10.4593
47.7019762413987 10.4257
47.72632040075572 10.3929
47.75066684815169 10.3881
47.77520581885936 10.4078
47.799556865477655 10.3245
47.823910205386 10.3236
47.84826584033272 10.312999999999999
47.87281407745551 10.2716
47.89717432569297 10.2581
47.92153687423484 10.2625
47.94609208429692 10.2415
47.97045925671401 10.2198
47.99482873471275 10.169
48.01920052005013 10.1896
48.04376504619224 10.1556
48.068141469543484 10.1856
48.09252020552573 10.1457
48.11690125590099 10.1239
48.1414751266064 10.0928
48.16586082917454 10.0643
48.19024885144316 10.0553
48.2146391951793 10.0544
48.239222439012764 10.0281
48.26361744916137 9.97983
48.28801478610016 9.99249
48.31241445160131 9.97719
48.337007097209366 9.9428
48.36141144338331 9.920760000000001
48.38581812345755 9.89268
48.41022713920929 9.91719
48.434829215320704 9.85096
48.45924292604658 9.83282
48.48365897780325 9.84806
48.50807737237308 9.85175
48.532688907799276 9.80488
48.55711201168574 9.77581
48.581537463754074 9.78701
48.60615611725119 9.81885
48.63058628942721 9.75506
48.65501881516546 9.7255
48.6794536962573 9.71233
48.70408185970339 9.70042
48.72852147531801 9.6502
48.75296345168211 9.59388
48.77740779059232 9.65349
48.80204549302823 9.609919999999999
48.82649458091802 9.59876
48.85094603676547 9.54775
48.87539986237231 9.545110000000001
48.90004713292306 9.5297
48.92450572200832 9.51368
48.94896668628025 9.47932
48.97343002754588 9.517000000000001
48.99808689542115 9.50078
49.02255501470614 9.480310000000001
49.04702551642794 9.4661
49.0714984023988 9.41775
49.096164896893235 9.36485
49.120642575466796 9.36565
49.145122643748394 9.38903
49.16960510355558 9.33662
49.19428125404938 9.31858
49.2187685210852 9.345889999999999
49.243258185121555 9.33403
49.26794160167084 9.27967
49.2924360839405 9.24162
49.31693296869764 9.22175
49.34143225776915 9.2109
49.36612538195438 9.19212
49.39062950396021 9.17828
49.41513603578346 9.1373
49.4396449792564 9.158760000000001
49.46434784069503 9.131969999999999
49.488861631846454 9.11882
49.513377840166804 9.09305
49.537896467493745 9.06533
49.56260909589029 9.020489999999999
49.587132585683285 9.07489
49.611658500018365 8.99985
49.636186840738596 8.992460000000001
49.66090926588511 8.999460000000001
49.685442483902584 8.96428
49.70997813385706 8.96043
49.734516217597076 8.93876
49.75924846937352 8.907789999999999
49.7837914452858 8.891580000000001
49.80833686055187 8.88379
49.83288471702571 8.84446
49.85762682540054 8.87088
49.882179588965734 8.842830000000001
49.9067347993235 8.81057
49.93129245833333 8.78267
49.95604445336378 8.7998
49.98060703442832 8.72075
50.005172069746266 8.73526
50.02993150438364 8.74071
50.05450147301533 8.72763
50.07907390151433 8.68356
50.10364879174981 8.67789
50.12841816587289 8.68112
50.1529980044635 8.65146
50.17758031042124 8.61823
50.20216508562089 8.63802
50.22694442953363 8.617989999999999
50.25153416817468 8.56518
50.27612638170508 8.544880000000001
50.300721072005196 8.55177
50.325510416102105 8.5344
50.350110084975064 8.46373
50.37471223628208 8.485660000000001
50.39931687190919 8.472000000000001
50.424116246675766 8.469439999999999
50.44872587605249 8.44961
50.47333799543065 8.44152
50.49795260670191 8.41132
50.52276204271512 8.40812
50.54738166295838 8.38314
50.57200378079314 8.35919
50.596628398116835 8.38123
50.62144792604559 8.34379
50.646077567609396 8.31719
50.670709714377715 8.26243
50.69553683636198 8.29518
50.72017401885922 8.268939999999999
50.7448137122895 8.22151
50.76945591856022 8.236310000000001
50.79429318636823 8.230889999999999
50.818940443716784 8.21325
50.84359021965163 8.20454
50.868242516085964 8.18005
50.893089960641895 8.12323
50.917747323549435 8.13523
50.94240721271973 8.12022
50.96706963007175 8.10735
50.99192728239342 8.133189999999999
51.01659478166073 8.08629
51.04126481489051 8.01592
51.06593738400761 8.05945
51.090805275207074 8.05529
51.11548294172845 8.006910000000001
51.14016314993547 8.00957
51.164845901758845 7.98613
51.18972406304274 7.941339999999999
51.21441192780656 7.95718
51.23910234200271 7.951389999999999
51.2637953075678 7.9020399999999995
51.288683770237945 7.88167
51.31338186432707 7.883089999999999
51.33808251561888 7.885839999999999
51.362978729967345 7.84903
51.387684521509755 7.88311
51.41239287610203 7.822019999999999
51.437103795691165 7.810389999999999
51.46201036644977 7.76611
51.486726441956634 7.7248600000000005
51.51144508832545 7.6962
51.536166307509156 7.72777
51.56108326624387 7.7417300000000004
51.58580965706056 7.73625
51.61053862657523 7.72249
51.635270176746864 7.6348899999999995
51.66019755512065 7.63484
51.68493429268881 7.62997
51.70967361681515 7.635730000000001
51.73441552946465 7.61512
51.759353359237934 7.6217
51.7841004750961 7.591589999999999
51.80885018539685 7.54953
51.833602492111254 7.51865
51.8585508051424 7.514760000000001
51.883308330926425 7.518269999999999
51.90806845906181 7.531689999999999
51.932831191525715 7.478789999999999
51.95779001977161 7.44623
51.98255798721516 7.43814
52.00732856494335 7.409110000000001
52.03229530577543 7.4284
52.057071130455945 7.41672
52.081849571391054 7.4043600000000005
52.106630630568695 7.365660000000001
52.13160794279417 7.32935
52.15639426492067 7.30894
52.18118321127822 7.31263
52.205974783860896 7.313219999999999
52.23096269971011 7.30675
52.255759551287994 7.328130000000001
52.280559035098186 7.296539999999999
52.30536115314103 7.2645
52.33035970494467 7.242610000000001
52.35516711807904 7.20915
52.37997717147198 7.2103600000000005
52.40478986713005 7.16575
52.42979908731974 7.16617
52.454617094216 7.15848
52.47943774942214 7.13621
52.50426105495102 7.124810000000001
52.529280976059844 7.1421
52.554109609024096 7.09143
52.57894089837482 7.08142
52.60377484613117 7.0766
52.62880550079408 7.09357
52.65364479223379 7.060989999999999
52.67848674816189 7.020460000000001
52.70352547971946 6.98066
52.72837279155837 6.98435
52.753222773982785 6.933
52.778075429022984 6.98884
52.80312495150885 7.00393
52.827982978797436 6.9579
52.85284368481815 6.9399
52.87770707160767 6.90716
52.90276741793998 6.89613
52.92763619336701 6.90631
52.952507655698504 6.86463
52.977381806977576 6.819310000000001
53.00245301017842 6.83909
53.02733256653592 6.846480000000001
53.052214817996074 6.8238
53.077099766608484 6.77393
53.102181859804446 6.7814
53.127072229988265 6.760280000000001
53.15196530349892 6.7484399999999996
53.17686108239249 6.70972
53.20195409881522 6.6949
53.22685531582556 6.72395
53.25175924441303 6.718430000000001
53.27666588664027 6.66938
53.30176985962693 6.658180000000001
53.3266819565689 6.64377
53.35159677336455 6.6439
53.376514312083096 6.6234
53.40162927507703 6.60635
53.42655228516116 6.58945
53.45147802340193 6.5741
53.47660125628886 6.59992
53.50153247842639 6.554189999999999
53.52646643496923 6.571110000000001
53.55140312799818 6.537000000000001
53.576537409691696 6.52675
53.60147960336152 6.47587
53.626424539786164 6.48261
53.65137222105307 6.44128
53.67651758529126 6.49447
53.70147078399681 6.44463
53.72642673383343 6.43976
53.75138543689533 6.41357
53.776541917524526 6.399030000000001
53.801506154876755 6.3684199999999995
53.826473151763246 6.349480000000001
53.851442910284916 6.35417
53.87661054126026 6.35882
53.9015858509782 6.36083
53.92656392866066 6.3209599999999995
53.95154477641532 6.31554
53.976723591801296 6.29632
54.00171000771266 6.28991
54.02669920004598 6.27944
54.051691170915745 6.26786
54.076881204886796 6.26711
54.101878760928514 6.21753
54.12687910187696 6.1944099999999995
54.152077577768296 6.1729199999999995
54.1770835166946 6.18856
54.20209224691339 6.13314
54.22710377055121 6.126530000000001
54.25231352511594 6.1219
54.27733066384342 6.10792
54.30235060239643 6.10281
54.32737334290836 6.07934
54.35259441062629 6.014869999999999
54.377622783395324 6.0178199999999995
54.40265396455061 6.051080000000001
54.42768795623251 6.04451
54.45292037169559 5.96655
54.477960012857906 5.96429
54.50300247099511 5.99885
54.52804774825457 5.97315
54.55329154616743 5.89381
54.57834249018678 5.8947
54.6033962597977 5.89489
54.6284528571545 5.830030000000001
54.653708072335164 5.84202
54.67877035378786 5.8429
54.70383546947698 5.81049
54.72890342156389 5.75307
54.7541700889442 5.73585
54.77924374251975 5.76225
54.8043202390049 5.7399
54.82959552413022 5.68656
54.8546777351945 5.710780000000001
54.87976279569621 5.60728
54.90485070780914 5.6658800000000005
54.930137506558005 5.65749
54.95523115074295 5.60795
54.98032765308844 5.58931
55.005427015775496 5.59184
55.03072536339621 5.5515099999999995
55.05583047570572 5.5282
55.080938454927676 5.48755
55.10604930325027 5.475969999999999
55.131359235107396 5.48088
55.15647585066083 5.4435199999999995
55.181595341907496 5.43304
55.20671771104285 5.36077
55.232039262617704 5.3476300000000005
55.25716741665048 5.3216
55.28229845518636 5.35503
55.30743238042802 5.24023
55.33276558731939 5.21796
55.357905315183636 5.27374
55.383047936390035 5.205019999999999
55.40819345314859 5.1851199999999995
55.433538351073295 5.22985
55.458689688238415 5.1748
55.483843927614096 5.1401
55.509197623043605 5.1718
55.53435769621134 5.10457
55.55952067826466 5.0334
55.5846865714265 5.0151900000000005
55.61005202069737 5.01193
55.63522376553902 5.0233
55.66039842818645 4.96329
55.68557601087004 4.99648
55.7109532500271 4.88408
55.73613670233794 4.8964099999999995
