TT I
1.2716486653135266 7.67996
1.2939594142134223 7.364319999999999
1.3162702121660406 6.84173
1.3385810600174564 6.58175
1.3608919586137629 6.799360000000001
1.383202908801069 6.95264
1.405513911425503 6.69775
1.4278249673332093 6.33098
1.4501343378461518 6.11943
1.4724455028545926 5.92515
1.4947567236847858 5.61592
1.517068001182951 5.921209999999999
1.5393793361953272 5.79718
1.5616907295681737 6.5092
1.5840021821477681 5.45868
1.60631369478041 5.47462
1.6286252683124185 5.41134
1.6509369035901333 5.2404
1.6732468618895553 5.25807
1.695558623192809 4.7321599999999995
1.7178704487808514 5.48859
1.7401823395001077 4.75475
1.7625012545597203 4.6043400000000005
1.7848028405262486 4.83283
1.8071218901122095 5.3188
1.8294236121921872 4.70327
1.8517427996910911 4.703790000000001
1.8740620574440425 4.84954
1.8963639900671978 4.76852
1.9186833908139995 4.83175
1.9409854680117449 4.76105
1.9633050151394713 4.8989199999999995
1.9856246367570705 4.94436
2.0079269371922672 4.76765
2.03024671027244 4.59994
2.0525491637446027 4.82029
2.074869091674931 4.5117199999999995
2.097171701569106 4.51617
2.1194917877373847 4.7823199999999995
2.141811954326636 4.415430000000001
2.164114805233074 4.58566
2.186435135143035 5.79849
2.208738150935709 14.0457
2.231058647554722 28.4303
2.2533792288321184 22.195999999999998
2.275682498336085 9.93651
2.298003251406138 5.59818
2.3203066942619714 5.47878
2.3426276225136022 5.0627699999999995
2.3649486396617507 4.4442699999999995
2.387252348930071 4.86726
2.4095735463442893 4.89199
2.4318774374315884 5.42076
2.4541988185014043 5.242430000000001
2.476502894794693 5.81801
2.498824462909887 5.0084800000000005
2.521146125856138 5.58295
2.5434504863470337 6.48215
2.5657723414244717 6.14289
2.588076895590662 6.93451
2.610398946189713 7.036919999999999
2.6327210958598384 6.65751
2.6550259469304716 6.19399
2.6773482972090137 6.77509
2.6996533504259 7.269939999999999
2.7219759047039602 7.748760000000001
2.744298562293959 7.20212
2.7666039251246595 6.9565399999999995
2.7889267918020164 7.48665
2.8112323652516555 8.09163
2.833555444408179 7.868539999999999
2.8558786311183852 7.814369999999999
2.8781845268938557 8.71528
2.9005079311721484 8.59867
2.9228140460410397 8.63592
2.9451376712799635 9.10823
2.967444008632326 9.39759
2.9897678582247247 9.58835
3.0120918213106695 10.4452
3.0343984987899373 10.1127
3.0567226913198637 11.0491
3.079029599759726 11.7026
3.101354025127254 12.315999999999999
3.123678568232338 12.7555
3.145985829517914 12.7555
3.16831061055229 13.7134
3.1906181112775593 14.6499
3.212943133635653 14.9989
3.2352682779763207 14.8064
3.2575761442691227 15.6198
3.2799015350264273 16.4183
3.302209649240067 16.5847
3.3245352898092655 16.8682
3.3468436553365257 17.6994
3.369169549113219 18.2333
3.3914955708171384 18.8452
3.413804319727358 19.4013
3.4361305997334863 19.3262
3.4584396084414553 19.9305
3.4807661501462652 20.7662
3.503092824025881 21.1116
3.5254022288463154 21.2884
3.5477291695206588 21.8274
3.5700388426251948 22.8051
3.5923660534916446 24.4421
3.6146934007816114 39.2052
3.637003482731501 91.5928
3.6593311053109985 101.038
3.681641464033634 58.0687
3.7039693653009733 31.3377
3.726297407241705 26.4926
3.7486081875460804 26.0294
3.7709365132734978 26.3783
3.793247578841633 26.8837
3.8155761917550093 26.9686
3.8378875459837216 27.3999
3.8602164494827234 27.9203
3.882545499606844 28.6962
3.9048572932539183 29.4508
3.9271866390645718 29.7658
3.9494987298666713 30.0554
3.971828374764527 30.9519
3.9941581705403255 31.0817
4.016470713506008 31.930999999999997
4.038800813471445 32.9075
4.061113662089144 34.0077
4.0834440696459176 33.8804
4.105774632334751 34.3802
4.128087945865126 35.4759
4.150418821249301 36.4473
4.172732448931298 38.0493
4.195063640413578 39.9627
4.2173775856475215 43.9405
4.239709096631102 75.4739
4.262040768704612 244.612
4.284355196706267 331.289
4.306687193387355 215.00900000000001
4.329001947444346 83.8486
4.35133427213731 49.132
4.373666762177566 46.0549
4.395982011761091 45.5237
4.418314834921175 46.7481
4.44063041906622 54.4391
4.4629635787515625 66.5935
4.4852969080429785 66.6091
4.5076130004776225 56.3315
4.529946671403969 53.202
4.552263106909177 52.6159
4.574597122877047 52.9205
4.596931312711224 53.6487
4.619248269273446 54.6167
4.6415828092605835 55.6952
4.663900117405352 56.5144
4.686235010953232 58.3531
4.708552674085913 59.7012
4.730887924602802 61.5024
4.753223354952695 62.8464
4.775541557023902 64.2936
4.797877349456786 65.696
4.820195915032126 68.0728
4.842532072957498 69.2726
4.864868414979744 71.4892
4.88718753227192 74.0084
4.909524244902505 75.7493
4.931843734218147 77.6925
4.954180820867835 80.3505
4.976518095879839 84.2445
4.998838149695359 87.7319
5.021175803844231 91.4553
5.043496238205739 95.02799999999999
5.065834274903528 99.6757
5.088172504230693 106.11399999999999
5.1104935158799565 114.79899999999999
5.132832132875765 141.708
5.155153533596801 192.345
5.1774925416746225 245.291
5.199814334878411 519.995
5.2221537374521505 1417.04
5.244493338631803 3357.84
5.266815727034316 7154.66
5.289155727832427 11340.7
5.311478517248165 9273.08
5.333818921080011 3701.55
5.356159527788849 804.773
5.3784829252032536 232.49900000000002
5.400823940070432 164.326
5.423147747031976 140.265
5.445489173474152 127.008
5.467830807066149 121.228
5.490155234831516 116.245
5.512497285125229 110.85600000000001
5.534822130975162 108.821
5.557164601388673 106.20200000000001
5.579489868738879 103.398
5.601832762690846 102.194
5.6241758697774475 101.51100000000001
5.646501775867269 100.166
5.668845311622074 98.4947
5.691171647754637 97.9973
5.713515615597765 96.7588
5.735859800852677 95.7036
5.758186788542988 95.4157
5.780531411018185 96.1926
5.802858837297399 95.5938
5.825203900414495 95.8942
5.8475491852224 96.829
5.869877275883075 97.0913
5.892223006467101 98.7
5.914551544266608 101.208
5.936897724049891 104.95700000000001
5.959244129804903 113.21600000000001
5.981573344815301 142.07299999999998
6.0039202049061 273.77099999999996
6.026249875609095 594.0880000000001
6.04859719346037 1158.91
6.070927323278297 2215.75
6.093275102315365 3967.61
6.115623113320588 4825.65
6.137953938319995 3578.88
6.160302415650845 1275.84
6.182633708324452 307.20599999999996
6.2049826554078376 131.945
6.227331838745022 102.021
6.249663839443684 91.0045
6.27201349767565 86.902
6.294345974611799 92.4645
6.316696111167083 104.88
6.339046488263839 98.8441
6.361379686074702 82.7325
6.383730546639482 74.4766
6.406064229255215 71.8982
6.428415576718203 70.8552
6.450749747566656 69.3076
6.47310158535871 68.2702
6.495453669698332 67.2331
6.517788579421056 66.8155
6.540141159237969 65.622
6.562476565766648 65.3527
6.5848296444934045 64.8066
6.607182974060425 64.5862
6.6295191323281015 64.58
6.651872965955752 67.832
6.6742096296068985 93.8397
6.6965639707294615 143.224
6.71891856698715 144.752
6.741255995248479 98.4232
6.763611104154477 70.317
6.785949046381137 62.0132
6.808304671371482 60.5299
6.8306605557940046 60.1946
6.852999275508618 59.3172
6.875355681171544 58.7719
6.897694923437771 58.2399
6.92005185377892 58.0104
6.9423916220322655 58.158
6.964749080490181 57.391000000000005
6.987106804399774 57.4233
7.009447368180821 57.5197
7.031805625367033 57.246
7.054146723727803 56.864
7.076505517631004 56.9721
7.098864581288365 56.6684
7.121206488070854 56.4181
7.143566093607822 56.6709
7.165908543567245 56.9728
7.188268694426048 57.0346
7.2106291193438095 57.2489
7.232972390625943 58.8762
7.255333366030969 70.5976
7.277677189091925 125.805
7.300038718428332 178.87900000000002
7.322400526130865 149.704
7.344745183422596 92.9821
7.367107550224791 64.2165
7.389452767901992 58.2515
7.411815697249891 57.2146
7.434161478756298 55.742
7.456524974096713 55.518
7.478888753837185 55.6886
7.501235387657368 56.3773
7.523599738562711 56.043
7.545946944825532 56.0383
7.568311870344528 56.701
7.5906770845765665 57.1344
7.613025156078678 58.5195
7.635390950099687 60.1923
7.657739602662809 59.0469
7.680105979923558 57.7981
7.702472650212829 58.0247
7.724822180948224 57.3845
7.747189439655568 57.9177
7.769539560075357 57.4582
7.791907410653562 57.8712
7.81425812420825 58.184
7.836626570110925 58.2597
7.858995315087906 59.3697
7.881346924933401 59.6409
7.903716270417482 60.0413
7.926068482028405 60.308
7.948438431475253 60.8381
7.9708086843180235 61.5154
7.993161805171116 62.3596
8.015532667162402 62.5746
8.037886398416653 63.5946
8.060257873014221 64.1144
8.082629655331942 64.7869
8.104984308787587 65.9701
8.127356708900503 69.3764
8.149711981398308 75.1318
8.172085002766314 77.6697
8.194458336181368 74.4071
8.216814543847752 71.5524
8.23918850371002 71.5452
8.26154533906492 72.641
8.283919928836452 74.2413
8.306277395339652 74.9427
8.328652618483376 76.2915
8.351028159736202 78.7928
8.373386579575245 81.1166
8.395762759396959 83.5128
8.418121819038275 88.7377
8.440498640894003 103.223
8.462875785192262 119.96600000000001
8.485235811156207 139.775
8.507613602688501 198.71400000000003
8.529974277114228 310.751
8.552352719347912 455.533
8.574731488360351 702.6310000000001
8.59709314210385 1115.83
8.619472567021075 1655.28
8.64183487789147 2091.41
8.664214962183097 1926.29
8.686577933647762 1125.6
8.708958680784317 473.327
8.731339760774953 194.825
8.753703729764451 121.374
8.77608547780821 105.071
8.798450116065078 100.105
8.820832535634787 96.5828
8.843215292401656 94.74
8.865580941199045 93.0476
8.887964374703538 91.7066
8.910330701447199 92.4066
8.932714815164482 94.9667
8.955099270424924 94.2037
8.977466620733543 90.5442
8.999851761421976 87.7407
9.022219798361645 86.0378
9.04460562795561 85.8701
9.066991803441677 85.204
9.089360876979615 85.0904
9.111747746589993 84.9203
9.13411751544971 84.2181
9.156505082664324 84.3808
9.178875550323522 84.4881
9.20126381862328 84.9494
9.223652438908596 85.1995
9.246023961427412 84.8258
9.26841328802173 84.1694
9.290785518039224 84.2307
9.313175554425882 85.4979
9.335565947154315 85.3714
9.357939245086508 85.4354
9.380330352834827 85.3925
9.40270436697103 85.5127
9.425096193225055 85.566
9.447488380180165 86.5861
9.469863475295412 86.3905
9.492256385987508 87.1223
9.514632206018318 87.5206
9.537025843935714 87.7825
9.559402392368193 88.70200000000001
9.581796761000229 90.4236
9.604191496441521 91.6825
9.626569144158516 94.66799999999999
9.648964615551032 99.2409
9.671343000390081 101.355
9.693739211225699 99.1052
9.716135793237463 96.4265
9.738515290448102 96.2865
9.760912617143402 96.9805
9.783292860202891 98.1689
9.805690935076182 99.8779
9.828089385495742 100.775
9.850470754023561 103.352
9.872869957865444 111.361
9.89525208097539 127.691
9.917652041736662 141.83100000000002
9.940052382417589 143.754
9.962435644102392 158.355
9.984836746950979 208.187
10.007220771957746 287.062
10.029622640473708 401.603
10.052007432299963 572.539
10.074410069984072 810.836
10.096813093716005 1171.68
10.119199042482517 1604.95
10.141602840636468 1889.35
10.163989564971628 1735.69
10.186394141051062 1094.91
10.208799107559706 498.249
10.231187001965623 226.958
10.253592751657669 140.086
10.275981430388155 120.126
10.298387966769793 118.227
10.320794897965431 120.055
10.343184759907361 118.682
10.36559248305461 112.596
10.387983138083852 109.163
10.410391656691655 114.089
10.432800574501677 129.077
10.455192425893369 149.754
10.47760214443012 176.25400000000002
10.499994797678786 217.35
10.522405320453982 280.358
10.54479877906917 375.344
10.567210109595656 474.99800000000005
10.5896218454736 543.345
10.612016518879773 526.2330000000001
10.634429067781074 379.444
10.656824555333241 226.487
10.679237920773568 134.714
10.701651695961992 101.48200000000001
10.724048411481384 92.8244
10.746463008485165 89.5361
10.768860546937125 87.4796
10.791275969274796 85.5404
10.81369180576079 84.6119
10.836090585366925 83.2776
10.858507252467449 82.177
10.88090686379991 81.4437
10.903324365036394 80.7011
10.925724811614439 80.5747
10.948143150509463 82.0098
10.970561909719066 81.4488
10.992963615930844 79.2058
11.015383218085756 77.0671
11.037785768347074 75.4764
11.06020621697282 74.8576
11.082627090322113 74.2791
11.105030913430326 73.9168
11.12745263854165 74.2023
11.149857314510728 77.6461
11.172279894912576 84.1582
11.194702904450653 85.2652
11.217108866490921 81.1348
11.239532736615194 76.4348
11.26193956033512 74.1327
11.284364294577085 72.4131
11.306789462371718 70.3935
11.329197585398376 69.2198
11.351623622610898 68.6651
11.37403261614354 68.0075
11.396459526308487 68.1237
11.418869393879497 67.6192
11.441297180532617 67.2276
11.463725406927658 66.5515
11.486136592353875 66.6368
11.508565700543707 66.9302
11.530977768845315 68.987
11.553407762368774 69.9043
11.575838200059769 69.4782
11.598251599479612 67.3309
11.620682927815501 65.7976
11.64309721895548 65.7451
11.665529441478206 64.9466
11.687962112597958 64.9697
11.710377748130886 65.0472
11.732811318753434 64.6893
11.755227854859067 64.5996
11.777662328529495 64.6526
11.800079768750786 64.4397
11.822515149015453 64.3471
11.844950984084935 64.7483
11.867369787303163 64.4565
11.889806534289491 64.4059
11.912226250487029 64.6291
11.934663912939751 64.8242
11.9571020346363 64.7394
11.979523127133968 65.035
12.001962169624331 65.7065
12.024384183972964 67.2233
12.046824150809913 71.5057
12.069264581333726 78.0693
12.091687985297767 84.6054
12.11412934550045 93.5922
12.136553680195208 106.33200000000001
12.158995973632788 124.74700000000001
12.181438735204349 148.3
12.20386447284199 177.66099999999997
12.226308172985636 201.61
12.24873485024193 207.903
12.271179492516982 181.185
12.293607112949127 138.6
12.316052700916226 103.976
12.338498763250042 82.971
12.360927805303868 73.1587
12.383374818673879 68.6108
12.405804812803074 66.6302
12.428252780773262 66.5399
12.45070122756722 66.0916
12.473132656675375 65.9973
12.49558206341869 66.2613
12.518014453510101 66.253
12.540464823770117 66.4255
12.562915677315177 66.5988
12.58534951575545 67.3302
12.607801338171472 69.2959
12.630236146511358 74.8556
12.652688941369085 80.3491
12.675124723177234 81.0374
12.697578494048786 76.8311
12.720032754458185 71.9817
12.742470003354093 69.8911
12.764925245138771 70.1115
12.787363476431278 70.044
12.809819703166806 70.533
12.83227642391173 71.19
12.854716135692716 71.7664
12.877173846755147 72.882
12.899614549869717 73.1894
12.9220732548287 73.8844
12.94453245827299 74.3684
12.966974655289818 75.5107
12.989434858002571 76.4331
13.011878055298721 77.042
13.034339260862497 78.0388
13.056800969391883 79.6607
13.079245674017244 81.5196
13.101708390774869 84.5936
13.12415410463411 94.4213
13.146617833206086 108.741
13.169064559883248 122.96799999999999
13.191529303857127 139.127
13.213994557076367 160.005
13.236442809902437 190.68900000000002
13.258909083908291 235.185
13.28135835851934 286.867
13.30382565690295 348.366
13.326293469022952 409.351
13.348744283242008 433.965
13.371213125129904 387.162
13.39366497011003 293.367
13.416134845360597 195.429
13.438605238843131 135.659
13.46105863690397 114.104
13.483530069144786 114.12299999999999
13.505984506951902 121.052
13.528456981549432 131.366
13.550929978879088 145.671
13.573385983253365 165.628
13.595860028340867 196.312
13.618317081455832 235.581
13.64079217790333 282.176
13.663250283359057 327.957
13.685726434770173 361.82300000000004
13.708203115221277 352.009
13.730662806148091 287.365
13.75314054697177 210.648
13.775601299246777 142.105
13.798080104050406 104.54799999999999
13.820559442405358 89.2225
13.843021793671388 84.6617
13.865502201420897 82.9159
13.887965623051947 82.1327
13.910447103807167 80.8981
13.932929122629764 79.3236
13.955394156785959 78.8537
13.977877254034569 78.1062
14.000343367582113 77.1728
14.022827546871707 76.6789
14.045294743423524 75.8113
14.06778000837062 75.1281
14.090265817715476 75.111
14.112734645763819 74.4045
14.13522154619454 74.399
14.157691466286913 74.7379
14.180179461423874 74.3644
14.202668005486178 73.5994
14.22513957064374 72.9194
14.247629214846473 72.1987
14.270101881097517 72.1165
14.29259262906496 72.8005
14.315083930490205 73.8312
14.337558255389705 73.9106
14.360050666019726 73.417
14.382526101071944 72.5736
14.405019624534942 71.2622
14.427513705993134 70.8686
14.449990813291825 71.0389
14.47248601302899 70.6419
14.49496423954951 71.1123
14.517460561197822 71.0228
14.539939910570322 70.517
14.562437357763558 71.1502
14.58493536931253 72.2347
14.607416409993311 73.3627
14.62991555254159 73.911
14.652397725157423 73.8498
14.674898002342799 73.4008
14.697398848433282 72.6728
14.719882725991326 73.5579
14.74238471217934 74.9384
14.764869730765593 79.5086
14.787372860692983 83.7742
14.809876564079925 89.1242
14.83236330125751 95.4517
14.854868153850365 103.491
14.877356041159485 115.229
14.899862046604186 129.985
14.922351087688757 149.939
14.944858249632887 173.225
14.967365991421232 197.683
14.989856770231246 217.44099999999997
15.012365673994204 222.048
15.03485761569738 198.785
15.05736768508665 160.811
15.07987833888692 124.50200000000001
15.102372032001655 96.5126
15.124883856909658 80.5584
15.14737872204565 75.0687
15.169891721717274 73.0229
15.192405310371893 72.8121
15.214901940621196 73.1076
15.237416709527137 73.1644
15.259914520936249 73.3574
15.282430473753607 72.4428
15.304947020131227 71.1576
15.327446610371178 70.3338
15.349964346154254 69.2627
15.372465126703139 68.9668
15.394984055556009 68.5648
15.417486030076159 68.3905
15.44000615566487 68.0171
15.462526881230803 67.9112
15.485030653812652 68.2429
15.507552581617434 68.1614
15.530057557334603 68.2082
15.55258069104857 68.2291
15.575104429329837 68.3602
15.597611216864632 68.0204
15.620136166564563 68.2695
15.6426441664095 69.6157
15.665170331202765 72.5893
15.687697105158826 76.5173
15.710206930593545 80.7776
15.732734925158933 85.4159
15.755245972089478 90.9272
15.77777519094324 99.5047
15.800287463046663 109.875
15.822817909869592 124.535
15.84534897229804 140.989
15.867863089299354 161.804
15.890395385222186 180.718
15.912910736597423 195.23
15.935444269699861 192.63400000000001
15.957978423016485 169.959
15.980495633101265 136.317
16.003031029129367 106.31700000000001
16.02554948280019 81.9286
16.048086125229432 70.9
16.070623392487107 67.8613
16.09314371869582 66.9685
16.11568223789321 65.9081
16.13820381691126 64.7931
16.160743591742527 63.494
16.183283996022084 62.5936
16.205807461423195 61.3904
16.228349126881973 60.5745
16.25087385432698 60.7244
16.27341678466365 60.1851
16.29594277784926 60.0008
16.31848697676433 60.4121
16.341031811604868 60.7471
16.36355971058487 61.1451
16.3861058195587 60.7374
16.40863499352978 59.583
16.431182380342005 58.6047
16.453730407713202 57.9323
16.476261501364792 57.5011
16.498810812136167 57.1674
16.52134319004079 57.3045
16.54389378792203 57.1619
16.566445031001553 57.0182
16.588979342490088 56.8242
16.61153187824822 56.8157
16.634067483263312 56.7084
16.656621315414416 56.4773
16.679175797408888 56.2355
16.701713349928728 56.4967
16.72426913389191 56.7047
16.74680798922351 56.5275
16.76936507887444 56.6224
16.791905240734874 56.8144
16.814463639794468 56.5572
16.837022695210294 56.483999999999995
16.859564824093756 56.9402
16.882125194503903 57.6986
16.904668639217885 58.4745
16.927230328348003 58.7695
16.949792678493612 58.7108
16.972338104193863 58.25
16.994901778652235 57.4218
17.017448529496576 57.2216
17.040013531998152 57.6647
17.06257920018044 58.3098
17.0851279459922 59.1937
17.107694947817667 60.0359
17.130245028099072 61.1575
17.15281336730298 62.6364
17.17536478578733 63.979
17.19793446610687 66.0033
17.220504818648422 68.6355
17.243058251703697 70.6378
17.265629950971032 74.3414
17.288184731571736 78.6034
17.310757781306908 82.7095
17.33333150794385 84.7862
17.355888317140174 84.2515
17.37846339986244 80.928
17.401021565958885 74.7213
17.42359800851343 68.8854
17.44617513265564 64.8387
17.468735341390783 62.2947
17.491261035594565 61.0992
17.51396340099364 60.7441
17.536490463869136 61.0293
17.559018209820174 60.8799
17.58154663977963 61.1045
17.604251766089718 61.1741
17.626781572227713 61.3114
17.64931206518155 61.8367
17.671843245885103 62.3371
17.69455114821572 62.4917
17.717083712612634 62.6748
17.739616967569667 62.9213
17.762150914021706 63.2023
17.78486160749854 63.2767
17.807396945166804 63.898
17.829932977143503 65.068
17.85246970436452 66.8042
17.875183204129467 69.1591
17.897721330097664 71.8067
17.920260154126645 74.5542
17.942799677153296 77.863
17.9655159983646 81.0156
17.988056927677544 85.9127
18.010598558807683 92.1862
18.033140892692916 99.9236
18.05586005052525 108.336
18.07840379824407 118.274
18.10094825154059 129.627
18.12366954819864 139.394
18.146215420998306 144.19299999999998
18.16876200220057 139.378
18.191309292745153 126.931
18.214033452627167 112.554
18.236582170236648 98.5779
18.259131600016456 90.984
18.281681742907335 88.7758
18.304408781233683 90.9321
18.32696035875955 94.6724
18.349512652227624 98.913
18.372065662579683 104.22
18.394795594587553 107.319
18.41735004715306 106.90700000000001
18.43990521943684 100.806
18.46246111238171 92.0515
18.485193953325208 81.5409
18.507751296070428 73.2568
18.530309362314178 68.5814
18.552868153000343 66.0219
18.57560391815056 64.2284
18.59816416623245 63.7247
18.620725141597372 63.2657
18.643286845190268 62.8579
18.666025549835414 62.2388
18.688588718427933 61.6766
18.711152618092243 61.6218
18.73389353884365 61.3183
18.75645890921984 60.8275
18.77902501351406 60.5005
18.801591852673102 60.5019
18.824335739722738 59.7059
18.846904057212626 59.8602
18.8694731124168 59.4592
18.89204290628315 59.5725
18.914789774966803 59.3462
18.937361054791623 59.0478
18.959933076131318 58.9187
18.982505839934877 58.8079
19.00525570560582 58.8339
19.027829963004184 58.5701
19.05040496572238 59.0117
19.072980714710468 59.0858
19.095733592739563 59.0667
19.11831084296757 59.5187
19.140888842324735 60.1751
19.16346759176222 60.4014
19.18622349753803 61.1029
19.208803755869358 61.9272
19.231384767143577 62.8645
19.253966532312948 63.7868
19.276725481241822 65.3651
19.29930876296784 67.4797
19.3218928014549 69.9186
19.34465404436217 72.5363
19.36723960516257 75.7795
19.389825925592426 78.0148
19.412413006605938 78.1339
19.43517731967805 75.65899999999999
19.457765930683355 71.4642
19.48035530514408 66.3594
19.50294544401556 62.2604
19.525712842708348 58.9951
19.54830451925909 57.2803
19.570896963095727 56.0198
19.593490175174704 55.6364
19.616260674962184 55.6307
19.638855432416964 55.2768
19.661450960992624 55.2357
19.68404726164677 55.2639
19.706820878021247 55.1208
19.729418731756834 55.2872
19.752017360452857 54.9549
19.77461676506804 55.2995
19.797393513540218 55.4547
19.819994478951667 55.7448
19.84259622316767 56.5551
19.8651987471481 57.0156
19.887978643247177 57.233999999999995
19.91058273574792 57.5464
19.933187610901943 58.1075
19.955969879466828 59.0792
19.97857632894404 60.5119
20.00118356396599 61.8573
20.023791585494575 63.4615
20.046577028914875 65.6719
20.069186632506966 67.7744
20.091797025500632 69.6504
20.114408208858933 71.1263
20.137196842715273 71.8732
20.159809615886765 71.2063
20.18242318232135 68.6171
20.20503754298326 66.2016
20.227829382875154 64.4848
20.250445341109344 63.6962
20.27306209647285 63.7327
20.29567964993108 64.5136
20.31847471147704 65.813
20.34109387027612 66.7923
20.363713830075454 67.1752
20.386334591841646 66.5173
20.409132890679302 64.2345
20.431755265564437 60.9773
20.454378445325528 58.0066
20.477002430930366 55.9229
20.499803982716553 54.4491
20.522429589228004 53.424
20.54505600449589 52.7359
20.567683229489194 52.696999999999996
20.590488049900088 52.2789
20.61311690359731 51.8528
20.63574656993626 51.545
20.658553853717297 51.297
20.681185154618298 51.1828
20.703817271080066 51.083
20.72645020407368 50.7413
20.749260783967177 50.6956
20.771895359337133 50.5173
20.794530754161617 50.4686
20.817166969412938 50.4924
20.83998086114876 50.3769
20.86261872660049 50.2596
20.885257415405402 50.195
20.90789692853701 50.083
20.930714147864748 50.1837
20.953355319030678 50.3101
20.97599731745334 50.2435
20.99864014410749 50.1139
21.021460706796564 50.2189
21.044105199328826 50.4021
21.06675052302631 50.5832
21.089396678865015 50.7767
21.112220600704806 51.0364
21.134868430275347 51.3541
21.15751709492456 51.4162
21.180166595629693 51.5464
21.202993892429635 52.1033
21.22564507473034 52.505
21.24829709602816 52.8307
21.27112693608965 53.1344
21.293780644891275 53.3428
21.316435195634053 52.8054
21.339090589297417 52.0137
21.361923832041875 51.3809
21.384580921090404 50.7032
21.407238856007325 50.0024
21.429897637773326 49.9409
21.45273429906592 50.1186
21.475394784108598 50.1209
21.498056118951983 49.945
21.520718304578022 50.1319
21.543558400304388 50.1206
21.566222297108816 50.2924
21.58888704765135 50.5218
21.61155265291521 50.9961
21.63439619898156 51.578
21.657063523335786 51.6531
21.67973170537063 52.3613
21.7024007460706 52.8405
21.72524775840385 53.5545
21.747918526116475 54.3918
21.770590155457388 55.3458
21.79326264741238 56.8164
21.816113141960237 58.2874
21.838787368860547 59.9352
21.861462461341976 61.6102
21.884315579735777 63.5297
21.90699241312273 64.8077
21.92967011506078 66.4377
21.95234868653799 66.7619
21.9752053151131 65.9253
21.997885635446785 64.38
22.020566828293532 62.0054
22.04324889464272 59.9924
22.066109049404666 58.3844
22.088792872571794 57.3341
22.111477572219204 57.4345
22.1341631493376 57.5281
22.157026846313123 57.7138
22.179714188221507 57.253
22.202402410582668 56.3412
22.22509151438863 54.9048
22.24795876962584 53.5627
22.270649646204486 52.481
22.293341407213727 51.6556
22.316034053646906 51.0357
22.338904883215342 50.5976
22.36159931041458 50.5344
22.38429462602756 50.6177
22.40699083104897 50.5085
22.429865251039757 50.4148
22.452563244831367 50.5188
22.47526213102522 50.4791
22.49813925616515 50.3528
22.520839937143307 50.1571
22.543541513520587 50.0599
22.56624398629403 49.993
22.589124730075895 50.0
22.611829005656723 50.245
22.63453418063466 50.2553
22.657240256008077 50.4382
22.680124634582935 50.6933
22.70283252079775 50.9372
22.725541310413075 51.2246
22.74825100442868 51.5676
22.771139033969575 51.8905
22.79385054687155 52.0814
22.81656296718292 52.5677
22.83927629590484 53.5009
22.862167992606945 54.3548
22.88488314827121 55.1871
22.907599215359284 56.0533
22.93031619487366 57.1236
22.953211574954405 57.9909
22.975930389478226 59.0783
22.998650119445763 59.5863
23.02137076586092 59.275
23.044269845560063 58.3363
23.06699233506288 56.9475
23.089715744034912 54.9606
23.112617610931565 53.131
23.135342869061212 51.85
23.158069049684816 50.9266
23.1807961538087 50.4207
23.20370174880544 50.3315
23.226430710184808 50.4155
23.249160598093425 50.482
23.271891413539002 50.54600000000001
23.294800752937697 50.7253
23.31753343374794 50.903999999999996
23.340267045128353 50.8792
23.36300158808808 51.1269
23.38591468821339 51.3589
23.408651104658304 51.8237
23.431388455719986 52.3647
23.454126742409 53.2082
23.4770436196085 53.798
23.499783787914662 54.8459
23.522524894889884 55.583
23.54526694154616 56.4785
23.56818761219047 57.8256
23.59093154860734 58.5904
23.613676427751283 59.4198
23.636422250635754 59.3752
23.659346731118656 58.0763
23.68209445191868 56.3262
23.704843119509587 54.0798
23.72759273490623 51.8331
23.750521041644767 50.2434
23.77327256312355 48.9762
23.796025035462787 48.2545
23.818956224555475 47.6981
23.841710609113413 47.6166
23.86446594758979 47.1732
23.887222241002014 46.9698
23.910157285144578 46.7531
23.932915498962537 46.7116
23.955674670778713 46.6334
23.978434801611975 46.4219
24.001373717286125 46.1571
24.024135776723917 46.1543
24.046898798245582 45.8748
24.06966278287146 45.7571
24.092605586582614 45.6874
24.115371508023642 45.5132
24.1381383956401 45.3374
24.16090625045381 45.2804
24.183852958731244 45.3652
24.206622758582608 45.3206
24.229393528706886 45.1815
24.252165270127392 45.1106
24.27511589952438 44.9498
24.297889594216997 44.9114
24.32066426328598 44.6052
24.34343990775613 44.7812
24.36639447485003 44.7096
24.38917208083877 44.495
24.41195066531332 44.512
24.43490819850244 44.413000000000004
24.457688750692377 44.363
24.48047028445616 44.31100000000001
24.503252800821233 44.3567
24.526214300784112 44.4818
24.548998793132213 44.5237
24.57178427117417 44.4204
24.59457073593893 44.3709
24.617536219319863 44.2886
24.64032466834748 44.3319
24.663114107195035 44.2891
24.685904536893013 44.0575
24.708874020360852 43.885
24.731666442613744 43.7649
24.754459858818787 43.7876
24.777254270007962 43.599
24.80022777025625 43.5753
24.82302418230472 43.5667
24.845821592443674 43.516999999999996
24.86862000170663 43.5695
24.891597535453727 43.3961
24.914397953892728 43.7884
24.93719937456671 43.5019
24.96000179851076 43.6293
24.98298338249997 43.7766
25.00578782394922 44.1653
25.028593271784167 44.3133
25.05157790644186 44.6065
25.07438537804115 44.621
25.097193859145293 44.799
25.120003350792075 45.0258
25.142992065061257 45.3466
25.165803588823465 45.5955
25.18861612625217 46.0303
25.211429678386736 46.0511
25.234422489079968 46.0491
25.257238081693636 46.0884
25.280054692141732 46.1474
25.3028723214652 45.941
25.325869245420463 46.0695
25.348688923599397 46.1238
25.371509623787006 46.3036
25.394331347025812 46.2146
25.41733240110666 45.8315
25.440156181590016 45.1614
25.46298098826268 44.7798
25.48580682216873 43.9906
25.50881202326435 43.3316
25.53163992281684 42.9725
25.55446885274561 42.6853
25.577298814096377 42.1648
25.600308179121807 42.1021
25.623140214533745 42.2629
25.64597328451537 42.1485
25.66898578564376 41.9098
25.691820936010206 41.9605
25.714657124097695 41.813
25.737494350954734 41.9176
25.760511045684957 41.7576
25.783350361364224 41.9317
25.806190718969255 41.8588
25.82903211955018 41.9307
25.852053024868923 42.0252
25.874896522722523 41.9633
25.897741066713106 41.7914
25.920586657892454 42.1022
25.943611790812668 42.1496
25.966459487728237 42.1858
25.989308234998564 42.0556
26.01215803367705 42.5862
26.03518741123814 42.5739
26.05803932412957 42.78
26.080892291600094 42.7499
26.10374631470478 42.7916
26.12677995397268 42.988
26.14963609978026 43.1396
26.172493304397875 42.8315
26.19535156888223 42.7529
26.218389486949604 42.1953
26.241249882640123 41.8288
26.26411134137826 41.5777
26.28715248187403 41.4887
26.31001607820869 41.4836
26.3328807407756 41.1947
26.35574647063438 41.4827
26.37879191991473 41.3954
26.401659795896734 41.4496
26.424528742360263 41.5964
26.447398760366614 41.731
26.470448535598294 41.7494
26.49332070826805 42.0674
26.516193955675355 42.2557
26.53906827888316 42.4977
26.562122397260108 42.6192
26.584998883685063 42.7529
26.607876449110325 42.9062
26.63075509460056 43.1917
26.65381357334404 43.3669
26.67669439061878 43.3858
26.699576291163382 43.4332
26.722459276044212 43.3913
26.745522132402975 43.0013
26.768407297649354 42.8319
26.791293550442003 42.3108
26.814180891848974 42.0973
26.837248143099337 41.7325
26.860137673466657 41.6073
26.88302829566349 41.5258
26.90592001075963 41.369
26.92899167420566 41.2006
26.951885586870763 40.8566
26.974780595655517 40.6151
26.99785558178161 40.3472
27.020752794605112 40.2576
27.043651106772522 40.0798
27.06655051935668 40.058
27.089629948036183 40.028
27.112531573292053 39.9412
27.135434302194138 40.008
27.158338135817015 39.8265
27.181422024430987 39.7482
27.204328079372566 39.6319
27.22723524226965 39.7645
27.250143514198573 39.7458
27.273231880156334 39.8324
27.296142382065014 39.5986
27.319053996245536 39.5931
27.341966723775965 39.7194
27.365059584515222 39.6171
27.38797455070062 39.7413
27.410890633481237 39.5437
27.433807833936918 39.4889
27.456905206923906 39.5723
27.47982465472398 39.701
27.502745223449743 39.6036
27.525666914182825 39.8239
27.548768816912457 39.6933
27.571692763693633 39.5992
27.59461783573812 39.6158
27.617723149491244 39.4806
27.640650484125285 39.4548
27.66357894728264 39.4071
27.686508540048052 39.2536
27.709618414237887 39.1716
27.732550278321757 39.0763
27.755483275279115 39.0853
27.778417406196485 39.0804
27.801531858397514 39.0246
27.824468269376716 38.9965
27.847405817586786 38.9713
27.870344504116094 39.1958
27.893463551932008 39.2615
27.916404527281053 39.3461
27.93934664422563 39.4808
27.962289903855886 39.54
27.98541356491974 39.7139
28.00835912214229 39.8103
28.03130582533231 40.041
28.054253675581805 40.3057
28.077381967556104 40.278
28.100332124185126 40.2323
28.123283431160893 40.1416
28.146235889577238 40.0488
28.169368830154156 39.8109
28.192323603752033 39.6692
28.215279532083304 39.3058
28.238415973016764 39.226
28.261374223145094 39.1903
28.284333631303806 38.8544
28.307294198589954 38.7435
28.330435319167677 38.4066
28.353398217078915 38.1997
28.376362277420153 37.92
28.39932750129032 37.7209
28.422473319286713 37.6081
28.44544088262495 37.5456
28.468409612800283 37.3688
28.491379510913497 37.2
28.51453004413313 37.1693
28.53750229057244 37.1072
28.56047570826344 37.0234
28.583450298308804 37.0149
28.606605564586562 36.7984
28.629582511831156 36.9146
28.65256063474956 36.7854
28.675539934446338 36.775999999999996
28.698699951647605 36.705999999999996
28.72168161743193 36.6016
28.74466446331978 36.5411
28.767648490417624 36.6503
28.790813276438353 36.525999999999996
28.813799678527303 36.5672
28.836787265157085 36.5084
28.859955641890075 36.6147
28.882945610203045 36.4892
28.905936766392035 36.3773
28.928929111566863 36.4733
28.952102288520145 36.2785
28.975097024308607 36.2563
28.998092952423807 36.1252
29.021090073977508 35.9939
29.04426806913204 35.9866
29.067267590245258 35.8428
29.090268308143695 35.8112
29.11327022394099 35.6552
29.13645305530891 35.5654
29.159457379627167 35.4708
29.18246290519685 35.4578
29.20546963313352 35.4186
29.22865731875826 35.5029
29.25166646419296 35.3285
29.27467681535305 35.2298
29.29768837335608 35.298
29.320880931312562 35.3369
29.34389491580634 35.3065
29.366910110507334 35.2949
29.38992651653503 35.2796
29.41312396492981 35.2357
29.436142806456754 35.2608
29.45916286268059 35.0898
29.48236399319994 35.0655
29.50538649169417 34.8372
29.528410208259935 34.8266
29.55143514402014 34.6382
29.574641196749695 34.518
29.597668583816574 34.2908
29.6206971934585 34.2448
29.64372702680042 34.215
29.666938019934474 34.131
29.689970313635285 34.0525
29.713003834422636 34.0141
29.73603858342347 33.92
29.759254535188578 33.859
29.78229175361658 33.7727
29.80533020365064 33.8927
29.82836988641968 33.9175
29.85159081507472 33.9047
29.874632976355343 33.7354
29.89767637376955 33.8766
29.920721008448314 33.6597
29.9439469322847 33.6423
29.96699405457564 33.5979
29.9900424175358 33.5634
30.013092022298157 33.5407
30.03632295963995 33.4321
30.059375061131373 33.5566
30.08242840783577 33.4799
30.105483000888153 33.5462
30.128718970092244 33.4582
30.151776069006917 33.3303
30.17483441768648 33.4397
30.198074175317235 33.5016
30.221135036724256 33.3728
30.24419715131772 33.3377
30.267260520236203 33.2253
30.290505341942243 33.3431
30.313571232750228 33.4458
30.336638381310948 33.4022
30.35970678876503 33.2813
30.38295669299435 33.2271
30.40602763151657 33.1976
30.429099832366074 33.2582
30.452173296685572 33.0891
30.47542830191959 33.0685
30.498504306502497 33.0719
30.521581577995562 33.1117
30.544660117543582 33.0953
30.56792024229725 33.1467
30.59100133132069 33.1402
30.614083691845494 33.1484
30.637167325018545 33.1932
30.660432587840603 33.1878
30.683518779717886 33.1624
30.70660624769615 33.2712
30.729694992924372 33.277
30.75296541239743 33.3207
30.77605672557558 33.2244
30.799149319462742 33.0343
30.8224236211637 32.9448
30.845518789950724 32.8335
30.868615242910597 32.7721
30.891712981195973 32.6802
30.91499247215866 32.6001
30.938092794619365 32.6374
30.96119440587579 32.5337
30.984297307082752 32.4271
31.00758200598383 32.3449
31.030687500658694 32.1852
31.053794288760695 32.1244
31.076902371446767 32.0741
31.100192296997445 32.1635
31.12330298246119 32.0856
31.14641496599209 31.9023
31.169528248749216 31.9374
31.19282341969534 31.8991
31.215939314557186 31.9339
31.239056512134788 31.9896
31.262175013589378 31.8619
31.28547544871168 31.8606
31.30859657161541 31.7489
31.331719001892175 31.8083
31.35484274070538 31.9418
31.378148458819545 31.9784
31.401274828443725 31.7998
31.424402510106933 31.771
31.447712205419993 32.0055
31.470842524931633 31.8298
31.493974159989783 31.7358
31.51710711176168 31.8
31.54042212308802 31.739
31.563557722100917 31.7312
31.586694641341655 31.5281
31.609832881979628 31.575
31.63315322823208 31.4666
31.656294125521327 31.2692
31.679436347728515 31.248
31.70257989602529 31.2029
31.725905596152327 31.197
31.74905181052835 30.9964
31.772199354521323 31.0727
31.79534822930507 31.1053
31.818679302290967 31.0738
31.84183085259981 30.9939
31.864983737233473 31.0218
31.88813795736804 31.0372
31.911474422233013 30.8727
31.934631327356435 31.0203
31.9577895715215 31.0337
31.980949155906522 31.0101
32.004291031706956 30.9553
32.027453310562606 30.8364
32.05061693318573 30.7189
32.07396288236386 30.7773
32.09712920658542 30.7414
32.12029687812702 30.596
32.14346589817093 30.5285
32.166817291729984 30.4723
32.18998902288583 30.3779
32.21316210610336 30.2995
32.23633654256711 30.2815
32.259693399663725 30.1668
32.282870556771144 30.059
32.30604907069099 30.1346
32.329228942610065 30.0523
32.35259128243769 29.8721
32.375773884550505 29.7225
32.398957848235646 29.7962
32.422143174682176 29.7615
32.445511016471215 29.691
32.468699082679954 29.6247
32.49188851523011 29.6025
32.51507931531304 29.4783
32.538452678331 29.604
32.56164622776311 29.5479
32.58484114831493 29.4209
32.60803744118015 29.4032
32.631416344731896 29.4236
32.654615396551876 29.3198
32.67781582427913 29.3626
32.701198898634416 29.2079
32.72440209253756 29.0804
32.747606665947124 29.0843
32.77081262006088 29.0575
32.79420126883317 29.0147
32.81740999876112 29.05
32.840620112999424 28.8661
32.86383161274818 28.8284
32.88722585534586 28.8968
32.91044014056596 28.936999999999998
32.933655814909734 28.9074
32.95687287957963 28.8118
32.98027273544904 28.7341
33.00349259526636 28.802
33.026713849030116 28.7866
33.04993649794511 28.7658
33.073341986570746 28.6893
33.09656744032826 28.7509
33.11979429286444 28.7736
33.14302254538647 28.7195
33.166433686291185 28.5981
33.18966475336992 28.5786
33.212897224069096 28.4645
33.23613109959831 28.4188
33.259547912343415 28.3739
33.2827846121627 28.4639
33.306022720453775 28.3524
33.32926223842861 28.2932
33.352684742614166 28.2345
33.37592709463173 28.1658
33.399170859982064 28.1022
33.422597648419426 28.1136
33.44584425514446 27.9984
33.46909227885668 27.9954
33.4923417207723 27.8964
33.51577423505344 27.8923
33.539026528130385 27.7052
33.56228024307245 27.756999999999998
33.585535381098246 27.6789
33.60897364093058 27.5774
33.63223163992385 27.5903
33.6554910656699 27.4862
33.678751919389796 27.5086
33.702195944520106 27.4703
33.72545966903325 27.4735
33.74872482519663 27.333000000000002
33.771991414233746 27.3308
33.79544122444841 27.3611
33.81871069412428 27.2801
33.84198160035767 27.1802
33.86525394437455 27.2197
33.88870955949969 27.0968
33.911984794020626 27.1034
33.93526147001624 27.1432
33.958539588715006 27.0483
33.98200102861669 26.9937
34.0052820477047 26.9256
34.02856451319451 26.9412
34.05203033759056 26.747
34.07531571090147 26.7363
34.09860253431845 26.7826
34.121890809074316 26.6389
34.145362493118924 26.6245
34.16865368561615 26.6014
34.191946333164054 26.5343
34.21524043699793 26.4848
34.23871800066799 26.4528
34.26201503218366 26.413
34.28531352370466 26.4437
34.30861347646881 26.3602
34.33209693978188 26.408
34.3553998301885 26.4245
34.378704185565205 26.303
34.402010007152356 26.1969
34.42549939016683 26.1042
34.44880815937748 26.0479
34.472118398533134 26.0065
34.49543010887669 26.0806
34.51892543169198 25.989
34.54224009966052 25.9138
34.56555624255917 25.9268
34.58887386163339 25.9055
34.61237514439016 25.7584
34.6356957311114 25.6612
34.65901779775809 25.7492
34.68252356662995 25.6751
34.705848608458616 25.6692
34.72917513396849 25.5827
34.75250314440949 25.4889
34.77601490857862 25.5112
34.799345904259795 25.4
34.82267838863559 25.4968
34.846012362958525 25.4452
34.869530142679984 25.3904
34.89286711232212 25.3793
34.91620557568269 25.4263
34.93954553401677 25.377
34.9630693495876 25.2774
34.986412313340814 25.2581
35.00975677584668 25.2286
35.033102738362956 25.1858
35.05663261012228 25.0757
35.0799815881786 25.0866
35.10333207003229 25.0261
35.12668405694369 25.1011
35.150220005273056 25.0422
35.17357501786656 24.9953
35.19693153931268 24.9831
35.220289570874385 24.8893
35.24383161619786 24.881
35.267192683604904 24.9201
35.290555264930376 24.8987
35.314101899412165 24.8545
35.33746752422433 24.8066
35.36083466676374 24.787
35.38420332829803 24.7197
35.407756095629054 24.7189
35.43112781085063 24.7304
35.45450104888391 24.6967
35.477875810999194 24.7174
35.50143473172161 24.554000000000002
35.52481255774625 24.6045
35.54819191167777 24.579
35.57157279478914 24.5825
35.595137889488406 24.5036
35.61852184675279 24.4312
35.641907337029984 24.3719
35.665294361595684 24.3262
35.68886565090076 24.2978
35.7122557598848 24.3008
35.73564740699838 24.2291
35.759040593519934 24.1744
35.78261809810353 24.178
35.80601437933051 24.0961
35.829412203814705 23.9505
35.85281157283719 23.9955
35.876395313415884 24.0705
35.8997977874528 23.8961
35.92320180988546 23.8724
35.946790244133936 23.7769
35.97019737933222 23.8378
35.993606066789866 23.79
36.01701630779276 23.7411
36.04061101440684 23.706999999999997
36.06402437852291 23.7153
36.08743930005611 23.6762
36.1108557802951 23.6056
36.13445678011326 23.605999999999998
36.15787639383515 23.534000000000002
36.18129757014299 23.4769
36.20472031032821 23.5336
36.22832762423364 23.397
36.25175350829375 23.3892
36.275180960119776 23.3328
36.298609981005924 23.4528
36.32222362992669 23.3806
36.34565580510207 23.3032
36.36908955323448 23.2925
36.39252487562093 23.1183
36.416144880530226 23.0919
36.43958336764275 23.179000000000002
36.463023432914625 23.0613
36.486465077645676 23.0808
36.51009145956204 23.1104
36.53353627947859 22.9841
36.55698268276811 22.9882
36.58043067073321 23.0015
36.60406345072071 22.8657
36.62751462435344 22.8227
36.65096738658405 22.8397
36.67460498210655 22.7962
36.69806093788647 22.8518
36.72151848619297 22.8074
36.744977628333636 22.7046
36.76862165890998 22.6188
36.79208400512205 22.6863
36.81554794910557 22.6646
36.83901349217101 22.5884
36.862663978991606 22.4947
36.88613273667352 22.4183
36.90960309738324 22.4627
36.933075062434064 22.4571
36.95673202673572 22.4401
36.98020721697122 22.3007
37.003684015502365 22.2809
37.027162423645365 22.2512
37.050825886711465 22.2195
37.07430753063053 22.2382
37.09779078812467 22.1516
37.121275660513014 22.0895
37.144945643673694 22.0766
37.16843376245278 22.1004
37.19192350009803 22.0185
37.215414857931435 21.9755
37.239091382563885 21.9794
37.262585997426164 21.8698
37.28608223645736 21.9281
37.309763684451696 21.8412
37.33326318851098 21.8565
37.356764320726555 21.7802
37.380267082425526 21.7499
37.40395510942588 21.6951
37.42746114683234 21.6284
37.45096881771841 21.6728
37.474478123414166 21.6797
37.49817275092816 21.598000000000003
37.52168534303452 21.5688
37.54519957395567 21.4462
37.568715445024665 21.4062
37.592416694607714 21.4488
37.61593586281424 21.4076
37.63945667518264 21.4602
37.66297913304891 21.3093
37.68668702630454 21.368000000000002
37.710212792059274 21.2688
37.733740207334854 21.2653
37.757269273470364 21.2442
37.780983832050374 21.1739
37.80451621684926 21.1632
37.82805025654007 21.1324
37.851585952464795 21.1114
37.8753071980695 21.0224
37.89884622345676 20.998
37.92238690911902 20.9776
37.94611318753442 20.9246
37.969657210779765 20.9723
37.99320289834801 20.8925
38.016750251586465 20.8349
38.04048325513017 20.7885
38.06403395679343 20.7627
38.087586328183946 20.6868
38.11114037065203 20.7298
38.13488012115898 20.7301
38.1584375229181 20.66
38.181996599821 20.5856
38.205557353221124 20.5716
38.229303872575656 20.5327
38.2528679961576 20.4615
38.27643380031219 20.4212
38.30000128639589 20.3956
38.32375459653193 20.506999999999998
38.34732546371299 20.3879
38.37089801690786 20.3838
38.39447225747609 20.3103
38.418232380377425 20.3283
38.441810012983396 20.3125
38.46538933705673 20.2462
38.488970353960084 20.2528
38.51273731166058 20.1765
38.536321731567014 20.1157
38.55990784840681 20.1025
38.58367995004091 20.0351
38.60726947812959 19.9815
38.63086070726198 19.9823
38.654453638806274 19.9644
38.678232613930824 19.9537
38.70182896773327 19.8988
38.72542702806741 19.8512
38.7490267963045 19.9158
38.77281266709232 19.8122
38.79641586862214 19.7989
38.8200207821842 19.761
38.843627409152944 19.7345
38.86742019782782 19.7068
38.891030269149255 19.6665
38.914642058016156 19.6405
38.938255565806124 19.6569
38.96205529464307 19.5353
38.98567225787121 19.5192
39.00929094417078 19.5052
39.03291135492255 19.5175
39.05671804624804 19.4587
39.080341923549106 19.3855
39.103967529460334 19.3389
39.127594865365744 19.3183
39.15140854155791 19.3089
39.17503935514948 19.2217
39.19867190290282 19.2485
39.22249083587951 19.1691
39.24612686969409 19.1652
39.269764641845306 19.2132
39.293404153722804 19.1419
39.317230110864074 19.0588
39.34087311998506 18.9754
39.36451787301696 19.0544
39.388164371352595 18.9634
39.41199737518003 18.975
39.43564738196752 18.9518
39.45929913825317 18.925
39.48295264543308 18.8556
39.506792718520884 18.8403
39.530449745387216 18.8127
39.55410852735203 18.7698
39.57776906581474 18.7463
39.60161623079 18.7805
39.625280300200025 18.7308
39.64894613032202 18.6917
39.67261372255866 18.6906
39.6964680021016 18.6231
39.72013913657293 18.6191
39.74381203738292 18.5296
39.76748670593756 18.5644
39.79134812278169 18.5315
39.81502634488497 18.5492
39.83870633896685 18.4718
39.862388106436654 18.4066
39.88625668336918 18.3875
39.90994201572829 18.3594
39.933629125719285 18.3067
39.957503091207826 18.2876
39.9811937746168 18.3428
40.00488623990914 18.261
40.02858048850006 18.1375
40.05246165409549 18.1247
40.076159487492085 18.1109
40.099859108448875 18.1794
40.123560518384345 18.1785
40.1474489070226 18.1061
40.171153913178564 17.9635
40.194860712584955 17.9715
40.2185693066637 17.9448
40.242464941335314 17.8899
40.26617714307655 17.8822
40.289891143772046 17.8691
40.3136069448471 17.845
40.33750984859743 17.8284
40.3612292688043 17.8245
40.3849504936829 17.766
40.40867352466194 17.794
40.43258372059144 17.7026
40.45631038219906 17.714000000000002
40.48003885420956 17.6891
40.503769138055105 17.6628
40.52768664931955 17.6503
40.55142057531802 17.5921
40.57515631746428 17.5163
40.599079334038514 17.5168
40.62281872700477 17.4689
40.64655994043941 17.4539
40.67030297578061 17.4312
40.69423334835778 17.3785
40.71798004609188 17.4361
40.74172857006355 17.3501
40.76547892171441 17.3602
40.7894166736039 17.2933
40.813170699248566 17.2327
40.83692655691388 17.2212
40.86068424804498 17.21
40.884629402612525 17.1914
40.908390779366385 17.1636
40.932153993938 17.1193
40.95591904777605 17.1055
40.979871628443995 17.0817
41.003640379561936 17.063
41.02741097430883 17.0274
41.05118341413683 17.0183
41.075143444384416 16.992
41.098919593177826 16.9555
41.1226975914255 16.8716
41.14647744058318 16.942
41.170444943946755 16.8548
41.19422851378379 16.8872
41.218013938914645 16.8243
41.24198706625173 16.762999999999998
41.26577622087193 16.7097
41.289567235177785 16.7349
41.31336011063129 16.6736
41.337340752422875 16.6636
41.361137369129835 16.6931
41.38493585138705 16.6097
41.40873620066004 16.5671
41.43272438060107 16.5559
41.45652848292052 16.4866
41.48033445666918 16.4731
41.50414230331616 16.5283
41.528138045159764 16.4819
41.551949656675205 16.4005
41.575763145513235 16.3737
41.59957851314666 16.3726
41.62358184070442 16.2886
41.64740098505737 16.2763
41.6712220126409 16.2556
41.69504492493139 16.2576
41.71905586207357 16.2208
41.74288256296395 16.1785
41.766711153007456 16.1693
41.79054163368412 16.1316
41.814560204340054 16.115
41.838394485526365 16.1478
41.86223066180303 16.0534
41.88625497706819 16.0449
41.910094962812 16.0261
41.93393684811168 15.9714
41.95778063445365 15.8947
41.981812625263366 15.9279
42.00566023303407 15.8882
42.029509746323676 15.8807
42.05336116662236 15.8603
42.077400857069705 15.8368
42.10125611078846 15.8138
42.12511327600405 15.7724
42.14897235421036 15.7569
42.173019768448455 15.7131
42.19688269209613 15.707
42.22074753323349 15.6483
42.24461429335818 15.5861
42.268669455600495 15.6211
42.292540073217886 15.6259
42.31641261433284 15.6049
42.34028708044675 15.5081
42.36435001496739 15.4992
42.38822835065557 15.4916
42.41210861586426 15.4152
42.4359908120986 15.4811
42.46006154323262 15.3942
42.48394762115317 15.3254
42.507835634632315 15.3402
42.531912233047436 15.2998
42.55580413732265 15.2792
42.579697981698 15.3233
42.60359376768525 15.2637
42.62767820545945 15.2284
42.65157789440821 15.1831
42.67547952952185 15.1993
42.699383112316 15.1383
42.72347541395347 15.1088
42.74738291190531 15.0581
42.771292362102166 15.0493
42.795203766063516 15.0515
42.819303956130405 15.047
42.843219287476536 15.0045
42.86713657716324 14.9856
42.89105582671383 14.9328
42.91516392983864 14.9588
42.939087119032166 14.9421
42.963012272677304 14.8191
42.98693939230129 14.8396
43.01105543317513 14.8032
43.034986504731386 14.7513
43.05891954686589 14.7712
43.08285456110972 14.7502
43.10697856448665 14.6749
43.130917542983475 14.6141
43.15485849820081 14.7071
43.17880143167367 14.6394
43.20293342237094 14.6062
43.226880332449 14.5672
43.25082922540554 14.5657
43.27496722682525 14.5217
43.29892010567796 14.5
43.32287497204102 14.4906
43.34683182745632 14.4307
43.370977859791836 14.4542
43.39493871351105 14.4177
43.41890156092628 14.3971
43.44286640358341 14.3453
43.46702049182749 14.3337
43.49098934522816 14.3277
43.51496019852649 14.3032
43.5389330532723 14.2837
43.56309522248204 14.2503
43.58707210044314 14.2716
43.61105098451946 14.1828
43.63503187626491 14.2071
43.659202151562134 14.1254
43.68318707902681 14.0822
43.70717401884041 14.0743
43.731162972560874 14.0467
43.75534137913236 14.0134
43.779334381108384 14.0175
43.803329401683186 14.0227
43.82732644241872 13.9999
43.8515130055166 13.9443
43.87551410707659 13.8878
43.89951723350145 13.8954
43.923709934595614 13.8911
43.94771713129917 13.8322
43.97172635758096 13.8107
43.99573761501002 13.8132
44.0199385169922 13.8
44.04395385732619 13.7234
44.067971233533086 13.7788
44.09199064718605 13.73
44.11619977548961 13.633
44.14022328470671 13.6247
44.16424883610785 13.6291
44.18827643127035 13.5804
44.21249381139513 13.5914
44.236525514814076 13.5694
44.26055926674478 13.5153
44.28459506876863 13.5374
44.3088207262813 13.5306
44.33286064928722 13.4776
44.35690262714919 13.4714
44.38094666145278 13.4107
44.4051806219871 13.4336
44.42922879003185 13.3889
44.45327901929361 13.3053
44.477331311362136 13.3608
44.501573600619416 13.269
44.525630039221795 13.2885
44.54968854541895 13.2508
44.573937102200176 13.2226
44.5979997645541 13.2309
44.622064499300315 13.1571
44.64613130803592 13.1333
44.67038823869318 13.1584
44.69445921643748 13.1338
44.718532272981385 13.0909
44.742607409926194 13.0907
44.76687274034801 13.0305
44.79095205918753 13.0002
44.81503346325094 12.9604
44.839116954143876 13.0104
44.86339071028742 12.9968
44.88747839599524 12.9819
44.91156817336837 12.9457
44.93566004401666 12.8666
44.959942251908146 12.8921
44.984038330325966 12.8209
45.00813650686762 12.7921
45.03223678314731 12.8144
45.05652746888232 12.7971
45.08063196592069 12.712
45.104738567558705 12.7342
45.128847275414856 12.7484
45.15314646515866 12.6857
45.17725940679741 12.6807
45.20137445952892 12.628
45.22568004865265 12.6232
45.24979934496396 12.6017
45.27392075725247 12.565999999999999
45.29804428714431 12.5247
45.322358426247604 12.5022
45.346486212804315 12.4665
45.370616121861914 12.4712
45.39474815505086 12.4453
45.41907087049246 12.4198
45.4432071734666 12.3958
45.46734560548283 12.3811
45.49148616817604 12.4108
45.51581748638564 12.3567
45.5399623320197 12.3084
45.56410931325473 12.2888
45.58825843173002 12.3035
45.61259837920865 12.2647
45.636751793816 12.2575
45.66090735060093 12.2341
45.68506505120716 12.2172
45.7094136545275 12.152000000000001
45.73357566449271 12.1197
45.75773982322992 12.1534
45.78190613238733 12.1262
45.806263418194064 12.0712
45.83043404997326 12.0803
45.85460683713677 12.0481
45.87897065658495 12.0254
45.90314777634752 11.9952
45.92732705646868 11.984000000000002
45.9515084986045 11.9867
45.97588104735473 11.9274
46.00006683541565 11.8987
46.02425479047904 11.8641
46.04844491420549 11.8462
46.0728262191024 11.8549
46.09702070211635 11.842
46.12121735879483 11.8385
46.14541619080294 11.7906
46.169806278764455 11.7768
46.194009483459034 11.7814
46.21821486849841 11.7112
46.24242243555223 11.7133
46.266821333570014 11.6761
46.29103328674601 11.6652
46.31524742696538 11.7108
46.33946375590237 11.6189
46.36387149104216 11.647
46.38809221957392 11.6134
46.41231514186606 11.6047
46.436540259597464 11.5789
46.460956858999374 11.5508
46.48518638983522 11.5036
46.509418121166966 11.4669
46.533652054678114 11.475
46.55807754555709 11.4511
46.58231590571962 11.4407
46.60655647313217 11.3851
46.630988654873654 11.373
46.655233659129024 11.3475
46.67948087571551 11.3198
46.70373030632484 11.314
46.72817142736393 11.3261
46.752425308428684 11.2648
46.77668140861147 11.2406
46.80093972960865 11.1821
46.82538981736788 11.212
46.849652602470904 11.1763
46.87391761349769 11.1756
46.8981848521493 11.1646
46.9226439341274 11.1356
46.946915650573224 11.1128
46.97118959976749 11.1191
46.99546578341598 11.0917
47.019933887188216 11.0401
47.04421456235744 10.9897
47.06849747711879 10.9868
47.09278263318286 10.9864
47.11725978640143 10.9662
47.14154944775105 10.9393
47.165841355555656 10.8849
47.1901355115306 10.8886
47.214621741924994 10.8746
47.23892041698887 10.8322
47.26322134538975 10.8334
47.28771440635075 10.8031
47.31201986422527 10.83
47.33632758061436 10.8015
47.360637557241866 10.774000000000001
47.38513974410611 10.764000000000001
47.40945426407847 10.7096
47.43377104948137 10.6985
47.45809010204344 10.7115
47.48260144275502 10.6662
47.506925052572285 10.5673
47.53125093475548 10.5742
47.55557909103813 10.5859
47.58009961361992 10.5966
47.60443234110732 10.5952
47.62876734791564 10.5383
47.65310463578333 10.5328
47.6776343683373 10.5299
47.7019762413987 10.4521
47.72632040075572 10.4632
47.75066684815169 10.434000000000001
47.77520581885936 10.3841
47.799556865477655 10.3695
47.823910205386 10.3552
47.84826584033272 10.3691
47.87281407745551 10.3306
47.89717432569297 10.3129
47.92153687423484 10.2967
47.94609208429692 10.2768
47.97045925671401 10.2561
47.99482873471275 10.2413
48.01920052005013 10.221
48.04376504619224 10.2425
48.068141469543484 10.2021
48.09252020552573 10.1823
48.11690125590099 10.1955
48.1414751266064 10.1559
48.16586082917454 10.1278
48.19024885144316 10.0835
48.2146391951793 10.1211
48.239222439012764 10.1045
48.26361744916137 10.0525
48.28801478610016 10.0446
48.31241445160131 10.0307
48.337007097209366 10.0228
48.36141144338331 9.99403
48.38581812345755 9.96159
48.41022713920929 9.985439999999999
48.434829215320704 9.951939999999999
48.45924292604658 9.934510000000001
48.48365897780325 9.94744
48.50807737237308 9.89585
48.532688907799276 9.86646
48.55711201168574 9.833
48.581537463754074 9.82553
48.60615611725119 9.82543
48.63058628942721 9.79148
48.65501881516546 9.7721
48.6794536962573 9.72095
48.70408185970339 9.75308
48.72852147531801 9.7188
48.75296345168211 9.68518
48.77740779059232 9.642539999999999
48.80204549302823 9.67315
48.82649458091802 9.65595
48.85094603676547 9.65347
48.87539986237231 9.5959
48.90004713292306 9.556460000000001
48.92450572200832 9.556510000000001
48.94896668628025 9.552019999999999
48.97343002754588 9.51452
48.99808689542115 9.52113
49.02255501470614 9.51182
49.04702551642794 9.48306
49.0714984023988 9.47289
49.096164896893235 9.44995
49.120642575466796 9.39967
49.145122643748394 9.41653
49.16960510355558 9.38384
49.19428125404938 9.348939999999999
49.2187685210852 9.343869999999999
49.243258185121555 9.34658
49.26794160167084 9.29368
49.2924360839405 9.27404
49.31693296869764 9.28699
49.34143225776915 9.24951
49.36612538195438 9.23097
49.39062950396021 9.22327
49.41513603578346 9.20246
49.4396449792564 9.21013
49.46434784069503 9.21545
49.488861631846454 9.16802
49.513377840166804 9.1211
49.537896467493745 9.127930000000001
49.56260909589029 9.101239999999999
49.587132585683285 9.06413
49.611658500018365 9.098289999999999
49.636186840738596 9.02144
49.66090926588511 9.0305
49.685442483902584 9.03072
49.70997813385706 9.010060000000001
49.734516217597076 8.96508
49.75924846937352 8.95692
49.7837914452858 8.95565
49.80833686055187 8.9511
49.83288471702571 8.90883
49.85762682540054 8.91205
49.882179588965734 8.88125
49.9067347993235 8.86759
49.93129245833333 8.84263
49.95604445336378 8.815
49.98060703442832 8.7993
50.005172069746266 8.76287
50.02993150438364 8.76864
50.05450147301533 8.77176
50.07907390151433 8.73247
50.10364879174981 8.73058
50.12841816587289 8.68839
50.1529980044635 8.67337
50.17758031042124 8.66563
50.20216508562089 8.65632
50.22694442953363 8.62471
50.25153416817468 8.624410000000001
50.27612638170508 8.61711
50.300721072005196 8.614419999999999
50.325510416102105 8.59343
50.350110084975064 8.556560000000001
50.37471223628208 8.58578
50.39931687190919 8.53698
50.424116246675766 8.51045
50.44872587605249 8.48896
50.47333799543065 8.4683
50.49795260670191 8.49385
50.52276204271512 8.44155
50.54738166295838 8.3997
50.57200378079314 8.404869999999999
50.596628398116835 8.39015
50.62144792604559 8.37599
50.646077567609396 8.35692
50.670709714377715 8.33924
50.69553683636198 8.33206
50.72017401885922 8.326130000000001
50.7448137122895 8.258289999999999
50.76945591856022 8.29135
50.79429318636823 8.273819999999999
50.818940443716784 8.26517
50.84359021965163 8.21451
50.868242516085964 8.204889999999999
50.893089960641895 8.19075
50.917747323549435 8.196639999999999
50.94240721271973 8.17326
50.96706963007175 8.13237
50.99192728239342 8.11047
51.01659478166073 8.131739999999999
51.04126481489051 8.0798
51.06593738400761 8.07593
51.090805275207074 8.07968
51.11548294172845 8.047189999999999
51.14016314993547 8.052019999999999
51.164845901758845 8.02975
51.18972406304274 7.999160000000001
51.21441192780656 7.98694
51.23910234200271 7.968389999999999
51.2637953075678 7.9535100000000005
51.288683770237945 7.890969999999999
51.31338186432707 7.86985
51.33808251561888 7.913930000000001
51.362978729967345 7.921060000000001
51.387684521509755 7.901510000000001
51.41239287610203 7.882610000000001
51.437103795691165 7.83265
51.46201036644977 7.8196699999999995
51.486726441956634 7.80093
51.51144508832545 7.801710000000001
51.536166307509156 7.733410000000001
51.56108326624387 7.74855
51.58580965706056 7.75358
51.61053862657523 7.742310000000001
51.635270176746864 7.6802399999999995
51.66019755512065 7.71747
51.68493429268881 7.63868
51.70967361681515 7.66815
51.73441552946465 7.64507
51.759353359237934 7.61177
51.7841004750961 7.60308
51.80885018539685 7.599139999999999
51.833602492111254 7.577789999999999
51.8585508051424 7.553999999999999
51.883308330926425 7.551769999999999
51.90806845906181 7.550260000000001
51.932831191525715 7.515960000000001
51.95779001977161 7.51497
51.98255798721516 7.491339999999999
52.00732856494335 7.47669
52.03229530577543 7.46812
52.057071130455945 7.455839999999999
52.081849571391054 7.44345
52.106630630568695 7.45858
52.13160794279417 7.3911
52.15639426492067 7.4011
52.18118321127822 7.35809
52.205974783860896 7.32388
52.23096269971011 7.31544
52.255759551287994 7.30664
52.280559035098186 7.293880000000001
52.30536115314103 7.29025
52.33035970494467 7.26668
52.35516711807904 7.278169999999999
52.37997717147198 7.271719999999999
52.40478986713005 7.24445
52.42979908731974 7.19885
52.454617094216 7.2016100000000005
52.47943774942214 7.1302
52.50426105495102 7.1384300000000005
52.529280976059844 7.14893
52.554109609024096 7.133769999999999
52.57894089837482 7.1179
52.60377484613117 7.11637
52.62880550079408 7.101539999999999
52.65364479223379 7.091939999999999
52.67848674816189 7.0525199999999995
52.70352547971946 7.03556
52.72837279155837 7.004989999999999
52.753222773982785 7.04115
52.778075429022984 7.018260000000001
52.80312495150885 7.0061800000000005
52.827982978797436 6.997539999999999
52.85284368481815 6.966480000000001
52.87770707160767 6.9421800000000005
52.90276741793998 6.938289999999999
52.92763619336701 6.91488
52.952507655698504 6.93997
52.977381806977576 6.9229199999999995
53.00245301017842 6.858039999999999
53.02733256653592 6.8796100000000004
53.052214817996074 6.872380000000001
53.077099766608484 6.83137
53.102181859804446 6.803380000000001
53.127072229988265 6.815289999999999
53.15196530349892 6.7921
53.17686108239249 6.78868
53.20195409881522 6.757739999999999
53.22685531582556 6.7797
53.25175924441303 6.741219999999999
53.27666588664027 6.726210000000001
53.30176985962693 6.670610000000001
53.3266819565689 6.704110000000001
53.35159677336455 6.70657
53.376514312083096 6.633830000000001
53.40162927507703 6.65849
53.42655228516116 6.66028
53.45147802340193 6.6493
53.47660125628886 6.60986
53.50153247842639 6.5822
53.52646643496923 6.5975399999999995
53.55140312799818 6.5660300000000005
53.576537409691696 6.55221
53.60147960336152 6.55296
53.626424539786164 6.49942
53.65137222105307 6.50253
53.67651758529126 6.52043
53.70147078399681 6.48546
53.72642673383343 6.46265
53.75138543689533 6.46226
53.776541917524526 6.4581800000000005
53.801506154876755 6.42542
53.826473151763246 6.37716
53.851442910284916 6.4036599999999995
53.87661054126026 6.36885
53.9015858509782 6.38489
53.92656392866066 6.36578
53.95154477641532 6.36762
53.976723591801296 6.32191
54.00171000771266 6.28564
54.02669920004598 6.328069999999999
54.051691170915745 6.26128
54.076881204886796 6.24961
54.101878760928514 6.29764
54.12687910187696 6.18546
54.152077577768296 6.23346
54.1770835166946 6.17345
54.20209224691339 6.20119
54.22710377055121 6.20452
54.25231352511594 6.18239
54.27733066384342 6.126
54.30235060239643 6.1426
54.32737334290836 6.11711
54.35259441062629 6.0829
54.377622783395324 6.08486
54.40265396455061 6.06922
54.42768795623251 6.0298
54.45292037169559 6.014959999999999
54.477960012857906 6.01928
54.50300247099511 5.97265
54.52804774825457 5.96645
54.55329154616743 5.9398
54.57834249018678 5.95001
54.6033962597977 5.9036599999999995
54.6284528571545 5.88026
54.653708072335164 5.88275
54.67877035378786 5.82026
54.70383546947698 5.79228
54.72890342156389 5.77425
54.7541700889442 5.74504
54.77924374251975 5.75102
54.8043202390049 5.68211
54.82959552413022 5.67805
54.8546777351945 5.7378800000000005
54.87976279569621 5.68469
54.90485070780914 5.6961900000000005
54.930137506558005 5.6653
54.95523115074295 5.6391800000000005
54.98032765308844 5.58662
55.005427015775496 5.6054
55.03072536339621 5.63655
55.05583047570572 5.54379
55.080938454927676 5.49556
55.10604930325027 5.5336099999999995
55.131359235107396 5.5184
55.15647585066083 5.43114
55.181595341907496 5.421
55.20671771104285 5.4424
55.232039262617704 5.4568900000000005
55.25716741665048 5.400930000000001
55.28229845518636 5.366219999999999
55.30743238042802 5.27731
55.33276558731939 5.32608
55.357905315183636 5.26424
55.383047936390035 5.22234
55.40819345314859 5.1879800000000005
55.433538351073295 5.2481
55.458689688238415 5.22558
55.483843927614096 5.14808
55.509197623043605 5.1154
55.53435769621134 5.08936
55.55952067826466 5.06848
55.5846865714265 5.06467
55.61005202069737 5.08648
55.63522376553902 5.02545
55.66039842818645 5.05454
55.68557601087004 4.95792
55.7109532500271 4.91212
55.73613670233794 4.91065
