TT I
1.2716486653135266 6.938510000000001
1.2939594142134223 6.68778
1.3162702121660406 6.52656
1.3385810600174564 6.757000000000001
1.3608919586137629 6.95425
1.383202908801069 6.09587
1.405513911425503 5.9691
1.4278249673332093 6.07111
1.4501343378461518 5.66794
1.4724455028545926 6.31387
1.4947567236847858 6.30127
1.517068001182951 5.783869999999999
1.5393793361953272 6.4067
1.5616907295681737 5.76155
1.5840021821477681 5.52979
1.60631369478041 4.61445
1.6286252683124185 5.29481
1.6509369035901333 4.9795
1.6732468618895553 5.160159999999999
1.695558623192809 5.32918
1.7178704487808514 5.9746
1.7401823395001077 5.17668
1.7625012545597203 5.31034
1.7848028405262486 4.67819
1.8071218901122095 5.00361
1.8294236121921872 4.67999
1.8517427996910911 4.44912
1.8740620574440425 4.691330000000001
1.8963639900671978 4.2484
1.9186833908139995 4.17933
1.9409854680117449 4.389530000000001
1.9633050151394713 4.7057199999999995
1.9856246367570705 4.58953
2.0079269371922672 3.9264
2.03024671027244 3.98486
2.0525491637446027 4.76283
2.074869091674931 4.37185
2.097171701569106 4.59659
2.1194917877373847 5.2013300000000005
2.141811954326636 5.00312
2.164114805233074 4.79552
2.186435135143035 4.78855
2.208738150935709 5.28129
2.231058647554722 7.25444
2.2533792288321184 6.29064
2.275682498336085 5.53515
2.298003251406138 5.22717
2.3203066942619714 5.69987
2.3426276225136022 5.80689
2.3649486396617507 5.9743699999999995
2.387252348930071 6.34566
2.4095735463442893 5.82153
2.4318774374315884 6.3842300000000005
2.4541988185014043 6.80461
2.476502894794693 7.08593
2.498824462909887 6.703310000000001
2.521146125856138 7.22093
2.5434504863470337 7.69389
2.5657723414244717 7.86658
2.588076895590662 8.18016
2.610398946189713 8.2783
2.6327210958598384 8.28158
2.6550259469304716 8.44356
2.6773482972090137 8.56289
2.6996533504259 9.1987
2.7219759047039602 8.132010000000001
2.744298562293959 8.55685
2.7666039251246595 8.41819
2.7889267918020164 8.81697
2.8112323652516555 8.31894
2.833555444408179 9.148810000000001
2.8558786311183852 8.68419
2.8781845268938557 8.472760000000001
2.9005079311721484 8.77191
2.9228140460410397 9.29852
2.9451376712799635 9.879380000000001
2.967444008632326 10.1825
2.9897678582247247 10.3104
3.0120918213106695 10.6148
3.0343984987899373 10.5055
3.0567226913198637 10.7286
3.079029599759726 11.2842
3.101354025127254 11.779000000000002
3.123678568232338 12.6702
3.145985829517914 12.6847
3.16831061055229 13.3282
3.1906181112775593 14.4602
3.212943133635653 14.9217
3.2352682779763207 15.0807
3.2575761442691227 14.7888
3.2799015350264273 14.8593
3.302209649240067 15.5778
3.3245352898092655 16.0499
3.3468436553365257 16.4991
3.369169549113219 17.242
3.3914955708171384 18.0027
3.413804319727358 17.842
3.4361305997334863 18.3578
3.4584396084414553 19.5699
3.4807661501462652 19.5905
3.503092824025881 20.3031
3.5254022288463154 20.5502
3.5477291695206588 21.0065
3.5700388426251948 21.6695
3.5923660534916446 21.9528
3.6146934007816114 23.139
3.637003482731501 27.8114
3.6593311053109985 29.5099
3.681641464033634 26.3906
3.7039693653009733 24.4429
3.726297407241705 24.5586
3.7486081875460804 24.885
3.7709365132734978 25.2285
3.793247578841633 25.7456
3.8155761917550093 25.8817
3.8378875459837216 26.2668
3.8602164494827234 26.6655
3.882545499606844 27.3353
3.9048572932539183 28.2527
3.9271866390645718 28.5795
3.9494987298666713 29.23
3.971828374764527 29.691
3.9941581705403255 29.9765
4.016470713506008 30.4324
4.038800813471445 31.3455
4.061113662089144 32.0263
4.0834440696459176 32.9932
4.105774632334751 33.2162
4.128087945865126 33.6247
4.150418821249301 34.1033
4.172732448931298 35.1326
4.195063640413578 35.8181
4.2173775856475215 37.0354
4.239709096631102 39.6185
4.262040768704612 54.9842
4.284355196706267 64.0099
4.306687193387355 54.8125
4.329001947444346 44.3954
4.35133427213731 41.801
4.373666762177566 41.6634
4.395982011761091 42.2739
4.418314834921175 43.4477
4.44063041906622 44.7091
4.4629635787515625 46.3787
4.4852969080429785 47.7413
4.5076130004776225 50.2426
4.529946671403969 54.986999999999995
4.552263106909177 57.3725
4.574597122877047 55.2842
4.596931312711224 53.4961
4.619248269273446 53.0869
4.6415828092605835 53.4549
4.663900117405352 54.7192
4.686235010953232 56.5071
4.708552674085913 57.8831
4.730887924602802 59.5998
4.753223354952695 61.1448
4.775541557023902 64.1777
4.797877349456786 66.3443
4.820195915032126 67.4211
4.842532072957498 67.4292
4.864868414979744 70.9881
4.88718753227192 75.0225
4.909524244902505 76.4484
4.931843734218147 75.595
4.954180820867835 77.3985
4.976518095879839 80.1417
4.998838149695359 82.8294
5.021175803844231 86.0234
5.043496238205739 89.397
5.065834274903528 93.70200000000001
5.088172504230693 97.7365
5.1104935158799565 103.68299999999999
5.132832132875765 116.59100000000001
5.155153533596801 136.56
5.1774925416746225 175.19799999999998
5.199814334878411 377.73400000000004
5.2221537374521505 1002.18
5.244493338631803 2832.64
5.266815727034316 8105.3
5.289155727832427 13751.1
5.311478517248165 8228.34
5.333818921080011 2214.05
5.356159527788849 417.385
5.3784829252032536 177.54
5.400823940070432 143.637
5.423147747031976 124.48100000000001
5.445489173474152 116.75299999999999
5.467830807066149 116.527
5.490155234831516 117.155
5.512497285125229 110.616
5.534822130975162 104.32
5.557164601388673 100.979
5.579489868738879 97.8621
5.601832762690846 96.8437
5.6241758697774475 95.6818
5.646501775867269 94.7201
5.668845311622074 93.8158
5.691171647754637 93.0677
5.713515615597765 92.4084
5.735859800852677 91.7934
5.758186788542988 93.2835
5.780531411018185 97.2272
5.802858837297399 96.0637
5.825203900414495 96.3298
5.8475491852224 98.0792
5.869877275883075 97.7457
5.892223006467101 95.0803
5.914551544266608 93.5469
5.936897724049891 96.5208
5.959244129804903 103.83
5.981573344815301 132.053
6.0039202049061 241.83
6.026249875609095 472.86400000000003
6.04859719346037 961.9689999999999
6.070927323278297 2229.6
6.093275102315365 4809.16
6.115623113320588 5622.22
6.137953938319995 2966.31
6.160302415650845 789.431
6.182633708324452 187.97
6.2049826554078376 101.54799999999999
6.227331838745022 86.3982
6.249663839443684 81.0121
6.27201349767565 77.547
6.294345974611799 75.8095
6.316696111167083 75.2211
6.339046488263839 73.6675
6.361379686074702 70.6854
6.383730546639482 68.8709
6.406064229255215 68.7649
6.428415576718203 69.0339
6.450749747566656 67.9886
6.47310158535871 66.2523
6.495453669698332 64.4252
6.517788579421056 63.0856
6.540141159237969 62.4119
6.562476565766648 61.7541
6.5848296444934045 61.6573
6.607182974060425 62.1199
6.6295191323281015 61.6552
6.651872965955752 60.3811
6.6742096296068985 61.2279
6.6965639707294615 65.4918
6.71891856698715 65.2516
6.741255995248479 60.9511
6.763611104154477 58.2775
6.785949046381137 57.2406
6.808304671371482 58.1754
6.8306605557940046 59.233000000000004
6.852999275508618 58.257
6.875355681171544 56.8442
6.897694923437771 55.3539
6.92005185377892 55.1721
6.9423916220322655 55.108999999999995
6.964749080490181 54.5208
6.987106804399774 54.663999999999994
7.009447368180821 55.0567
7.031805625367033 54.7447
7.054146723727803 54.6573
7.076505517631004 54.1185
7.098864581288365 53.8991
7.121206488070854 53.6657
7.143566093607822 54.1454
7.165908543567245 55.2488
7.188268694426048 54.8533
7.2106291193438095 53.9215
7.232972390625943 53.4289
7.255333366030969 53.9641
7.277677189091925 58.1517
7.300038718428332 63.2247
7.322400526130865 61.1982
7.344745183422596 56.1925
7.367107550224791 53.3869
7.389452767901992 53.2582
7.411815697249891 52.9942
7.434161478756298 52.6922
7.456524974096713 52.7248
7.478888753837185 52.9408
7.501235387657368 53.1063
7.523599738562711 53.5481
7.545946944825532 54.4746
7.568311870344528 54.6642
7.5906770845765665 54.1705
7.613025156078678 54.1659
7.635390950099687 54.684
7.657739602662809 54.4011
7.680105979923558 54.6976
7.702472650212829 55.7839
7.724822180948224 55.5699
7.747189439655568 55.571000000000005
7.769539560075357 55.1393
7.791907410653562 55.481
7.81425812420825 55.3662
7.836626570110925 56.2529
7.858995315087906 56.745
7.881346924933401 56.7731
7.903716270417482 57.2061
7.926068482028405 57.7418
7.948438431475253 58.2934
7.9708086843180235 58.7926
7.993161805171116 59.581
8.015532667162402 59.9994
8.037886398416653 61.3081
8.060257873014221 61.5981
8.082629655331942 62.5231
8.104984308787587 62.9947
8.127356708900503 64.212
8.149711981398308 67.0016
8.172085002766314 68.7895
8.194458336181368 68.26
8.216814543847752 67.4099
8.23918850371002 68.3327
8.26154533906492 69.1707
8.283919928836452 71.0248
8.306277395339652 71.7768
8.328652618483376 73.1852
8.351028159736202 75.1614
8.373386579575245 78.0663
8.395762759396959 79.2255
8.418121819038275 81.639
8.440498640894003 86.2379
8.462875785192262 96.3229
8.485235811156207 123.845
8.507613602688501 178.887
8.529974277114228 266.995
8.552352719347912 397.325
8.574731488360351 666.5089999999999
8.59709314210385 1246.54
8.619472567021075 2044.0
8.64183487789147 2412.01
8.664214962183097 1758.67
8.686577933647762 805.82
8.708958680784317 303.086
8.731339760774953 139.725
8.753703729764451 102.962
8.77608547780821 95.3579
8.798450116065078 92.4685
8.820832535634787 90.5448
8.843215292401656 90.7851
8.865580941199045 90.7675
8.887964374703538 90.0504
8.910330701447199 89.6173
8.932714815164482 89.0905
8.955099270424924 86.182
8.977466620733543 84.5409
8.999851761421976 84.0978
9.022219798361645 83.2719
9.04460562795561 82.9858
9.066991803441677 83.0144
9.089360876979615 83.4795
9.111747746589993 83.4521
9.13411751544971 82.1858
9.156505082664324 81.1888
9.178875550323522 81.206
9.20126381862328 81.0071
9.223652438908596 81.9668
9.246023961427412 82.624
9.26841328802173 82.7338
9.290785518039224 82.6173
9.313175554425882 84.0888
9.335565947154315 85.4816
9.357939245086508 85.8236
9.380330352834827 84.7083
9.40270436697103 84.8166
9.425096193225055 84.4395
9.447488380180165 84.2073
9.469863475295412 83.6756
9.492256385987508 83.9827
9.514632206018318 84.5804
9.537025843935714 84.6979
9.559402392368193 86.1232
9.581796761000229 88.5977
9.604191496441521 90.68799999999999
9.626569144158516 91.9856
9.648964615551032 92.7067
9.671343000390081 91.6298
9.693739211225699 90.976
9.716135793237463 90.86399999999999
9.738515290448102 92.0373
9.760912617143402 93.4577
9.783292860202891 95.8809
9.805690935076182 97.8021
9.828089385495742 98.4171
9.850470754023561 99.5364
9.872869957865444 101.598
9.89525208097539 104.484
9.917652041736662 109.74600000000001
9.940052382417589 121.271
9.962435644102392 149.72299999999998
9.984836746950979 192.38299999999998
10.007220771957746 255.743
10.029622640473708 360.225
10.052007432299963 539.34
10.074410069984072 848.895
10.096813093716005 1358.07
10.119199042482517 1894.71
10.141602840636468 2090.41
10.163989564971628 1459.33
10.186394141051062 723.564
10.208799107559706 295.925
10.231187001965623 152.94899999999998
10.253592751657669 115.934
10.275981430388155 107.715
10.298387966769793 105.219
10.320794897965431 104.709
10.343184759907361 103.76899999999999
10.36559248305461 102.44200000000001
10.387983138083852 104.005
10.410391656691655 110.81
10.432800574501677 122.494
10.455192425893369 138.816
10.47760214443012 165.565
10.499994797678786 212.144
10.522405320453982 296.752
10.54479877906917 417.699
10.567210109595656 549.87
10.5896218454736 589.332
10.612016518879773 465.19599999999997
10.634429067781074 288.622
10.656824555333241 170.053
10.679237920773568 111.427
10.701651695961992 92.3844
10.724048411481384 87.2831
10.746463008485165 84.6941
10.768860546937125 83.3007
10.791275969274796 81.6008
10.81369180576079 80.8173
10.836090585366925 79.9195
10.858507252467449 78.9237
10.88090686379991 77.5911
10.903324365036394 77.0817
10.925724811614439 76.5645
10.948143150509463 76.5866
10.970561909719066 76.1607
10.992963615930844 75.5999
11.015383218085756 74.2793
11.037785768347074 72.5571
11.06020621697282 71.5857
11.082627090322113 71.0326
11.105030913430326 69.9697
11.12745263854165 69.5368
11.149857314510728 69.1573
11.172279894912576 69.6598
11.194702904450653 69.1492
11.217108866490921 68.1171
11.239532736615194 67.1785
11.26193956033512 66.7713
11.284364294577085 66.54
11.306789462371718 66.0472
11.329197585398376 65.8337
11.351623622610898 66.02
11.37403261614354 64.98
11.396459526308487 64.9477
11.418869393879497 64.7822
11.441297180532617 64.2753
11.463725406927658 63.6199
11.486136592353875 63.4327
11.508565700543707 63.3101
11.530977768845315 63.382
11.553407762368774 62.8625
11.575838200059769 62.9294
11.598251599479612 62.5762
11.620682927815501 62.3049
11.64309721895548 62.3198
11.665529441478206 62.0869
11.687962112597958 61.8588
11.710377748130886 61.8657
11.732811318753434 61.8709
11.755227854859067 61.4561
11.777662328529495 61.8291
11.800079768750786 61.6529
11.822515149015453 61.7298
11.844950984084935 62.1063
11.867369787303163 61.5081
11.889806534289491 61.4035
11.912226250487029 61.5914
11.934663912939751 62.3727
11.9571020346363 62.7056
11.979523127133968 62.9908
12.001962169624331 64.0419
12.024384183972964 65.5087
12.046824150809913 68.8502
12.069264581333726 73.3472
12.091687985297767 79.475
12.11412934550045 88.7792
12.136553680195208 103.49
12.158995973632788 125.476
12.181438735204349 158.539
12.20386447284199 193.66299999999998
12.226308172985636 205.71200000000002
12.24873485024193 193.00900000000001
12.271179492516982 150.759
12.293607112949127 107.79700000000001
12.316052700916226 81.8326
12.338498763250042 68.3366
12.360927805303868 64.0667
12.383374818673879 63.1589
12.405804812803074 62.809
12.428252780773262 62.757
12.45070122756722 62.9742
12.473132656675375 63.1424
12.49558206341869 63.527
12.518014453510101 64.0013
12.540464823770117 63.9905
12.562915677315177 63.7293
12.58534951575545 63.8132
12.607801338171472 64.0585
12.630236146511358 64.7148
12.652688941369085 65.7699
12.675124723177234 66.0044
12.697578494048786 66.2751
12.720032754458185 66.0346
12.742470003354093 66.0322
12.764925245138771 66.4789
12.787363476431278 66.9439
12.809819703166806 67.5716
12.83227642391173 68.2616
12.854716135692716 69.2199
12.877173846755147 70.2772
12.899614549869717 70.4314
12.9220732548287 71.4937
12.94453245827299 71.9557
12.966974655289818 73.0294
12.989434858002571 73.5006
13.011878055298721 74.2837
13.034339260862497 75.3395
13.056800969391883 76.6835
13.079245674017244 79.9062
13.101708390774869 84.3453
13.12415410463411 92.65
13.146617833206086 102.44
13.169064559883248 113.539
13.191529303857127 128.635
13.213994557076367 151.406
13.236442809902437 189.805
13.258909083908291 250.702
13.28135835851934 327.154
13.30382565690295 399.26599999999996
13.326293469022952 452.259
13.348744283242008 416.56699999999995
13.371213125129904 318.844
13.39366497011003 216.688
13.416134845360597 145.285
13.438605238843131 111.45299999999999
13.46105863690397 103.601
13.483530069144786 105.755
13.505984506951902 112.01299999999999
13.528456981549432 122.601
13.550929978879088 138.168
13.573385983253365 163.017
13.595860028340867 203.158
13.618317081455832 258.367
13.64079217790333 327.658
13.663250283359057 383.436
13.685726434770173 385.647
13.708203115221277 324.08
13.730662806148091 237.705
13.75314054697177 161.372
13.775601299246777 113.45700000000001
13.798080104050406 90.73
13.820559442405358 82.6729
13.843021793671388 80.1246
13.865502201420897 78.7891
13.887965623051947 78.2705
13.910447103807167 77.3877
13.932929122629764 76.15
13.955394156785959 75.6919
13.977877254034569 74.935
14.000343367582113 74.1826
14.022827546871707 73.4324
14.045294743423524 72.6981
14.06778000837062 71.9243
14.090265817715476 71.9089
14.112734645763819 71.4874
14.13522154619454 71.0199
14.157691466286913 70.8527
14.180179461423874 70.7349
14.202668005486178 70.1697
14.22513957064374 69.737
14.247629214846473 69.4195
14.270101881097517 68.8533
14.29259262906496 68.7355
14.315083930490205 68.8427
14.337558255389705 68.7815
14.360050666019726 68.6528
14.382526101071944 68.3755
14.405019624534942 68.3374
14.427513705993134 68.1219
14.449990813291825 68.0165
14.47248601302899 67.7415
14.49496423954951 67.7468
14.517460561197822 67.7076
14.539939910570322 67.5403
14.562437357763558 67.9567
14.58493536931253 68.38600000000001
14.607416409993311 68.1809
14.62991555254159 68.8759
14.652397725157423 69.0404
14.674898002342799 69.17699999999999
14.697398848433282 69.8404
14.719882725991326 71.5041
14.74238471217934 73.5418
14.764869730765593 76.6705
14.787372860692983 79.1877
14.809876564079925 84.1194
14.83236330125751 90.2055
14.854868153850365 99.0872
14.877356041159485 113.70299999999999
14.899862046604186 132.744
14.922351087688757 160.424
14.944858249632887 194.205
14.967365991421232 223.372
14.989856770231246 232.30900000000003
15.012365673994204 215.78400000000002
15.03485761569738 175.095
15.05736768508665 131.668
15.07987833888692 101.073
15.102372032001655 82.5863
15.124883856909658 73.1913
15.14737872204565 70.016
15.169891721717274 68.9554
15.192405310371893 68.6695
15.214901940621196 68.4023
15.237416709527137 67.6564
15.259914520936249 67.764
15.282430473753607 67.2654
15.304947020131227 66.2242
15.327446610371178 66.1824
15.349964346154254 65.8136
15.372465126703139 65.7391
15.394984055556009 65.3926
15.417486030076159 65.3001
15.44000615566487 64.9861
15.462526881230803 64.7346
15.485030653812652 64.9095
15.507552581617434 64.7793
15.530057557334603 64.8954
15.55258069104857 64.7752
15.575104429329837 65.0933
15.597611216864632 65.1821
15.620136166564563 66.0002
15.6426441664095 67.5441
15.665170331202765 70.0391
15.687697105158826 72.6373
15.710206930593545 76.0604
15.732734925158933 80.5694
15.755245972089478 87.0743
15.77777519094324 96.2582
15.800287463046663 109.706
15.822817909869592 129.749
15.84534897229804 152.298
15.867863089299354 179.918
15.890395385222186 198.442
15.912910736597423 195.511
15.935444269699861 175.273
15.957978423016485 138.77700000000002
15.980495633101265 107.866
16.003031029129367 84.5893
16.02554948280019 70.7095
16.048086125229432 64.2847
16.070623392487107 62.1929
16.09314371869582 61.3979
16.11568223789321 60.4971
16.13820381691126 59.9007
16.160743591742527 59.4291
16.183283996022084 59.0556
16.205807461423195 58.1782
16.228349126881973 57.6505
16.25087385432698 57.5984
16.27341678466365 56.983000000000004
16.29594277784926 56.8416
16.31848697676433 56.472
16.341031811604868 56.1863
16.36355971058487 55.9235
16.3861058195587 55.8282
16.40863499352978 55.4039
16.431182380342005 55.1594
16.453730407713202 54.8338
16.476261501364792 54.6797
16.498810812136167 54.4377
16.52134319004079 54.4551
16.54389378792203 54.388000000000005
16.566445031001553 54.3891
16.588979342490088 54.3069
16.61153187824822 54.1065
16.634067483263312 53.9301
16.656621315414416 53.7679
16.679175797408888 53.5365
16.701713349928728 53.7084
16.72426913389191 53.7664
16.74680798922351 53.6422
16.76936507887444 53.5523
16.791905240734874 53.6241
16.814463639794468 53.6622
16.837022695210294 53.6208
16.859564824093756 53.8624
16.882125194503903 54.0705
16.904668639217885 54.2089
16.927230328348003 54.0748
16.949792678493612 54.3243
16.972338104193863 54.199
16.994901778652235 54.4097
17.017448529496576 54.7804
17.040013531998152 55.2188
17.06257920018044 55.909
17.0851279459922 56.5211
17.107694947817667 57.3918
17.130245028099072 58.1652
17.15281336730298 59.2868
17.17536478578733 61.114
17.19793446610687 63.2776
17.220504818648422 66.685
17.243058251703697 70.3105
17.265629950971032 75.4077
17.288184731571736 80.5691
17.310757781306908 83.5289
17.33333150794385 82.4968
17.355888317140174 78.7448
17.37846339986244 72.6631
17.401021565958885 66.8523
17.42359800851343 62.4039
17.44617513265564 59.8368
17.468735341390783 58.8894
17.491261035594565 58.148
17.51396340099364 58.0508
17.536490463869136 58.1322
17.559018209820174 58.3085
17.58154663977963 58.2126
17.604251766089718 58.5708
17.626781572227713 58.7168
17.64931206518155 58.8758
17.671843245885103 59.3557
17.69455114821572 59.4308
17.717083712612634 59.6541
17.739616967569667 60.016000000000005
17.762150914021706 60.5384
17.78486160749854 61.0021
17.807396945166804 61.8921
17.829932977143503 63.2367
17.85246970436452 64.7093
17.875183204129467 66.2055
17.897721330097664 68.1838
17.920260154126645 70.6869
17.942799677153296 73.8871
17.9655159983646 77.7611
17.988056927677544 83.3841
18.010598558807683 91.0116
18.033140892692916 101.61200000000001
18.05586005052525 114.23700000000001
18.07840379824407 127.632
18.10094825154059 138.683
18.12366954819864 142.436
18.146215420998306 136.856
18.16876200220057 123.69200000000001
18.191309292745153 107.961
18.214033452627167 94.725
18.236582170236648 86.1364
18.259131600016456 83.5305
18.281681742907335 85.2694
18.304408781233683 90.726
18.32696035875955 97.2881
18.349512652227624 102.689
18.372065662579683 106.39
18.394795594587553 104.238
18.41735004715306 97.8676
18.43990521943684 89.0632
18.46246111238171 80.0782
18.485193953325208 71.8347
18.507751296070428 66.1447
18.530309362314178 63.3828
18.552868153000343 61.9397
18.57560391815056 60.9684
18.59816416623245 60.5049
18.620725141597372 60.1657
18.643286845190268 59.7301
18.666025549835414 59.3872
18.688588718427933 58.653999999999996
18.711152618092243 58.6314
18.73389353884365 58.3163
18.75645890921984 58.1515
18.77902501351406 57.87
18.801591852673102 57.8301
18.824335739722738 57.2847
18.846904057212626 57.1099
18.8694731124168 56.7669
18.89204290628315 56.7937
18.914789774966803 56.6863
18.937361054791623 56.4102
18.959933076131318 56.0393
18.982505839934877 55.9768
19.00525570560582 56.0167
19.027829963004184 55.8888
19.05040496572238 56.1533
19.072980714710468 56.1137
19.095733592739563 56.2299
19.11831084296757 56.4978
19.140888842324735 56.7165
19.16346759176222 56.9284
19.18622349753803 57.496
19.208803755869358 58.6289
19.231384767143577 59.8511
19.253966532312948 61.4286
19.276725481241822 63.6083
19.29930876296784 66.3825
19.3218928014549 69.5018
19.34465404436217 72.3472
19.36723960516257 74.8046
19.389825925592426 75.0437
19.412413006605938 72.4972
19.43517731967805 68.4943
19.457765930683355 64.2273
19.48035530514408 59.8112
19.50294544401556 56.6431
19.525712842708348 54.6071
19.54830451925909 53.8921
19.570896963095727 53.2168
19.593490175174704 52.8994
19.616260674962184 52.9579
19.638855432416964 52.6444
19.661450960992624 52.7565
19.68404726164677 52.6778
19.706820878021247 52.349
19.729418731756834 52.6292
19.752017360452857 52.3226
19.77461676506804 52.7845
19.797393513540218 52.9899
19.819994478951667 53.0887
19.84259622316767 53.5805
19.8651987471481 53.9559
19.887978643247177 54.1052
19.91058273574792 54.6537
19.933187610901943 55.6606
19.955969879466828 56.9904
19.97857632894404 58.4939
20.00118356396599 60.2446
20.023791585494575 62.7055
20.046577028914875 65.6154
20.069186632506966 68.3122
20.091797025500632 69.9652
20.114408208858933 69.9228
20.137196842715273 68.6505
20.159809615886765 66.3973
20.18242318232135 63.4271
20.20503754298326 61.6139
20.227829382875154 60.657
20.250445341109344 61.2176
20.27306209647285 62.402
20.29567964993108 64.0391
20.31847471147704 64.7464
20.34109387027612 65.3792
20.363713830075454 64.1691
20.386334591841646 62.0409
20.409132890679302 58.7892
20.431755265564437 55.7916
20.454378445325528 53.3264
20.477002430930366 51.5425
20.499803982716553 50.6059
20.522429589228004 50.0521
20.54505600449589 49.6238
20.567683229489194 49.666000000000004
20.590488049900088 49.4598
20.61311690359731 49.1324
20.63574656993626 49.0783
20.658553853717297 48.8173
20.681185154618298 48.7837
20.703817271080066 48.6327
20.72645020407368 48.3577
20.749260783967177 48.2846
20.771895359337133 48.2404
20.794530754161617 48.1683
20.817166969412938 48.0874
20.83998086114876 47.986000000000004
20.86261872660049 48.0678
20.885257415405402 47.875
20.90789692853701 47.6517
20.930714147864748 47.8754
20.953355319030678 47.8726
20.97599731745334 48.0642
20.99864014410749 47.906000000000006
21.021460706796564 47.7918
21.044105199328826 48.0696
21.06675052302631 48.0684
21.089396678865015 48.3822
21.112220600704806 48.6475
21.134868430275347 49.1286
21.15751709492456 49.2338
21.180166595629693 49.7426
21.202993892429635 50.3431
21.22564507473034 50.6494
21.24829709602816 50.8555
21.27112693608965 50.7466
21.293780644891275 50.6344
21.316435195634053 49.7286
21.339090589297417 48.9376
21.361923832041875 48.382
21.384580921090404 47.8365
21.407238856007325 47.5251
21.429897637773326 47.5421
21.45273429906592 47.5961
21.475394784108598 47.6212
21.498056118951983 47.8457
21.520718304578022 48.0389
21.543558400304388 47.919
21.566222297108816 48.2527
21.58888704765135 48.4421
21.61155265291521 48.5895
21.63439619898156 49.0297
21.657063523335786 49.368
21.67973170537063 49.725
21.7024007460706 50.2648
21.72524775840385 51.0763
21.747918526116475 52.1773
21.770590155457388 53.4154
21.79326264741238 55.0137
21.816113141960237 57.1459
21.838787368860547 59.207
21.861462461341976 61.3582
21.884315579735777 63.4779
21.90699241312273 64.3779
21.92967011506078 63.9979
21.95234868653799 62.7087
21.9752053151131 60.751000000000005
21.997885635446785 58.5704
22.020566828293532 56.8224
22.04324889464272 55.7938
22.066109049404666 55.1094
22.088792872571794 55.2117
22.111477572219204 55.4967
22.1341631493376 55.7953
22.157026846313123 54.9309
22.179714188221507 53.8603
22.202402410582668 52.6028
22.22509151438863 51.0813
22.24795876962584 49.9681
22.270649646204486 49.1764
22.293341407213727 48.6765
22.316034053646906 48.2177
22.338904883215342 48.0409
22.36159931041458 47.9245
22.38429462602756 47.8341
22.40699083104897 47.6787
22.429865251039757 47.7287
22.452563244831367 47.8055
22.47526213102522 47.7448
22.49813925616515 47.7258
22.520839937143307 47.6513
22.543541513520587 47.8222
22.56624398629403 47.6317
22.589124730075895 47.7227
22.611829005656723 47.9896
22.63453418063466 48.0231
22.657240256008077 48.2155
22.680124634582935 48.3006
22.70283252079775 48.5004
22.725541310413075 48.9329
22.74825100442868 49.2592
22.771139033969575 49.7013
22.79385054687155 49.849
22.81656296718292 50.5174
22.83927629590484 51.4189
22.862167992606945 52.4244
22.88488314827121 53.9202
22.907599215359284 55.0301
22.93031619487366 56.1462
22.953211574954405 56.9107
22.975930389478226 57.3051
22.998650119445763 56.9522
23.02137076586092 55.8996
23.044269845560063 54.2156
23.06699233506288 52.3644
23.089715744034912 50.8753
23.112617610931565 49.4883
23.135342869061212 48.4757
23.158069049684816 48.085
23.1807961538087 47.848
23.20370174880544 47.8556
23.226430710184808 48.0155
23.249160598093425 48.1059
23.271891413539002 48.0554
23.294800752937697 48.0095
23.31753343374794 48.3508
23.340267045128353 48.4448
23.36300158808808 48.7627
23.38591468821339 49.2048
23.408651104658304 49.6303
23.431388455719986 50.3668
23.454126742409 51.0857
23.4770436196085 52.1927
23.499783787914662 53.6466
23.522524894889884 54.875
23.54526694154616 56.2436
23.56818761219047 57.4523
23.59093154860734 57.4544
23.613676427751283 57.2113
23.636422250635754 55.7325
23.659346731118656 53.4836
23.68209445191868 51.5208
23.704843119509587 49.556999999999995
23.72759273490623 47.9978
23.750521041644767 46.7101
23.77327256312355 45.9635
23.796025035462787 45.6518
23.818956224555475 45.2588
23.841710609113413 45.1643
23.86446594758979 45.0681
23.887222241002014 44.7228
23.910157285144578 44.446000000000005
23.932915498962537 44.3729
23.955674670778713 44.2681
23.978434801611975 43.9633
24.001373717286125 43.8732
24.024135776723917 43.8966
24.046898798245582 43.7531
24.06966278287146 43.6588
24.092605586582614 43.4477
24.115371508023642 43.2256
24.1381383956401 43.0519
24.16090625045381 43.0505
24.183852958731244 43.056000000000004
24.206622758582608 42.9848
24.229393528706886 42.9299
24.252165270127392 42.9318
24.27511589952438 42.7515
24.297889594216997 42.7022
24.32066426328598 42.4994
24.34343990775613 42.5779
24.36639447485003 42.4414
24.38917208083877 42.4401
24.41195066531332 42.4049
24.43490819850244 42.4461
24.457688750692377 42.2273
24.48047028445616 42.3198
24.503252800821233 42.3495
24.526214300784112 42.547
24.548998793132213 42.5916
24.57178427117417 42.3189
24.59457073593893 42.3374
24.617536219319863 42.1331
24.64032466834748 42.1679
24.663114107195035 42.1366
24.685904536893013 41.7891
24.708874020360852 41.6533
24.731666442613744 41.7385
24.754459858818787 41.6752
24.777254270007962 41.5099
24.80022777025625 41.5353
24.82302418230472 41.6354
24.845821592443674 41.6022
24.86862000170663 41.4344
24.891597535453727 41.3076
24.914397953892728 41.6788
24.93719937456671 41.5736
24.96000179851076 41.6914
24.98298338249997 41.7851
25.00578782394922 42.1625
25.028593271784167 42.1915
25.05157790644186 42.6436
25.07438537804115 42.7667
25.097193859145293 43.0244
25.120003350792075 43.4007
25.142992065061257 43.7283
25.165803588823465 43.8347
25.18861612625217 43.9586
25.211429678386736 43.8794
25.234422489079968 44.077
25.257238081693636 44.0918
25.280054692141732 44.1608
25.3028723214652 44.1558
25.325869245420463 44.3443
25.348688923599397 44.2416
25.371509623787006 44.2005
25.394331347025812 43.7999
25.41733240110666 43.1311
25.440156181590016 42.3146
25.46298098826268 41.7633
25.48580682216873 41.2223
25.50881202326435 40.7508
25.53163992281684 40.6125
25.55446885274561 40.5533
25.577298814096377 40.2853
25.600308179121807 40.2225
25.623140214533745 40.2842
25.64597328451537 40.0411
25.66898578564376 39.7369
25.691820936010206 39.8908
25.714657124097695 39.7971
25.737494350954734 39.8048
25.760511045684957 39.6768
25.783350361364224 39.7513
25.806190718969255 39.7299
25.82903211955018 39.8177
25.852053024868923 39.8617
25.874896522722523 39.9024
25.897741066713106 39.813
25.920586657892454 40.0171
25.943611790812668 40.2252
25.966459487728237 40.3384
25.989308234998564 40.3437
26.01215803367705 40.7437
26.03518741123814 40.885
26.05803932412957 41.0856
26.080892291600094 41.0685
26.10374631470478 40.9838
26.12677995397268 41.1426
26.14963609978026 41.0584
26.172493304397875 40.635
26.19535156888223 40.3509
26.218389486949604 39.9136
26.241249882640123 39.6972
26.26411134137826 39.4014
26.28715248187403 39.5032
26.31001607820869 39.4282
26.3328807407756 39.2667
26.35574647063438 39.4179
26.37879191991473 39.385
26.401659795896734 39.4514
26.424528742360263 39.6267
26.447398760366614 39.8159
26.470448535598294 39.8737
26.49332070826805 40.1112
26.516193955675355 40.3147
26.53906827888316 40.6484
26.562122397260108 40.879
26.584998883685063 41.1877
26.607876449110325 41.5388
26.63075509460056 41.6842
26.65381357334404 41.6293
26.67669439061878 41.5091
26.699576291163382 41.2248
26.722459276044212 41.0991
26.745522132402975 40.8865
26.768407297649354 40.6108
26.791293550442003 40.2646
26.814180891848974 40.1203
26.837248143099337 39.8643
26.860137673466657 39.7281
26.88302829566349 39.4592
26.90592001075963 39.147
26.92899167420566 39.0627
26.951885586870763 38.7994
26.974780595655517 38.6535
26.99785558178161 38.4865
27.020752794605112 38.4114
27.043651106772522 38.3362
27.06655051935668 38.278
27.089629948036183 38.0632
27.112531573292053 38.0919
27.135434302194138 38.0772
27.158338135817015 37.9307
27.181422024430987 37.9735
27.204328079372566 37.9333
27.22723524226965 37.9448
27.250143514198573 38.0657
27.273231880156334 37.8842
27.296142382065014 37.7357
27.319053996245536 37.6093
27.341966723775965 37.8446
27.365059584515222 37.7921
27.38797455070062 37.9569
27.410890633481237 37.7724
27.433807833936918 37.7734
27.456905206923906 37.9069
27.47982465472398 37.9194
27.502745223449743 37.9647
27.525666914182825 38.1122
27.548768816912457 38.0659
27.571692763693633 37.922
27.59461783573812 37.8361
27.617723149491244 37.599000000000004
27.640650484125285 37.4777
27.66357894728264 37.3512
27.686508540048052 37.3972
27.709618414237887 37.3296
27.732550278321757 37.2099
27.755483275279115 37.2254
27.778417406196485 37.2774
27.801531858397514 37.2796
27.824468269376716 37.2617
27.847405817586786 37.1092
27.870344504116094 37.3894
27.893463551932008 37.4436
27.916404527281053 37.6888
27.93934664422563 37.9072
27.962289903855886 37.9304
27.98541356491974 38.0275
28.00835912214229 38.2426
28.03130582533231 38.5331
28.054253675581805 38.5981
28.077381967556104 38.5529
28.100332124185126 38.468
28.123283431160893 38.2315
28.146235889577238 38.0356
28.169368830154156 37.9501
28.192323603752033 37.8464
28.215279532083304 37.5598
28.238415973016764 37.2023
28.261374223145094 37.1442
28.284333631303806 36.9092
28.307294198589954 36.7364
28.330435319167677 36.3352
28.353398217078915 36.1829
28.376362277420153 36.0643
28.39932750129032 35.8829
28.422473319286713 35.6593
28.44544088262495 35.7112
28.468409612800283 35.5951
28.491379510913497 35.4155
28.51453004413313 35.3096
28.53750229057244 35.2587
28.56047570826344 35.2739
28.583450298308804 35.341
28.606605564586562 35.0547
28.629582511831156 35.1045
28.65256063474956 34.9708
28.675539934446338 34.9844
28.698699951647605 35.0481
28.72168161743193 35.0017
28.74466446331978 34.9803
28.767648490417624 34.8553
28.790813276438353 34.8804
28.813799678527303 34.7984
28.836787265157085 34.864000000000004
28.859955641890075 34.7858
28.882945610203045 34.826
28.905936766392035 34.6901
28.928929111566863 34.7697
28.952102288520145 34.6581
28.975097024308607 34.5197
28.998092952423807 34.3807
29.021090073977508 34.2705
29.04426806913204 34.2159
29.067267590245258 34.0979
29.090268308143695 34.0421
29.11327022394099 33.9578
29.13645305530891 33.9206
29.159457379627167 33.8465
29.18246290519685 33.6995
29.20546963313352 33.8088
29.22865731875826 33.7614
29.25166646419296 33.6791
29.27467681535305 33.6828
29.29768837335608 33.724000000000004
29.320880931312562 33.6898
29.34389491580634 33.6593
29.366910110507334 33.6528
29.38992651653503 33.7411
29.41312396492981 33.6609
29.436142806456754 33.6029
29.45916286268059 33.4823
29.48236399319994 33.3869
29.50538649169417 33.1645
29.528410208259935 33.1138
29.55143514402014 33.0211
29.574641196749695 32.7504
29.597668583816574 32.6699
29.6206971934585 32.5827
29.64372702680042 32.5404
29.666938019934474 32.4377
29.689970313635285 32.419000000000004
29.713003834422636 32.4438
29.73603858342347 32.3288
29.759254535188578 32.2604
29.78229175361658 32.2981
29.80533020365064 32.2758
29.82836988641968 32.2065
29.85159081507472 32.2288
29.874632976355343 32.0912
29.89767637376955 32.2599
29.920721008448314 32.0073
29.9439469322847 32.0699
29.96699405457564 32.1301
29.9900424175358 32.0844
30.013092022298157 31.9616
30.03632295963995 31.9129
30.059375061131373 31.9657
30.08242840783577 31.9914
30.105483000888153 32.0144
30.128718970092244 31.9485
30.151776069006917 31.8262
30.17483441768648 31.8885
30.198074175317235 31.7295
30.221135036724256 31.9088
30.24419715131772 31.7565
30.267260520236203 31.7006
30.290505341942243 31.7406
30.313571232750228 31.8323
30.336638381310948 31.7663
30.35970678876503 31.6407
30.38295669299435 31.6594
30.40602763151657 31.7165
30.429099832366074 31.6233
30.452173296685572 31.4838
30.47542830191959 31.5768
30.498504306502497 31.5665
30.521581577995562 31.633000000000003
30.544660117543582 31.6576
30.56792024229725 31.6195
30.59100133132069 31.6056
30.614083691845494 31.6624
30.637167325018545 31.835
30.660432587840603 31.7471
30.683518779717886 31.6332
30.70660624769615 31.713
30.729694992924372 31.6727
30.75296541239743 31.6567
30.77605672557558 31.6305
30.799149319462742 31.4485
30.8224236211637 31.3741
30.845518789950724 31.3316
30.868615242910597 31.2389
30.891712981195973 31.1829
30.91499247215866 31.0904
30.938092794619365 31.0331
30.96119440587579 30.9648
30.984297307082752 30.7485
31.00758200598383 30.743000000000002
31.030687500658694 30.663
31.053794288760695 30.6399
31.076902371446767 30.4971
31.100192296997445 30.7542
31.12330298246119 30.6072
31.14641496599209 30.4518
31.169528248749216 30.4362
31.19282341969534 30.4629
31.215939314557186 30.4478
31.239056512134788 30.4527
31.262175013589378 30.4691
31.28547544871168 30.3848
31.30859657161541 30.2864
31.331719001892175 30.3149
31.35484274070538 30.3766
31.378148458819545 30.4273
31.401274828443725 30.3911
31.424402510106933 30.3454
31.447712205419993 30.4223
31.470842524931633 30.4117
31.493974159989783 30.3466
31.51710711176168 30.2211
31.54042212308802 30.3072
31.563557722100917 30.307
31.586694641341655 29.9985
31.609832881979628 29.994
31.63315322823208 29.8889
31.656294125521327 29.7872
31.679436347728515 29.7668
31.70257989602529 29.6796
31.725905596152327 29.6543
31.74905181052835 29.5986
31.772199354521323 29.6787
31.79534822930507 29.6347
31.818679302290967 29.6268
31.84183085259981 29.6321
31.864983737233473 29.636999999999997
31.88813795736804 29.6922
31.911474422233013 29.5973
31.934631327356435 29.5803
31.9577895715215 29.5185
31.980949155906522 29.4856
32.004291031706956 29.5744
32.027453310562606 29.4336
32.05061693318573 29.2567
32.07396288236386 29.3212
32.09712920658542 29.1933
32.12029687812702 29.0985
32.14346589817093 29.0946
32.166817291729984 29.0367
32.18998902288583 28.9621
32.21316210610336 28.8924
32.23633654256711 28.7576
32.259693399663725 28.8131
32.282870556771144 28.682
32.30604907069099 28.7233
32.329228942610065 28.5701
32.35259128243769 28.5073
32.375773884550505 28.3485
32.398957848235646 28.4414
32.422143174682176 28.3144
32.445511016471215 28.2642
32.468699082679954 28.2349
32.49188851523011 28.2708
32.51507931531304 28.1593
32.538452678331 28.249000000000002
32.56164622776311 28.0424
32.58484114831493 27.9638
32.60803744118015 28.035
32.631416344731896 28.023000000000003
32.654615396551876 27.967
32.67781582427913 27.9861
32.701198898634416 27.801
32.72440209253756 27.8107
32.747606665947124 27.7865
32.77081262006088 27.6803
32.79420126883317 27.671999999999997
32.81740999876112 27.5936
32.840620112999424 27.6386
32.86383161274818 27.5173
32.88722585534586 27.5188
32.91044014056596 27.6166
32.933655814909734 27.4844
32.95687287957963 27.465999999999998
32.98027273544904 27.4333
33.00349259526636 27.3967
33.026713849030116 27.4198
33.04993649794511 27.3234
33.073341986570746 27.263
33.09656744032826 27.3
33.11979429286444 27.3618
33.14302254538647 27.3307
33.166433686291185 27.2897
33.18966475336992 27.256999999999998
33.212897224069096 27.1177
33.23613109959831 27.070999999999998
33.259547912343415 27.0761
33.2827846121627 27.105
33.306022720453775 27.0062
33.32926223842861 26.8773
33.352684742614166 26.9796
33.37592709463173 26.9121
33.399170859982064 26.7775
33.422597648419426 26.7265
33.44584425514446 26.7194
33.46909227885668 26.5892
33.4923417207723 26.5708
33.51577423505344 26.6066
33.539026528130385 26.3699
33.56228024307245 26.4445
33.585535381098246 26.3594
33.60897364093058 26.3169
33.63223163992385 26.2907
33.6554910656699 26.2124
33.678751919389796 26.1405
33.702195944520106 26.2158
33.72545966903325 26.2349
33.74872482519663 26.0516
33.771991414233746 25.9653
33.79544122444841 26.0346
33.81871069412428 25.9079
33.84198160035767 25.9265
33.86525394437455 26.0883
33.88870955949969 25.9169
33.911984794020626 25.8938
33.93526147001624 25.7969
33.958539588715006 25.8075
33.98200102861669 25.8205
34.0052820477047 25.6032
34.02856451319451 25.6539
34.05203033759056 25.5592
34.07531571090147 25.5135
34.09860253431845 25.463
34.121890809074316 25.4243
34.145362493118924 25.4284
34.16865368561615 25.4007
34.191946333164054 25.3635
34.21524043699793 25.34
34.23871800066799 25.3478
34.26201503218366 25.2794
34.28531352370466 25.1846
34.30861347646881 25.1106
34.33209693978188 25.0332
34.3553998301885 25.1136
34.378704185565205 24.9995
34.402010007152356 24.9392
34.42549939016683 24.9414
34.44880815937748 24.7973
34.472118398533134 24.8137
34.49543010887669 24.8415
34.51892543169198 24.7039
34.54224009966052 24.6582
34.56555624255917 24.6282
34.58887386163339 24.6001
34.61237514439016 24.5476
34.6356957311114 24.5217
34.65901779775809 24.4868
34.68252356662995 24.4602
34.705848608458616 24.4728
34.72917513396849 24.4376
34.75250314440949 24.369
34.77601490857862 24.3529
34.799345904259795 24.2208
34.82267838863559 24.2549
34.846012362958525 24.2847
34.869530142679984 24.2199
34.89286711232212 24.215
34.91620557568269 24.2051
34.93954553401677 24.1908
34.9630693495876 24.0521
34.986412313340814 24.1165
35.00975677584668 24.0927
35.033102738362956 23.976999999999997
35.05663261012228 23.9197
35.0799815881786 23.9634
35.10333207003229 23.8395
35.12668405694369 23.8653
35.150220005273056 23.8241
35.17357501786656 23.8424
35.19693153931268 23.8446
35.220289570874385 23.7006
35.24383161619786 23.6978
35.267192683604904 23.715999999999998
35.290555264930376 23.6476
35.314101899412165 23.6797
35.33746752422433 23.6723
35.36083466676374 23.7352
35.38420332829803 23.5971
35.407756095629054 23.6139
35.43112781085063 23.6283
35.45450104888391 23.5335
35.477875810999194 23.5842
35.50143473172161 23.41
35.52481255774625 23.4509
35.54819191167777 23.4212
35.57157279478914 23.3712
35.595137889488406 23.3678
35.61852184675279 23.3252
35.641907337029984 23.2404
35.665294361595684 23.2431
35.68886565090076 23.1878
35.7122557598848 23.1025
35.73564740699838 23.1086
35.759040593519934 23.0523
35.78261809810353 23.1035
35.80601437933051 22.9808
35.829412203814705 22.9681
35.85281157283719 22.799
35.876395313415884 22.8688
35.8997977874528 22.8308
35.92320180988546 22.7193
35.946790244133936 22.6838
35.97019737933222 22.7312
35.993606066789866 22.7104
36.01701630779276 22.6884
36.04061101440684 22.6151
36.06402437852291 22.6605
36.08743930005611 22.6576
36.1108557802951 22.462
36.13445678011326 22.5607
36.15787639383515 22.4158
36.18129757014299 22.4013
36.20472031032821 22.4118
36.22832762423364 22.3066
36.25175350829375 22.2985
36.275180960119776 22.2809
36.298609981005924 22.2685
36.32222362992669 22.3035
36.34565580510207 22.2218
36.36908955323448 22.1492
36.39252487562093 22.1299
36.416144880530226 22.0924
36.43958336764275 22.1185
36.463023432914625 21.9525
36.486465077645676 21.9577
36.51009145956204 22.0461
36.53353627947859 22.0658
36.55698268276811 21.9958
36.58043067073321 21.9335
36.60406345072071 21.7995
36.62751462435344 21.7625
36.65096738658405 21.7577
36.67460498210655 21.7498
36.69806093788647 21.7117
36.72151848619297 21.6045
36.744977628333636 21.658
36.76862165890998 21.5945
36.79208400512205 21.5987
36.81554794910557 21.5947
36.83901349217101 21.5044
36.862663978991606 21.524
36.88613273667352 21.4114
36.90960309738324 21.4004
36.933075062434064 21.4367
36.95673202673572 21.3682
36.98020721697122 21.3236
37.003684015502365 21.2635
37.027162423645365 21.2666
37.050825886711465 21.2117
37.07430753063053 21.1107
37.09779078812467 21.0631
37.121275660513014 21.0571
37.144945643673694 21.064
37.16843376245278 21.0025
37.19192350009803 21.0518
37.215414857931435 20.967
37.239091382563885 20.8254
37.262585997426164 20.8762
37.28608223645736 20.9413
37.309763684451696 20.9214
37.33326318851098 20.8084
37.356764320726555 20.761999999999997
37.380267082425526 20.7705
37.40395510942588 20.746
37.42746114683234 20.6617
37.45096881771841 20.5991
37.474478123414166 20.619
37.49817275092816 20.5737
37.52168534303452 20.6044
37.54519957395567 20.4213
37.568715445024665 20.4226
37.592416694607714 20.4454
37.61593586281424 20.4723
37.63945667518264 20.4513
37.66297913304891 20.3791
37.68668702630454 20.3748
37.710212792059274 20.3027
37.733740207334854 20.294
37.757269273470364 20.1862
37.780983832050374 20.1484
37.80451621684926 20.2021
37.82805025654007 20.1639
37.851585952464795 20.1439
37.8753071980695 20.0487
37.89884622345676 19.9972
37.92238690911902 19.9514
37.94611318753442 19.8846
37.969657210779765 19.9463
37.99320289834801 19.9052
38.016750251586465 19.8584
38.04048325513017 19.8337
38.06403395679343 19.8798
38.087586328183946 19.7984
38.11114037065203 19.7754
38.13488012115898 19.7212
38.1584375229181 19.6594
38.181996599821 19.5784
38.205557353221124 19.6229
38.229303872575656 19.6011
38.2528679961576 19.5529
38.27643380031219 19.5044
38.30000128639589 19.4935
38.32375459653193 19.4204
38.34732546371299 19.4032
38.37089801690786 19.2996
38.39447225747609 19.3355
38.418232380377425 19.320999999999998
38.441810012983396 19.3441
38.46538933705673 19.242
38.488970353960084 19.2269
38.51273731166058 19.1644
38.536321731567014 19.1979
38.55990784840681 19.1969
38.58367995004091 19.1337
38.60726947812959 19.0871
38.63086070726198 19.0607
38.654453638806274 19.0122
38.678232613930824 18.9886
38.70182896773327 18.9741
38.72542702806741 18.979
38.7490267963045 18.9596
38.77281266709232 18.9134
38.79641586862214 18.8568
38.8200207821842 18.8103
38.843627409152944 18.8194
38.86742019782782 18.7994
38.891030269149255 18.7445
38.914642058016156 18.6799
38.938255565806124 18.6727
38.96205529464307 18.6271
38.98567225787121 18.6394
39.00929094417078 18.6458
39.03291135492255 18.6173
39.05671804624804 18.4736
39.080341923549106 18.4896
39.103967529460334 18.5014
39.127594865365744 18.3741
39.15140854155791 18.3482
39.17503935514948 18.3417
39.19867190290282 18.317999999999998
39.22249083587951 18.3502
39.24612686969409 18.2968
39.269764641845306 18.323
39.293404153722804 18.2932
39.317230110864074 18.155
39.34087311998506 18.1385
39.36451787301696 18.1329
39.388164371352595 18.1271
39.41199737518003 18.0859
39.43564738196752 18.0695
39.45929913825317 18.0477
39.48295264543308 17.9696
39.506792718520884 17.8867
39.530449745387216 17.9251
39.55410852735203 17.9196
39.57776906581474 17.9023
39.60161623079 17.8617
39.625280300200025 17.83
39.64894613032202 17.7953
39.67261372255866 17.7621
39.6964680021016 17.7909
39.72013913657293 17.7693
39.74381203738292 17.7291
39.76748670593756 17.6514
39.79134812278169 17.6146
39.81502634488497 17.6125
39.83870633896685 17.5998
39.862388106436654 17.5402
39.88625668336918 17.5386
39.90994201572829 17.5283
39.933629125719285 17.4649
39.957503091207826 17.4578
39.9811937746168 17.4535
40.00488623990914 17.403
40.02858048850006 17.3584
40.05246165409549 17.2867
40.076159487492085 17.258
40.099859108448875 17.2928
40.123560518384345 17.298
40.1474489070226 17.2699
40.171153913178564 17.1289
40.194860712584955 17.1432
40.2185693066637 17.1298
40.242464941335314 17.0591
40.26617714307655 17.1042
40.289891143772046 17.0973
40.3136069448471 17.0528
40.33750984859743 16.9973
40.3612292688043 16.9722
40.3849504936829 16.9862
40.40867352466194 16.9105
40.43258372059144 16.8692
40.45631038219906 16.9255
40.48003885420956 16.8777
40.503769138055105 16.7758
40.52768664931955 16.7738
40.55142057531802 16.7658
40.57515631746428 16.6875
40.599079334038514 16.7001
40.62281872700477 16.6426
40.64655994043941 16.6987
40.67030297578061 16.6436
40.69423334835778 16.624000000000002
40.71798004609188 16.5823
40.74172857006355 16.499000000000002
40.76547892171441 16.5276
40.7894166736039 16.5008
40.813170699248566 16.4455
40.83692655691388 16.4396
40.86068424804498 16.4741
40.884629402612525 16.3978
40.908390779366385 16.4084
40.932153993938 16.3046
40.95591904777605 16.3836
40.979871628443995 16.346
41.003640379561936 16.3198
41.02741097430883 16.242
41.05118341413683 16.2734
41.075143444384416 16.156
41.098919593177826 16.1529
41.1226975914255 16.142
41.14647744058318 16.1449
41.170444943946755 16.0493
41.19422851378379 16.0712
41.218013938914645 16.0011
41.24198706625173 15.9486
41.26577622087193 15.9004
41.289567235177785 15.9638
41.31336011063129 15.9046
41.337340752422875 15.8361
41.361137369129835 15.8515
41.38493585138705 15.812000000000001
41.40873620066004 15.7125
41.43272438060107 15.7638
41.45652848292052 15.7665
41.48033445666918 15.6657
41.50414230331616 15.6511
41.528138045159764 15.6655
41.551949656675205 15.6266
41.575763145513235 15.6099
41.59957851314666 15.6052
41.62358184070442 15.6
41.64740098505737 15.5515
41.6712220126409 15.4925
41.69504492493139 15.5065
41.71905586207357 15.4854
41.74288256296395 15.4801
41.766711153007456 15.4362
41.79054163368412 15.4046
41.814560204340054 15.3536
41.838394485526365 15.3587
41.86223066180303 15.299000000000001
41.88625497706819 15.2688
41.910094962812 15.2701
41.93393684811168 15.2293
41.95778063445365 15.1668
41.981812625263366 15.2156
42.00566023303407 15.1411
42.029509746323676 15.0993
42.05336116662236 15.1285
42.077400857069705 15.1359
42.10125611078846 15.0933
42.12511327600405 15.0831
42.14897235421036 15.0415
42.173019768448455 14.9908
42.19688269209613 14.9382
42.22074753323349 14.9113
42.24461429335818 14.8714
42.268669455600495 14.8908
42.292540073217886 14.8628
42.31641261433284 14.8969
42.34028708044675 14.8232
42.36435001496739 14.819
42.38822835065557 14.7999
42.41210861586426 14.7494
42.4359908120986 14.7009
42.46006154323262 14.6871
42.48394762115317 14.6679
42.507835634632315 14.7055
42.531912233047436 14.6638
42.55580413732265 14.5836
42.579697981698 14.5776
42.60359376768525 14.4876
42.62767820545945 14.4863
42.65157789440821 14.5035
42.67547952952185 14.5059
42.699383112316 14.4714
42.72347541395347 14.3684
42.74738291190531 14.3654
42.771292362102166 14.3725
42.795203766063516 14.3402
42.819303956130405 14.3611
42.843219287476536 14.3078
42.86713657716324 14.2685
42.89105582671383 14.2668
42.91516392983864 14.1985
42.939087119032166 14.1789
42.963012272677304 14.1345
42.98693939230129 14.1348
43.01105543317513 14.1082
43.034986504731386 14.1042
43.05891954686589 14.1068
43.08285456110972 14.1062
43.10697856448665 14.0283
43.130917542983475 14.0044
43.15485849820081 14.0142
43.17880143167367 13.9089
43.20293342237094 13.9316
43.226880332449 13.9288
43.25082922540554 13.9074
43.27496722682525 13.8664
43.29892010567796 13.8552
43.32287497204102 13.8069
43.34683182745632 13.7585
43.370977859791836 13.7299
43.39493871351105 13.7373
43.41890156092628 13.7105
43.44286640358341 13.6681
43.46702049182749 13.6953
43.49098934522816 13.6142
43.51496019852649 13.5999
43.5389330532723 13.5871
43.56309522248204 13.5319
43.58707210044314 13.5439
43.61105098451946 13.4745
43.63503187626491 13.4392
43.659202151562134 13.4439
43.68318707902681 13.5106
43.70717401884041 13.4868
43.731162972560874 13.4319
43.75534137913236 13.3434
43.779334381108384 13.3519
43.803329401683186 13.3486
43.82732644241872 13.3614
43.8515130055166 13.359000000000002
43.87551410707659 13.2753
43.89951723350145 13.2308
43.923709934595614 13.1794
43.94771713129917 13.2199
43.97172635758096 13.1831
43.99573761501002 13.1248
44.0199385169922 13.112
44.04395385732619 13.1028
44.067971233533086 13.099
44.09199064718605 13.1048
44.11619977548961 13.0305
44.14022328470671 12.9501
44.16424883610785 12.9757
44.18827643127035 12.9404
44.21249381139513 12.9445
44.236525514814076 12.9141
44.26055926674478 12.877
44.28459506876863 12.8907
44.3088207262813 12.866
44.33286064928722 12.7904
44.35690262714919 12.8126
44.38094666145278 12.7583
44.4051806219871 12.8136
44.42922879003185 12.6939
44.45327901929361 12.7305
44.477331311362136 12.6903
44.501573600619416 12.6747
44.525630039221795 12.6803
44.54968854541895 12.6424
44.573937102200176 12.6619
44.5979997645541 12.6138
44.622064499300315 12.5695
44.64613130803592 12.5229
44.67038823869318 12.5624
44.69445921643748 12.5118
44.718532272981385 12.4555
44.742607409926194 12.4521
44.76687274034801 12.4362
44.79095205918753 12.3851
44.81503346325094 12.3993
44.839116954143876 12.3581
44.86339071028742 12.3462
44.88747839599524 12.3528
44.91156817336837 12.2981
44.93566004401666 12.3221
44.959942251908146 12.2425
44.984038330325966 12.2665
45.00813650686762 12.2311
45.03223678314731 12.2034
45.05652746888232 12.1673
45.08063196592069 12.1616
45.104738567558705 12.1033
45.128847275414856 12.0873
45.15314646515866 12.0969
45.17725940679741 12.0849
45.20137445952892 12.0266
45.22568004865265 12.0424
45.24979934496396 12.0058
45.27392075725247 11.9557
45.29804428714431 11.9554
45.322358426247604 11.9201
45.346486212804315 11.9062
45.370616121861914 11.9407
45.39474815505086 11.8631
45.41907087049246 11.85
45.4432071734666 11.8151
45.46734560548283 11.8328
45.49148616817604 11.8409
45.51581748638564 11.7915
45.5399623320197 11.7704
45.56410931325473 11.6964
45.58825843173002 11.7325
45.61259837920865 11.7335
45.636751793816 11.7248
45.66090735060093 11.654000000000002
45.68506505120716 11.6298
45.7094136545275 11.6294
45.73357566449271 11.5747
45.75773982322992 11.5808
45.78190613238733 11.5346
45.806263418194064 11.4751
45.83043404997326 11.5103
45.85460683713677 11.5009
45.87897065658495 11.4839
45.90314777634752 11.4299
45.92732705646868 11.4321
45.9515084986045 11.4117
45.97588104735473 11.3407
46.00006683541565 11.3544
46.02425479047904 11.3447
46.04844491420549 11.3285
46.0728262191024 11.2976
46.09702070211635 11.2743
46.12121735879483 11.2764
46.14541619080294 11.2556
46.169806278764455 11.2392
46.194009483459034 11.1899
46.21821486849841 11.2003
46.24242243555223 11.1248
46.266821333570014 11.1222
46.29103328674601 11.1463
46.31524742696538 11.152999999999999
46.33946375590237 11.0688
46.36387149104216 11.0292
46.38809221957392 11.0585
46.41231514186606 11.0319
46.436540259597464 11.0315
46.460956858999374 10.9788
46.48518638983522 10.9484
46.509418121166966 10.9534
46.533652054678114 10.9147
46.55807754555709 10.8701
46.58231590571962 10.9026
46.60655647313217 10.8692
46.630988654873654 10.8674
46.655233659129024 10.7963
46.67948087571551 10.782
46.70373030632484 10.7443
46.72817142736393 10.7323
46.752425308428684 10.7249
46.77668140861147 10.7438
46.80093972960865 10.6618
46.82538981736788 10.675
46.849652602470904 10.6474
46.87391761349769 10.66
46.8981848521493 10.6489
46.9226439341274 10.6159
46.946915650573224 10.5262
46.97118959976749 10.5545
46.99546578341598 10.5289
47.019933887188216 10.5266
47.04421456235744 10.4789
47.06849747711879 10.5097
47.09278263318286 10.4859
47.11725978640143 10.4244
47.14154944775105 10.3839
47.165841355555656 10.3936
47.1901355115306 10.3971
47.214621741924994 10.404000000000002
47.23892041698887 10.3447
47.26322134538975 10.321
47.28771440635075 10.3127
47.31201986422527 10.2781
47.33632758061436 10.2629
47.360637557241866 10.2532
47.38513974410611 10.2266
47.40945426407847 10.1854
47.43377104948137 10.1886
47.45809010204344 10.1867
47.48260144275502 10.13
47.506925052572285 10.161
47.53125093475548 10.1238
47.55557909103813 10.1466
47.58009961361992 10.0821
47.60443234110732 10.0853
47.62876734791564 10.0594
47.65310463578333 10.0154
47.6776343683373 9.981630000000001
47.7019762413987 9.93107
47.72632040075572 9.95272
47.75066684815169 9.97321
47.77520581885936 9.92714
47.799556865477655 9.90342
47.823910205386 9.89717
47.84826584033272 9.88596
47.87281407745551 9.817039999999999
47.89717432569297 9.85717
47.92153687423484 9.83085
47.94609208429692 9.811160000000001
47.97045925671401 9.7972
47.99482873471275 9.73147
48.01920052005013 9.74853
48.04376504619224 9.75463
48.068141469543484 9.71985
48.09252020552573 9.70376
48.11690125590099 9.67773
48.1414751266064 9.67646
48.16586082917454 9.622589999999999
48.19024885144316 9.63638
48.2146391951793 9.625539999999999
48.239222439012764 9.61097
48.26361744916137 9.53812
48.28801478610016 9.56776
48.31241445160131 9.58806
48.337007097209366 9.55151
48.36141144338331 9.541830000000001
48.38581812345755 9.48679
48.41022713920929 9.52086
48.434829215320704 9.47269
48.45924292604658 9.47023
48.48365897780325 9.45994
48.50807737237308 9.453510000000001
48.532688907799276 9.4024
48.55711201168574 9.36861
48.581537463754074 9.36811
48.60615611725119 9.34942
48.63058628942721 9.30552
48.65501881516546 9.287410000000001
48.6794536962573 9.295869999999999
48.70408185970339 9.28118
48.72852147531801 9.26252
48.75296345168211 9.23927
48.77740779059232 9.216339999999999
48.80204549302823 9.26177
48.82649458091802 9.19922
48.85094603676547 9.14206
48.87539986237231 9.16928
48.90004713292306 9.12112
48.92450572200832 9.13108
48.94896668628025 9.10629
48.97343002754588 9.03777
48.99808689542115 9.04834
49.02255501470614 9.04815
49.04702551642794 9.04079
49.0714984023988 9.00953
49.096164896893235 8.98044
49.120642575466796 8.95854
49.145122643748394 8.96649
49.16960510355558 8.91619
49.19428125404938 8.93865
49.2187685210852 8.95099
49.243258185121555 8.91575
49.26794160167084 8.87182
49.2924360839405 8.84375
49.31693296869764 8.84992
49.34143225776915 8.842310000000001
49.36612538195438 8.7869
49.39062950396021 8.82741
49.41513603578346 8.75941
49.4396449792564 8.759910000000001
49.46434784069503 8.7336
49.488861631846454 8.740730000000001
49.513377840166804 8.69175
49.537896467493745 8.67155
49.56260909589029 8.63384
49.587132585683285 8.6547
49.611658500018365 8.66651
49.636186840738596 8.63867
49.66090926588511 8.62278
49.685442483902584 8.58726
49.70997813385706 8.54562
49.734516217597076 8.55292
49.75924846937352 8.5576
49.7837914452858 8.52541
49.80833686055187 8.497860000000001
49.83288471702571 8.44742
49.85762682540054 8.487860000000001
49.882179588965734 8.49605
49.9067347993235 8.42607
49.93129245833333 8.42919
49.95604445336378 8.4156
49.98060703442832 8.401110000000001
50.005172069746266 8.33555
50.02993150438364 8.37903
50.05450147301533 8.36655
50.07907390151433 8.33735
50.10364879174981 8.29848
50.12841816587289 8.30451
50.1529980044635 8.31173
50.17758031042124 8.265039999999999
50.20216508562089 8.24089
50.22694442953363 8.21678
50.25153416817468 8.24249
50.27612638170508 8.24618
50.300721072005196 8.15072
50.325510416102105 8.1652
50.350110084975064 8.13676
50.37471223628208 8.15413
50.39931687190919 8.1612
50.424116246675766 8.12883
50.44872587605249 8.1214
50.47333799543065 8.118910000000001
50.49795260670191 8.08142
50.52276204271512 8.009689999999999
50.54738166295838 8.02069
50.57200378079314 8.00405
50.596628398116835 8.00653
50.62144792604559 7.974469999999999
50.646077567609396 7.9672600000000005
50.670709714377715 8.008610000000001
50.69553683636198 7.95595
50.72017401885922 7.904719999999999
50.7448137122895 7.928030000000001
50.76945591856022 7.899789999999999
50.79429318636823 7.91067
50.818940443716784 7.86048
50.84359021965163 7.84244
50.868242516085964 7.8533800000000005
50.893089960641895 7.85335
50.917747323549435 7.81728
50.94240721271973 7.78137
50.96706963007175 7.779889999999999
50.99192728239342 7.7640899999999995
51.01659478166073 7.75195
51.04126481489051 7.70688
51.06593738400761 7.7184800000000005
51.090805275207074 7.7141399999999996
51.11548294172845 7.71582
51.14016314993547 7.66513
51.164845901758845 7.64465
51.18972406304274 7.6243300000000005
51.21441192780656 7.619260000000001
51.23910234200271 7.63771
51.2637953075678 7.604889999999999
51.288683770237945 7.5795
51.31338186432707 7.54432
51.33808251561888 7.543660000000001
51.362978729967345 7.50823
51.387684521509755 7.5129
51.41239287610203 7.50888
51.437103795691165 7.463010000000001
51.46201036644977 7.45805
51.486726441956634 7.4566
51.51144508832545 7.4413
51.536166307509156 7.401610000000001
51.56108326624387 7.3963
51.58580965706056 7.36528
51.61053862657523 7.378830000000001
51.635270176746864 7.33937
51.66019755512065 7.34195
51.68493429268881 7.334910000000001
51.70967361681515 7.312310000000001
51.73441552946465 7.30099
51.759353359237934 7.285189999999999
51.7841004750961 7.265739999999999
51.80885018539685 7.283360000000001
51.833602492111254 7.243810000000001
51.8585508051424 7.1958
51.883308330926425 7.21661
51.90806845906181 7.18763
51.932831191525715 7.174110000000001
51.95779001977161 7.166710000000001
51.98255798721516 7.18125
52.00732856494335 7.11557
52.03229530577543 7.11021
52.057071130455945 7.11595
52.081849571391054 7.072539999999999
52.106630630568695 7.0766100000000005
52.13160794279417 7.024830000000001
52.15639426492067 7.05825
52.18118321127822 7.05766
52.205974783860896 7.014069999999999
52.23096269971011 6.993010000000001
52.255759551287994 6.986280000000001
52.280559035098186 6.9551
52.30536115314103 6.939939999999999
52.33035970494467 6.93341
52.35516711807904 6.9403
52.37997717147198 6.872210000000001
52.40478986713005 6.89133
52.42979908731974 6.8693100000000005
52.454617094216 6.869039999999999
52.47943774942214 6.85485
52.50426105495102 6.84012
52.529280976059844 6.809130000000001
52.554109609024096 6.83639
52.57894089837482 6.79823
52.60377484613117 6.80311
52.62880550079408 6.787610000000001
52.65364479223379 6.732010000000001
52.67848674816189 6.73721
52.70352547971946 6.714169999999999
52.72837279155837 6.706739999999999
52.753222773982785 6.70328
52.778075429022984 6.70407
52.80312495150885 6.695880000000001
52.827982978797436 6.68507
52.85284368481815 6.63927
52.87770707160767 6.619669999999999
52.90276741793998 6.6115699999999995
52.92763619336701 6.614660000000001
52.952507655698504 6.62759
52.977381806977576 6.58874
53.00245301017842 6.54117
53.02733256653592 6.54053
53.052214817996074 6.5354
53.077099766608484 6.53864
53.102181859804446 6.50111
53.127072229988265 6.51403
53.15196530349892 6.47965
53.17686108239249 6.46322
53.20195409881522 6.44046
53.22685531582556 6.41339
53.25175924441303 6.41595
53.27666588664027 6.42286
53.30176985962693 6.39636
53.3266819565689 6.39843
53.35159677336455 6.36761
53.376514312083096 6.34018
53.40162927507703 6.37367
53.42655228516116 6.35424
53.45147802340193 6.32376
53.47660125628886 6.33001
53.50153247842639 6.302230000000001
53.52646643496923 6.27896
53.55140312799818 6.21955
53.576537409691696 6.23648
53.60147960336152 6.24814
53.626424539786164 6.18842
53.65137222105307 6.21654
53.67651758529126 6.19245
53.70147078399681 6.1578599999999994
53.72642673383343 6.16221
53.75138543689533 6.12261
53.776541917524526 6.14392
53.801506154876755 6.1490599999999995
53.826473151763246 6.11377
53.851442910284916 6.03838
53.87661054126026 6.0751599999999994
53.9015858509782 6.0294
53.92656392866066 6.03378
53.95154477641532 6.03011
53.976723591801296 6.03201
54.00171000771266 6.00995
54.02669920004598 6.00914
54.051691170915745 5.96505
54.076881204886796 5.9548
54.101878760928514 5.97851
54.12687910187696 5.90674
54.152077577768296 5.89079
54.1770835166946 5.94155
54.20209224691339 5.91491
54.22710377055121 5.88155
54.25231352511594 5.880319999999999
54.27733066384342 5.87197
54.30235060239643 5.85029
54.32737334290836 5.86477
54.35259441062629 5.83143
54.377622783395324 5.79997
54.40265396455061 5.81838
54.42768795623251 5.754630000000001
54.45292037169559 5.73326
54.477960012857906 5.7458
54.50300247099511 5.74714
54.52804774825457 5.7080400000000004
54.55329154616743 5.69727
54.57834249018678 5.64116
54.6033962597977 5.6126
54.6284528571545 5.60004
54.653708072335164 5.59052
54.67877035378786 5.5517199999999995
54.70383546947698 5.498469999999999
54.72890342156389 5.511080000000001
54.7541700889442 5.47325
54.77924374251975 5.48532
54.8043202390049 5.47553
54.82959552413022 5.46066
54.8546777351945 5.44185
54.87976279569621 5.432919999999999
54.90485070780914 5.43315
54.930137506558005 5.36735
54.95523115074295 5.39618
54.98032765308844 5.33701
55.005427015775496 5.27639
55.03072536339621 5.30929
55.05583047570572 5.26724
55.080938454927676 5.28247
55.10604930325027 5.2431
55.131359235107396 5.25842
55.15647585066083 5.20522
55.181595341907496 5.21137
55.20671771104285 5.13307
55.232039262617704 5.17037
55.25716741665048 5.13943
55.28229845518636 5.118469999999999
55.30743238042802 5.033119999999999
55.33276558731939 5.0138300000000005
55.357905315183636 5.07094
55.383047936390035 5.02265
55.40819345314859 4.96892
55.433538351073295 4.93317
55.458689688238415 4.93682
55.483843927614096 4.90995
55.509197623043605 4.8878699999999995
55.53435769621134 4.90391
55.55952067826466 4.84071
55.5846865714265 4.8872
55.61005202069737 4.8173900000000005
55.63522376553902 4.83283
55.66039842818645 4.7832300000000005
55.68557601087004 4.71701
55.7109532500271 4.69431
55.73613670233794 4.73839
