TT I
1.2716486653135266 6.9722800000000005
1.2939594142134223 6.713139999999999
1.3162702121660406 6.92116
1.3385810600174564 6.642289999999999
1.3608919586137629 6.62339
1.383202908801069 5.96741
1.405513911425503 6.42329
1.4278249673332093 6.21707
1.4501343378461518 6.64532
1.4724455028545926 6.01722
1.4947567236847858 6.24604
1.517068001182951 5.8413900000000005
1.5393793361953272 5.13544
1.5616907295681737 5.12655
1.5840021821477681 5.02013
1.60631369478041 4.78102
1.6286252683124185 5.53023
1.6509369035901333 4.88842
1.6732468618895553 4.72823
1.695558623192809 4.24615
1.7178704487808514 5.369190000000001
1.7401823395001077 5.01049
1.7625012545597203 5.21559
1.7848028405262486 5.17747
1.8071218901122095 4.55502
1.8294236121921872 4.63658
1.8517427996910911 4.44514
1.8740620574440425 4.85934
1.8963639900671978 4.66407
1.9186833908139995 4.42746
1.9409854680117449 4.67962
1.9633050151394713 4.87338
1.9856246367570705 5.05168
2.0079269371922672 4.78389
2.03024671027244 4.59037
2.0525491637446027 4.5896300000000005
2.074869091674931 4.3126
2.097171701569106 5.34892
2.1194917877373847 5.19729
2.141811954326636 5.17709
2.164114805233074 5.09796
2.186435135143035 6.17453
2.208738150935709 14.9527
2.231058647554722 33.8664
2.2533792288321184 27.0114
2.275682498336085 11.9605
2.298003251406138 6.45671
2.3203066942619714 5.74195
2.3426276225136022 5.27051
2.3649486396617507 5.76865
2.387252348930071 6.00926
2.4095735463442893 6.17278
2.4318774374315884 6.59945
2.4541988185014043 6.674760000000001
2.476502894794693 6.721830000000001
2.498824462909887 7.26227
2.521146125856138 7.380669999999999
2.5434504863470337 7.626239999999999
2.5657723414244717 8.700289999999999
2.588076895590662 8.718760000000001
2.610398946189713 8.79929
2.6327210958598384 8.5536
2.6550259469304716 8.20928
2.6773482972090137 8.95703
2.6996533504259 8.30338
2.7219759047039602 8.3485
2.744298562293959 8.52355
2.7666039251246595 9.10422
2.7889267918020164 9.11868
2.8112323652516555 8.80595
2.833555444408179 8.79854
2.8558786311183852 8.70973
2.8781845268938557 8.508610000000001
2.9005079311721484 8.60447
2.9228140460410397 8.74643
2.9451376712799635 9.1028
2.967444008632326 9.138910000000001
2.9897678582247247 9.86979
3.0120918213106695 10.7805
3.0343984987899373 11.0921
3.0567226913198637 11.1806
3.079029599759726 11.6864
3.101354025127254 12.5294
3.123678568232338 13.0126
3.145985829517914 13.3788
3.16831061055229 14.0739
3.1906181112775593 14.3014
3.212943133635653 14.7169
3.2352682779763207 15.2284
3.2575761442691227 15.1951
3.2799015350264273 15.9245
3.302209649240067 16.5305
3.3245352898092655 16.6382
3.3468436553365257 17.5267
3.369169549113219 17.8205
3.3914955708171384 18.567
3.413804319727358 19.0397
3.4361305997334863 19.1246
3.4584396084414553 19.9405
3.4807661501462652 20.3576
3.503092824025881 20.9255
3.5254022288463154 21.3868
3.5477291695206588 21.9459
3.5700388426251948 22.4171
3.5923660534916446 24.2381
3.6146934007816114 41.6051
3.637003482731501 103.725
3.6593311053109985 117.447
3.681641464033634 66.3086
3.7039693653009733 32.6981
3.726297407241705 26.4084
3.7486081875460804 25.5754
3.7709365132734978 26.304000000000002
3.793247578841633 26.5239
3.8155761917550093 26.7263
3.8378875459837216 26.9683
3.8602164494827234 27.445999999999998
3.882545499606844 28.3351
3.9048572932539183 28.8484
3.9271866390645718 29.4476
3.9494987298666713 29.7227
3.971828374764527 30.5935
3.9941581705403255 30.6068
4.016470713506008 31.4342
4.038800813471445 31.6771
4.061113662089144 32.9101
4.0834440696459176 33.6409
4.105774632334751 33.5871
4.128087945865126 34.3404
4.150418821249301 35.6938
4.172732448931298 36.9861
4.195063640413578 38.2166
4.2173775856475215 43.0945
4.239709096631102 79.9803
4.262040768704612 277.541
4.284355196706267 391.61
4.306687193387355 252.407
4.329001947444346 92.4315
4.35133427213731 49.6151
4.373666762177566 44.9297
4.395982011761091 44.29600000000001
4.418314834921175 45.7
4.44063041906622 54.6132
4.4629635787515625 69.0343
4.4852969080429785 68.7637
4.5076130004776225 55.3092
4.529946671403969 49.7665
4.552263106909177 49.1237
4.574597122877047 50.3498
4.596931312711224 51.8283
4.619248269273446 52.6435
4.6415828092605835 53.7238
4.663900117405352 54.7685
4.686235010953232 55.8684
4.708552674085913 56.8649
4.730887924602802 58.4602
4.753223354952695 60.2377
4.775541557023902 61.1902
4.797877349456786 62.8542
4.820195915032126 64.7243
4.842532072957498 65.9745
4.864868414979744 68.0614
4.88718753227192 69.5923
4.909524244902505 71.8427
4.931843734218147 73.6042
4.954180820867835 75.8954
4.976518095879839 78.6965
4.998838149695359 81.2712
5.021175803844231 85.0052
5.043496238205739 87.3609
5.065834274903528 91.4515
5.088172504230693 95.6639
5.1104935158799565 101.708
5.132832132875765 123.859
5.155153533596801 172.324
5.1774925416746225 205.512
5.199814334878411 287.397
5.2221537374521505 755.707
5.244493338631803 2372.33
5.266815727034316 7298.95
5.289155727832427 12824.9
5.311478517248165 9426.18
5.333818921080011 2932.25
5.356159527788849 534.8330000000001
5.3784829252032536 179.671
5.400823940070432 140.694
5.423147747031976 125.234
5.445489173474152 116.80799999999999
5.467830807066149 110.696
5.490155234831516 106.62799999999999
5.512497285125229 103.634
5.534822130975162 101.916
5.557164601388673 100.09899999999999
5.579489868738879 97.3762
5.601832762690846 96.3662
5.6241758697774475 95.9168
5.646501775867269 94.7597
5.668845311622074 93.2977
5.691171647754637 92.2446
5.713515615597765 90.6438
5.735859800852677 89.9667
5.758186788542988 89.2851
5.780531411018185 89.8666
5.802858837297399 89.113
5.825203900414495 89.0449
5.8475491852224 88.5295
5.869877275883075 88.6621
5.892223006467101 89.8914
5.914551544266608 90.7189
5.936897724049891 92.3111
5.959244129804903 95.8934
5.981573344815301 108.149
6.0039202049061 168.50900000000001
6.026249875609095 357.185
6.04859719346037 796.3330000000001
6.070927323278297 1980.2
6.093275102315365 4356.09
6.115623113320588 5259.66
6.137953938319995 3269.05
6.160302415650845 943.453
6.182633708324452 230.378
6.2049826554078376 112.90700000000001
6.227331838745022 90.5376
6.249663839443684 83.2997
6.27201349767565 81.7495
6.294345974611799 89.7191
6.316696111167083 104.932
6.339046488263839 98.964
6.361379686074702 81.3083
6.383730546639482 71.5412
6.406064229255215 68.2653
6.428415576718203 67.6298
6.450749747566656 66.1284
6.47310158535871 65.3823
6.495453669698332 64.6815
6.517788579421056 63.9474
6.540141159237969 63.1334
6.562476565766648 62.4991
6.5848296444934045 62.6432
6.607182974060425 61.5913
6.6295191323281015 62.1411
6.651872965955752 66.419
6.6742096296068985 97.1241
6.6965639707294615 155.278
6.71891856698715 158.175
6.741255995248479 103.794
6.763611104154477 70.4283
6.785949046381137 60.4456
6.808304671371482 58.1661
6.8306605557940046 57.7874
6.852999275508618 56.846000000000004
6.875355681171544 56.6891
6.897694923437771 56.2225
6.92005185377892 55.971000000000004
6.9423916220322655 56.0426
6.964749080490181 55.2202
6.987106804399774 55.4173
7.009447368180821 55.323
7.031805625367033 54.8753
7.054146723727803 55.0229
7.076505517631004 54.743
7.098864581288365 54.7572
7.121206488070854 54.7754
7.143566093607822 54.4548
7.165908543567245 54.9498
7.188268694426048 54.8591
7.2106291193438095 55.1545
7.232972390625943 57.0406
7.255333366030969 71.654
7.277677189091925 136.38
7.300038718428332 198.799
7.322400526130865 166.482
7.344745183422596 98.1243
7.367107550224791 63.794
7.389452767901992 56.4255
7.411815697249891 55.211000000000006
7.434161478756298 53.8271
7.456524974096713 54.016000000000005
7.478888753837185 53.4967
7.501235387657368 53.9165
7.523599738562711 54.1902
7.545946944825532 54.4212
7.568311870344528 54.9677
7.5906770845765665 55.2991
7.613025156078678 56.9186
7.635390950099687 57.8946
7.657739602662809 56.8455
7.680105979923558 55.635
7.702472650212829 55.2407
7.724822180948224 55.4991
7.747189439655568 55.3146
7.769539560075357 55.5866
7.791907410653562 55.9701
7.81425812420825 55.6474
7.836626570110925 56.0624
7.858995315087906 57.0883
7.881346924933401 56.9828
7.903716270417482 57.2746
7.926068482028405 58.0673
7.948438431475253 58.8009
7.9708086843180235 59.0657
7.993161805171116 59.6253
8.015532667162402 59.6617
8.037886398416653 60.7191
8.060257873014221 61.1626
8.082629655331942 61.8662
8.104984308787587 62.9957
8.127356708900503 66.6843
8.149711981398308 73.1796
8.172085002766314 76.5887
8.194458336181368 72.3
8.216814543847752 68.9143
8.23918850371002 68.6145
8.26154533906492 69.0832
8.283919928836452 70.6262
8.306277395339652 70.9711
8.328652618483376 72.4773
8.351028159736202 74.4527
8.373386579575245 76.9595
8.395762759396959 78.7866
8.418121819038275 83.5301
8.440498640894003 98.2548
8.462875785192262 113.814
8.485235811156207 121.322
8.507613602688501 143.49
8.529974277114228 211.93200000000002
8.552352719347912 323.85200000000003
8.574731488360351 566.061
8.59709314210385 1101.55
8.619472567021075 1816.96
8.64183487789147 2270.97
8.664214962183097 1867.56
8.686577933647762 979.0169999999999
8.708958680784317 374.908
8.731339760774953 170.101
8.753703729764451 110.882
8.77608547780821 97.27799999999999
8.798450116065078 93.5448
8.820832535634787 90.2945
8.843215292401656 89.458
8.865580941199045 88.0327
8.887964374703538 87.3371
8.910330701447199 88.7764
8.932714815164482 92.2618
8.955099270424924 91.6766
8.977466620733543 87.5878
8.999851761421976 84.2321
9.022219798361645 82.3917
9.04460562795561 82.3291
9.066991803441677 81.3918
9.089360876979615 81.3415
9.111747746589993 80.8936
9.13411751544971 80.5265
9.156505082664324 80.2101
9.178875550323522 80.878
9.20126381862328 81.1811
9.223652438908596 81.6373
9.246023961427412 81.1364
9.26841328802173 80.5496
9.290785518039224 80.4028
9.313175554425882 81.0339
9.335565947154315 81.0006
9.357939245086508 81.4025
9.380330352834827 81.5328
9.40270436697103 81.4632
9.425096193225055 81.3793
9.447488380180165 82.3748
9.469863475295412 82.4951
9.492256385987508 82.8361
9.514632206018318 83.6781
9.537025843935714 83.7548
9.559402392368193 84.4539
9.581796761000229 85.5519
9.604191496441521 86.5455
9.626569144158516 90.1559
9.648964615551032 96.77799999999999
9.671343000390081 98.4961
9.693739211225699 95.8328
9.716135793237463 92.3056
9.738515290448102 91.4324
9.760912617143402 92.2072
9.783292860202891 93.133
9.805690935076182 94.35
9.828089385495742 95.4868
9.850470754023561 98.0962
9.872869957865444 106.427
9.89525208097539 124.036
9.917652041736662 138.99
9.940052382417589 136.843
9.962435644102392 133.911
9.984836746950979 154.985
10.007220771957746 207.315
10.029622640473708 294.79400000000004
10.052007432299963 457.611
10.074410069984072 737.0310000000001
10.096813093716005 1210.88
10.119199042482517 1754.17
10.141602840636468 1999.09
10.163989564971628 1619.39
10.186394141051062 938.43
10.208799107559706 409.82
10.231187001965623 187.52
10.253592751657669 124.59700000000001
10.275981430388155 111.585
10.298387966769793 112.39
10.320794897965431 115.72399999999999
10.343184759907361 114.756
10.36559248305461 108.449
10.387983138083852 102.666
10.410391656691655 103.426
10.432800574501677 110.93
10.455192425893369 123.831
10.47760214443012 145.658
10.499994797678786 185.266
10.522405320453982 263.374
10.54479877906917 387.27
10.567210109595656 521.191
10.5896218454736 578.132
10.612016518879773 504.339
10.634429067781074 346.659
10.656824555333241 201.59799999999998
10.679237920773568 123.689
10.701651695961992 95.3749
10.724048411481384 87.7893
10.746463008485165 85.204
10.768860546937125 83.4719
10.791275969274796 81.7282
10.81369180576079 81.0998
10.836090585366925 79.8541
10.858507252467449 78.5317
10.88090686379991 77.5933
10.903324365036394 77.1913
10.925724811614439 77.5434
10.948143150509463 79.1751
10.970561909719066 78.2591
10.992963615930844 76.4596
11.015383218085756 73.9612
11.037785768347074 72.3996
11.06020621697282 71.5611
11.082627090322113 71.0753
11.105030913430326 70.9971
11.12745263854165 71.8247
11.149857314510728 76.4153
11.172279894912576 83.8978
11.194702904450653 84.8377
11.217108866490921 80.3033
11.239532736615194 74.7121
11.26193956033512 71.7647
11.284364294577085 70.1691
11.306789462371718 67.8097
11.329197585398376 66.3357
11.351623622610898 65.9935
11.37403261614354 65.138
11.396459526308487 65.0048
11.418869393879497 64.6181
11.441297180532617 64.3614
11.463725406927658 63.9613
11.486136592353875 63.9253
11.508565700543707 64.5333
11.530977768845315 66.7315
11.553407762368774 68.0868
11.575838200059769 67.4558
11.598251599479612 65.033
11.620682927815501 63.3384
11.64309721895548 62.7215
11.665529441478206 62.4095
11.687962112597958 61.8669
11.710377748130886 62.0353
11.732811318753434 62.0563
11.755227854859067 62.0292
11.777662328529495 61.9306
11.800079768750786 61.6686
11.822515149015453 61.4803
11.844950984084935 61.6278
11.867369787303163 61.3783
11.889806534289491 61.8274
11.912226250487029 62.0867
11.934663912939751 61.9812
11.9571020346363 61.8303
11.979523127133968 62.0159
12.001962169624331 62.1929
12.024384183972964 62.7318
12.046824150809913 65.1932
12.069264581333726 69.3148
12.091687985297767 74.5206
12.11412934550045 83.0762
12.136553680195208 97.4326
12.158995973632788 120.447
12.181438735204349 148.931
12.20386447284199 186.53799999999998
12.226308172985636 207.362
12.24873485024193 202.766
12.271179492516982 169.635
12.293607112949127 129.116
12.316052700916226 98.3631
12.338498763250042 79.8279
12.360927805303868 70.6796
12.383374818673879 65.9101
12.405804812803074 63.8134
12.428252780773262 63.2595
12.45070122756722 63.5145
12.473132656675375 63.2299
12.49558206341869 63.4952
12.518014453510101 63.4078
12.540464823770117 63.3695
12.562915677315177 63.9193
12.58534951575545 64.4991
12.607801338171472 67.0059
12.630236146511358 73.2078
12.652688941369085 79.548
12.675124723177234 80.2351
12.697578494048786 75.5018
12.720032754458185 69.9707
12.742470003354093 67.1837
12.764925245138771 66.6763
12.787363476431278 66.8272
12.809819703166806 67.1845
12.83227642391173 67.9804
12.854716135692716 68.1108
12.877173846755147 69.4079
12.899614549869717 69.6577
12.9220732548287 70.5017
12.94453245827299 70.5021
12.966974655289818 71.6225
12.989434858002571 72.4541
13.011878055298721 73.2862
13.034339260862497 74.0464
13.056800969391883 75.2485
13.079245674017244 77.2462
13.101708390774869 78.706
13.12415410463411 83.7515
13.146617833206086 93.45299999999999
13.169064559883248 103.89
13.191529303857127 116.895
13.213994557076367 137.065
13.236442809902437 171.13400000000001
13.258909083908291 222.78900000000002
13.28135835851934 290.539
13.30382565690295 364.841
13.326293469022952 425.07199999999995
13.348744283242008 429.20300000000003
13.371213125129904 364.463
13.39366497011003 264.884
13.416134845360597 173.97299999999998
13.438605238843131 123.99700000000001
13.46105863690397 102.76899999999999
13.483530069144786 100.137
13.505984506951902 103.874
13.528456981549432 112.228
13.550929978879088 124.915
13.573385983253365 147.268
13.595860028340867 185.075
13.618317081455832 238.96599999999998
13.64079217790333 301.473
13.663250283359057 350.931
13.685726434770173 379.1
13.708203115221277 346.04900000000004
13.730662806148091 262.318
13.75314054697177 186.25599999999997
13.775601299246777 128.436
13.798080104050406 96.2642
13.820559442405358 84.14399999999999
13.843021793671388 80.4788
13.865502201420897 78.8881
13.887965623051947 78.2284
13.910447103807167 77.1858
13.932929122629764 75.954
13.955394156785959 75.6437
13.977877254034569 74.4392
14.000343367582113 73.6301
14.022827546871707 72.8935
14.045294743423524 72.3675
14.06778000837062 71.8712
14.090265817715476 71.8601
14.112734645763819 71.4729
14.13522154619454 71.3795
14.157691466286913 71.3313
14.180179461423874 71.2545
14.202668005486178 70.3528
14.22513957064374 69.5543
14.247629214846473 69.3037
14.270101881097517 69.1444
14.29259262906496 69.6672
14.315083930490205 70.3615
14.337558255389705 70.7646
14.360050666019726 70.3937
14.382526101071944 69.0829
14.405019624534942 68.3136
14.427513705993134 67.7226
14.449990813291825 67.5762
14.47248601302899 67.5316
14.49496423954951 67.4982
14.517460561197822 67.6647
14.539939910570322 67.2236
14.562437357763558 67.995
14.58493536931253 69.1596
14.607416409993311 70.194
14.62991555254159 70.9323
14.652397725157423 70.7626
14.674898002342799 69.7065
14.697398848433282 69.0847
14.719882725991326 69.5126
14.74238471217934 69.7458
14.764869730765593 72.08800000000001
14.787372860692983 75.0908
14.809876564079925 78.9302
14.83236330125751 83.8915
14.854868153850365 91.6999
14.877356041159485 104.837
14.899862046604186 122.685
14.922351087688757 148.175
14.944858249632887 178.21
14.967365991421232 207.46400000000003
14.989856770231246 222.53099999999998
15.012365673994204 216.514
15.03485761569738 186.87
15.05736768508665 146.628
15.07987833888692 112.95700000000001
15.102372032001655 89.8398
15.124883856909658 76.4785
15.14737872204565 70.9184
15.169891721717274 69.3667
15.192405310371893 69.3864
15.214901940621196 70.1767
15.237416709527137 70.3549
15.259914520936249 70.7133
15.282430473753607 69.6828
15.304947020131227 68.2443
15.327446610371178 67.4374
15.349964346154254 66.3602
15.372465126703139 65.6028
15.394984055556009 65.333
15.417486030076159 65.25399999999999
15.44000615566487 64.8954
15.462526881230803 64.9307
15.485030653812652 65.1536
15.507552581617434 65.153
15.530057557334603 65.335
15.55258069104857 65.303
15.575104429329837 65.0633
15.597611216864632 64.4426
15.620136166564563 64.5201
15.6426441664095 65.0366
15.665170331202765 66.2499
15.687697105158826 69.0523
15.710206930593545 72.0273
15.732734925158933 75.469
15.755245972089478 81.2761
15.77777519094324 89.5689
15.800287463046663 102.012
15.822817909869592 120.999
15.84534897229804 143.769
15.867863089299354 167.38099999999997
15.890395385222186 188.47299999999998
15.912910736597423 194.797
15.935444269699861 183.071
15.957978423016485 156.408
15.980495633101265 122.073
16.003031029129367 94.685
16.02554948280019 75.9076
16.048086125229432 67.3772
16.070623392487107 64.8212
16.09314371869582 64.169
16.11568223789321 63.3427
16.13820381691126 62.1888
16.160743591742527 60.842
16.183283996022084 59.7037
16.205807461423195 58.7808
16.228349126881973 58.1468
16.25087385432698 58.1044
16.27341678466365 57.5908
16.29594277784926 57.4574
16.31848697676433 58.0565
16.341031811604868 58.4402
16.36355971058487 58.7965
16.3861058195587 58.5831
16.40863499352978 57.2426
16.431182380342005 56.1902
16.453730407713202 55.5638
16.476261501364792 55.0286
16.498810812136167 54.6495
16.52134319004079 54.7874
16.54389378792203 54.4781
16.566445031001553 54.567
16.588979342490088 54.3915
16.61153187824822 54.0783
16.634067483263312 54.1023
16.656621315414416 53.9784
16.679175797408888 53.7515
16.701713349928728 53.7955
16.72426913389191 53.9509
16.74680798922351 53.9712
16.76936507887444 54.0838
16.791905240734874 54.2637
16.814463639794468 53.9712
16.837022695210294 53.8994
16.859564824093756 54.54
16.882125194503903 55.2617
16.904668639217885 56.2583
16.927230328348003 56.4342
16.949792678493612 56.5173
16.972338104193863 55.5503
16.994901778652235 54.9851
17.017448529496576 54.7673
17.040013531998152 54.7288
17.06257920018044 54.9473
17.0851279459922 55.6311
17.107694947817667 56.3674
17.130245028099072 56.9949
17.15281336730298 58.4346
17.17536478578733 59.7969
17.19793446610687 62.0607
17.220504818648422 65.0619
17.243058251703697 68.2493
17.265629950971032 72.8201
17.288184731571736 78.0159
17.310757781306908 82.1716
17.33333150794385 82.7759
17.355888317140174 81.4475
17.37846339986244 76.4978
17.401021565958885 69.9194
17.42359800851343 64.2702
17.44617513265564 60.7781
17.468735341390783 59.0235
17.491261035594565 58.2014
17.51396340099364 57.9287
17.536490463869136 58.2838
17.559018209820174 58.0992
17.58154663977963 58.1861
17.604251766089718 58.3667
17.626781572227713 58.6377
17.64931206518155 59.0579
17.671843245885103 59.245
17.69455114821572 59.4855
17.717083712612634 59.8036
17.739616967569667 59.8795
17.762150914021706 60.3686
17.78486160749854 59.8635
17.807396945166804 60.56399999999999
17.829932977143503 61.1292
17.85246970436452 62.2996
17.875183204129467 64.0988
17.897721330097664 66.0145
17.920260154126645 67.7265
17.942799677153296 70.5706
17.9655159983646 73.9009
17.988056927677544 78.7351
18.010598558807683 85.9408
18.033140892692916 95.8946
18.05586005052525 107.22200000000001
18.07840379824407 119.979
18.10094825154059 130.22799999999998
18.12366954819864 138.64600000000002
18.146215420998306 137.74
18.16876200220057 129.38
18.191309292745153 114.90899999999999
18.214033452627167 101.45700000000001
18.236582170236648 90.1854
18.259131600016456 84.3075
18.281681742907335 84.2616
18.304408781233683 88.6491
18.32696035875955 93.944
18.349512652227624 99.4279
18.372065662579683 103.78299999999999
18.394795594587553 105.37799999999999
18.41735004715306 102.374
18.43990521943684 95.6094
18.46246111238171 86.0735
18.485193953325208 76.4524
18.507751296070428 69.1748
18.530309362314178 65.2266
18.552868153000343 62.7373
18.57560391815056 61.2237
18.59816416623245 60.7662
18.620725141597372 60.2766
18.643286845190268 59.7162
18.666025549835414 59.3647
18.688588718427933 58.7725
18.711152618092243 58.7928
18.73389353884365 58.5163
18.75645890921984 57.9055
18.77902501351406 57.7056
18.801591852673102 57.6431
18.824335739722738 56.9842
18.846904057212626 56.9548
18.8694731124168 56.7484
18.89204290628315 56.8513
18.914789774966803 56.6205
18.937361054791623 56.4308
18.959933076131318 56.2693
18.982505839934877 56.2338
19.00525570560582 56.2893
19.027829963004184 55.9743
19.05040496572238 56.068000000000005
19.072980714710468 55.9527
19.095733592739563 56.0379
19.11831084296757 56.3217
19.140888842324735 56.8279
19.16346759176222 57.2461
19.18622349753803 57.7737
19.208803755869358 58.43
19.231384767143577 59.4002
19.253966532312948 60.5686
19.276725481241822 62.7093
19.29930876296784 65.2234
19.3218928014549 68.4724
19.34465404436217 72.0608
19.36723960516257 75.2581
19.389825925592426 76.3121
19.412413006605938 75.2529
19.43517731967805 71.873
19.457765930683355 67.07300000000001
19.48035530514408 62.5975
19.50294544401556 58.7517
19.525712842708348 56.1233
19.54830451925909 54.553000000000004
19.570896963095727 53.3687
19.593490175174704 53.1083
19.616260674962184 53.0695
19.638855432416964 52.6367
19.661450960992624 52.7635
19.68404726164677 52.63399999999999
19.706820878021247 52.4821
19.729418731756834 52.9593
19.752017360452857 52.461000000000006
19.77461676506804 52.5838
19.797393513540218 52.7034
19.819994478951667 52.8282
19.84259622316767 53.4693
19.8651987471481 53.6314
19.887978643247177 53.9209
19.91058273574792 54.3941
19.933187610901943 55.0076
19.955969879466828 55.9952
19.97857632894404 57.3889
20.00118356396599 58.9015
20.023791585494575 61.2316
20.046577028914875 63.8542
20.069186632506966 66.1296
20.091797025500632 68.2241
20.114408208858933 69.2434
20.137196842715273 68.8897
20.159809615886765 67.3364
20.18242318232135 64.5641
20.20503754298326 62.2457
20.227829382875154 61.3387
20.250445341109344 61.2456
20.27306209647285 62.1217
20.29567964993108 63.251000000000005
20.31847471147704 64.2079
20.34109387027612 65.1566
20.363713830075454 65.1297
20.386334591841646 63.798
20.409132890679302 60.9808
20.431755265564437 57.7804
20.454378445325528 55.0174
20.477002430930366 53.1669
20.499803982716553 51.8869
20.522429589228004 51.2436
20.54505600449589 50.653
20.567683229489194 50.424
20.590488049900088 49.9693
20.61311690359731 49.7112
20.63574656993626 49.2868
20.658553853717297 48.8025
20.681185154618298 48.7793
20.703817271080066 48.8817
20.72645020407368 48.4056
20.749260783967177 48.4873
20.771895359337133 48.4035
20.794530754161617 48.2997
20.817166969412938 48.1208
20.83998086114876 48.1583
20.86261872660049 48.0422
20.885257415405402 47.8787
20.90789692853701 47.8175
20.930714147864748 47.7618
20.953355319030678 47.8695
20.97599731745334 47.8637
20.99864014410749 47.7551
21.021460706796564 47.9347
21.044105199328826 47.9201
21.06675052302631 48.0432
21.089396678865015 48.2819
21.112220600704806 48.6667
21.134868430275347 49.0177
21.15751709492456 49.2368
21.180166595629693 49.6574
21.202993892429635 50.1006
21.22564507473034 50.3857
21.24829709602816 50.6751
21.27112693608965 50.8011
21.293780644891275 50.6481
21.316435195634053 50.1255
21.339090589297417 49.3936
21.361923832041875 48.7636
21.384580921090404 48.2705
21.407238856007325 47.8043
21.429897637773326 47.6805
21.45273429906592 47.5695
21.475394784108598 47.6265
21.498056118951983 47.4575
21.520718304578022 47.638999999999996
21.543558400304388 47.778
21.566222297108816 47.8844
21.58888704765135 47.8644
21.61155265291521 48.1801
21.63439619898156 48.6038
21.657063523335786 48.817
21.67973170537063 49.3385
21.7024007460706 49.7411
21.72524775840385 50.3915
21.747918526116475 51.2791
21.770590155457388 52.6372
21.79326264741238 54.0602
21.816113141960237 55.8573
21.838787368860547 57.8109
21.861462461341976 59.9658
21.884315579735777 62.0288
21.90699241312273 63.3778
21.92967011506078 63.8168
21.95234868653799 63.7445
21.9752053151131 62.6049
21.997885635446785 60.6025
22.020566828293532 58.622
22.04324889464272 57.0704
22.066109049404666 55.9219
22.088792872571794 55.395
22.111477572219204 55.4541
22.1341631493376 55.2777
22.157026846313123 55.1309
22.179714188221507 54.4004
22.202402410582668 53.5186
22.22509151438863 52.0596
22.24795876962584 50.7453
22.270649646204486 49.7653
22.293341407213727 49.2618
22.316034053646906 48.8156
22.338904883215342 48.6035
22.36159931041458 48.5522
22.38429462602756 48.4183
22.40699083104897 48.1646
22.429865251039757 48.2359
22.452563244831367 48.3023
22.47526213102522 48.2666
22.49813925616515 48.0131
22.520839937143307 47.9481
22.543541513520587 47.9195
22.56624398629403 47.8556
22.589124730075895 47.6918
22.611829005656723 47.7895
22.63453418063466 47.9168
22.657240256008077 47.9892
22.680124634582935 48.184
22.70283252079775 48.4291
22.725541310413075 48.4986
22.74825100442868 48.7842
22.771139033969575 49.152
22.79385054687155 49.4213
22.81656296718292 50.1473
22.83927629590484 50.8658
22.862167992606945 51.7623
22.88488314827121 53.1049
22.907599215359284 54.2031
22.93031619487366 55.3689
22.953211574954405 56.4017
22.975930389478226 57.108999999999995
22.998650119445763 57.5886
23.02137076586092 56.8169
23.044269845560063 55.4892
23.06699233506288 53.8017
23.089715744034912 52.1378
23.112617610931565 50.4302
23.135342869061212 49.185
23.158069049684816 48.5061
23.1807961538087 48.1498
23.20370174880544 48.1065
23.226430710184808 47.9175
23.249160598093425 47.9979
23.271891413539002 48.0182
23.294800752937697 48.0148
23.31753343374794 48.1645
23.340267045128353 48.1605
23.36300158808808 48.5894
23.38591468821339 48.86600000000001
23.408651104658304 49.1348
23.431388455719986 49.8077
23.454126742409 50.637
23.4770436196085 51.49
23.499783787914662 52.8708
23.522524894889884 53.9133
23.54526694154616 55.0529
23.56818761219047 56.4062
23.59093154860734 57.1772
23.613676427751283 57.32899999999999
23.636422250635754 56.6862
23.659346731118656 54.9633
23.68209445191868 53.1892
23.704843119509587 50.942
23.72759273490623 49.3167
23.750521041644767 47.8818
23.77327256312355 46.7165
23.796025035462787 46.1052
23.818956224555475 45.5337
23.841710609113413 45.3131
23.86446594758979 45.1629
23.887222241002014 44.9358
23.910157285144578 44.5702
23.932915498962537 44.6686
23.955674670778713 44.3598
23.978434801611975 44.2473
24.001373717286125 44.0608
24.024135776723917 44.062
24.046898798245582 43.945
24.06966278287146 43.7497
24.092605586582614 43.6353
24.115371508023642 43.3557
24.1381383956401 43.3428
24.16090625045381 43.6424
24.183852958731244 43.3336
24.206622758582608 43.1059
24.229393528706886 42.942
24.252165270127392 42.8902
24.27511589952438 43.0031
24.297889594216997 42.7023
24.32066426328598 42.7936
24.34343990775613 42.6408
24.36639447485003 42.6051
24.38917208083877 42.5146
24.41195066531332 42.4921
24.43490819850244 42.5265
24.457688750692377 42.4473
24.48047028445616 42.42
24.503252800821233 42.3074
24.526214300784112 42.5474
24.548998793132213 42.4491
24.57178427117417 42.3184
24.59457073593893 42.4085
24.617536219319863 42.3599
24.64032466834748 42.343999999999994
24.663114107195035 42.1022
24.685904536893013 41.9005
24.708874020360852 41.833999999999996
24.731666442613744 41.8016
24.754459858818787 41.8258
24.777254270007962 41.674
24.80022777025625 41.3959
24.82302418230472 41.5846
24.845821592443674 41.6603
24.86862000170663 41.6398
24.891597535453727 41.32
24.914397953892728 41.5777
24.93719937456671 41.6176
24.96000179851076 41.7095
24.98298338249997 41.8604
25.00578782394922 42.0978
25.028593271784167 42.2509
25.05157790644186 42.4666
25.07438537804115 42.5095
25.097193859145293 42.7682
25.120003350792075 43.0111
25.142992065061257 43.4377
25.165803588823465 43.9149
25.18861612625217 43.9282
25.211429678386736 44.0331
25.234422489079968 44.3242
25.257238081693636 44.3495
25.280054692141732 44.2773
25.3028723214652 44.3768
25.325869245420463 44.4439
25.348688923599397 44.5426
25.371509623787006 44.376999999999995
25.394331347025812 43.9636
25.41733240110666 43.6736
25.440156181590016 42.9985
25.46298098826268 42.3038
25.48580682216873 41.8959
25.50881202326435 41.3297
25.53163992281684 40.8199
25.55446885274561 40.648
25.577298814096377 40.2371
25.600308179121807 40.3135
25.623140214533745 40.3323
25.64597328451537 40.1681
25.66898578564376 39.8481
25.691820936010206 39.969
25.714657124097695 40.001999999999995
25.737494350954734 40.0171
25.760511045684957 39.8923
25.783350361364224 39.7807
25.806190718969255 39.8778
25.82903211955018 40.0329
25.852053024868923 39.9766
25.874896522722523 40.1169
25.897741066713106 40.0633
25.920586657892454 40.1011
25.943611790812668 40.1492
25.966459487728237 40.2819
25.989308234998564 40.3618
26.01215803367705 40.8485
26.03518741123814 40.9681
26.05803932412957 41.1532
26.080892291600094 41.0393
26.10374631470478 41.026
26.12677995397268 41.0676
26.14963609978026 41.1586
26.172493304397875 40.7615
26.19535156888223 40.6282
26.218389486949604 40.2338
26.241249882640123 39.9675
26.26411134137826 39.7333
26.28715248187403 39.7598
26.31001607820869 39.6601
26.3328807407756 39.357
26.35574647063438 39.5334
26.37879191991473 39.6061
26.401659795896734 39.5279
26.424528742360263 39.6685
26.447398760366614 39.8491
26.470448535598294 39.9516
26.49332070826805 40.0009
26.516193955675355 40.4863
26.53906827888316 40.5545
26.562122397260108 40.8024
26.584998883685063 41.1239
26.607876449110325 41.413999999999994
26.63075509460056 41.5124
26.65381357334404 41.5895
26.67669439061878 41.551
26.699576291163382 41.5618
26.722459276044212 41.3095
26.745522132402975 41.141999999999996
26.768407297649354 40.9523
26.791293550442003 40.674
26.814180891848974 40.336999999999996
26.837248143099337 39.9415
26.860137673466657 39.9354
26.88302829566349 39.6909
26.90592001075963 39.6319
26.92899167420566 39.3575
26.951885586870763 39.0638
26.974780595655517 38.8281
26.99785558178161 38.7726
27.020752794605112 38.4836
27.043651106772522 38.4577
27.06655051935668 38.3275
27.089629948036183 38.2275
27.112531573292053 38.2117
27.135434302194138 38.1848
27.158338135817015 38.0487
27.181422024430987 37.9948
27.204328079372566 38.0381
27.22723524226965 38.0154
27.250143514198573 38.0555
27.273231880156334 37.9941
27.296142382065014 37.7577
27.319053996245536 37.7271
27.341966723775965 37.8662
27.365059584515222 37.8447
27.38797455070062 37.802
27.410890633481237 37.8181
27.433807833936918 37.918
27.456905206923906 38.1479
27.47982465472398 38.0632
27.502745223449743 38.0078
27.525666914182825 38.0774
27.548768816912457 37.9399
27.571692763693633 37.8222
27.59461783573812 37.7739
27.617723149491244 37.7048
27.640650484125285 37.6001
27.66357894728264 37.4808
27.686508540048052 37.6114
27.709618414237887 37.4369
27.732550278321757 37.2548
27.755483275279115 37.24
27.778417406196485 37.332
27.801531858397514 37.1925
27.824468269376716 37.1602
27.847405817586786 37.2827
27.870344504116094 37.4043
27.893463551932008 37.5443
27.916404527281053 37.7897
27.93934664422563 37.8115
27.962289903855886 37.7657
27.98541356491974 38.0251
28.00835912214229 38.0919
28.03130582533231 38.3534
28.054253675581805 38.6012
28.077381967556104 38.5812
28.100332124185126 38.5156
28.123283431160893 38.304
28.146235889577238 38.3153
28.169368830154156 38.0955
28.192323603752033 37.9248
28.215279532083304 37.6364
28.238415973016764 37.4166
28.261374223145094 37.3495
28.284333631303806 37.1068
28.307294198589954 37.0579
28.330435319167677 36.6915
28.353398217078915 36.3989
28.376362277420153 36.0993
28.39932750129032 36.2261
28.422473319286713 35.8901
28.44544088262495 35.9022
28.468409612800283 35.7982
28.491379510913497 35.4886
28.51453004413313 35.3124
28.53750229057244 35.4522
28.56047570826344 35.3736
28.583450298308804 35.4429
28.606605564586562 35.2172
28.629582511831156 35.0552
28.65256063474956 35.031
28.675539934446338 35.0774
28.698699951647605 35.027
28.72168161743193 34.9493
28.74466446331978 34.988
28.767648490417624 35.0212
28.790813276438353 34.9051
28.813799678527303 34.9017
28.836787265157085 34.9326
28.859955641890075 34.9991
28.882945610203045 34.9089
28.905936766392035 34.8121
28.928929111566863 34.8729
28.952102288520145 34.6927
28.975097024308607 34.5844
28.998092952423807 34.4665
29.021090073977508 34.4606
29.04426806913204 34.428000000000004
29.067267590245258 34.1955
29.090268308143695 34.2114
29.11327022394099 34.0891
29.13645305530891 33.9448
29.159457379627167 33.8934
29.18246290519685 33.8656
29.20546963313352 33.8779
29.22865731875826 33.969
29.25166646419296 33.7934
29.27467681535305 33.6148
29.29768837335608 33.8402
29.320880931312562 33.7551
29.34389491580634 33.719
29.366910110507334 33.8084
29.38992651653503 33.733000000000004
29.41312396492981 33.7573
29.436142806456754 33.6601
29.45916286268059 33.5775
29.48236399319994 33.4793
29.50538649169417 33.3211
29.528410208259935 33.2252
29.55143514402014 33.0675
29.574641196749695 32.8616
29.597668583816574 32.8949
29.6206971934585 32.5778
29.64372702680042 32.701
29.666938019934474 32.5519
29.689970313635285 32.6164
29.713003834422636 32.5509
29.73603858342347 32.464
29.759254535188578 32.3716
29.78229175361658 32.4016
29.80533020365064 32.4624
29.82836988641968 32.4843
29.85159081507472 32.4415
29.874632976355343 32.3654
29.89767637376955 32.3285
29.920721008448314 32.1142
29.9439469322847 32.1519
29.96699405457564 32.1726
29.9900424175358 32.1417
30.013092022298157 32.0241
30.03632295963995 31.8987
30.059375061131373 32.0773
30.08242840783577 32.1436
30.105483000888153 32.0142
30.128718970092244 31.9462
30.151776069006917 32.0087
30.17483441768648 32.0251
30.198074175317235 31.9698
30.221135036724256 32.1529
30.24419715131772 32.0528
30.267260520236203 31.9155
30.290505341942243 32.001
30.313571232750228 31.9289
30.336638381310948 31.8143
30.35970678876503 31.8158
30.38295669299435 31.7134
30.40602763151657 31.7525
30.429099832366074 31.6979
30.452173296685572 31.6731
30.47542830191959 31.7035
30.498504306502497 31.5971
30.521581577995562 31.6203
30.544660117543582 31.7194
30.56792024229725 31.7482
30.59100133132069 31.6937
30.614083691845494 31.6608
30.637167325018545 31.6743
30.660432587840603 31.7829
30.683518779717886 31.7545
30.70660624769615 31.8599
30.729694992924372 31.7699
30.75296541239743 31.7832
30.77605672557558 31.6681
30.799149319462742 31.7228
30.8224236211637 31.583000000000002
30.845518789950724 31.5461
30.868615242910597 31.4724
30.891712981195973 31.3465
30.91499247215866 31.2558
30.938092794619365 31.1548
30.96119440587579 31.0077
30.984297307082752 30.9185
31.00758200598383 30.8932
31.030687500658694 30.8193
31.053794288760695 30.7633
31.076902371446767 30.6562
31.100192296997445 30.6354
31.12330298246119 30.6247
31.14641496599209 30.4792
31.169528248749216 30.5743
31.19282341969534 30.5663
31.215939314557186 30.4763
31.239056512134788 30.5512
31.262175013589378 30.4686
31.28547544871168 30.4012
31.30859657161541 30.3071
31.331719001892175 30.395
31.35484274070538 30.4907
31.378148458819545 30.4672
31.401274828443725 30.5217
31.424402510106933 30.4018
31.447712205419993 30.5444
31.470842524931633 30.4332
31.493974159989783 30.3597
31.51710711176168 30.3532
31.54042212308802 30.4061
31.563557722100917 30.3731
31.586694641341655 30.3532
31.609832881979628 30.2066
31.63315322823208 30.0449
31.656294125521327 29.9712
31.679436347728515 29.9775
31.70257989602529 29.7364
31.725905596152327 29.7911
31.74905181052835 29.724
31.772199354521323 29.7269
31.79534822930507 29.8457
31.818679302290967 29.7191
31.84183085259981 29.7538
31.864983737233473 29.6733
31.88813795736804 29.7797
31.911474422233013 29.6419
31.934631327356435 29.7354
31.9577895715215 29.6233
31.980949155906522 29.6349
32.004291031706956 29.5775
32.027453310562606 29.5524
32.05061693318573 29.3663
32.07396288236386 29.4524
32.09712920658542 29.3348
32.12029687812702 29.2599
32.14346589817093 29.2399
32.166817291729984 29.2546
32.18998902288583 29.1018
32.21316210610336 29.0001
32.23633654256711 28.8644
32.259693399663725 28.8099
32.282870556771144 28.7042
32.30604907069099 28.7681
32.329228942610065 28.717
32.35259128243769 28.6696
32.375773884550505 28.4564
32.398957848235646 28.587
32.422143174682176 28.4644
32.445511016471215 28.3338
32.468699082679954 28.3053
32.49188851523011 28.3251
32.51507931531304 28.3277
32.538452678331 28.2821
32.56164622776311 28.2047
32.58484114831493 28.2053
32.60803744118015 28.1218
32.631416344731896 28.1911
32.654615396551876 28.131999999999998
32.67781582427913 28.1387
32.701198898634416 27.9756
32.72440209253756 27.9664
32.747606665947124 28.0068
32.77081262006088 27.7575
32.79420126883317 27.7068
32.81740999876112 27.747
32.840620112999424 27.5796
32.86383161274818 27.5501
32.88722585534586 27.5932
32.91044014056596 27.6434
32.933655814909734 27.5989
32.95687287957963 27.654
32.98027273544904 27.5724
33.00349259526636 27.5685
33.026713849030116 27.5596
33.04993649794511 27.5014
33.073341986570746 27.4113
33.09656744032826 27.3835
33.11979429286444 27.4342
33.14302254538647 27.389
33.166433686291185 27.3652
33.18966475336992 27.322
33.212897224069096 27.2069
33.23613109959831 27.1711
33.259547912343415 27.1947
33.2827846121627 27.2
33.306022720453775 27.1507
33.32926223842861 27.1217
33.352684742614166 27.0759
33.37592709463173 27.0364
33.399170859982064 26.9435
33.422597648419426 26.912
33.44584425514446 26.7989
33.46909227885668 26.7533
33.4923417207723 26.6287
33.51577423505344 26.73
33.539026528130385 26.5022
33.56228024307245 26.4553
33.585535381098246 26.386
33.60897364093058 26.3252
33.63223163992385 26.3629
33.6554910656699 26.301
33.678751919389796 26.3819
33.702195944520106 26.2311
33.72545966903325 26.1703
33.74872482519663 26.1138
33.771991414233746 26.1732
33.79544122444841 26.245
33.81871069412428 26.0861
33.84198160035767 26.0433
33.86525394437455 26.0364
33.88870955949969 25.9989
33.911984794020626 25.9607
33.93526147001624 25.9732
33.958539588715006 25.8407
33.98200102861669 25.8124
34.0052820477047 25.7138
34.02856451319451 25.7143
34.05203033759056 25.7002
34.07531571090147 25.7486
34.09860253431845 25.6686
34.121890809074316 25.4959
34.145362493118924 25.4953
34.16865368561615 25.5516
34.191946333164054 25.564
34.21524043699793 25.4434
34.23871800066799 25.4609
34.26201503218366 25.2912
34.28531352370466 25.27
34.30861347646881 25.2366
34.33209693978188 25.2883
34.3553998301885 25.1911
34.378704185565205 25.0796
34.402010007152356 24.9863
34.42549939016683 25.0128
34.44880815937748 25.0166
34.472118398533134 24.9712
34.49543010887669 24.9823
34.51892543169198 24.8048
34.54224009966052 24.913
34.56555624255917 24.8209
34.58887386163339 24.676
34.61237514439016 24.6416
34.6356957311114 24.6219
34.65901779775809 24.6423
34.68252356662995 24.5884
34.705848608458616 24.6128
34.72917513396849 24.5792
34.75250314440949 24.4581
34.77601490857862 24.4753
34.799345904259795 24.427
34.82267838863559 24.4111
34.846012362958525 24.3593
34.869530142679984 24.3084
34.89286711232212 24.2414
34.91620557568269 24.2858
34.93954553401677 24.185
34.9630693495876 24.0558
34.986412313340814 24.1835
35.00975677584668 24.1236
35.033102738362956 23.9989
35.05663261012228 23.9529
35.0799815881786 23.9829
35.10333207003229 23.9506
35.12668405694369 24.002
35.150220005273056 23.9556
35.17357501786656 23.9572
35.19693153931268 23.9182
35.220289570874385 23.8956
35.24383161619786 23.8637
35.267192683604904 23.8213
35.290555264930376 23.7667
35.314101899412165 23.8617
35.33746752422433 23.7131
35.36083466676374 23.6825
35.38420332829803 23.6507
35.407756095629054 23.7352
35.43112781085063 23.7059
35.45450104888391 23.6657
35.477875810999194 23.636999999999997
35.50143473172161 23.5538
35.52481255774625 23.6892
35.54819191167777 23.6519
35.57157279478914 23.4834
35.595137889488406 23.4977
35.61852184675279 23.4716
35.641907337029984 23.4181
35.665294361595684 23.2792
35.68886565090076 23.1798
35.7122557598848 23.229
35.73564740699838 23.344
35.759040593519934 23.1796
35.78261809810353 23.0844
35.80601437933051 23.0799
35.829412203814705 23.0168
35.85281157283719 22.9328
35.876395313415884 23.0008
35.8997977874528 22.95
35.92320180988546 22.8846
35.946790244133936 22.7836
35.97019737933222 22.8382
35.993606066789866 22.8138
36.01701630779276 22.6575
36.04061101440684 22.725
36.06402437852291 22.8005
36.08743930005611 22.7042
36.1108557802951 22.5475
36.13445678011326 22.570999999999998
36.15787639383515 22.51
36.18129757014299 22.4722
36.20472031032821 22.4058
36.22832762423364 22.4376
36.25175350829375 22.4759
36.275180960119776 22.3418
36.298609981005924 22.3949
36.32222362992669 22.3901
36.34565580510207 22.3263
36.36908955323448 22.2425
36.39252487562093 22.1828
36.416144880530226 22.1104
36.43958336764275 22.1897
36.463023432914625 22.151999999999997
36.486465077645676 22.0849
36.51009145956204 22.1374
36.53353627947859 22.1063
36.55698268276811 22.0687
36.58043067073321 21.9895
36.60406345072071 21.9749
36.62751462435344 21.924
36.65096738658405 21.9098
36.67460498210655 21.8715
36.69806093788647 21.8394
36.72151848619297 21.7387
36.744977628333636 21.6875
36.76862165890998 21.6481
36.79208400512205 21.6502
36.81554794910557 21.6687
36.83901349217101 21.5676
36.862663978991606 21.5505
36.88613273667352 21.4644
36.90960309738324 21.4236
36.933075062434064 21.4252
36.95673202673572 21.395
36.98020721697122 21.3511
37.003684015502365 21.2462
37.027162423645365 21.2145
37.050825886711465 21.2825
37.07430753063053 21.1617
37.09779078812467 21.1916
37.121275660513014 21.1206
37.144945643673694 21.143
37.16843376245278 21.1546
37.19192350009803 21.129
37.215414857931435 21.0598
37.239091382563885 20.8927
37.262585997426164 20.8868
37.28608223645736 21.0357
37.309763684451696 20.9291
37.33326318851098 20.9033
37.356764320726555 20.8611
37.380267082425526 20.8891
37.40395510942588 20.8406
37.42746114683234 20.7474
37.45096881771841 20.7251
37.474478123414166 20.6786
37.49817275092816 20.6551
37.52168534303452 20.6513
37.54519957395567 20.6308
37.568715445024665 20.5876
37.592416694607714 20.5051
37.61593586281424 20.5679
37.63945667518264 20.6212
37.66297913304891 20.3901
37.68668702630454 20.3899
37.710212792059274 20.3001
37.733740207334854 20.3337
37.757269273470364 20.28
37.780983832050374 20.2513
37.80451621684926 20.2677
37.82805025654007 20.208
37.851585952464795 20.1914
37.8753071980695 20.1244
37.89884622345676 20.0821
37.92238690911902 20.1227
37.94611318753442 19.9898
37.969657210779765 20.029
37.99320289834801 19.9978
38.016750251586465 19.9605
38.04048325513017 19.8912
38.06403395679343 19.872
38.087586328183946 19.8556
38.11114037065203 19.9027
38.13488012115898 19.814
38.1584375229181 19.701
38.181996599821 19.6646
38.205557353221124 19.6951
38.229303872575656 19.6804
38.2528679961576 19.6065
38.27643380031219 19.5319
38.30000128639589 19.4532
38.32375459653193 19.5662
38.34732546371299 19.5287
38.37089801690786 19.4276
38.39447225747609 19.4114
38.418232380377425 19.3777
38.441810012983396 19.3146
38.46538933705673 19.3751
38.488970353960084 19.3327
38.51273731166058 19.2099
38.536321731567014 19.1931
38.55990784840681 19.2103
38.58367995004091 19.2254
38.60726947812959 19.1896
38.63086070726198 19.0876
38.654453638806274 19.1349
38.678232613930824 19.0532
38.70182896773327 19.0337
38.72542702806741 18.9985
38.7490267963045 18.9611
38.77281266709232 18.9905
38.79641586862214 18.9649
38.8200207821842 18.9096
38.843627409152944 18.861
38.86742019782782 18.8382
38.891030269149255 18.8309
38.914642058016156 18.7719
38.938255565806124 18.7778
38.96205529464307 18.704
38.98567225787121 18.6509
39.00929094417078 18.635
39.03291135492255 18.6183
39.05671804624804 18.6061
39.080341923549106 18.5537
39.103967529460334 18.5206
39.127594865365744 18.5387
39.15140854155791 18.4802
39.17503935514948 18.4483
39.19867190290282 18.4438
39.22249083587951 18.3757
39.24612686969409 18.3617
39.269764641845306 18.3638
39.293404153722804 18.3032
39.317230110864074 18.2778
39.34087311998506 18.2045
39.36451787301696 18.2449
39.388164371352595 18.1576
39.41199737518003 18.0583
39.43564738196752 18.1082
39.45929913825317 18.0986
39.48295264543308 18.0545
39.506792718520884 18.0344
39.530449745387216 17.988
39.55410852735203 17.9477
39.57776906581474 17.9907
39.60161623079 17.8871
39.625280300200025 17.8997
39.64894613032202 17.8556
39.67261372255866 17.8294
39.6964680021016 17.7993
39.72013913657293 17.7783
39.74381203738292 17.8592
39.76748670593756 17.779
39.79134812278169 17.694000000000003
39.81502634488497 17.725
39.83870633896685 17.5789
39.862388106436654 17.6154
39.88625668336918 17.5772
39.90994201572829 17.5355
39.933629125719285 17.5604
39.957503091207826 17.5115
39.9811937746168 17.5414
40.00488623990914 17.5073
40.02858048850006 17.4559
40.05246165409549 17.3847
40.076159487492085 17.3364
40.099859108448875 17.351
40.123560518384345 17.3485
40.1474489070226 17.3138
40.171153913178564 17.2304
40.194860712584955 17.1892
40.2185693066637 17.2196
40.242464941335314 17.1641
40.26617714307655 17.1419
40.289891143772046 17.1833
40.3136069448471 17.1536
40.33750984859743 17.0877
40.3612292688043 17.0417
40.3849504936829 17.0239
40.40867352466194 17.0413
40.43258372059144 16.9804
40.45631038219906 17.0115
40.48003885420956 16.9114
40.503769138055105 16.8569
40.52768664931955 16.8532
40.55142057531802 16.8804
40.57515631746428 16.7977
40.599079334038514 16.8045
40.62281872700477 16.769000000000002
40.64655994043941 16.6781
40.67030297578061 16.6997
40.69423334835778 16.6189
40.71798004609188 16.6019
40.74172857006355 16.6128
40.76547892171441 16.6131
40.7894166736039 16.5686
40.813170699248566 16.4835
40.83692655691388 16.4785
40.86068424804498 16.4842
40.884629402612525 16.4546
40.908390779366385 16.4182
40.932153993938 16.4252
40.95591904777605 16.4169
40.979871628443995 16.4795
41.003640379561936 16.3872
41.02741097430883 16.3408
41.05118341413683 16.2601
41.075143444384416 16.3056
41.098919593177826 16.2129
41.1226975914255 16.2242
41.14647744058318 16.1533
41.170444943946755 16.1574
41.19422851378379 16.1728
41.218013938914645 16.1073
41.24198706625173 16.0482
41.26577622087193 15.9902
41.289567235177785 15.975999999999999
41.31336011063129 15.9601
41.337340752422875 15.9571
41.361137369129835 15.9544
41.38493585138705 15.8736
41.40873620066004 15.9142
41.43272438060107 15.870999999999999
41.45652848292052 15.7759
41.48033445666918 15.7577
41.50414230331616 15.7874
41.528138045159764 15.7898
41.551949656675205 15.7241
41.575763145513235 15.7149
41.59957851314666 15.6617
41.62358184070442 15.6203
41.64740098505737 15.6018
41.6712220126409 15.5481
41.69504492493139 15.5808
41.71905586207357 15.4682
41.74288256296395 15.4717
41.766711153007456 15.3965
41.79054163368412 15.4473
41.814560204340054 15.4314
41.838394485526365 15.4033
41.86223066180303 15.3752
41.88625497706819 15.3601
41.910094962812 15.356
41.93393684811168 15.3123
41.95778063445365 15.2933
41.981812625263366 15.2838
42.00566023303407 15.2167
42.029509746323676 15.1839
42.05336116662236 15.1648
42.077400857069705 15.1737
42.10125611078846 15.117
42.12511327600405 15.1053
42.14897235421036 15.0528
42.173019768448455 15.0778
42.19688269209613 15.0537
42.22074753323349 14.9975
42.24461429335818 15.0125
42.268669455600495 14.9639
42.292540073217886 14.9481
42.31641261433284 14.8871
42.34028708044675 14.8659
42.36435001496739 14.860999999999999
42.38822835065557 14.8347
42.41210861586426 14.8049
42.4359908120986 14.7895
42.46006154323262 14.7235
42.48394762115317 14.6725
42.507835634632315 14.6788
42.531912233047436 14.6931
42.55580413732265 14.6747
42.579697981698 14.692
42.60359376768525 14.6408
42.62767820545945 14.5538
42.65157789440821 14.5345
42.67547952952185 14.5192
42.699383112316 14.5576
42.72347541395347 14.5342
42.74738291190531 14.4437
42.771292362102166 14.4226
42.795203766063516 14.435
42.819303956130405 14.4242
42.843219287476536 14.3473
42.86713657716324 14.3666
42.89105582671383 14.3222
42.91516392983864 14.284
42.939087119032166 14.2675
42.963012272677304 14.2441
42.98693939230129 14.2464
43.01105543317513 14.1846
43.034986504731386 14.1719
43.05891954686589 14.0929
43.08285456110972 14.1092
43.10697856448665 14.0258
43.130917542983475 14.062999999999999
43.15485849820081 14.0774
43.17880143167367 14.0224
43.20293342237094 14.0122
43.226880332449 13.9658
43.25082922540554 13.9703
43.27496722682525 13.931
43.29892010567796 13.9084
43.32287497204102 13.9434
43.34683182745632 13.8677
43.370977859791836 13.8844
43.39493871351105 13.8233
43.41890156092628 13.7954
43.44286640358341 13.7208
43.46702049182749 13.7383
43.49098934522816 13.698
43.51496019852649 13.709000000000001
43.5389330532723 13.6109
43.56309522248204 13.556
43.58707210044314 13.644
43.61105098451946 13.6057
43.63503187626491 13.5693
43.659202151562134 13.5358
43.68318707902681 13.5091
43.70717401884041 13.4752
43.731162972560874 13.4293
43.75534137913236 13.4372
43.779334381108384 13.4427
43.803329401683186 13.4166
43.82732644241872 13.3849
43.8515130055166 13.3822
43.87551410707659 13.3213
43.89951723350145 13.3027
43.923709934595614 13.2855
43.94771713129917 13.3194
43.97172635758096 13.2738
43.99573761501002 13.1995
44.0199385169922 13.2131
44.04395385732619 13.1629
44.067971233533086 13.1771
44.09199064718605 13.1464
44.11619977548961 13.0445
44.14022328470671 13.0455
44.16424883610785 13.0746
44.18827643127035 13.0394
44.21249381139513 13.0145
44.236525514814076 12.9904
44.26055926674478 12.9657
44.28459506876863 12.9371
44.3088207262813 12.9218
44.33286064928722 12.8954
44.35690262714919 12.8743
44.38094666145278 12.8498
44.4051806219871 12.8812
44.42922879003185 12.7881
44.45327901929361 12.7951
44.477331311362136 12.7966
44.501573600619416 12.7492
44.525630039221795 12.7626
44.54968854541895 12.6913
44.573937102200176 12.7258
44.5979997645541 12.6618
44.622064499300315 12.5884
44.64613130803592 12.5967
44.67038823869318 12.5982
44.69445921643748 12.5973
44.718532272981385 12.5043
44.742607409926194 12.4975
44.76687274034801 12.5021
44.79095205918753 12.4754
44.81503346325094 12.4594
44.839116954143876 12.4728
44.86339071028742 12.4503
44.88747839599524 12.4034
44.91156817336837 12.3429
44.93566004401666 12.3207
44.959942251908146 12.3523
44.984038330325966 12.2795
45.00813650686762 12.2736
45.03223678314731 12.2681
45.05652746888232 12.2389
45.08063196592069 12.2334
45.104738567558705 12.2058
45.128847275414856 12.225
45.15314646515866 12.1283
45.17725940679741 12.1311
45.20137445952892 12.0785
45.22568004865265 12.1075
45.24979934496396 12.0827
45.27392075725247 12.0321
45.29804428714431 12.0166
45.322358426247604 12.0225
45.346486212804315 11.9656
45.370616121861914 11.9979
45.39474815505086 11.9573
45.41907087049246 11.8569
45.4432071734666 11.8346
45.46734560548283 11.892999999999999
45.49148616817604 11.8889
45.51581748638564 11.8554
45.5399623320197 11.8
45.56410931325473 11.7931
45.58825843173002 11.7914
45.61259837920865 11.7899
45.636751793816 11.758
45.66090735060093 11.667
45.68506505120716 11.6512
45.7094136545275 11.6413
45.73357566449271 11.6211
45.75773982322992 11.6131
45.78190613238733 11.663
45.806263418194064 11.5416
45.83043404997326 11.561
45.85460683713677 11.5818
45.87897065658495 11.5524
45.90314777634752 11.4939
45.92732705646868 11.4364
45.9515084986045 11.4499
45.97588104735473 11.4288
46.00006683541565 11.402000000000001
46.02425479047904 11.3877
46.04844491420549 11.3918
46.0728262191024 11.4013
46.09702070211635 11.3084
46.12121735879483 11.3092
46.14541619080294 11.3237
46.169806278764455 11.2675
46.194009483459034 11.282
46.21821486849841 11.2643
46.24242243555223 11.2339
46.266821333570014 11.2183
46.29103328674601 11.1866
46.31524742696538 11.149000000000001
46.33946375590237 11.1422
46.36387149104216 11.1274
46.38809221957392 11.0978
46.41231514186606 11.1075
46.436540259597464 11.092
46.460956858999374 11.0175
46.48518638983522 11.0002
46.509418121166966 10.974
46.533652054678114 10.9812
46.55807754555709 10.9772
46.58231590571962 10.9638
46.60655647313217 10.8802
46.630988654873654 10.8869
46.655233659129024 10.8602
46.67948087571551 10.8439
46.70373030632484 10.8539
46.72817142736393 10.8711
46.752425308428684 10.793
46.77668140861147 10.7684
46.80093972960865 10.7375
46.82538981736788 10.7364
46.849652602470904 10.7218
46.87391761349769 10.7138
46.8981848521493 10.6944
46.9226439341274 10.6437
46.946915650573224 10.6095
46.97118959976749 10.6272
46.99546578341598 10.5834
47.019933887188216 10.5802
47.04421456235744 10.5633
47.06849747711879 10.5203
47.09278263318286 10.5406
47.11725978640143 10.5056
47.14154944775105 10.4486
47.165841355555656 10.4691
47.1901355115306 10.4103
47.214621741924994 10.4437
47.23892041698887 10.4088
47.26322134538975 10.3616
47.28771440635075 10.3691
47.31201986422527 10.3612
47.33632758061436 10.3418
47.360637557241866 10.3166
47.38513974410611 10.2946
47.40945426407847 10.243
47.43377104948137 10.2532
47.45809010204344 10.2277
47.48260144275502 10.232000000000001
47.506925052572285 10.1541
47.53125093475548 10.1614
47.55557909103813 10.1969
47.58009961361992 10.1277
47.60443234110732 10.126
47.62876734791564 10.1275
47.65310463578333 10.1291
47.6776343683373 10.0837
47.7019762413987 10.0205
47.72632040075572 10.006
47.75066684815169 10.0477
47.77520581885936 10.0022
47.799556865477655 9.93155
47.823910205386 9.98258
47.84826584033272 9.92278
47.87281407745551 9.89754
47.89717432569297 9.929160000000001
47.92153687423484 9.86633
47.94609208429692 9.87265
47.97045925671401 9.8742
47.99482873471275 9.80437
48.01920052005013 9.80161
48.04376504619224 9.80096
48.068141469543484 9.75893
48.09252020552573 9.77657
48.11690125590099 9.73741
48.1414751266064 9.73231
48.16586082917454 9.75106
48.19024885144316 9.68975
48.2146391951793 9.671330000000001
48.239222439012764 9.65042
48.26361744916137 9.63603
48.28801478610016 9.58657
48.31241445160131 9.59689
48.337007097209366 9.61252
48.36141144338331 9.56713
48.38581812345755 9.48297
48.41022713920929 9.509139999999999
48.434829215320704 9.486989999999999
48.45924292604658 9.52755
48.48365897780325 9.51285
48.50807737237308 9.44923
48.532688907799276 9.46072
48.55711201168574 9.45102
48.581537463754074 9.424439999999999
48.60615611725119 9.4098
48.63058628942721 9.33623
48.65501881516546 9.36425
48.6794536962573 9.34435
48.70408185970339 9.31948
48.72852147531801 9.3001
48.75296345168211 9.28086
48.77740779059232 9.25877
48.80204549302823 9.28026
48.82649458091802 9.27011
48.85094603676547 9.27017
48.87539986237231 9.22278
48.90004713292306 9.22087
48.92450572200832 9.15687
48.94896668628025 9.13475
48.97343002754588 9.1592
48.99808689542115 9.12165
49.02255501470614 9.12498
49.04702551642794 9.09338
49.0714984023988 9.08284
49.096164896893235 9.0388
49.120642575466796 9.01773
49.145122643748394 9.00727
49.16960510355558 8.98363
49.19428125404938 8.96596
49.2187685210852 9.003860000000001
49.243258185121555 8.99342
49.26794160167084 8.918460000000001
49.2924360839405 8.8837
49.31693296869764 8.88458
49.34143225776915 8.87562
49.36612538195438 8.85571
49.39062950396021 8.83555
49.41513603578346 8.823
49.4396449792564 8.78847
49.46434784069503 8.78969
49.488861631846454 8.77062
49.513377840166804 8.75954
49.537896467493745 8.75745
49.56260909589029 8.72891
49.587132585683285 8.72547
49.611658500018365 8.70699
49.636186840738596 8.685789999999999
49.66090926588511 8.66929
49.685442483902584 8.62588
49.70997813385706 8.63888
49.734516217597076 8.62813
49.75924846937352 8.596060000000001
49.7837914452858 8.56495
49.80833686055187 8.536719999999999
49.83288471702571 8.55223
49.85762682540054 8.54382
49.882179588965734 8.503110000000001
49.9067347993235 8.4918
49.93129245833333 8.48024
49.95604445336378 8.46936
49.98060703442832 8.43113
50.005172069746266 8.43587
50.02993150438364 8.43396
50.05450147301533 8.412939999999999
50.07907390151433 8.36613
50.10364879174981 8.35413
50.12841816587289 8.32592
50.1529980044635 8.32456
50.17758031042124 8.33455
50.20216508562089 8.30828
50.22694442953363 8.2929
50.25153416817468 8.2648
50.27612638170508 8.266210000000001
50.300721072005196 8.17688
50.325510416102105 8.177999999999999
50.350110084975064 8.19825
50.37471223628208 8.18323
50.39931687190919 8.17982
50.424116246675766 8.158719999999999
50.44872587605249 8.144110000000001
50.47333799543065 8.11913
50.49795260670191 8.1342
50.52276204271512 8.09844
50.54738166295838 8.07616
50.57200378079314 8.05487
50.596628398116835 8.02539
50.62144792604559 8.03836
50.646077567609396 8.031419999999999
50.670709714377715 7.9936300000000005
50.69553683636198 7.97395
50.72017401885922 8.005180000000001
50.7448137122895 7.969989999999999
50.76945591856022 7.935860000000001
50.79429318636823 7.9559
50.818940443716784 7.922560000000001
50.84359021965163 7.89255
50.868242516085964 7.87547
50.893089960641895 7.86848
50.917747323549435 7.85038
50.94240721271973 7.8329
50.96706963007175 7.8128
50.99192728239342 7.77836
51.01659478166073 7.8121
51.04126481489051 7.80485
51.06593738400761 7.76828
51.090805275207074 7.727539999999999
51.11548294172845 7.7214100000000006
51.14016314993547 7.750439999999999
51.164845901758845 7.70857
51.18972406304274 7.69937
51.21441192780656 7.6876
51.23910234200271 7.64583
51.2637953075678 7.65137
51.288683770237945 7.62984
51.31338186432707 7.58696
51.33808251561888 7.579960000000001
51.362978729967345 7.58731
51.387684521509755 7.541710000000001
51.41239287610203 7.52643
51.437103795691165 7.50967
51.46201036644977 7.49758
51.486726441956634 7.496389999999999
51.51144508832545 7.4967
51.536166307509156 7.45812
51.56108326624387 7.434080000000001
51.58580965706056 7.42356
51.61053862657523 7.455589999999999
51.635270176746864 7.42345
51.66019755512065 7.41293
51.68493429268881 7.34965
51.70967361681515 7.353280000000001
51.73441552946465 7.352989999999999
51.759353359237934 7.341069999999999
51.7841004750961 7.33195
51.80885018539685 7.290019999999999
51.833602492111254 7.28742
51.8585508051424 7.28067
51.883308330926425 7.2419
51.90806845906181 7.21282
51.932831191525715 7.223510000000001
51.95779001977161 7.21667
51.98255798721516 7.17404
52.00732856494335 7.18863
52.03229530577543 7.145289999999999
52.057071130455945 7.100569999999999
52.081849571391054 7.106739999999999
52.106630630568695 7.1212800000000005
52.13160794279417 7.0842600000000004
52.15639426492067 7.09887
52.18118321127822 7.10123
52.205974783860896 7.05703
52.23096269971011 7.044639999999999
52.255759551287994 7.078930000000001
52.280559035098186 7.03101
52.30536115314103 6.98647
52.33035970494467 6.97688
52.35516711807904 6.9734
52.37997717147198 6.95673
52.40478986713005 6.94
52.42979908731974 6.94055
52.454617094216 6.9176
52.47943774942214 6.85848
52.50426105495102 6.89827
52.529280976059844 6.89128
52.554109609024096 6.834739999999999
52.57894089837482 6.8335300000000005
52.60377484613117 6.830010000000001
52.62880550079408 6.800960000000001
52.65364479223379 6.7915399999999995
52.67848674816189 6.80806
52.70352547971946 6.77049
52.72837279155837 6.73917
52.753222773982785 6.73168
52.778075429022984 6.7609
52.80312495150885 6.71316
52.827982978797436 6.672689999999999
52.85284368481815 6.6907
52.87770707160767 6.68425
52.90276741793998 6.61959
52.92763619336701 6.61155
52.952507655698504 6.63749
52.977381806977576 6.64999
53.00245301017842 6.56647
53.02733256653592 6.568569999999999
53.052214817996074 6.54637
53.077099766608484 6.5704
53.102181859804446 6.52421
53.127072229988265 6.53985
53.15196530349892 6.5174900000000004
53.17686108239249 6.52731
53.20195409881522 6.5008099999999995
53.22685531582556 6.462999999999999
53.25175924441303 6.45274
53.27666588664027 6.43558
53.30176985962693 6.42436
53.3266819565689 6.4291599999999995
53.35159677336455 6.401619999999999
53.376514312083096 6.38762
53.40162927507703 6.40011
53.42655228516116 6.36049
53.45147802340193 6.36212
53.47660125628886 6.29997
53.50153247842639 6.3515
53.52646643496923 6.29137
53.55140312799818 6.29333
53.576537409691696 6.24817
53.60147960336152 6.26965
53.626424539786164 6.283440000000001
53.65137222105307 6.21435
53.67651758529126 6.20345
53.70147078399681 6.21338
53.72642673383343 6.22276
53.75138543689533 6.22788
53.776541917524526 6.17549
53.801506154876755 6.156569999999999
53.826473151763246 6.13199
53.851442910284916 6.13612
53.87661054126026 6.13696
53.9015858509782 6.11088
53.92656392866066 6.0936900000000005
53.95154477641532 6.09928
53.976723591801296 6.08185
54.00171000771266 6.0844
54.02669920004598 6.04047
54.051691170915745 6.00014
54.076881204886796 5.93618
54.101878760928514 6.03108
54.12687910187696 5.97318
54.152077577768296 5.96319
54.1770835166946 5.95377
54.20209224691339 5.95474
54.22710377055121 5.88646
54.25231352511594 5.88471
54.27733066384342 5.9066
54.30235060239643 5.88781
54.32737334290836 5.83108
54.35259441062629 5.85018
54.377622783395324 5.844530000000001
54.40265396455061 5.8693800000000005
54.42768795623251 5.78275
54.45292037169559 5.79611
54.477960012857906 5.81251
54.50300247099511 5.74351
54.52804774825457 5.73301
54.55329154616743 5.7030199999999995
54.57834249018678 5.69987
54.6033962597977 5.71391
54.6284528571545 5.65423
54.653708072335164 5.57845
54.67877035378786 5.60834
54.70383546947698 5.58971
54.72890342156389 5.55895
54.7541700889442 5.54448
54.77924374251975 5.57886
54.8043202390049 5.49983
54.82959552413022 5.4408199999999995
54.8546777351945 5.46111
54.87976279569621 5.45735
54.90485070780914 5.4817
54.930137506558005 5.3996699999999995
54.95523115074295 5.42965
54.98032765308844 5.3811599999999995
55.005427015775496 5.38516
55.03072536339621 5.3685
55.05583047570572 5.32118
55.080938454927676 5.31048
55.10604930325027 5.27952
55.131359235107396 5.2977300000000005
55.15647585066083 5.2588
55.181595341907496 5.23402
55.20671771104285 5.2164
55.232039262617704 5.21039
55.25716741665048 5.147069999999999
55.28229845518636 5.155130000000001
55.30743238042802 5.06637
55.33276558731939 5.0453
55.357905315183636 5.0235199999999995
55.383047936390035 5.015
55.40819345314859 5.05132
55.433538351073295 4.9820199999999994
55.458689688238415 5.04663
55.483843927614096 4.94758
55.509197623043605 4.906619999999999
55.53435769621134 4.88127
55.55952067826466 4.84315
55.5846865714265 4.85016
55.61005202069737 4.84567
55.63522376553902 4.835030000000001
55.66039842818645 4.79119
55.68557601087004 4.74621
55.7109532500271 4.764469999999999
55.73613670233794 4.7419199999999995
