TT I
1.2716486653135266 35.9345
1.2939594142134223 37.6908
1.3162702121660406 36.3622
1.3385810600174564 36.3267
1.3608919586137629 35.5982
1.383202908801069 35.1638
1.405513911425503 32.5963
1.4278249673332093 33.4
1.4501343378461518 32.833
1.4724455028545926 31.146
1.4947567236847858 31.6532
1.517068001182951 31.4202
1.5393793361953272 30.3048
1.5616907295681737 29.0634
1.5840021821477681 29.3425
1.60631369478041 28.6294
1.6286252683124185 28.5485
1.6509369035901333 27.1371
1.6732468618895553 27.5255
1.695558623192809 26.82
1.7178704487808514 27.3751
1.7401823395001077 26.1998
1.7625012545597203 26.1817
1.7848028405262486 26.3395
1.8071218901122095 26.3541
1.8294236121921872 26.3815
1.8517427996910911 26.2014
1.8740620574440425 26.4503
1.8963639900671978 26.2157
1.9186833908139995 25.8658
1.9409854680117449 25.5094
1.9633050151394713 25.2336
1.9856246367570705 25.5331
2.0079269371922672 25.4006
2.03024671027244 25.4883
2.0525491637446027 25.6343
2.074869091674931 25.4797
2.097171701569106 25.4871
2.1194917877373847 26.1568
2.141811954326636 25.9679
2.164114805233074 25.6052
2.186435135143035 26.0331
2.208738150935709 26.0895
2.231058647554722 26.5592
2.2533792288321184 25.9945
2.275682498336085 26.9559
2.298003251406138 26.6223
2.3203066942619714 27.174
2.3426276225136022 26.0857
2.3649486396617507 25.7228
2.387252348930071 26.4315
2.4095735463442893 26.3494
2.4318774374315884 25.7818
2.4541988185014043 26.5266
2.476502894794693 27.0262
2.498824462909887 26.776999999999997
2.521146125856138 25.9478
2.5434504863470337 26.7958
2.5657723414244717 26.7038
2.588076895590662 27.4857
2.610398946189713 27.8995
2.6327210958598384 28.2785
2.6550259469304716 28.2804
2.6773482972090137 28.4589
2.6996533504259 30.0889
2.7219759047039602 30.5205
2.744298562293959 31.1628
2.7666039251246595 32.3788
2.7889267918020164 33.952
2.8112323652516555 35.4419
2.833555444408179 36.5306
2.8558786311183852 38.5868
2.8781845268938557 40.4888
2.9005079311721484 42.4844
2.9228140460410397 44.1351
2.9451376712799635 47.4518
2.967444008632326 49.7076
2.9897678582247247 53.0119
3.0120918213106695 57.8206
3.0343984987899373 60.9608
3.0567226913198637 65.9694
3.079029599759726 71.3559
3.101354025127254 77.0436
3.123678568232338 80.6464
3.145985829517914 83.5101
3.16831061055229 86.2469
3.1906181112775593 86.7183
3.212943133635653 84.8199
3.2352682779763207 81.1139
3.2575761442691227 76.4263
3.2799015350264273 71.33800000000001
3.302209649240067 65.7889
3.3245352898092655 59.9677
3.3468436553365257 56.0846
3.369169549113219 51.7666
3.3914955708171384 48.6617
3.413804319727358 45.7728
3.4361305997334863 43.2672
3.4584396084414553 41.7771
3.4807661501462652 40.7772
3.503092824025881 40.6955
3.5254022288463154 40.1367
3.5477291695206588 39.5136
3.5700388426251948 39.8951
3.5923660534916446 39.73
3.6146934007816114 40.6086
3.637003482731501 40.9393
3.6593311053109985 41.1025
3.681641464033634 41.4903
3.7039693653009733 41.7146
3.726297407241705 42.2334
3.7486081875460804 41.2753
3.7709365132734978 41.6848
3.793247578841633 41.6527
3.8155761917550093 41.4351
3.8378875459837216 41.5861
3.8602164494827234 41.7225
3.882545499606844 42.2671
3.9048572932539183 42.9787
3.9271866390645718 43.3414
3.9494987298666713 44.0045
3.971828374764527 45.1353
3.9941581705403255 45.2364
4.016470713506008 46.3412
4.038800813471445 48.4167
4.061113662089144 49.3619
4.0834440696459176 51.375
4.105774632334751 52.5614
4.128087945865126 54.4639
4.150418821249301 56.6334
4.172732448931298 60.4091
4.195063640413578 63.753
4.2173775856475215 67.1982
4.239709096631102 70.0166
4.262040768704612 72.3858
4.284355196706267 75.5021
4.306687193387355 78.2056
4.329001947444346 79.7843
4.35133427213731 79.8687
4.373666762177566 78.4842
4.395982011761091 76.7235
4.418314834921175 74.7389
4.44063041906622 73.1556
4.4629635787515625 71.0295
4.4852969080429785 69.7745
4.5076130004776225 67.2837
4.529946671403969 65.4278
4.552263106909177 63.0199
4.574597122877047 61.4442
4.596931312711224 60.0371
4.619248269273446 58.7423
4.6415828092605835 56.9293
4.663900117405352 56.037
4.686235010953232 55.9606
4.708552674085913 55.4439
4.730887924602802 55.4742
4.753223354952695 56.5813
4.775541557023902 56.9495
4.797877349456786 57.7446
4.820195915032126 59.361999999999995
4.842532072957498 60.9095
4.864868414979744 62.34
4.88718753227192 64.7849
4.909524244902505 67.0384
4.931843734218147 70.0387
4.954180820867835 74.0056
4.976518095879839 78.1182
4.998838149695359 83.0599
5.021175803844231 91.3603
5.043496238205739 101.927
5.065834274903528 114.137
5.088172504230693 125.609
5.1104935158799565 136.211
5.132832132875765 151.453
5.155153533596801 172.003
5.1774925416746225 201.73
5.199814334878411 251.30700000000002
5.2221537374521505 340.116
5.244493338631803 482.75199999999995
5.266815727034316 689.2130000000001
5.289155727832427 993.383
5.311478517248165 1573.98
5.333818921080011 2579.72
5.356159527788849 3938.08
5.3784829252032536 4109.72
5.400823940070432 2975.37
5.423147747031976 1550.34
5.445489173474152 747.308
5.467830807066149 434.994
5.490155234831516 305.954
5.512497285125229 233.84400000000002
5.534822130975162 192.52599999999998
5.557164601388673 164.31599999999997
5.579489868738879 142.993
5.601832762690846 128.749
5.6241758697774475 119.77
5.646501775867269 113.476
5.668845311622074 108.775
5.691171647754637 105.936
5.713515615597765 103.02
5.735859800852677 100.257
5.758186788542988 96.7522
5.780531411018185 95.4625
5.802858837297399 94.1622
5.825203900414495 94.2047
5.8475491852224 95.771
5.869877275883075 97.8552
5.892223006467101 102.551
5.914551544266608 107.068
5.936897724049891 113.211
5.959244129804903 122.214
5.981573344815301 136.674
6.0039202049061 157.761
6.026249875609095 190.847
6.04859719346037 238.685
6.070927323278297 305.647
6.093275102315365 400.774
6.115623113320588 507.39300000000003
6.137953938319995 682.7410000000001
6.160302415650845 983.2
6.182633708324452 1242.59
6.2049826554078376 1231.57
6.227331838745022 914.79
6.249663839443684 580.8430000000001
6.27201349767565 374.029
6.294345974611799 259.935
6.316696111167083 186.2
6.339046488263839 142.58
6.361379686074702 116.501
6.383730546639482 99.5611
6.406064229255215 87.2482
6.428415576718203 79.9747
6.450749747566656 73.8501
6.47310158535871 68.7777
6.495453669698332 64.9184
6.517788579421056 62.6822
6.540141159237969 59.5293
6.562476565766648 57.9505
6.5848296444934045 56.4554
6.607182974060425 55.3416
6.6295191323281015 54.9956
6.651872965955752 53.9582
6.6742096296068985 53.8489
6.6965639707294615 53.5767
6.71891856698715 52.9494
6.741255995248479 52.8425
6.763611104154477 53.0863
6.785949046381137 52.8609
6.808304671371482 52.0382
6.8306605557940046 51.5216
6.852999275508618 50.7367
6.875355681171544 50.6329
6.897694923437771 49.8654
6.92005185377892 49.69
6.9423916220322655 49.3865
6.964749080490181 48.5729
6.987106804399774 48.6455
7.009447368180821 48.477
7.031805625367033 48.1681
7.054146723727803 48.8045
7.076505517631004 48.9339
7.098864581288365 49.461000000000006
7.121206488070854 50.4132
7.143566093607822 50.928000000000004
7.165908543567245 52.028999999999996
7.188268694426048 52.8665
7.2106291193438095 53.9688
7.232972390625943 55.8859
7.255333366030969 57.4034
7.277677189091925 59.8634
7.300038718428332 63.2469
7.322400526130865 66.2241
7.344745183422596 69.7185
7.367107550224791 71.8837
7.389452767901992 72.133
7.411815697249891 71.0443
7.434161478756298 67.9715
7.456524974096713 65.4565
7.478888753837185 64.277
7.501235387657368 63.0095
7.523599738562711 64.2663
7.545946944825532 70.5626
7.568311870344528 89.9681
7.5906770845765665 131.747
7.613025156078678 168.657
7.635390950099687 152.535
7.657739602662809 104.90100000000001
7.680105979923558 68.3014
7.702472650212829 52.812
7.724822180948224 47.0773
7.747189439655568 44.5924
7.769539560075357 42.7883
7.791907410653562 41.5769
7.81425812420825 40.7036
7.836626570110925 40.2747
7.858995315087906 39.9121
7.881346924933401 39.8321
7.903716270417482 39.3681
7.926068482028405 39.0347
7.948438431475253 39.299
7.9708086843180235 39.1908
7.993161805171116 39.260999999999996
8.015532667162402 39.5457
8.037886398416653 39.9207
8.060257873014221 40.0071
8.082629655331942 40.3367
8.104984308787587 40.7127
8.127356708900503 41.3728
8.149711981398308 41.6491
8.172085002766314 41.9534
8.194458336181368 42.5706
8.216814543847752 43.1833
8.23918850371002 44.1024
8.26154533906492 44.7848
8.283919928836452 45.7839
8.306277395339652 46.4707
8.328652618483376 47.3477
8.351028159736202 48.8157
8.373386579575245 50.8908
8.395762759396959 52.3797
8.418121819038275 54.6789
8.440498640894003 57.7282
8.462875785192262 61.4366
8.485235811156207 65.7309
8.507613602688501 72.0351
8.529974277114228 80.9634
8.552352719347912 92.1517
8.574731488360351 110.97399999999999
8.59709314210385 139.73
8.619472567021075 170.29
8.64183487789147 196.025
8.664214962183097 231.93599999999998
8.686577933647762 301.43
8.708958680784317 433.889
8.731339760774953 617.503
8.753703729764451 790.07
8.77608547780821 769.3660000000001
8.798450116065078 585.419
8.820832535634787 381.69800000000004
8.843215292401656 242.308
8.865580941199045 166.89
8.887964374703538 128.063
8.910330701447199 105.551
8.932714815164482 91.1997
8.955099270424924 81.5176
8.977466620733543 75.5229
8.999851761421976 71.3995
9.022219798361645 67.4828
9.04460562795561 64.991
9.066991803441677 62.9485
9.089360876979615 61.3166
9.111747746589993 59.8609
9.13411751544971 58.7399
9.156505082664324 58.3398
9.178875550323522 58.5855
9.20126381862328 60.4204
9.223652438908596 63.751000000000005
9.246023961427412 72.6693
9.26841328802173 98.5389
9.290785518039224 157.101
9.313175554425882 237.10299999999998
9.335565947154315 267.655
9.357939245086508 210.89
9.380330352834827 130.359
9.40270436697103 81.9395
9.425096193225055 62.6525
9.447488380180165 56.6027
9.469863475295412 53.1829
9.492256385987508 51.4831
9.514632206018318 50.464
9.537025843935714 49.5517
9.559402392368193 48.9106
9.581796761000229 49.0916
9.604191496441521 48.9633
9.626569144158516 48.748999999999995
9.648964615551032 49.1749
9.671343000390081 49.1668
9.693739211225699 49.9289
9.716135793237463 50.4841
9.738515290448102 50.7598
9.760912617143402 51.2985
9.783292860202891 52.1071
9.805690935076182 52.8945
9.828089385495742 53.6748
9.850470754023561 55.1425
9.872869957865444 56.5685
9.89525208097539 58.5222
9.917652041736662 60.8824
9.940052382417589 62.9883
9.962435644102392 66.4967
9.984836746950979 71.1267
10.007220771957746 77.2145
10.029622640473708 86.6845
10.052007432299963 101.125
10.074410069984072 119.238
10.096813093716005 143.928
10.119199042482517 166.31599999999997
10.141602840636468 184.84900000000002
10.163989564971628 209.18099999999998
10.186394141051062 263.445
10.208799107559706 366.287
10.231187001965623 525.457
10.253592751657669 728.102
10.275981430388155 831.16
10.298387966769793 733.312
10.320794897965431 542.139
10.343184759907361 350.6
10.36559248305461 225.045
10.387983138083852 158.637
10.410391656691655 123.994
10.432800574501677 103.23100000000001
10.455192425893369 90.67200000000001
10.47760214443012 84.5781
10.499994797678786 81.5852
10.522405320453982 81.7806
10.54479877906917 85.4795
10.567210109595656 87.881
10.5896218454736 89.8221
10.612016518879773 93.2841
10.634429067781074 102.439
10.656824555333241 122.867
10.679237920773568 163.564
10.701651695961992 225.995
10.724048411481384 286.66200000000003
10.746463008485165 302.01099999999997
10.768860546937125 267.3
10.791275969274796 198.946
10.81369180576079 135.873
10.836090585366925 92.8851
10.858507252467449 69.2046
10.88090686379991 58.6293
10.903324365036394 52.8681
10.925724811614439 49.1951
10.948143150509463 47.3159
10.970561909719066 45.5204
10.992963615930844 44.3915
11.015383218085756 43.3161
11.037785768347074 42.5878
11.06020621697282 42.126000000000005
11.082627090322113 41.7487
11.105030913430326 41.5053
11.12745263854165 41.1169
11.149857314510728 40.3257
11.172279894912576 40.9573
11.194702904450653 40.1991
11.217108866490921 40.0055
11.239532736615194 40.0389
11.26193956033512 40.0148
11.284364294577085 39.774
11.306789462371718 39.7892
11.329197585398376 39.7188
11.351623622610898 39.7754
11.37403261614354 39.2246
11.396459526308487 39.0655
11.418869393879497 38.8626
11.441297180532617 38.728
11.463725406927658 38.6355
11.486136592353875 38.1468
11.508565700543707 37.9218
11.530977768845315 37.8556
11.553407762368774 37.3852
11.575838200059769 37.3573
11.598251599479612 37.3585
11.620682927815501 37.4153
11.64309721895548 37.3991
11.665529441478206 37.2895
11.687962112597958 37.1071
11.710377748130886 37.1248
11.732811318753434 36.9055
11.755227854859067 37.0164
11.777662328529495 36.9915
11.800079768750786 36.7592
11.822515149015453 36.8725
11.844950984084935 37.4709
11.867369787303163 37.34
11.889806534289491 37.7877
11.912226250487029 38.8975
11.934663912939751 40.041
11.9571020346363 42.9277
11.979523127133968 48.9029
12.001962169624331 62.562
12.024384183972964 80.7527
12.046824150809913 96.2098
12.069264581333726 95.4534
12.091687985297767 78.577
12.11412934550045 60.3447
12.136553680195208 50.0427
12.158995973632788 46.66
12.181438735204349 46.1312
12.20386447284199 46.5719
12.226308172985636 47.5298
12.24873485024193 48.9089
12.271179492516982 51.2138
12.293607112949127 55.4535
12.316052700916226 62.1613
12.338498763250042 72.77199999999999
12.360927805303868 84.83200000000001
12.383374818673879 95.4637
12.405804812803074 98.5625
12.428252780773262 91.2326
12.45070122756722 77.7103
12.473132656675375 65.2455
12.49558206341869 56.4371
12.518014453510101 50.5121
12.540464823770117 46.5179
12.562915677315177 44.0813
12.58534951575545 42.3941
12.607801338171472 41.0935
12.630236146511358 40.2843
12.652688941369085 39.73
12.675124723177234 39.4457
12.697578494048786 39.2552
12.720032754458185 39.0735
12.742470003354093 39.2738
12.764925245138771 39.4687
12.787363476431278 39.2145
12.809819703166806 39.2519
12.83227642391173 39.3859
12.854716135692716 38.8985
12.877173846755147 39.0312
12.899614549869717 38.9899
12.9220732548287 39.0867
12.94453245827299 38.8911
12.966974655289818 38.9189
12.989434858002571 39.1987
13.011878055298721 39.3965
13.034339260862497 39.3755
13.056800969391883 39.9045
13.079245674017244 40.8374
13.101708390774869 41.5653
13.12415410463411 43.243
13.146617833206086 46.8092
13.169064559883248 52.0851
13.191529303857127 57.5117
13.213994557076367 61.3382
13.236442809902437 61.6853
13.258909083908291 61.6057
13.28135835851934 62.3635
13.30382565690295 64.9312
13.326293469022952 67.6127
13.348744283242008 69.9134
13.371213125129904 74.074
13.39366497011003 81.6402
13.416134845360597 94.3891
13.438605238843131 116.70299999999999
13.46105863690397 150.49200000000002
13.483530069144786 193.082
13.505984506951902 226.782
13.528456981549432 232.418
13.550929978879088 204.114
13.573385983253365 164.69799999999998
13.595860028340867 128.412
13.618317081455832 105.132
13.64079217790333 92.3306
13.663250283359057 85.7367
13.685726434770173 81.2587
13.708203115221277 79.5165
13.730662806148091 80.9155
13.75314054697177 87.2256
13.775601299246777 100.706
13.798080104050406 124.838
13.820559442405358 163.113
13.843021793671388 200.33599999999998
13.865502201420897 219.82299999999998
13.887965623051947 207.737
13.910447103807167 167.581
13.932929122629764 124.368
13.955394156785959 93.0105
13.977877254034569 72.6069
14.000343367582113 60.5787
14.022827546871707 53.8697
14.045294743423524 49.3333
14.06778000837062 46.3732
14.090265817715476 44.9228
14.112734645763819 43.7596
14.13522154619454 43.3152
14.157691466286913 44.3966
14.180179461423874 47.4325
14.202668005486178 55.3165
14.22513957064374 68.1673
14.247629214846473 83.4472
14.270101881097517 92.0836
14.29259262906496 85.8655
14.315083930490205 70.1523
14.337558255389705 54.8317
14.360050666019726 45.1267
14.382526101071944 40.5376
14.405019624534942 38.5155
14.427513705993134 37.4846
14.449990813291825 36.9289
14.47248601302899 36.7298
14.49496423954951 36.3382
14.517460561197822 36.0615
14.539939910570322 35.7067
14.562437357763558 35.6285
14.58493536931253 35.5654
14.607416409993311 35.3766
14.62991555254159 35.3394
14.652397725157423 35.5472
14.674898002342799 35.7553
14.697398848433282 35.817
14.719882725991326 36.1821
14.74238471217934 36.1284
14.764869730765593 36.6267
14.787372860692983 36.7447
14.809876564079925 37.4021
14.83236330125751 38.0499
14.854868153850365 38.8216
14.877356041159485 40.1553
14.899862046604186 41.8377
14.922351087688757 43.7928
14.944858249632887 45.8729
14.967365991421232 47.4667
14.989856770231246 48.533
15.012365673994204 49.505
15.03485761569738 51.0783
15.05736768508665 54.2425
15.07987833888692 59.4264
15.102372032001655 67.9659
15.124883856909658 80.6982
15.14737872204565 100.05
15.169891721717274 120.367
15.192405310371893 133.569
15.214901940621196 133.755
15.237416709527137 118.714
15.259914520936249 97.7311
15.282430473753607 78.8591
15.304947020131227 64.6777
15.327446610371178 54.8855
15.349964346154254 48.6652
15.372465126703139 45.151
15.394984055556009 42.8329
15.417486030076159 41.033
15.44000615566487 39.7335
15.462526881230803 38.9535
15.485030653812652 38.4357
15.507552581617434 37.7285
15.530057557334603 37.4293
15.55258069104857 37.1924
15.575104429329837 37.1312
15.597611216864632 37.0306
15.620136166564563 36.7042
15.6426441664095 36.5118
15.665170331202765 36.6267
15.687697105158826 36.8064
15.710206930593545 37.2121
15.732734925158933 37.5522
15.755245972089478 38.1216
15.77777519094324 38.9411
15.800287463046663 40.17
15.822817909869592 41.9328
15.84534897229804 43.5515
15.867863089299354 45.3031
15.890395385222186 46.6007
15.912910736597423 47.0874
15.935444269699861 47.9337
15.957978423016485 50.1243
15.980495633101265 53.1603
16.003031029129367 58.5123
16.02554948280019 67.0845
16.048086125229432 79.9505
16.070623392487107 97.6072
16.09314371869582 116.738
16.11568223789321 132.287
16.13820381691126 136.705
16.160743591742527 128.696
16.183283996022084 112.346
16.205807461423195 93.2331
16.228349126881973 75.0679
16.25087385432698 60.983999999999995
16.27341678466365 51.1129
16.29594277784926 45.0598
16.31848697676433 41.3173
16.341031811604868 38.6779
16.36355971058487 37.2327
16.3861058195587 36.064
16.40863499352978 34.9336
16.431182380342005 34.1214
16.453730407713202 33.4104
16.476261501364792 32.9871
16.498810812136167 32.5468
16.52134319004079 32.5484
16.54389378792203 32.1545
16.566445031001553 31.7672
16.588979342490088 31.5872
16.61153187824822 31.3511
16.634067483263312 31.164
16.656621315414416 31.0167
16.679175797408888 30.6581
16.701713349928728 30.6583
16.72426913389191 30.5539
16.74680798922351 30.6005
16.76936507887444 30.5469
16.791905240734874 30.5543
16.814463639794468 30.4228
16.837022695210294 30.3938
16.859564824093756 30.4312
16.882125194503903 30.4896
16.904668639217885 30.7456
16.927230328348003 30.6808
16.949792678493612 31.2433
16.972338104193863 31.8075
16.994901778652235 33.1174
17.017448529496576 35.4732
17.040013531998152 38.0598
17.06257920018044 39.8579
17.0851279459922 40.1592
17.107694947817667 38.4355
17.130245028099072 35.9448
17.15281336730298 33.9708
17.17536478578733 32.696
17.19793446610687 32.0332
17.220504818648422 32.0367
17.243058251703697 32.1451
17.265629950971032 32.6292
17.288184731571736 32.9561
17.310757781306908 33.2497
17.33333150794385 33.2736
17.355888317140174 33.4607
17.37846339986244 33.8066
17.401021565958885 34.2681
17.42359800851343 35.3073
17.44617513265564 36.6852
17.468735341390783 38.9626
17.491261035594565 41.9459
17.51396340099364 46.0473
17.536490463869136 50.2011
17.559018209820174 52.6342
17.58154663977963 52.4931
17.604251766089718 49.3129
17.626781572227713 44.9994
17.64931206518155 41.0822
17.671843245885103 37.9836
17.69455114821572 35.9568
17.717083712612634 34.9296
17.739616967569667 34.1724
17.762150914021706 33.8631
17.78486160749854 33.8468
17.807396945166804 34.3572
17.829932977143503 35.4033
17.85246970436452 37.1778
17.875183204129467 39.4953
17.897721330097664 41.4639
17.920260154126645 42.2792
17.942799677153296 41.3569
17.9655159983646 39.5805
17.988056927677544 38.2765
18.010598558807683 38.1409
18.033140892692916 38.7087
18.05586005052525 39.5398
18.07840379824407 40.5065
18.10094825154059 41.3429
18.12366954819864 41.8801
18.146215420998306 42.2282
18.16876200220057 42.9525
18.191309292745153 44.1005
18.214033452627167 46.681999999999995
18.236582170236648 50.1356
18.259131600016456 55.5163
18.281681742907335 63.9396
18.304408781233683 75.8275
18.32696035875955 89.7342
18.349512652227624 102.654
18.372065662579683 110.605
18.394795594587553 107.84200000000001
18.41735004715306 96.7949
18.43990521943684 83.1723
18.46246111238171 70.7941
18.485193953325208 61.9843
18.507751296070428 57.8067
18.530309362314178 57.3665
18.552868153000343 59.6174
18.57560391815056 64.2935
18.59816416623245 71.34899999999999
18.620725141597372 77.6377
18.643286845190268 79.8587
18.666025549835414 77.2693
18.688588718427933 70.6681
18.711152618092243 62.8467
18.73389353884365 55.1723
18.75645890921984 48.3113
18.77902501351406 43.2832
18.801591852673102 39.8853
18.824335739722738 37.3985
18.846904057212626 35.9946
18.8694731124168 34.9965
18.89204290628315 34.466
18.914789774966803 33.8765
18.937361054791623 33.381
18.959933076131318 33.0676
18.982505839934877 32.6113
19.00525570560582 32.431
19.027829963004184 32.2081
19.05040496572238 32.2937
19.072980714710468 32.0899
19.095733592739563 31.8209
19.11831084296757 31.7835
19.140888842324735 31.6904
19.16346759176222 31.7292
19.18622349753803 31.6805
19.208803755869358 31.8568
19.231384767143577 32.2528
19.253966532312948 32.4787
19.276725481241822 32.8656
19.29930876296784 33.1323
19.3218928014549 33.8237
19.34465404436217 34.4132
19.36723960516257 35.5016
19.389825925592426 36.8577
19.412413006605938 39.2333
19.43517731967805 42.9432
19.457765930683355 46.4333
19.48035530514408 48.997
19.50294544401556 49.528
19.525712842708348 47.9672
19.54830451925909 46.3805
19.570896963095727 45.5542
19.593490175174704 46.7883
19.616260674962184 49.2208
19.638855432416964 50.578
19.661450960992624 50.818999999999996
19.68404726164677 49.0049
19.706820878021247 45.4797
19.729418731756834 42.0065
19.752017360452857 38.6712
19.77461676506804 36.2492
19.797393513540218 34.3731
19.819994478951667 33.3311
19.84259622316767 32.5415
19.8651987471481 32.0188
19.887978643247177 31.3847
19.91058273574792 30.9795
19.933187610901943 30.7231
19.955969879466828 30.8048
19.97857632894404 30.8302
20.00118356396599 30.869
20.023791585494575 31.0804
20.046577028914875 31.3442
20.069186632506966 31.3905
20.091797025500632 31.5468
20.114408208858933 31.47
20.137196842715273 31.6584
20.159809615886765 31.8424
20.18242318232135 32.0523
20.20503754298326 32.622
20.227829382875154 33.5591
20.250445341109344 34.7956
20.27306209647285 36.4452
20.29567964993108 38.7769
20.31847471147704 41.5863
20.34109387027612 44.8681
20.363713830075454 47.6602
20.386334591841646 49.0478
20.409132890679302 48.534
20.431755265564437 46.2519
20.454378445325528 43.2935
20.477002430930366 40.8725
20.499803982716553 39.541
20.522429589228004 39.3864
20.54505600449589 40.3278
20.567683229489194 42.8129
20.590488049900088 44.9874
20.61311690359731 46.3508
20.63574656993626 46.1516
20.658553853717297 44.0764
20.681185154618298 41.001999999999995
20.703817271080066 37.7307
20.72645020407368 34.7633
20.749260783967177 32.9695
20.771895359337133 31.8214
20.794530754161617 30.8399
20.817166969412938 30.5951
20.83998086114876 30.5926
20.86261872660049 31.0656
20.885257415405402 32.06
20.90789692853701 32.9672
20.930714147864748 33.9151
20.953355319030678 33.9725
20.97599731745334 33.0692
20.99864014410749 31.5348
21.021460706796564 30.0866
21.044105199328826 28.9599
21.06675052302631 28.4854
21.089396678865015 28.0524
21.112220600704806 27.8903
21.134868430275347 27.7387
21.15751709492456 27.6147
21.180166595629693 27.5334
21.202993892429635 27.5181
21.22564507473034 27.575
21.24829709602816 27.5526
21.27112693608965 27.4908
21.293780644891275 27.615
21.316435195634053 27.6038
21.339090589297417 27.4063
21.361923832041875 27.5908
21.384580921090404 27.7371
21.407238856007325 27.8416
21.429897637773326 28.3499
21.45273429906592 28.9641
21.475394784108598 29.7052
21.498056118951983 30.6607
21.520718304578022 31.7038
21.543558400304388 32.2162
21.566222297108816 32.671
21.58888704765135 32.4097
21.61155265291521 31.7617
21.63439619898156 31.0414
21.657063523335786 30.2634
21.67973170537063 29.7315
21.7024007460706 29.1721
21.72524775840385 28.8092
21.747918526116475 28.6422
21.770590155457388 28.8124
21.79326264741238 28.8989
21.816113141960237 29.1592
21.838787368860547 29.4449
21.861462461341976 29.7872
21.884315579735777 29.9672
21.90699241312273 29.968000000000004
21.92967011506078 30.0256
21.95234868653799 30.4977
21.9752053151131 30.8156
21.997885635446785 31.3451
22.020566828293532 32.0058
22.04324889464272 32.9059
22.066109049404666 34.0115
22.088792872571794 35.717
22.111477572219204 37.6997
22.1341631493376 40.175
22.157026846313123 43.6031
22.179714188221507 47.2308
22.202402410582668 50.5869
22.22509151438863 52.2223
22.24795876962584 52.3741
22.270649646204486 50.8867
22.293341407213727 48.5135
22.316034053646906 46.0466
22.338904883215342 44.0096
22.36159931041458 42.5262
22.38429462602756 41.5513
22.40699083104897 41.0557
22.429865251039757 40.7895
22.452563244831367 40.2086
22.47526213102522 38.9715
22.49813925616515 36.972
22.520839937143307 34.9885
22.543541513520587 33.4337
22.56624398629403 32.0559
22.589124730075895 31.13
22.611829005656723 30.5796
22.63453418063466 29.8241
22.657240256008077 29.3874
22.680124634582935 29.2081
22.70283252079775 29.0825
22.725541310413075 28.8782
22.74825100442868 28.8377
22.771139033969575 28.9259
22.79385054687155 28.8432
22.81656296718292 28.9052
22.83927629590484 29.0876
22.862167992606945 29.4699
22.88488314827121 30.0614
22.907599215359284 30.6492
22.93031619487366 31.2941
22.953211574954405 31.6936
22.975930389478226 31.9156
22.998650119445763 31.6726
23.02137076586092 31.1102
23.044269845560063 30.8115
23.06699233506288 30.6319
23.089715744034912 30.6364
23.112617610931565 31.0009
23.135342869061212 31.7262
23.158069049684816 32.5686
23.1807961538087 33.8164
23.20370174880544 35.8167
23.226430710184808 38.4494
23.249160598093425 41.2877
23.271891413539002 43.583999999999996
23.294800752937697 44.9117
23.31753343374794 44.8485
23.340267045128353 43.2405
23.36300158808808 40.5543
23.38591468821339 37.6183
23.408651104658304 35.2083
23.431388455719986 33.7203
23.454126742409 32.7808
23.4770436196085 32.4079
23.499783787914662 32.4312
23.522524894889884 32.8976
23.54526694154616 33.5653
23.56818761219047 34.5337
23.59093154860734 34.8405
23.613676427751283 35.1827
23.636422250635754 34.6275
23.659346731118656 33.7747
23.68209445191868 33.1038
23.704843119509587 32.5224
23.72759273490623 32.3559
23.750521041644767 32.8568
23.77327256312355 33.6754
23.796025035462787 34.8395
23.818956224555475 36.7179
23.841710609113413 39.3361
23.86446594758979 42.2355
23.887222241002014 45.3904
23.910157285144578 47.1493
23.932915498962537 47.7409
23.955674670778713 46.2601
23.978434801611975 43.1991
24.001373717286125 39.6856
24.024135776723917 36.1976
24.046898798245582 33.7342
24.06966278287146 31.9285
24.092605586582614 30.5828
24.115371508023642 29.5615
24.1381383956401 29.0289
24.16090625045381 28.8744
24.183852958731244 28.6824
24.206622758582608 28.5513
24.229393528706886 28.1875
24.252165270127392 28.0357
24.27511589952438 27.6818
24.297889594216997 27.0614
24.32066426328598 26.5929
24.34343990775613 26.4669
24.36639447485003 26.1419
24.38917208083877 25.9594
24.41195066531332 25.8338
24.43490819850244 25.8122
24.457688750692377 25.5909
24.48047028445616 25.5567
24.503252800821233 25.6016
24.526214300784112 25.4789
24.548998793132213 25.4616
24.57178427117417 25.3763
24.59457073593893 25.311999999999998
24.617536219319863 25.3636
24.64032466834748 25.4053
24.663114107195035 25.409000000000002
24.685904536893013 25.3271
24.708874020360852 25.6109
24.731666442613744 25.9949
24.754459858818787 26.3126
24.777254270007962 26.8585
24.80022777025625 27.3476
24.82302418230472 27.6871
24.845821592443674 27.8206
24.86862000170663 27.6797
24.891597535453727 27.1816
24.914397953892728 26.9007
24.93719937456671 26.5475
24.96000179851076 26.191999999999997
24.98298338249997 25.9168
25.00578782394922 25.8255
25.028593271784167 25.5646
25.05157790644186 25.5663
25.07438537804115 25.3327
25.097193859145293 25.3162
25.120003350792075 25.3461
25.142992065061257 25.3898
25.165803588823465 25.3649
25.18861612625217 25.3309
25.211429678386736 25.3451
25.234422489079968 25.5441
25.257238081693636 25.7567
25.280054692141732 26.0176
25.3028723214652 26.1473
25.325869245420463 26.4728
25.348688923599397 26.9135
25.371509623787006 27.2804
25.394331347025812 27.846999999999998
25.41733240110666 28.4211
25.440156181590016 28.9072
25.46298098826268 29.771
25.48580682216873 30.3859
25.50881202326435 30.6542
25.53163992281684 30.8376
25.55446885274561 30.8152
25.577298814096377 30.7389
25.600308179121807 30.8812
25.623140214533745 31.3967
25.64597328451537 32.1125
25.66898578564376 32.7282
25.691820936010206 33.4389
25.714657124097695 33.5766
25.737494350954734 33.0353
25.760511045684957 31.897
25.783350361364224 30.5693
25.806190718969255 29.1739
25.82903211955018 28.0715
25.852053024868923 27.2048
25.874896522722523 26.6877
25.897741066713106 26.3964
25.920586657892454 26.4259
25.943611790812668 26.4964
25.966459487728237 26.5902
25.989308234998564 26.5283
26.01215803367705 26.6221
26.03518741123814 26.5118
26.05803932412957 26.1729
26.080892291600094 25.802
26.10374631470478 25.511
26.12677995397268 25.2165
26.14963609978026 25.1306
26.172493304397875 24.9701
26.19535156888223 25.1611
26.218389486949604 25.0436
26.241249882640123 25.1116
26.26411134137826 25.2766
26.28715248187403 25.4628
26.31001607820869 25.5854
26.3328807407756 25.9091
26.35574647063438 26.5542
26.37879191991473 27.0456
26.401659795896734 27.9175
26.424528742360263 28.6812
26.447398760366614 29.2422
26.470448535598294 29.3403
26.49332070826805 29.2088
26.516193955675355 28.8748
26.53906827888316 28.2809
26.562122397260108 27.4909
26.584998883685063 26.9222
26.607876449110325 26.5458
26.63075509460056 26.0787
26.65381357334404 25.7942
26.67669439061878 25.5717
26.699576291163382 25.531
26.722459276044212 25.5099
26.745522132402975 25.5459
26.768407297649354 25.7947
26.791293550442003 25.7617
26.814180891848974 25.8785
26.837248143099337 26.0924
26.860137673466657 26.4986
26.88302829566349 26.9831
26.90592001075963 27.6394
26.92899167420566 28.4453
26.951885586870763 29.4066
26.974780595655517 30.6235
26.99785558178161 31.5747
27.020752794605112 32.2503
27.043651106772522 32.534
27.06655051935668 32.4971
27.089629948036183 32.1007
27.112531573292053 31.5554
27.135434302194138 31.2861
27.158338135817015 30.6394
27.181422024430987 30.0821
27.204328079372566 29.3011
27.22723524226965 28.4819
27.250143514198573 27.7164
27.273231880156334 27.0244
27.296142382065014 26.2917
27.319053996245536 25.6311
27.341966723775965 25.2369
27.365059584515222 24.9439
27.38797455070062 24.741999999999997
27.410890633481237 24.4114
27.433807833936918 24.2629
27.456905206923906 24.1765
27.47982465472398 24.2202
27.502745223449743 24.0041
27.525666914182825 24.0399
27.548768816912457 24.086
27.571692763693633 23.9999
27.59461783573812 23.9665
27.617723149491244 23.9902
27.640650484125285 24.179000000000002
27.66357894728264 24.2764
27.686508540048052 24.2573
27.709618414237887 24.2936
27.732550278321757 24.183000000000003
27.755483275279115 24.3009
27.778417406196485 24.3416
27.801531858397514 24.4461
27.824468269376716 24.5681
27.847405817586786 24.8776
27.870344504116094 25.3773
27.893463551932008 25.5831
27.916404527281053 25.877
27.93934664422563 25.9836
27.962289903855886 25.7082
27.98541356491974 25.5038
28.00835912214229 25.266
28.03130582533231 25.0035
28.054253675581805 24.7852
28.077381967556104 24.7393
28.100332124185126 24.7949
28.123283431160893 24.9002
28.146235889577238 25.2104
28.169368830154156 25.5847
28.192323603752033 26.0255
28.215279532083304 26.1636
28.238415973016764 26.2646
28.261374223145094 26.2753
28.284333631303806 26.2324
28.307294198589954 26.3676
28.330435319167677 26.5865
28.353398217078915 27.0867
28.376362277420153 27.8297
28.39932750129032 28.6696
28.422473319286713 29.573
28.44544088262495 30.0794
28.468409612800283 30.2119
28.491379510913497 29.8463
28.51453004413313 29.3369
28.53750229057244 28.8385
28.56047570826344 28.3397
28.583450298308804 28.1684
28.606605564586562 27.8555
28.629582511831156 27.8165
28.65256063474956 27.449
28.675539934446338 26.9124
28.698699951647605 26.3464
28.72168161743193 25.7911
28.74466446331978 25.2953
28.767648490417624 24.7113
28.790813276438353 24.2786
28.813799678527303 23.8311
28.836787265157085 23.4826
28.859955641890075 23.1286
28.882945610203045 22.9861
28.905936766392035 22.7728
28.928929111566863 22.5352
28.952102288520145 22.4714
28.975097024308607 22.4172
28.998092952423807 22.4064
29.021090073977508 22.2068
29.04426806913204 22.2177
29.067267590245258 22.1883
29.090268308143695 22.125
29.11327022394099 22.1801
29.13645305530891 22.1932
29.159457379627167 22.3441
29.18246290519685 22.4265
29.20546963313352 22.6313
29.22865731875826 22.8931
29.25166646419296 23.0186
29.27467681535305 23.261999999999997
29.29768837335608 23.3688
29.320880931312562 23.4177
29.34389491580634 23.2704
29.366910110507334 22.8939
29.38992651653503 22.7389
29.41312396492981 22.4659
29.436142806456754 22.2863
29.45916286268059 21.9501
29.48236399319994 21.7541
29.50538649169417 21.729
29.528410208259935 21.6846
29.55143514402014 21.6033
29.574641196749695 21.5911
29.597668583816574 21.5795
29.6206971934585 21.666
29.64372702680042 21.767
29.666938019934474 21.8362
29.689970313635285 21.9594
29.713003834422636 22.1554
29.73603858342347 22.2944
29.759254535188578 22.6699
29.78229175361658 22.7556
29.80533020365064 23.0764
29.82836988641968 23.1037
29.85159081507472 22.8124
29.874632976355343 22.6468
29.89767637376955 22.4
29.920721008448314 21.9568
29.9439469322847 21.5683
29.96699405457564 21.3842
29.9900424175358 21.2683
30.013092022298157 21.1021
30.03632295963995 20.9962
30.059375061131373 20.9527
30.08242840783577 20.897
30.105483000888153 20.8901
30.128718970092244 20.8499
30.151776069006917 20.8554
30.17483441768648 20.9382
30.198074175317235 21.0728
30.221135036724256 21.1374
30.24419715131772 21.269000000000002
30.267260520236203 21.3038
30.290505341942243 21.4596
30.313571232750228 21.4222
30.336638381310948 21.1478
30.35970678876503 21.0432
30.38295669299435 20.927
30.40602763151657 20.8137
30.429099832366074 20.7719
30.452173296685572 20.6363
30.47542830191959 20.6897
30.498504306502497 20.7014
30.521581577995562 20.8585
30.544660117543582 20.9974
30.56792024229725 21.1566
30.59100133132069 21.2825
30.614083691845494 21.3884
30.637167325018545 21.4448
30.660432587840603 21.5288
30.683518779717886 21.494
30.70660624769615 21.4235
30.729694992924372 21.3352
30.75296541239743 21.1317
30.77605672557558 20.9856
30.799149319462742 20.9589
30.8224236211637 20.9047
30.845518789950724 20.8888
30.868615242910597 20.9168
30.891712981195973 20.9107
30.91499247215866 20.925
30.938092794619365 21.1004
30.96119440587579 21.1698
30.984297307082752 21.3352
31.00758200598383 21.6417
31.030687500658694 21.8847
31.053794288760695 22.2401
31.076902371446767 22.7509
31.100192296997445 23.2112
31.12330298246119 23.6039
31.14641496599209 23.7654
31.169528248749216 23.8356
31.19282341969534 23.683000000000003
31.215939314557186 23.6005
31.239056512134788 23.3571
31.262175013589378 23.1228
31.28547544871168 22.8152
31.30859657161541 22.5352
31.331719001892175 22.2589
31.35484274070538 21.9006
31.378148458819545 21.516
31.401274828443725 21.154
31.424402510106933 21.0222
31.447712205419993 20.8412
31.470842524931633 20.5724
31.493974159989783 20.5284
31.51710711176168 20.415
31.54042212308802 20.3677
31.563557722100917 20.3795
31.586694641341655 20.3231
31.609832881979628 20.2909
31.63315322823208 20.3611
31.656294125521327 20.3935
31.679436347728515 20.45
31.70257989602529 20.5356
31.725905596152327 20.6633
31.74905181052835 20.6942
31.772199354521323 20.8726
31.79534822930507 21.0999
31.818679302290967 21.2026
31.84183085259981 21.3733
31.864983737233473 21.6923
31.88813795736804 21.8898
31.911474422233013 21.9857
31.934631327356435 22.0359
31.9577895715215 21.9768
31.980949155906522 21.7978
32.004291031706956 21.4018
32.027453310562606 21.2163
32.05061693318573 20.796999999999997
32.07396288236386 20.7073
32.09712920658542 20.5034
32.12029687812702 20.4302
32.14346589817093 20.3296
32.166817291729984 20.436
32.18998902288583 20.4457
32.21316210610336 20.477999999999998
32.23633654256711 20.5761
32.259693399663725 20.639
32.282870556771144 20.7161
32.30604907069099 20.9029
32.329228942610065 21.0506
32.35259128243769 21.2631
32.375773884550505 21.3627
32.398957848235646 21.5888
32.422143174682176 21.6024
32.445511016471215 21.3877
32.468699082679954 21.1838
32.49188851523011 21.0267
32.51507931531304 20.6892
32.538452678331 20.5414
32.56164622776311 20.4196
32.58484114831493 20.2624
32.60803744118015 20.1103
32.631416344731896 19.8506
32.654615396551876 19.7683
32.67781582427913 19.5286
32.701198898634416 19.3068
32.72440209253756 19.2028
32.747606665947124 19.0413
32.77081262006088 18.8664
32.79420126883317 18.8357
32.81740999876112 18.7933
32.840620112999424 18.6717
32.86383161274818 18.5152
32.88722585534586 18.5371
32.91044014056596 18.5947
32.933655814909734 18.5767
32.95687287957963 18.5896
32.98027273544904 18.5877
33.00349259526636 18.47
33.026713849030116 18.5498
33.04993649794511 18.5934
33.073341986570746 18.6596
33.09656744032826 18.812
33.11979429286444 18.8176
33.14302254538647 18.9011
33.166433686291185 18.7836
33.18966475336992 18.7446
33.212897224069096 18.6771
33.23613109959831 18.5366
33.259547912343415 18.4981
33.2827846121627 18.3581
33.306022720453775 18.3405
33.32926223842861 18.2713
33.352684742614166 18.3218
33.37592709463173 18.2863
33.399170859982064 18.3342
33.422597648419426 18.3101
33.44584425514446 18.416
33.46909227885668 18.4947
33.4923417207723 18.4854
33.51577423505344 18.7001
33.539026528130385 18.7391
33.56228024307245 18.9618
33.585535381098246 19.0915
33.60897364093058 19.1799
33.63223163992385 19.3172
33.6554910656699 19.4144
33.678751919389796 19.3954
33.702195944520106 19.401
33.72545966903325 19.5032
33.74872482519663 19.4794
33.771991414233746 19.4725
33.79544122444841 19.314
33.81871069412428 19.1641
33.84198160035767 18.8694
33.86525394437455 18.652
33.88870955949969 18.4145
33.911984794020626 18.2224
33.93526147001624 18.0666
33.958539588715006 17.9846
33.98200102861669 17.9079
34.0052820477047 17.7827
34.02856451319451 17.739
34.05203033759056 17.7443
34.07531571090147 17.7175
34.09860253431845 17.6217
34.121890809074316 17.6202
34.145362493118924 17.5861
34.16865368561615 17.4725
34.191946333164054 17.5033
34.21524043699793 17.5331
34.23871800066799 17.4787
34.26201503218366 17.5518
34.28531352370466 17.5907
34.30861347646881 17.6083
34.33209693978188 17.7237
34.3553998301885 17.7096
34.378704185565205 17.6586
34.402010007152356 17.5783
34.42549939016683 17.6486
34.44880815937748 17.5081
34.472118398533134 17.3572
34.49543010887669 17.2547
34.51892543169198 17.0971
34.54224009966052 17.1209
34.56555624255917 17.01
34.58887386163339 16.9896
34.61237514439016 16.915
34.6356957311114 16.9038
34.65901779775809 16.9363
34.68252356662995 17.0037
34.705848608458616 17.029
34.72917513396849 17.0529
34.75250314440949 17.1106
34.77601490857862 17.1389
34.799345904259795 17.1582
34.82267838863559 17.2126
34.846012362958525 17.1547
34.869530142679984 17.0507
34.89286711232212 16.9606
34.91620557568269 16.8876
34.93954553401677 16.7652
34.9630693495876 16.5995
34.986412313340814 16.5633
35.00975677584668 16.5437
35.033102738362956 16.5239
35.05663261012228 16.4365
35.0799815881786 16.3241
35.10333207003229 16.3169
35.12668405694369 16.2795
35.150220005273056 16.2835
35.17357501786656 16.249000000000002
35.19693153931268 16.1722
35.220289570874385 16.1185
35.24383161619786 16.1692
35.267192683604904 16.1975
35.290555264930376 16.2074
35.314101899412165 16.2681
35.33746752422433 16.2694
35.36083466676374 16.2079
35.38420332829803 16.2284
35.407756095629054 16.3629
35.43112781085063 16.329
35.45450104888391 16.2298
35.477875810999194 16.3011
35.50143473172161 16.2227
35.52481255774625 16.2709
35.54819191167777 16.2184
35.57157279478914 16.2314
35.595137889488406 16.2193
35.61852184675279 16.2196
35.641907337029984 16.2788
35.665294361595684 16.2989
35.68886565090076 16.2915
35.7122557598848 16.3135
35.73564740699838 16.4952
35.759040593519934 16.5428
35.78261809810353 16.5739
35.80601437933051 16.6644
35.829412203814705 16.7399
35.85281157283719 16.7892
35.876395313415884 16.9787
35.8997977874528 17.1174
35.92320180988546 17.1885
35.946790244133936 17.2123
35.97019737933222 17.2623
35.993606066789866 17.2501
36.01701630779276 17.0964
36.04061101440684 16.9991
36.06402437852291 16.9384
36.08743930005611 16.7802
36.1108557802951 16.5826
36.13445678011326 16.5179
36.15787639383515 16.3902
36.18129757014299 16.2023
36.20472031032821 16.018
36.22832762423364 16.0022
36.25175350829375 15.9693
36.275180960119776 15.7833
36.298609981005924 15.7471
36.32222362992669 15.7306
36.34565580510207 15.6639
36.36908955323448 15.6994
36.39252487562093 15.5764
36.416144880530226 15.5358
36.43958336764275 15.5718
36.463023432914625 15.6479
36.486465077645676 15.5494
36.51009145956204 15.5876
36.53353627947859 15.6301
36.55698268276811 15.7531
36.58043067073321 15.7192
36.60406345072071 15.7211
36.62751462435344 15.7962
36.65096738658405 15.8031
36.67460498210655 15.808
36.69806093788647 15.8133
36.72151848619297 15.6922
36.744977628333636 15.6219
36.76862165890998 15.4741
36.79208400512205 15.4625
36.81554794910557 15.4486
36.83901349217101 15.3547
36.862663978991606 15.2426
36.88613273667352 15.2634
36.90960309738324 15.3517
36.933075062434064 15.2478
36.95673202673572 15.3023
36.98020721697122 15.3625
37.003684015502365 15.3539
37.027162423645365 15.3675
37.050825886711465 15.409
37.07430753063053 15.4325
37.09779078812467 15.4423
37.121275660513014 15.4912
37.144945643673694 15.4418
37.16843376245278 15.3129
37.19192350009803 15.3177
37.215414857931435 15.1936
37.239091382563885 15.172
37.262585997426164 15.1051
37.28608223645736 15.0087
37.309763684451696 14.9229
37.33326318851098 14.7926
37.356764320726555 14.7199
37.380267082425526 14.7965
37.40395510942588 14.7551
37.42746114683234 14.6848
37.45096881771841 14.64
37.474478123414166 14.5713
37.49817275092816 14.573
37.52168534303452 14.6099
37.54519957395567 14.5442
37.568715445024665 14.5353
37.592416694607714 14.444
37.61593586281424 14.4526
37.63945667518264 14.4687
37.66297913304891 14.3748
37.68668702630454 14.4286
37.710212792059274 14.3686
37.733740207334854 14.322000000000001
37.757269273470364 14.2799
37.780983832050374 14.2807
37.80451621684926 14.3332
37.82805025654007 14.2507
37.851585952464795 14.2292
37.8753071980695 14.2074
37.89884622345676 14.0995
37.92238690911902 14.1217
37.94611318753442 14.1339
37.969657210779765 14.0528
37.99320289834801 14.0638
38.016750251586465 14.1208
38.04048325513017 14.0738
38.06403395679343 14.0698
38.087586328183946 14.0947
38.11114037065203 14.1158
38.13488012115898 14.118
38.1584375229181 14.1528
38.181996599821 14.1363
38.205557353221124 14.0752
38.229303872575656 14.075
38.2528679961576 14.0225
38.27643380031219 14.0602
38.30000128639589 13.9758
38.32375459653193 13.9643
38.34732546371299 13.9912
38.37089801690786 13.8534
38.39447225747609 13.7199
38.418232380377425 13.6707
38.441810012983396 13.6754
38.46538933705673 13.6054
38.488970353960084 13.5774
38.51273731166058 13.5058
38.536321731567014 13.5676
38.55990784840681 13.4855
38.58367995004091 13.4656
38.60726947812959 13.4678
38.63086070726198 13.5036
38.654453638806274 13.5193
38.678232613930824 13.4885
38.70182896773327 13.475
38.72542702806741 13.4508
38.7490267963045 13.5063
38.77281266709232 13.4837
38.79641586862214 13.5233
38.8200207821842 13.5551
38.843627409152944 13.5946
38.86742019782782 13.4528
38.891030269149255 13.463
38.914642058016156 13.4127
38.938255565806124 13.3979
38.96205529464307 13.3051
38.98567225787121 13.3193
39.00929094417078 13.2505
39.03291135492255 13.3006
39.05671804624804 13.2239
39.080341923549106 13.194
39.103967529460334 13.2437
39.127594865365744 13.2354
39.15140854155791 13.3087
39.17503935514948 13.2792
39.19867190290282 13.333
39.22249083587951 13.2742
39.24612686969409 13.3439
39.269764641845306 13.306
39.293404153722804 13.1852
39.317230110864074 13.1288
39.34087311998506 13.0796
39.36451787301696 13.0091
39.388164371352595 12.9647
39.41199737518003 12.8753
39.43564738196752 12.8536
39.45929913825317 12.8133
39.48295264543308 12.7943
39.506792718520884 12.7571
39.530449745387216 12.7564
39.55410852735203 12.7196
39.57776906581474 12.7501
39.60161623079 12.6877
39.625280300200025 12.6684
39.64894613032202 12.5807
39.67261372255866 12.5989
39.6964680021016 12.5719
39.72013913657293 12.5807
39.74381203738292 12.5411
39.76748670593756 12.5608
39.79134812278169 12.5625
39.81502634488497 12.5578
39.83870633896685 12.5249
39.862388106436654 12.5276
39.88625668336918 12.5075
39.90994201572829 12.5159
39.933629125719285 12.503
39.957503091207826 12.4142
39.9811937746168 12.4307
40.00488623990914 12.3893
40.02858048850006 12.3551
40.05246165409549 12.3686
40.076159487492085 12.3448
40.099859108448875 12.3638
40.123560518384345 12.3339
40.1474489070226 12.3175
40.171153913178564 12.3605
40.194860712584955 12.3087
40.2185693066637 12.2979
40.242464941335314 12.299000000000001
40.26617714307655 12.2994
40.289891143772046 12.3228
40.3136069448471 12.3689
40.33750984859743 12.3716
40.3612292688043 12.3776
40.3849504936829 12.3946
40.40867352466194 12.3741
40.43258372059144 12.3649
40.45631038219906 12.2971
40.48003885420956 12.2298
40.503769138055105 12.1846
40.52768664931955 12.1887
40.55142057531802 12.2003
40.57515631746428 12.0302
40.599079334038514 12.0371
40.62281872700477 11.9893
40.64655994043941 12.0035
40.67030297578061 12.0203
40.69423334835778 11.9903
40.71798004609188 12.0165
40.74172857006355 12.0019
40.76547892171441 11.9649
40.7894166736039 11.9919
40.813170699248566 11.8818
40.83692655691388 11.8792
40.86068424804498 11.8948
40.884629402612525 11.9121
40.908390779366385 11.8764
40.932153993938 11.799000000000001
40.95591904777605 11.8417
40.979871628443995 11.8397
41.003640379561936 11.795
41.02741097430883 11.8103
41.05118341413683 11.714
41.075143444384416 11.74
41.098919593177826 11.7291
41.1226975914255 11.7299
41.14647744058318 11.7108
41.170444943946755 11.6928
41.19422851378379 11.7271
41.218013938914645 11.7391
41.24198706625173 11.7428
41.26577622087193 11.7588
41.289567235177785 11.7296
41.31336011063129 11.7532
41.337340752422875 11.7426
41.361137369129835 11.7079
41.38493585138705 11.6626
41.40873620066004 11.6142
41.43272438060107 11.549000000000001
41.45652848292052 11.4896
41.48033445666918 11.4478
41.50414230331616 11.4398
41.528138045159764 11.3953
41.551949656675205 11.3244
41.575763145513235 11.3475
41.59957851314666 11.2969
41.62358184070442 11.3098
41.64740098505737 11.283
41.6712220126409 11.1975
41.69504492493139 11.1488
41.71905586207357 11.1851
41.74288256296395 11.17
41.766711153007456 11.1858
41.79054163368412 11.0982
41.814560204340054 11.1679
41.838394485526365 11.1197
41.86223066180303 11.135
41.88625497706819 11.0575
41.910094962812 11.1161
41.93393684811168 11.0796
41.95778063445365 11.0124
41.981812625263366 10.9863
42.00566023303407 10.9937
42.029509746323676 11.0267
42.05336116662236 10.9856
42.077400857069705 10.9422
42.10125611078846 10.9961
42.12511327600405 10.9988
42.14897235421036 10.9809
42.173019768448455 10.968
42.19688269209613 10.9472
42.22074753323349 10.9492
42.24461429335818 11.0012
42.268669455600495 11.0108
42.292540073217886 11.0164
42.31641261433284 11.0139
42.34028708044675 10.9612
42.36435001496739 10.9413
42.38822835065557 10.9007
42.41210861586426 10.8595
42.4359908120986 10.7798
42.46006154323262 10.8175
42.48394762115317 10.8008
42.507835634632315 10.7357
42.531912233047436 10.6646
42.55580413732265 10.5866
42.579697981698 10.6162
42.60359376768525 10.5832
42.62767820545945 10.5395
42.65157789440821 10.5289
42.67547952952185 10.5429
42.699383112316 10.4785
42.72347541395347 10.4836
42.74738291190531 10.4337
42.771292362102166 10.4385
42.795203766063516 10.4466
42.819303956130405 10.3769
42.843219287476536 10.3135
42.86713657716324 10.3239
42.89105582671383 10.3451
42.91516392983864 10.322000000000001
42.939087119032166 10.2848
42.963012272677304 10.3289
42.98693939230129 10.2993
43.01105543317513 10.2514
43.034986504731386 10.2508
43.05891954686589 10.2426
43.08285456110972 10.2211
43.10697856448665 10.1396
43.130917542983475 10.1027
43.15485849820081 10.1354
43.17880143167367 10.1492
43.20293342237094 10.1451
43.226880332449 10.0936
43.25082922540554 10.103
43.27496722682525 10.0812
43.29892010567796 10.055
43.32287497204102 9.999260000000001
43.34683182745632 9.967260000000001
43.370977859791836 9.92659
43.39493871351105 9.95632
43.41890156092628 9.95
43.44286640358341 9.90724
43.46702049182749 9.88091
43.49098934522816 9.84038
43.51496019852649 9.8126
43.5389330532723 9.83478
43.56309522248204 9.799389999999999
43.58707210044314 9.83703
43.61105098451946 9.77632
43.63503187626491 9.78018
43.659202151562134 9.76515
43.68318707902681 9.751389999999999
43.70717401884041 9.75637
43.731162972560874 9.703619999999999
43.75534137913236 9.68038
43.779334381108384 9.692960000000001
43.803329401683186 9.6171
43.82732644241872 9.654630000000001
43.8515130055166 9.67689
43.87551410707659 9.61159
43.89951723350145 9.60399
43.923709934595614 9.61215
43.94771713129917 9.592130000000001
43.97172635758096 9.593810000000001
43.99573761501002 9.52801
44.0199385169922 9.54571
44.04395385732619 9.53198
44.067971233533086 9.524230000000001
44.09199064718605 9.53715
44.11619977548961 9.51965
44.14022328470671 9.52426
44.16424883610785 9.53014
44.18827643127035 9.481689999999999
44.21249381139513 9.50499
44.236525514814076 9.50088
44.26055926674478 9.47475
44.28459506876863 9.45469
44.3088207262813 9.43898
44.33286064928722 9.43056
44.35690262714919 9.39298
44.38094666145278 9.36031
44.4051806219871 9.37232
44.42922879003185 9.34238
44.45327901929361 9.311919999999999
44.477331311362136 9.29588
44.501573600619416 9.269689999999999
44.525630039221795 9.247910000000001
44.54968854541895 9.23903
44.573937102200176 9.22056
44.5979997645541 9.17248
44.622064499300315 9.15903
44.64613130803592 9.18397
44.67038823869318 9.17351
44.69445921643748 9.15926
44.718532272981385 9.16421
44.742607409926194 9.15259
44.76687274034801 9.14067
44.79095205918753 9.08961
44.81503346325094 9.11947
44.839116954143876 9.09174
44.86339071028742 9.09849
44.88747839599524 9.066139999999999
44.91156817336837 9.05734
44.93566004401666 9.051260000000001
44.959942251908146 9.03218
44.984038330325966 9.00319
45.00813650686762 8.93487
45.03223678314731 8.93098
45.05652746888232 8.965689999999999
45.08063196592069 8.95849
45.104738567558705 8.97242
45.128847275414856 8.95331
45.15314646515866 8.89936
45.17725940679741 8.88498
45.20137445952892 8.905560000000001
45.22568004865265 8.83873
45.24979934496396 8.85643
45.27392075725247 8.85805
45.29804428714431 8.85117
45.322358426247604 8.837589999999999
45.346486212804315 8.76828
45.370616121861914 8.77862
45.39474815505086 8.755939999999999
45.41907087049246 8.69962
45.4432071734666 8.69251
45.46734560548283 8.67269
45.49148616817604 8.68677
45.51581748638564 8.6652
45.5399623320197 8.65751
45.56410931325473 8.60977
45.58825843173002 8.62248
45.61259837920865 8.60689
45.636751793816 8.57489
45.66090735060093 8.5808
45.68506505120716 8.544089999999999
45.7094136545275 8.53236
45.73357566449271 8.5227
45.75773982322992 8.50026
45.78190613238733 8.50041
45.806263418194064 8.43482
45.83043404997326 8.43822
45.85460683713677 8.461110000000001
45.87897065658495 8.41661
45.90314777634752 8.41864
45.92732705646868 8.43742
45.9515084986045 8.41468
45.97588104735473 8.40643
46.00006683541565 8.37072
46.02425479047904 8.38579
46.04844491420549 8.37084
46.0728262191024 8.37743
46.09702070211635 8.36004
46.12121735879483 8.35465
46.14541619080294 8.36541
46.169806278764455 8.354289999999999
46.194009483459034 8.297260000000001
46.21821486849841 8.296339999999999
46.24242243555223 8.251660000000001
46.266821333570014 8.24157
46.29103328674601 8.2257
46.31524742696538 8.24225
46.33946375590237 8.175130000000001
46.36387149104216 8.181189999999999
46.38809221957392 8.15184
46.41231514186606 8.162930000000001
46.436540259597464 8.09887
46.460956858999374 8.09117
46.48518638983522 8.125010000000001
46.509418121166966 8.072410000000001
46.533652054678114 8.05392
46.55807754555709 8.071439999999999
46.58231590571962 8.060989999999999
46.60655647313217 8.021230000000001
46.630988654873654 8.01127
46.655233659129024 7.984030000000001
46.67948087571551 8.00685
46.70373030632484 7.96253
46.72817142736393 7.991230000000001
46.752425308428684 7.9619800000000005
46.77668140861147 7.9165600000000005
46.80093972960865 7.92179
46.82538981736788 7.871519999999999
46.849652602470904 7.87281
46.87391761349769 7.8487
46.8981848521493 7.831519999999999
46.9226439341274 7.8228
46.946915650573224 7.82874
46.97118959976749 7.841239999999999
46.99546578341598 7.78194
47.019933887188216 7.805439999999999
47.04421456235744 7.782610000000001
47.06849747711879 7.77681
47.09278263318286 7.77083
47.11725978640143 7.74635
47.14154944775105 7.72677
47.165841355555656 7.707439999999999
47.1901355115306 7.678030000000001
47.214621741924994 7.70832
47.23892041698887 7.66631
47.26322134538975 7.62105
47.28771440635075 7.5843300000000005
47.31201986422527 7.5956
47.33632758061436 7.591080000000001
47.360637557241866 7.55606
47.38513974410611 7.58383
47.40945426407847 7.54518
47.43377104948137 7.56153
47.45809010204344 7.53193
47.48260144275502 7.543760000000001
47.506925052572285 7.48543
47.53125093475548 7.462789999999999
47.55557909103813 7.46483
47.58009961361992 7.46603
47.60443234110732 7.45701
47.62876734791564 7.447960000000001
47.65310463578333 7.40958
47.6776343683373 7.39963
47.7019762413987 7.38765
47.72632040075572 7.38047
47.75066684815169 7.37016
47.77520581885936 7.354419999999999
47.799556865477655 7.34054
47.823910205386 7.34323
47.84826584033272 7.31025
47.87281407745551 7.291189999999999
47.89717432569297 7.30841
47.92153687423484 7.32215
47.94609208429692 7.28912
47.97045925671401 7.29853
47.99482873471275 7.2352300000000005
48.01920052005013 7.22615
48.04376504619224 7.23117
48.068141469543484 7.210539999999999
48.09252020552573 7.227180000000001
48.11690125590099 7.207669999999999
48.1414751266064 7.1820699999999995
48.16586082917454 7.152810000000001
48.19024885144316 7.12483
48.2146391951793 7.1254800000000005
48.239222439012764 7.114889999999999
48.26361744916137 7.0692
48.28801478610016 7.0987
48.31241445160131 7.061319999999999
48.337007097209366 7.0579600000000005
48.36141144338331 7.041
48.38581812345755 7.0403899999999995
48.41022713920929 7.027639999999999
48.434829215320704 7.01587
48.45924292604658 6.9832
48.48365897780325 6.98146
48.50807737237308 6.936960000000001
48.532688907799276 6.930210000000001
48.55711201168574 6.96749
48.581537463754074 6.92643
48.60615611725119 6.932739999999999
48.63058628942721 6.9135
48.65501881516546 6.896739999999999
48.6794536962573 6.8897699999999995
48.70408185970339 6.85244
48.72852147531801 6.84995
48.75296345168211 6.847289999999999
48.77740779059232 6.791189999999999
48.80204549302823 6.82862
48.82649458091802 6.81199
48.85094603676547 6.78247
48.87539986237231 6.75564
48.90004713292306 6.778989999999999
48.92450572200832 6.74615
48.94896668628025 6.7527
48.97343002754588 6.72845
48.99808689542115 6.72416
49.02255501470614 6.6985
49.04702551642794 6.74098
49.0714984023988 6.680389999999999
49.096164896893235 6.6582300000000005
49.120642575466796 6.664339999999999
49.145122643748394 6.655239999999999
49.16960510355558 6.6432
49.19428125404938 6.6407
49.2187685210852 6.639360000000001
49.243258185121555 6.6211899999999995
49.26794160167084 6.6039
49.2924360839405 6.581110000000001
49.31693296869764 6.572030000000001
49.34143225776915 6.53765
49.36612538195438 6.5323
49.39062950396021 6.52321
49.41513603578346 6.48223
49.4396449792564 6.5033
49.46434784069503 6.48375
49.488861631846454 6.50274
49.513377840166804 6.4642599999999995
49.537896467493745 6.46002
49.56260909589029 6.4612
49.587132585683285 6.46402
49.611658500018365 6.43958
49.636186840738596 6.4474599999999995
49.66090926588511 6.46052
49.685442483902584 6.44037
49.70997813385706 6.400519999999999
49.734516217597076 6.38084
49.75924846937352 6.38051
49.7837914452858 6.43586
49.80833686055187 6.362830000000001
49.83288471702571 6.3283
49.85762682540054 6.34888
49.882179588965734 6.34056
49.9067347993235 6.33669
49.93129245833333 6.27675
49.95604445336378 6.26864
49.98060703442832 6.28196
50.005172069746266 6.29499
50.02993150438364 6.25699
50.05450147301533 6.28158
50.07907390151433 6.2315
50.10364879174981 6.239380000000001
50.12841816587289 6.1979999999999995
50.1529980044635 6.17129
50.17758031042124 6.17664
50.20216508562089 6.18176
50.22694442953363 6.17711
50.25153416817468 6.17973
50.27612638170508 6.15848
50.300721072005196 6.122000000000001
50.325510416102105 6.12429
50.350110084975064 6.1067800000000005
50.37471223628208 6.0877300000000005
50.39931687190919 6.0635900000000005
50.424116246675766 6.06869
50.44872587605249 6.08734
50.47333799543065 6.0736
50.49795260670191 6.07212
50.52276204271512 6.03779
50.54738166295838 6.04387
50.57200378079314 6.06588
50.596628398116835 6.00206
50.62144792604559 6.01201
50.646077567609396 6.0286599999999995
50.670709714377715 5.98369
50.69553683636198 5.99096
50.72017401885922 5.98524
50.7448137122895 5.95191
50.76945591856022 5.93166
50.79429318636823 5.91079
50.818940443716784 5.89187
50.84359021965163 5.9137699999999995
50.868242516085964 5.8970199999999995
50.893089960641895 5.8797
50.917747323549435 5.85112
50.94240721271973 5.8531699999999995
50.96706963007175 5.825069999999999
50.99192728239342 5.81113
51.01659478166073 5.81663
51.04126481489051 5.8242400000000005
51.06593738400761 5.790430000000001
51.090805275207074 5.76559
51.11548294172845 5.77367
51.14016314993547 5.76728
51.164845901758845 5.79559
51.18972406304274 5.75675
51.21441192780656 5.73747
51.23910234200271 5.73752
51.2637953075678 5.72344
51.288683770237945 5.70562
51.31338186432707 5.68431
51.33808251561888 5.68785
51.362978729967345 5.69313
51.387684521509755 5.64267
51.41239287610203 5.69439
51.437103795691165 5.66403
51.46201036644977 5.65991
51.486726441956634 5.6242
51.51144508832545 5.5955
51.536166307509156 5.58791
51.56108326624387 5.55239
51.58580965706056 5.56139
51.61053862657523 5.56856
51.635270176746864 5.54555
51.66019755512065 5.54936
51.68493429268881 5.51158
51.70967361681515 5.51454
51.73441552946465 5.50116
51.759353359237934 5.477130000000001
51.7841004750961 5.47216
51.80885018539685 5.449409999999999
51.833602492111254 5.44675
51.8585508051424 5.41806
51.883308330926425 5.45181
51.90806845906181 5.4162300000000005
51.932831191525715 5.43357
51.95779001977161 5.4103699999999995
51.98255798721516 5.36891
52.00732856494335 5.3636800000000004
52.03229530577543 5.3625300000000005
52.057071130455945 5.3884300000000005
52.081849571391054 5.33582
52.106630630568695 5.31616
52.13160794279417 5.3181
52.15639426492067 5.3277
52.18118321127822 5.331869999999999
52.205974783860896 5.31084
52.23096269971011 5.2666
52.255759551287994 5.25234
52.280559035098186 5.25577
52.30536115314103 5.27361
52.33035970494467 5.240559999999999
52.35516711807904 5.2020800000000005
52.37997717147198 5.21001
52.40478986713005 5.19819
52.42979908731974 5.1887300000000005
52.454617094216 5.16265
52.47943774942214 5.17551
52.50426105495102 5.155880000000001
52.529280976059844 5.13681
52.554109609024096 5.15688
52.57894089837482 5.14633
52.60377484613117 5.12903
52.62880550079408 5.1125300000000005
52.65364479223379 5.07855
52.67848674816189 5.07963
52.70352547971946 5.06029
52.72837279155837 5.07259
52.753222773982785 5.0465599999999995
52.778075429022984 5.0791
52.80312495150885 5.06422
52.827982978797436 5.0241
52.85284368481815 5.028490000000001
52.87770707160767 4.99008
52.90276741793998 5.00536
52.92763619336701 5.020919999999999
52.952507655698504 5.00266
52.977381806977576 4.96014
53.00245301017842 4.973
53.02733256653592 4.97661
53.052214817996074 4.949669999999999
53.077099766608484 4.93601
53.102181859804446 4.95725
53.127072229988265 4.93509
53.15196530349892 4.92684
53.17686108239249 4.91252
53.20195409881522 4.88662
53.22685531582556 4.87231
53.25175924441303 4.87982
53.27666588664027 4.89715
53.30176985962693 4.85382
53.3266819565689 4.85119
53.35159677336455 4.83819
53.376514312083096 4.8198099999999995
53.40162927507703 4.83911
53.42655228516116 4.76956
53.45147802340193 4.75021
53.47660125628886 4.79334
53.50153247842639 4.76636
53.52646643496923 4.73072
53.55140312799818 4.75593
53.576537409691696 4.73951
53.60147960336152 4.736190000000001
53.626424539786164 4.70325
53.65137222105307 4.725169999999999
53.67651758529126 4.70092
53.70147078399681 4.6918
53.72642673383343 4.67739
53.75138543689533 4.68637
53.776541917524526 4.66049
53.801506154876755 4.64238
53.826473151763246 4.64262
53.851442910284916 4.62505
53.87661054126026 4.61149
53.9015858509782 4.58867
53.92656392866066 4.57829
53.95154477641532 4.58376
53.976723591801296 4.56078
54.00171000771266 4.55576
54.02669920004598 4.56637
54.051691170915745 4.50928
54.076881204886796 4.52715
54.101878760928514 4.51
54.12687910187696 4.4729
54.152077577768296 4.48834
54.1770835166946 4.43872
54.20209224691339 4.45036
54.22710377055121 4.4081
54.25231352511594 4.39487
54.27733066384342 4.3961
54.30235060239643 4.36444
54.32737334290836 4.3893699999999995
54.35259441062629 4.34912
54.377622783395324 4.35564
54.40265396455061 4.36376
54.42768795623251 4.33505
54.45292037169559 4.3278099999999995
54.477960012857906 4.30021
54.50300247099511 4.28709
54.52804774825457 4.27963
54.55329154616743 4.25405
54.57834249018678 4.199409999999999
54.6033962597977 4.18084
54.6284528571545 4.16097
54.653708072335164 4.19623
54.67877035378786 4.19267
54.70383546947698 4.13197
54.72890342156389 4.1641699999999995
54.7541700889442 4.13321
54.77924374251975 4.1117099999999995
54.8043202390049 4.07789
54.82959552413022 4.0887400000000005
54.8546777351945 4.05506
54.87976279569621 4.04012
54.90485070780914 4.10669
54.930137506558005 4.02853
54.95523115074295 4.0126800000000005
54.98032765308844 4.021319999999999
55.005427015775496 3.9569300000000003
55.03072536339621 3.986
55.05583047570572 3.97189
55.080938454927676 3.9489400000000003
55.10604930325027 3.90691
55.131359235107396 3.9428
55.15647585066083 3.92257
55.181595341907496 3.87665
55.20671771104285 3.8534
55.232039262617704 3.83961
55.25716741665048 3.80522
55.28229845518636 3.8000800000000003
55.30743238042802 3.75527
55.33276558731939 3.75065
55.357905315183636 3.71844
55.383047936390035 3.6928099999999997
55.40819345314859 3.6964300000000003
55.433538351073295 3.6938800000000005
55.458689688238415 3.65576
55.483843927614096 3.6325
55.509197623043605 3.6432800000000003
55.53435769621134 3.62278
55.55952067826466 3.56775
55.5846865714265 3.5696800000000004
55.61005202069737 3.5554099999999997
55.63522376553902 3.5905
55.66039842818645 3.56595
55.68557601087004 3.52356
55.7109532500271 3.48412
55.73613670233794 3.5154699999999997
