TT I
1.2716486653135266 6.70257
1.2939594142134223 6.80295
1.3162702121660406 6.49753
1.3385810600174564 6.541980000000001
1.3608919586137629 6.80155
1.383202908801069 6.00985
1.405513911425503 7.0835300000000005
1.4278249673332093 6.825819999999999
1.4501343378461518 6.14766
1.4724455028545926 5.75925
1.4947567236847858 5.28756
1.517068001182951 6.03683
1.5393793361953272 5.48886
1.5616907295681737 5.89201
1.5840021821477681 5.4078599999999994
1.60631369478041 5.33659
1.6286252683124185 5.19362
1.6509369035901333 6.25811
1.6732468618895553 4.9217
1.695558623192809 5.35162
1.7178704487808514 4.58327
1.7401823395001077 4.61941
1.7625012545597203 4.48876
1.7848028405262486 4.64302
1.8071218901122095 4.534730000000001
1.8294236121921872 3.81745
1.8517427996910911 4.51848
1.8740620574440425 4.69855
1.8963639900671978 4.63657
1.9186833908139995 4.18036
1.9409854680117449 4.84509
1.9633050151394713 4.24723
1.9856246367570705 4.79319
2.0079269371922672 4.563680000000001
2.03024671027244 4.5507
2.0525491637446027 4.18107
2.074869091674931 4.23402
2.097171701569106 4.47705
2.1194917877373847 4.58075
2.141811954326636 4.87943
2.164114805233074 4.61551
2.186435135143035 5.705769999999999
2.208738150935709 8.86236
2.231058647554722 14.9141
2.2533792288321184 11.5913
2.275682498336085 6.52632
2.298003251406138 5.5357199999999995
2.3203066942619714 5.41598
2.3426276225136022 5.17641
2.3649486396617507 5.3585
2.387252348930071 5.96491
2.4095735463442893 5.48687
2.4318774374315884 6.710610000000001
2.4541988185014043 6.26885
2.476502894794693 6.644189999999999
2.498824462909887 6.73843
2.521146125856138 7.062880000000001
2.5434504863470337 6.55612
2.5657723414244717 7.80385
2.588076895590662 8.024989999999999
2.610398946189713 8.057319999999999
2.6327210958598384 8.141010000000001
2.6550259469304716 8.24131
2.6773482972090137 7.88543
2.6996533504259 7.86251
2.7219759047039602 8.21902
2.744298562293959 8.15248
2.7666039251246595 8.27357
2.7889267918020164 8.245239999999999
2.8112323652516555 8.58677
2.833555444408179 8.39697
2.8558786311183852 8.260530000000001
2.8781845268938557 8.906239999999999
2.9005079311721484 9.40283
2.9228140460410397 8.672830000000001
2.9451376712799635 8.63289
2.967444008632326 9.24743
2.9897678582247247 9.8299
3.0120918213106695 9.91783
3.0343984987899373 10.5255
3.0567226913198637 11.02
3.079029599759726 11.7589
3.101354025127254 12.4328
3.123678568232338 13.5955
3.145985829517914 12.71
3.16831061055229 13.491
3.1906181112775593 14.2592
3.212943133635653 14.5078
3.2352682779763207 14.8775
3.2575761442691227 15.5166
3.2799015350264273 15.4777
3.302209649240067 16.3711
3.3245352898092655 16.7354
3.3468436553365257 16.941
3.369169549113219 17.6515
3.3914955708171384 18.4242
3.413804319727358 18.5525
3.4361305997334863 18.9298
3.4584396084414553 19.2885
3.4807661501462652 19.8775
3.503092824025881 20.0368
3.5254022288463154 20.995
3.5477291695206588 21.4582
3.5700388426251948 21.6855
3.5923660534916446 23.0091
3.6146934007816114 30.4571
3.637003482731501 52.8788
3.6593311053109985 56.0424
3.681641464033634 37.7791
3.7039693653009733 26.7961
3.726297407241705 25.0958
3.7486081875460804 25.2246
3.7709365132734978 25.4168
3.793247578841633 26.1658
3.8155761917550093 26.5646
3.8378875459837216 26.7817
3.8602164494827234 27.2614
3.882545499606844 27.8207
3.9048572932539183 28.511999999999997
3.9271866390645718 29.1449
3.9494987298666713 29.4857
3.971828374764527 29.8808
3.9941581705403255 30.6969
4.016470713506008 31.0748
4.038800813471445 32.0347
4.061113662089144 32.3473
4.0834440696459176 33.259
4.105774632334751 33.582
4.128087945865126 33.9311
4.150418821249301 34.8741
4.172732448931298 35.7066
4.195063640413578 37.2174
4.2173775856475215 39.0191
4.239709096631102 53.7249
4.262040768704612 125.34200000000001
4.284355196706267 158.91899999999998
4.306687193387355 109.62299999999999
4.329001947444346 57.7398
4.35133427213731 44.2605
4.373666762177566 42.732
4.395982011761091 43.2395
4.418314834921175 44.5315
4.44063041906622 49.0227
4.4629635787515625 53.7948
4.4852969080429785 54.0629
4.5076130004776225 52.4661
4.529946671403969 55.8995
4.552263106909177 59.2345
4.574597122877047 56.2441
4.596931312711224 54.0825
4.619248269273446 53.495
4.6415828092605835 54.215
4.663900117405352 55.5162
4.686235010953232 57.1393
4.708552674085913 58.2806
4.730887924602802 59.5925
4.753223354952695 61.8528
4.775541557023902 65.0969
4.797877349456786 68.0183
4.820195915032126 68.7271
4.842532072957498 68.3871
4.864868414979744 71.229
4.88718753227192 74.7797
4.909524244902505 76.6381
4.931843734218147 76.8492
4.954180820867835 78.5922
4.976518095879839 81.4332
4.998838149695359 84.3616
5.021175803844231 87.6901
5.043496238205739 91.2892
5.065834274903528 95.2391
5.088172504230693 100.464
5.1104935158799565 107.792
5.132832132875765 127.46700000000001
5.155153533596801 157.69
5.1774925416746225 205.44
5.199814334878411 435.166
5.2221537374521505 1123.1
5.244493338631803 3056.21
5.266815727034316 7885.1
5.289155727832427 12740.3
5.311478517248165 8576.31
5.333818921080011 2651.66
5.356159527788849 520.722
5.3784829252032536 195.75
5.400823940070432 152.412
5.423147747031976 131.165
5.445489173474152 120.99799999999999
5.467830807066149 118.954
5.490155234831516 118.354
5.512497285125229 111.17200000000001
5.534822130975162 105.87700000000001
5.557164601388673 102.74600000000001
5.579489868738879 99.7605
5.601832762690846 98.1987
5.6241758697774475 97.0801
5.646501775867269 95.9768
5.668845311622074 94.8357
5.691171647754637 94.4589
5.713515615597765 93.7777
5.735859800852677 93.3052
5.758186788542988 94.4813
5.780531411018185 97.4518
5.802858837297399 97.3273
5.825203900414495 97.4848
5.8475491852224 100.50299999999999
5.869877275883075 100.022
5.892223006467101 97.6767
5.914551544266608 96.5511
5.936897724049891 98.7641
5.959244129804903 106.587
5.981573344815301 137.438
6.0039202049061 255.793
6.026249875609095 508.99800000000005
6.04859719346037 1045.7
6.070927323278297 2278.49
6.093275102315365 4609.14
6.115623113320588 5154.56
6.137953938319995 3103.22
6.160302415650845 940.0160000000001
6.182633708324452 222.167
6.2049826554078376 109.6
6.227331838745022 91.3811
6.249663839443684 84.1633
6.27201349767565 80.5137
6.294345974611799 82.0683
6.316696111167083 85.1859
6.339046488263839 82.6082
6.361379686074702 74.67399999999999
6.383730546639482 70.693
6.406064229255215 69.9874
6.428415576718203 70.8188
6.450749747566656 69.1706
6.47310158535871 67.1956
6.495453669698332 65.2877
6.517788579421056 64.4244
6.540141159237969 63.1792
6.562476565766648 62.7918
6.5848296444934045 62.8024
6.607182974060425 63.0652
6.6295191323281015 62.9213
6.651872965955752 63.9017
6.6742096296068985 74.2627
6.6965639707294615 93.6095
6.71891856698715 93.5282
6.741255995248479 74.2965
6.763611104154477 62.5031
6.785949046381137 58.99100000000001
6.808304671371482 59.2796
6.8306605557940046 60.4219
6.852999275508618 59.2685
6.875355681171544 57.8114
6.897694923437771 56.9047
6.92005185377892 56.2398
6.9423916220322655 56.1288
6.964749080490181 55.4141
6.987106804399774 55.4713
7.009447368180821 55.986999999999995
7.031805625367033 55.8856
7.054146723727803 55.5938
7.076505517631004 54.8526
7.098864581288365 54.7097
7.121206488070854 54.5813
7.143566093607822 54.733000000000004
7.165908543567245 55.7635
7.188268694426048 56.0942
7.2106291193438095 55.5357
7.232972390625943 55.4615
7.255333366030969 60.9836
7.277677189091925 83.9596
7.300038718428332 104.113
7.322400526130865 91.9336
7.344745183422596 68.7418
7.367107550224791 57.1412
7.389452767901992 54.885
7.411815697249891 54.5951
7.434161478756298 53.4675
7.456524974096713 53.6588
7.478888753837185 53.9335
7.501235387657368 54.2138
7.523599738562711 54.3337
7.545946944825532 53.9867
7.568311870344528 54.753
7.5906770845765665 54.8573
7.613025156078678 55.5913
7.635390950099687 56.4005
7.657739602662809 55.9854
7.680105979923558 56.1154
7.702472650212829 56.6163
7.724822180948224 56.678000000000004
7.747189439655568 56.1893
7.769539560075357 55.7411
7.791907410653562 56.1836
7.81425812420825 56.5274
7.836626570110925 56.4971
7.858995315087906 57.4234
7.881346924933401 57.6058
7.903716270417482 58.3084
7.926068482028405 58.4269
7.948438431475253 59.3764
7.9708086843180235 59.4264
7.993161805171116 60.1748
8.015532667162402 60.9927
8.037886398416653 62.123000000000005
8.060257873014221 62.7581
8.082629655331942 63.3482
8.104984308787587 64.2748
8.127356708900503 66.4261
8.149711981398308 70.8493
8.172085002766314 72.3251
8.194458336181368 70.4097
8.216814543847752 69.108
8.23918850371002 69.4639
8.26154533906492 70.6338
8.283919928836452 72.02600000000001
8.306277395339652 72.7822
8.328652618483376 74.2919
8.351028159736202 76.5401
8.373386579575245 78.5826
8.395762759396959 80.7196
8.418121819038275 84.32799999999999
8.440498640894003 92.1191
8.462875785192262 104.415
8.485235811156207 132.149
8.507613602688501 188.50799999999998
8.529974277114228 272.035
8.552352719347912 410.496
8.574731488360351 691.3689999999999
8.59709314210385 1246.36
8.619472567021075 1904.7
8.64183487789147 2192.74
8.664214962183097 1729.99
8.686577933647762 849.393
8.708958680784317 327.972
8.731339760774953 149.322
8.753703729764451 107.82
8.77608547780821 98.3916
8.798450116065078 94.9482
8.820832535634787 92.436
8.843215292401656 91.8894
8.865580941199045 92.3018
8.887964374703538 91.8319
8.910330701447199 92.1095
8.932714815164482 91.3397
8.955099270424924 89.3974
8.977466620733543 86.6667
8.999851761421976 85.1667
9.022219798361645 84.1403
9.04460562795561 83.729
9.066991803441677 83.8606
9.089360876979615 83.9502
9.111747746589993 84.0058
9.13411751544971 82.92
9.156505082664324 82.0262
9.178875550323522 81.869
9.20126381862328 82.3642
9.223652438908596 82.3269
9.246023961427412 82.2809
9.26841328802173 81.9548
9.290785518039224 82.6508
9.313175554425882 84.4995
9.335565947154315 85.8682
9.357939245086508 86.2345
9.380330352834827 85.3548
9.40270436697103 85.3369
9.425096193225055 84.8422
9.447488380180165 85.0503
9.469863475295412 85.1243
9.492256385987508 85.1122
9.514632206018318 85.7243
9.537025843935714 86.2311
9.559402392368193 86.8783
9.581796761000229 89.3243
9.604191496441521 91.3308
9.626569144158516 93.7421
9.648964615551032 95.8726
9.671343000390081 95.8133
9.693739211225699 93.7103
9.716135793237463 93.0726
9.738515290448102 93.656
9.760912617143402 94.9448
9.783292860202891 97.2858
9.805690935076182 99.5967
9.828089385495742 99.8738
9.850470754023561 101.48100000000001
9.872869957865444 105.494
9.89525208097539 112.89
9.917652041736662 121.11
9.940052382417589 129.894
9.962435644102392 156.326
9.984836746950979 200.59400000000002
10.007220771957746 259.843
10.029622640473708 366.49300000000005
10.052007432299963 553.684
10.074410069984072 856.6410000000001
10.096813093716005 1302.9
10.119199042482517 1798.6
10.141602840636468 1967.91
10.163989564971628 1542.81
10.186394141051062 832.6
10.208799107559706 356.23400000000004
10.231187001965623 172.25599999999997
10.253592751657669 122.336
10.275981430388155 111.854
10.298387966769793 110.176
10.320794897965431 110.102
10.343184759907361 108.75200000000001
10.36559248305461 105.845
10.387983138083852 105.927
10.410391656691655 113.135
10.432800574501677 124.85
10.455192425893369 140.809
10.47760214443012 166.608
10.499994797678786 214.438
10.522405320453982 293.621
10.54479877906917 412.708
10.567210109595656 518.687
10.5896218454736 578.052
10.612016518879773 497.548
10.634429067781074 330.99800000000005
10.656824555333241 193.215
10.679237920773568 118.663
10.701651695961992 94.3168
10.724048411481384 88.7843
10.746463008485165 86.1706
10.768860546937125 84.3993
10.791275969274796 82.9203
10.81369180576079 81.8702
10.836090585366925 80.7747
10.858507252467449 79.8557
10.88090686379991 78.9637
10.903324365036394 78.3553
10.925724811614439 77.9183
10.948143150509463 78.5587
10.970561909719066 78.0752
10.992963615930844 76.8329
11.015383218085756 75.1717
11.037785768347074 73.6325
11.06020621697282 73.0623
11.082627090322113 72.4048
11.105030913430326 71.1507
11.12745263854165 71.16199999999999
11.149857314510728 72.3274
11.172279894912576 74.7977
11.194702904450653 74.773
11.217108866490921 72.6515
11.239532736615194 70.2504
11.26193956033512 69.4163
11.284364294577085 68.4949
11.306789462371718 67.3864
11.329197585398376 67.124
11.351623622610898 66.9218
11.37403261614354 66.1992
11.396459526308487 65.9583
11.418869393879497 65.7019
11.441297180532617 65.0583
11.463725406927658 64.5517
11.486136592353875 64.4323
11.508565700543707 64.718
11.530977768845315 65.4451
11.553407762368774 65.7093
11.575838200059769 65.4753
11.598251599479612 64.3225
11.620682927815501 63.5494
11.64309721895548 63.5671
11.665529441478206 62.9063
11.687962112597958 62.8469
11.710377748130886 62.7807
11.732811318753434 62.6498
11.755227854859067 62.5752
11.777662328529495 62.7511
11.800079768750786 62.5972
11.822515149015453 62.4658
11.844950984084935 62.8597
11.867369787303163 62.4802
11.889806534289491 62.1903
11.912226250487029 62.5584
11.934663912939751 62.656000000000006
11.9571020346363 63.2562
11.979523127133968 63.501999999999995
12.001962169624331 64.5035
12.024384183972964 66.1688
12.046824150809913 69.5559
12.069264581333726 73.906
12.091687985297767 79.5459
12.11412934550045 89.3034
12.136553680195208 105.685
12.158995973632788 129.113
12.181438735204349 155.904
12.20386447284199 184.518
12.226308172985636 205.701
12.24873485024193 195.615
12.271179492516982 156.38299999999998
12.293607112949127 117.381
12.316052700916226 87.666
12.338498763250042 73.0143
12.360927805303868 67.3318
12.383374818673879 65.2541
12.405804812803074 64.1466
12.428252780773262 64.046
12.45070122756722 64.1221
12.473132656675375 64.0479
12.49558206341869 64.6547
12.518014453510101 64.7888
12.540464823770117 64.9268
12.562915677315177 64.9064
12.58534951575545 65.1891
12.607801338171472 66.223
12.630236146511358 68.4325
12.652688941369085 70.4949
12.675124723177234 71.0276
12.697578494048786 70.0179
12.720032754458185 68.2574
12.742470003354093 67.5998
12.764925245138771 67.6133
12.787363476431278 68.2024
12.809819703166806 68.5335
12.83227642391173 69.2629
12.854716135692716 69.653
12.877173846755147 70.9766
12.899614549869717 71.5278
12.9220732548287 72.4926
12.94453245827299 72.9719
12.966974655289818 73.9695
12.989434858002571 75.0144
13.011878055298721 75.2843
13.034339260862497 76.0762
13.056800969391883 77.5506
13.079245674017244 80.4808
13.101708390774869 84.927
13.12415410463411 94.0972
13.146617833206086 103.995
13.169064559883248 114.54700000000001
13.191529303857127 129.305
13.213994557076367 153.641
13.236442809902437 194.00799999999998
13.258909083908291 249.99400000000003
13.28135835851934 316.22900000000004
13.30382565690295 381.212
13.326293469022952 425.76199999999994
13.348744283242008 415.332
13.371213125129904 336.94800000000004
13.39366497011003 247.87400000000002
13.416134845360597 163.541
13.438605238843131 120.426
13.46105863690397 107.67399999999999
13.483530069144786 108.63799999999999
13.505984506951902 113.417
13.528456981549432 123.262
13.550929978879088 139.15200000000002
13.573385983253365 165.503
13.595860028340867 205.085
13.618317081455832 259.06
13.64079217790333 315.499
13.663250283359057 358.244
13.685726434770173 372.51199999999994
13.708203115221277 329.381
13.730662806148091 250.769
13.75314054697177 173.81099999999998
13.775601299246777 120.53200000000001
13.798080104050406 94.3187
13.820559442405358 84.5647
13.843021793671388 81.8206
13.865502201420897 79.9825
13.887965623051947 79.735
13.910447103807167 78.5057
13.932929122629764 77.0524
13.955394156785959 76.5128
13.977877254034569 75.7536
14.000343367582113 75.0534
14.022827546871707 74.4543
14.045294743423524 73.8142
14.06778000837062 73.1743
14.090265817715476 72.852
14.112734645763819 72.204
14.13522154619454 72.0761
14.157691466286913 72.0531
14.180179461423874 71.6425
14.202668005486178 71.2596
14.22513957064374 70.6016
14.247629214846473 70.5428
14.270101881097517 70.0487
14.29259262906496 70.1807
14.315083930490205 70.5707
14.337558255389705 70.3826
14.360050666019726 70.2822
14.382526101071944 69.5335
14.405019624534942 69.333
14.427513705993134 68.6818
14.449990813291825 68.9587
14.47248601302899 68.5201
14.49496423954951 68.71600000000001
14.517460561197822 68.8125
14.539939910570322 68.6876
14.562437357763558 69.0034
14.58493536931253 69.6818
14.607416409993311 69.9347
14.62991555254159 70.5501
14.652397725157423 70.6671
14.674898002342799 70.4654
14.697398848433282 70.7731
14.719882725991326 72.1829
14.74238471217934 74.2697
14.764869730765593 77.9137
14.787372860692983 80.5715
14.809876564079925 84.7708
14.83236330125751 90.7404
14.854868153850365 100.01899999999999
14.877356041159485 114.70700000000001
14.899862046604186 134.097
14.922351087688757 159.862
14.944858249632887 188.28799999999998
14.967365991421232 212.609
14.989856770231246 226.085
15.012365673994204 215.264
15.03485761569738 180.861
15.05736768508665 139.645
15.07987833888692 108.161
15.102372032001655 86.5497
15.124883856909658 75.354
15.14737872204565 71.7307
15.169891721717274 70.5036
15.192405310371893 70.2034
15.214901940621196 69.9613
15.237416709527137 69.7303
15.259914520936249 69.3315
15.282430473753607 68.6501
15.304947020131227 67.9163
15.327446610371178 67.5455
15.349964346154254 66.8609
15.372465126703139 66.7506
15.394984055556009 66.4826
15.417486030076159 66.4691
15.44000615566487 66.1619
15.462526881230803 65.9634
15.485030653812652 65.7877
15.507552581617434 65.8325
15.530057557334603 65.8038
15.55258069104857 65.8834
15.575104429329837 66.0939
15.597611216864632 65.9824
15.620136166564563 66.7374
15.6426441664095 68.6449
15.665170331202765 71.2871
15.687697105158826 73.6671
15.710206930593545 77.0283
15.732734925158933 81.0708
15.755245972089478 87.9105
15.77777519094324 97.2533
15.800287463046663 111.163
15.822817909869592 130.7
15.84534897229804 151.868
15.867863089299354 175.253
15.890395385222186 192.058
15.912910736597423 195.321
15.935444269699861 176.715
15.957978423016485 148.906
15.980495633101265 115.764
16.003031029129367 91.1528
16.02554948280019 74.1889
16.048086125229432 66.2667
16.070623392487107 63.9007
16.09314371869582 62.983999999999995
16.11568223789321 62.0766
16.13820381691126 61.5299
16.160743591742527 60.7544
16.183283996022084 59.9027
16.205807461423195 59.2745
16.228349126881973 58.6959
16.25087385432698 58.7381
16.27341678466365 58.1418
16.29594277784926 57.8908
16.31848697676433 58.1245
16.341031811604868 57.6617
16.36355971058487 57.7922
16.3861058195587 57.5655
16.40863499352978 56.5473
16.431182380342005 56.2596
16.453730407713202 55.7948
16.476261501364792 55.7626
16.498810812136167 55.2116
16.52134319004079 55.4727
16.54389378792203 55.2918
16.566445031001553 55.2106
16.588979342490088 55.1307
16.61153187824822 54.8583
16.634067483263312 54.7931
16.656621315414416 54.5823
16.679175797408888 54.2272
16.701713349928728 54.465
16.72426913389191 54.8025
16.74680798922351 54.551
16.76936507887444 54.761
16.791905240734874 54.6258
16.814463639794468 54.4914
16.837022695210294 54.5362
16.859564824093756 54.8607
16.882125194503903 55.1857
16.904668639217885 55.5682
16.927230328348003 55.4456
16.949792678493612 55.5655
16.972338104193863 55.3319
16.994901778652235 55.3719
17.017448529496576 55.6607
17.040013531998152 56.2642
17.06257920018044 56.8567
17.0851279459922 57.3679
17.107694947817667 57.9753
17.130245028099072 58.7882
17.15281336730298 60.2252
17.17536478578733 62.093
17.19793446610687 64.2456
17.220504818648422 67.5509
17.243058251703697 70.8273
17.265629950971032 75.2796
17.288184731571736 79.7733
17.310757781306908 82.9743
17.33333150794385 84.5689
17.355888317140174 81.1017
17.37846339986244 75.7052
17.401021565958885 69.7306
17.42359800851343 64.8378
17.44617513265564 61.4822
17.468735341390783 59.8946
17.491261035594565 59.1914
17.51396340099364 59.0027
17.536490463869136 59.0451
17.559018209820174 59.1633
17.58154663977963 59.3294
17.604251766089718 59.4397
17.626781572227713 59.6866
17.64931206518155 59.9302
17.671843245885103 60.3268
17.69455114821572 60.3311
17.717083712612634 60.67
17.739616967569667 61.0138
17.762150914021706 61.3168
17.78486160749854 61.5593
17.807396945166804 62.6323
17.829932977143503 64.0123
17.85246970436452 65.5332
17.875183204129467 67.1109
17.897721330097664 69.0125
17.920260154126645 71.08
17.942799677153296 74.4707
17.9655159983646 78.8262
17.988056927677544 84.4197
18.010598558807683 92.5317
18.033140892692916 102.738
18.05586005052525 113.59100000000001
18.07840379824407 125.84200000000001
18.10094825154059 136.026
18.12366954819864 141.923
18.146215420998306 139.656
18.16876200220057 130.281
18.191309292745153 114.595
18.214033452627167 100.834
18.236582170236648 89.7435
18.259131600016456 85.9176
18.281681742907335 87.0392
18.304408781233683 91.6221
18.32696035875955 96.553
18.349512652227624 101.027
18.372065662579683 105.441
18.394795594587553 106.01100000000001
18.41735004715306 101.36399999999999
18.43990521943684 93.8646
18.46246111238171 83.8794
18.485193953325208 74.9313
18.507751296070428 68.6922
18.530309362314178 65.1128
18.552868153000343 63.0593
18.57560391815056 61.8323
18.59816416623245 61.698
18.620725141597372 61.1936
18.643286845190268 60.6342
18.666025549835414 60.2607
18.688588718427933 59.5648
18.711152618092243 59.4807
18.73389353884365 59.1753
18.75645890921984 58.9949
18.77902501351406 58.4826
18.801591852673102 58.6005
18.824335739722738 57.9299
18.846904057212626 58.1279
18.8694731124168 57.6519
18.89204290628315 57.6895
18.914789774966803 57.4545
18.937361054791623 57.2689
18.959933076131318 57.0454
18.982505839934877 56.8648
19.00525570560582 56.9538
19.027829963004184 56.6532
19.05040496572238 56.9691
19.072980714710468 56.9927
19.095733592739563 57.2582
19.11831084296757 57.3583
19.140888842324735 57.7056
19.16346759176222 57.8595
19.18622349753803 58.5539
19.208803755869358 59.358999999999995
19.231384767143577 60.8635
19.253966532312948 62.4766
19.276725481241822 64.6212
19.29930876296784 67.2456
19.3218928014549 70.0426
19.34465404436217 73.0764
19.36723960516257 75.1873
19.389825925592426 75.9334
19.412413006605938 74.6171
19.43517731967805 71.0099
19.457765930683355 66.2917
19.48035530514408 62.0953
19.50294544401556 58.5182
19.525712842708348 56.1195
19.54830451925909 54.8026
19.570896963095727 54.0255
19.593490175174704 53.6673
19.616260674962184 53.8019
19.638855432416964 53.5492
19.661450960992624 53.7761
19.68404726164677 53.3733
19.706820878021247 53.2642
19.729418731756834 53.3924
19.752017360452857 53.2933
19.77461676506804 53.6505
19.797393513540218 53.8206
19.819994478951667 54.0436
19.84259622316767 54.5574
19.8651987471481 54.7978
19.887978643247177 54.9254
19.91058273574792 55.5897
19.933187610901943 56.368
19.955969879466828 57.6894
19.97857632894404 59.183
20.00118356396599 61.0222
20.023791585494575 63.0401
20.046577028914875 65.485
20.069186632506966 67.8486
20.091797025500632 69.3161
20.114408208858933 69.7987
20.137196842715273 69.4656
20.159809615886765 67.748
20.18242318232135 65.324
20.20503754298326 63.1175
20.227829382875154 62.0884
20.250445341109344 62.3153
20.27306209647285 63.1374
20.29567964993108 64.2039
20.31847471147704 65.0791
20.34109387027612 65.4927
20.363713830075454 64.5781
20.386334591841646 63.1939
20.409132890679302 60.4659
20.431755265564437 57.4263
20.454378445325528 54.7604
20.477002430930366 52.8519
20.499803982716553 51.8051
20.522429589228004 51.0712
20.54505600449589 50.5513
20.567683229489194 50.532
20.590488049900088 50.2318
20.61311690359731 50.0375
20.63574656993626 49.8745
20.658553853717297 49.5806
20.681185154618298 49.6968
20.703817271080066 49.5633
20.72645020407368 48.9701
20.749260783967177 48.9683
20.771895359337133 49.0798
20.794530754161617 48.9339
20.817166969412938 48.8454
20.83998086114876 48.7996
20.86261872660049 48.8187
20.885257415405402 48.7643
20.90789692853701 48.5981
20.930714147864748 48.6401
20.953355319030678 48.7655
20.97599731745334 48.832
20.99864014410749 48.5289
21.021460706796564 48.6402
21.044105199328826 48.8727
21.06675052302631 48.9853
21.089396678865015 49.1716
21.112220600704806 49.5115
21.134868430275347 49.8787
21.15751709492456 50.0737
21.180166595629693 50.4836
21.202993892429635 50.8047
21.22564507473034 51.2454
21.24829709602816 51.5628
21.27112693608965 51.5646
21.293780644891275 51.3379
21.316435195634053 50.5524
21.339090589297417 49.9125
21.361923832041875 49.401
21.384580921090404 48.6887
21.407238856007325 48.331
21.429897637773326 48.3761
21.45273429906592 48.4946
21.475394784108598 48.4242
21.498056118951983 48.321000000000005
21.520718304578022 48.3835
21.543558400304388 48.5836
21.566222297108816 48.9933
21.58888704765135 49.1265
21.61155265291521 49.4907
21.63439619898156 49.8272
21.657063523335786 50.0269
21.67973170537063 50.4525
21.7024007460706 50.86600000000001
21.72524775840385 51.7639
21.747918526116475 53.0417
21.770590155457388 54.2114
21.79326264741238 55.8251
21.816113141960237 57.6401
21.838787368860547 59.6708
21.861462461341976 61.3917
21.884315579735777 63.0903
21.90699241312273 64.3562
21.92967011506078 64.844
21.95234868653799 64.2993
21.9752053151131 62.763999999999996
21.997885635446785 60.4503
22.020566828293532 59.0811
22.04324889464272 57.4254
22.066109049404666 56.2733
22.088792872571794 55.9997
22.111477572219204 55.941
22.1341631493376 56.1257
22.157026846313123 55.5998
22.179714188221507 55.0416
22.202402410582668 53.9108
22.22509151438863 52.3462
22.24795876962584 50.9894
22.270649646204486 50.2984
22.293341407213727 49.5818
22.316034053646906 49.2054
22.338904883215342 48.9504
22.36159931041458 48.8767
22.38429462602756 48.7546
22.40699083104897 48.6072
22.429865251039757 48.6863
22.452563244831367 48.6052
22.47526213102522 48.5825
22.49813925616515 48.5052
22.520839937143307 48.3523
22.543541513520587 48.518
22.56624398629403 48.4512
22.589124730075895 48.5379
22.611829005656723 48.7739
22.63453418063466 48.7299
22.657240256008077 48.9339
22.680124634582935 49.0172
22.70283252079775 49.3692
22.725541310413075 49.6149
22.74825100442868 49.7699
22.771139033969575 50.254
22.79385054687155 50.6675
22.81656296718292 51.1767
22.83927629590484 52.1131
22.862167992606945 53.2792
22.88488314827121 54.3811
22.907599215359284 55.3904
22.93031619487366 56.4909
22.953211574954405 57.1709
22.975930389478226 57.8137
22.998650119445763 57.9977
23.02137076586092 57.0187
23.044269845560063 55.5848
23.06699233506288 54.1317
23.089715744034912 52.262
23.112617610931565 50.6752
23.135342869061212 49.5948
23.158069049684816 49.0263
23.1807961538087 48.7094
23.20370174880544 48.7665
23.226430710184808 48.8784
23.249160598093425 48.9307
23.271891413539002 48.8286
23.294800752937697 48.8164
23.31753343374794 48.9601
23.340267045128353 48.9738
23.36300158808808 49.4231
23.38591468821339 49.8814
23.408651104658304 50.1826
23.431388455719986 50.8989
23.454126742409 51.7869
23.4770436196085 52.8979
23.499783787914662 54.2156
23.522524894889884 55.3012
23.54526694154616 56.2042
23.56818761219047 57.3494
23.59093154860734 57.7747
23.613676427751283 57.8915
23.636422250635754 56.7042
23.659346731118656 55.0237
23.68209445191868 52.9846
23.704843119509587 50.9495
23.72759273490623 49.0951
23.750521041644767 47.8137
23.77327256312355 46.9642
23.796025035462787 46.4629
23.818956224555475 45.9268
23.841710609113413 45.9096
23.86446594758979 45.762
23.887222241002014 45.5149
23.910157285144578 45.1617
23.932915498962537 45.0233
23.955674670778713 45.0163
23.978434801611975 44.757
24.001373717286125 44.6439
24.024135776723917 44.4817
24.046898798245582 44.3431
24.06966278287146 44.3888
24.092605586582614 44.1543
24.115371508023642 43.9854
24.1381383956401 43.9051
24.16090625045381 43.8641
24.183852958731244 43.8847
24.206622758582608 43.7382
24.229393528706886 43.507
24.252165270127392 43.703
24.27511589952438 43.6502
24.297889594216997 43.381
24.32066426328598 43.1882
24.34343990775613 43.1714
24.36639447485003 43.0161
24.38917208083877 43.1055
24.41195066531332 43.0458
24.43490819850244 43.055
24.457688750692377 42.8757
24.48047028445616 42.72
24.503252800821233 43.0347
24.526214300784112 43.0083
24.548998793132213 42.9487
24.57178427117417 42.8754
24.59457073593893 42.9135
24.617536219319863 42.8623
24.64032466834748 42.8895
24.663114107195035 42.6804
24.685904536893013 42.4344
24.708874020360852 42.4161
24.731666442613744 42.3001
24.754459858818787 42.2186
24.777254270007962 42.1857
24.80022777025625 42.0915
24.82302418230472 42.0821
24.845821592443674 42.1803
24.86862000170663 42.1152
24.891597535453727 41.9417
24.914397953892728 42.2036
24.93719937456671 42.2677
24.96000179851076 42.4035
24.98298338249997 42.6358
25.00578782394922 42.7575
25.028593271784167 42.9013
25.05157790644186 43.1491
25.07438537804115 43.403999999999996
25.097193859145293 43.5346
25.120003350792075 43.8684
25.142992065061257 44.0426
25.165803588823465 44.4108
25.18861612625217 44.5305
25.211429678386736 44.6365
25.234422489079968 44.659
25.257238081693636 44.6726
25.280054692141732 44.7393
25.3028723214652 44.7497
25.325869245420463 44.8541
25.348688923599397 44.9351
25.371509623787006 44.8846
25.394331347025812 44.4761
25.41733240110666 44.0042
25.440156181590016 43.4163
25.46298098826268 42.7711
25.48580682216873 42.0999
25.50881202326435 41.6834
25.53163992281684 41.2669
25.55446885274561 41.1459
25.577298814096377 40.7856
25.600308179121807 40.7281
25.623140214533745 40.7955
25.64597328451537 40.6598
25.66898578564376 40.4196
25.691820936010206 40.5198
25.714657124097695 40.403
25.737494350954734 40.438
25.760511045684957 40.3765
25.783350361364224 40.3875
25.806190718969255 40.4826
25.82903211955018 40.5476
25.852053024868923 40.479
25.874896522722523 40.611999999999995
25.897741066713106 40.5225
25.920586657892454 40.6959
25.943611790812668 40.8271
25.966459487728237 41.0067
25.989308234998564 41.1106
26.01215803367705 41.3164
26.03518741123814 41.5139
26.05803932412957 41.7218
26.080892291600094 41.6444
26.10374631470478 41.542
26.12677995397268 41.6022
26.14963609978026 41.7408
26.172493304397875 41.3698
26.19535156888223 41.026
26.218389486949604 40.6239
26.241249882640123 40.4179
26.26411134137826 40.1667
26.28715248187403 40.1938
26.31001607820869 40.0791
26.3328807407756 39.9138
26.35574647063438 40.103
26.37879191991473 39.9473
26.401659795896734 40.0646
26.424528742360263 40.2452
26.447398760366614 40.4298
26.470448535598294 40.5308
26.49332070826805 40.7325
26.516193955675355 41.0901
26.53906827888316 41.2464
26.562122397260108 41.4794
26.584998883685063 41.8471
26.607876449110325 41.9731
26.63075509460056 42.1475
26.65381357334404 42.2276
26.67669439061878 42.092
26.699576291163382 41.9714
26.722459276044212 41.8482
26.745522132402975 41.556000000000004
26.768407297649354 41.2862
26.791293550442003 40.9226
26.814180891848974 40.6613
26.837248143099337 40.4873
26.860137673466657 40.4782
26.88302829566349 40.0395
26.90592001075963 39.9173
26.92899167420566 39.7462
26.951885586870763 39.281
26.974780595655517 39.1875
26.99785558178161 39.1075
27.020752794605112 39.0008
27.043651106772522 38.8316
27.06655051935668 38.9054
27.089629948036183 38.7637
27.112531573292053 38.6993
27.135434302194138 38.7406
27.158338135817015 38.5657
27.181422024430987 38.543
27.204328079372566 38.4599
27.22723524226965 38.4709
27.250143514198573 38.4539
27.273231880156334 38.5018
27.296142382065014 38.3353
27.319053996245536 38.2704
27.341966723775965 38.429
27.365059584515222 38.4952
27.38797455070062 38.4755
27.410890633481237 38.3982
27.433807833936918 38.3936
27.456905206923906 38.4477
27.47982465472398 38.492
27.502745223449743 38.6212
27.525666914182825 38.6109
27.548768816912457 38.5923
27.571692763693633 38.3961
27.59461783573812 38.4238
27.617723149491244 38.1757
27.640650484125285 38.077
27.66357894728264 38.0732
27.686508540048052 37.8954
27.709618414237887 37.836
27.732550278321757 37.8146
27.755483275279115 37.8216
27.778417406196485 37.8554
27.801531858397514 37.7984
27.824468269376716 37.8091
27.847405817586786 37.7978
27.870344504116094 38.038000000000004
27.893463551932008 38.0965
27.916404527281053 38.4009
27.93934664422563 38.4174
27.962289903855886 38.5672
27.98541356491974 38.6772
28.00835912214229 38.7579
28.03130582533231 39.0838
28.054253675581805 39.1082
28.077381967556104 39.0575
28.100332124185126 38.9823
28.123283431160893 38.9043
28.146235889577238 38.8132
28.169368830154156 38.6103
28.192323603752033 38.4478
28.215279532083304 38.1119
28.238415973016764 37.7936
28.261374223145094 37.6781
28.284333631303806 37.513000000000005
28.307294198589954 37.3556
28.330435319167677 36.9474
28.353398217078915 36.7287
28.376362277420153 36.6155
28.39932750129032 36.3845
28.422473319286713 36.2096
28.44544088262495 36.2561
28.468409612800283 36.1183
28.491379510913497 35.9272
28.51453004413313 35.8543
28.53750229057244 35.843
28.56047570826344 35.8538
28.583450298308804 35.8757
28.606605564586562 35.5833
28.629582511831156 35.7146
28.65256063474956 35.5416
28.675539934446338 35.5875
28.698699951647605 35.574
28.72168161743193 35.4583
28.74466446331978 35.4241
28.767648490417624 35.3767
28.790813276438353 35.4227
28.813799678527303 35.3414
28.836787265157085 35.3161
28.859955641890075 35.2984
28.882945610203045 35.3998
28.905936766392035 35.1758
28.928929111566863 35.274
28.952102288520145 35.2726
28.975097024308607 34.9829
28.998092952423807 34.8637
29.021090073977508 34.8084
29.04426806913204 34.7116
29.067267590245258 34.4954
29.090268308143695 34.5815
29.11327022394099 34.4645
29.13645305530891 34.336999999999996
29.159457379627167 34.3937
29.18246290519685 34.2826
29.20546963313352 34.2657
29.22865731875826 34.2705
29.25166646419296 34.2739
29.27467681535305 34.1861
29.29768837335608 34.2584
29.320880931312562 34.2813
29.34389491580634 34.1309
29.366910110507334 34.1437
29.38992651653503 34.2412
29.41312396492981 34.1849
29.436142806456754 34.0992
29.45916286268059 33.9829
29.48236399319994 33.9138
29.50538649169417 33.775
29.528410208259935 33.7346
29.55143514402014 33.4042
29.574641196749695 33.3593
29.597668583816574 33.2264
29.6206971934585 33.0455
29.64372702680042 33.1978
29.666938019934474 33.0347
29.689970313635285 32.9551
29.713003834422636 32.9232
29.73603858342347 32.9117
29.759254535188578 32.7765
29.78229175361658 32.8232
29.80533020365064 32.7926
29.82836988641968 32.8736
29.85159081507472 32.8169
29.874632976355343 32.7834
29.89767637376955 32.7617
29.920721008448314 32.5391
29.9439469322847 32.5866
29.96699405457564 32.4078
29.9900424175358 32.4843
30.013092022298157 32.5335
30.03632295963995 32.3717
30.059375061131373 32.2868
30.08242840783577 32.5363
30.105483000888153 32.4781
30.128718970092244 32.329
30.151776069006917 32.3695
30.17483441768648 32.3698
30.198074175317235 32.3699
30.221135036724256 32.3972
30.24419715131772 32.2913
30.267260520236203 32.3047
30.290505341942243 32.2646
30.313571232750228 32.2855
30.336638381310948 32.2456
30.35970678876503 32.1701
30.38295669299435 32.1502
30.40602763151657 32.193000000000005
30.429099832366074 32.1489
30.452173296685572 32.0294
30.47542830191959 31.9006
30.498504306502497 31.9586
30.521581577995562 32.0679
30.544660117543582 32.1813
30.56792024229725 32.1021
30.59100133132069 32.0532
30.614083691845494 32.1466
30.637167325018545 32.1766
30.660432587840603 32.155
30.683518779717886 32.0856
30.70660624769615 32.1823
30.729694992924372 32.1745
30.75296541239743 32.1021
30.77605672557558 31.9718
30.799149319462742 31.9755
30.8224236211637 31.9187
30.845518789950724 31.8553
30.868615242910597 31.8199
30.891712981195973 31.6211
30.91499247215866 31.5775
30.938092794619365 31.5086
30.96119440587579 31.4969
30.984297307082752 31.303
31.00758200598383 31.151
31.030687500658694 31.285
31.053794288760695 31.205
31.076902371446767 31.0231
31.100192296997445 31.1127
31.12330298246119 31.1141
31.14641496599209 30.9394
31.169528248749216 30.9283
31.19282341969534 30.8409
31.215939314557186 30.975
31.239056512134788 30.9836
31.262175013589378 30.9253
31.28547544871168 30.855
31.30859657161541 30.776
31.331719001892175 30.8956
31.35484274070538 30.9587
31.378148458819545 30.8864
31.401274828443725 30.7895
31.424402510106933 30.8281
31.447712205419993 30.9361
31.470842524931633 30.7471
31.493974159989783 30.7304
31.51710711176168 30.6497
31.54042212308802 30.7843
31.563557722100917 30.7161
31.586694641341655 30.5594
31.609832881979628 30.5812
31.63315322823208 30.4058
31.656294125521327 30.3323
31.679436347728515 30.2422
31.70257989602529 30.1811
31.725905596152327 30.1052
31.74905181052835 30.0989
31.772199354521323 30.0797
31.79534822930507 30.223000000000003
31.818679302290967 30.2108
31.84183085259981 30.1092
31.864983737233473 30.0598
31.88813795736804 30.1347
31.911474422233013 30.0362
31.934631327356435 30.1504
31.9577895715215 30.0489
31.980949155906522 29.9762
32.004291031706956 30.0398
32.027453310562606 29.858
32.05061693318573 29.7412
32.07396288236386 29.7548
32.09712920658542 29.7452
32.12029687812702 29.5333
32.14346589817093 29.4397
32.166817291729984 29.378
32.18998902288583 29.3484
32.21316210610336 29.3198
32.23633654256711 29.1918
32.259693399663725 29.1907
32.282870556771144 29.0799
32.30604907069099 29.1045
32.329228942610065 29.098000000000003
32.35259128243769 28.9164
32.375773884550505 28.8571
32.398957848235646 28.9009
32.422143174682176 28.7982
32.445511016471215 28.7369
32.468699082679954 28.7214
32.49188851523011 28.5873
32.51507931531304 28.581999999999997
32.538452678331 28.6076
32.56164622776311 28.5478
32.58484114831493 28.4503
32.60803744118015 28.433000000000003
32.631416344731896 28.4246
32.654615396551876 28.2988
32.67781582427913 28.3769
32.701198898634416 28.2702
32.72440209253756 28.233
32.747606665947124 28.1254
32.77081262006088 28.104
32.79420126883317 28.0665
32.81740999876112 28.1256
32.840620112999424 28.0137
32.86383161274818 27.8968
32.88722585534586 27.8786
32.91044014056596 27.9943
32.933655814909734 27.9092
32.95687287957963 27.9903
32.98027273544904 27.8789
33.00349259526636 27.8694
33.026713849030116 27.8209
33.04993649794511 27.7599
33.073341986570746 27.7303
33.09656744032826 27.8165
33.11979429286444 27.7733
33.14302254538647 27.7707
33.166433686291185 27.6869
33.18966475336992 27.664
33.212897224069096 27.6802
33.23613109959831 27.5595
33.259547912343415 27.5363
33.2827846121627 27.5749
33.306022720453775 27.3385
33.32926223842861 27.3243
33.352684742614166 27.3212
33.37592709463173 27.3686
33.399170859982064 27.3044
33.422597648419426 27.2312
33.44584425514446 27.1144
33.46909227885668 27.0067
33.4923417207723 26.9515
33.51577423505344 26.8787
33.539026528130385 26.8301
33.56228024307245 26.8714
33.585535381098246 26.6977
33.60897364093058 26.6879
33.63223163992385 26.6215
33.6554910656699 26.6556
33.678751919389796 26.7233
33.702195944520106 26.518
33.72545966903325 26.5516
33.74872482519663 26.5503
33.771991414233746 26.4761
33.79544122444841 26.3898
33.81871069412428 26.3165
33.84198160035767 26.2738
33.86525394437455 26.3776
33.88870955949969 26.2667
33.911984794020626 26.1898
33.93526147001624 26.2695
33.958539588715006 26.1595
33.98200102861669 26.0714
34.0052820477047 26.0594
34.02856451319451 25.9979
34.05203033759056 25.9299
34.07531571090147 25.9383
34.09860253431845 25.9454
34.121890809074316 25.8578
34.145362493118924 25.7998
34.16865368561615 25.7026
34.191946333164054 25.7827
34.21524043699793 25.7749
34.23871800066799 25.7449
34.26201503218366 25.5939
34.28531352370466 25.5802
34.30861347646881 25.5343
34.33209693978188 25.4726
34.3553998301885 25.4804
34.378704185565205 25.3583
34.402010007152356 25.2318
34.42549939016683 25.2825
34.44880815937748 25.2387
34.472118398533134 25.1907
34.49543010887669 25.2161
34.51892543169198 25.1649
34.54224009966052 25.1658
34.56555624255917 25.1121
34.58887386163339 24.9541
34.61237514439016 24.95
34.6356957311114 24.8453
34.65901779775809 24.8636
34.68252356662995 24.8686
34.705848608458616 24.9374
34.72917513396849 24.8096
34.75250314440949 24.7418
34.77601490857862 24.686
34.799345904259795 24.6153
34.82267838863559 24.6549
34.846012362958525 24.5881
34.869530142679984 24.6154
34.89286711232212 24.6183
34.91620557568269 24.4697
34.93954553401677 24.4941
34.9630693495876 24.4959
34.986412313340814 24.5316
35.00975677584668 24.4107
35.033102738362956 24.4211
35.05663261012228 24.3484
35.0799815881786 24.4188
35.10333207003229 24.3156
35.12668405694369 24.1955
35.150220005273056 24.1336
35.17357501786656 24.2396
35.19693153931268 24.1314
35.220289570874385 24.052
35.24383161619786 24.0549
35.267192683604904 24.0223
35.290555264930376 24.0509
35.314101899412165 24.0635
35.33746752422433 23.9617
35.36083466676374 23.9792
35.38420332829803 23.9141
35.407756095629054 23.9765
35.43112781085063 24.0116
35.45450104888391 23.9599
35.477875810999194 23.9584
35.50143473172161 23.721999999999998
35.52481255774625 23.8377
35.54819191167777 23.7948
35.57157279478914 23.7851
35.595137889488406 23.7322
35.61852184675279 23.665
35.641907337029984 23.5694
35.665294361595684 23.5291
35.68886565090076 23.5099
35.7122557598848 23.4751
35.73564740699838 23.4326
35.759040593519934 23.3989
35.78261809810353 23.3912
35.80601437933051 23.2498
35.829412203814705 23.3064
35.85281157283719 23.2257
35.876395313415884 23.2616
35.8997977874528 23.1819
35.92320180988546 23.1021
35.946790244133936 23.0942
35.97019737933222 23.0843
35.993606066789866 23.0287
36.01701630779276 23.0647
36.04061101440684 23.0261
36.06402437852291 22.9751
36.08743930005611 23.0102
36.1108557802951 22.8895
36.13445678011326 22.892
36.15787639383515 22.8306
36.18129757014299 22.7399
36.20472031032821 22.7496
36.22832762423364 22.6201
36.25175350829375 22.6438
36.275180960119776 22.6118
36.298609981005924 22.69
36.32222362992669 22.5897
36.34565580510207 22.5045
36.36908955323448 22.5465
36.39252487562093 22.4322
36.416144880530226 22.3918
36.43958336764275 22.3833
36.463023432914625 22.4124
36.486465077645676 22.3887
36.51009145956204 22.4323
36.53353627947859 22.421
36.55698268276811 22.3078
36.58043067073321 22.1634
36.60406345072071 22.0848
36.62751462435344 22.1637
36.65096738658405 22.0695
36.67460498210655 22.1418
36.69806093788647 22.1529
36.72151848619297 21.980999999999998
36.744977628333636 22.0088
36.76862165890998 21.8888
36.79208400512205 21.8807
36.81554794910557 21.8845
36.83901349217101 21.8368
36.862663978991606 21.8135
36.88613273667352 21.6976
36.90960309738324 21.7239
36.933075062434064 21.6972
36.95673202673572 21.6403
36.98020721697122 21.6033
37.003684015502365 21.5927
37.027162423645365 21.5122
37.050825886711465 21.5195
37.07430753063053 21.3839
37.09779078812467 21.3924
37.121275660513014 21.3871
37.144945643673694 21.4218
37.16843376245278 21.3735
37.19192350009803 21.3542
37.215414857931435 21.3459
37.239091382563885 21.3212
37.262585997426164 21.2105
37.28608223645736 21.1421
37.309763684451696 21.1721
37.33326318851098 21.1144
37.356764320726555 21.1014
37.380267082425526 21.0464
37.40395510942588 21.1137
37.42746114683234 20.95
37.45096881771841 20.9183
37.474478123414166 20.9715
37.49817275092816 20.9057
37.52168534303452 20.9628
37.54519957395567 20.8152
37.568715445024665 20.7803
37.592416694607714 20.7101
37.61593586281424 20.726999999999997
37.63945667518264 20.7541
37.66297913304891 20.694000000000003
37.68668702630454 20.7106
37.710212792059274 20.6636
37.733740207334854 20.566
37.757269273470364 20.5644
37.780983832050374 20.5011
37.80451621684926 20.4555
37.82805025654007 20.4351
37.851585952464795 20.4124
37.8753071980695 20.3143
37.89884622345676 20.3472
37.92238690911902 20.2757
37.94611318753442 20.2586
37.969657210779765 20.2566
37.99320289834801 20.247
38.016750251586465 20.1847
38.04048325513017 20.1471
38.06403395679343 20.0549
38.087586328183946 20.0141
38.11114037065203 20.0276
38.13488012115898 20.0239
38.1584375229181 19.9623
38.181996599821 19.9489
38.205557353221124 19.9155
38.229303872575656 19.8961
38.2528679961576 19.8798
38.27643380031219 19.8171
38.30000128639589 19.8004
38.32375459653193 19.7787
38.34732546371299 19.8123
38.37089801690786 19.7319
38.39447225747609 19.6502
38.418232380377425 19.6183
38.441810012983396 19.6224
38.46538933705673 19.5724
38.488970353960084 19.5677
38.51273731166058 19.5183
38.536321731567014 19.4583
38.55990784840681 19.3994
38.58367995004091 19.4101
38.60726947812959 19.3164
38.63086070726198 19.2977
38.654453638806274 19.2986
38.678232613930824 19.2167
38.70182896773327 19.2008
38.72542702806741 19.2055
38.7490267963045 19.2909
38.77281266709232 19.2337
38.79641586862214 19.1657
38.8200207821842 19.0579
38.843627409152944 19.0982
38.86742019782782 19.0959
38.891030269149255 18.9911
38.914642058016156 18.9461
38.938255565806124 18.9463
38.96205529464307 18.9191
38.98567225787121 18.902
39.00929094417078 18.8606
39.03291135492255 18.8557
39.05671804624804 18.8722
39.080341923549106 18.7111
39.103967529460334 18.7147
39.127594865365744 18.6705
39.15140854155791 18.6682
39.17503935514948 18.6924
39.19867190290282 18.672
39.22249083587951 18.6226
39.24612686969409 18.6305
39.269764641845306 18.6263
39.293404153722804 18.5657
39.317230110864074 18.5063
39.34087311998506 18.436
39.36451787301696 18.3873
39.388164371352595 18.2984
39.41199737518003 18.304000000000002
39.43564738196752 18.3166
39.45929913825317 18.3144
39.48295264543308 18.3208
39.506792718520884 18.2685
39.530449745387216 18.1861
39.55410852735203 18.1789
39.57776906581474 18.1653
39.60161623079 18.0713
39.625280300200025 18.1383
39.64894613032202 18.0526
39.67261372255866 18.0815
39.6964680021016 17.9868
39.72013913657293 17.9654
39.74381203738292 17.9664
39.76748670593756 17.9279
39.79134812278169 17.88
39.81502634488497 17.8682
39.83870633896685 17.8487
39.862388106436654 17.8172
39.88625668336918 17.8004
39.90994201572829 17.7798
39.933629125719285 17.7239
39.957503091207826 17.7124
39.9811937746168 17.7178
40.00488623990914 17.6631
40.02858048850006 17.636
40.05246165409549 17.5724
40.076159487492085 17.531
40.099859108448875 17.5531
40.123560518384345 17.5357
40.1474489070226 17.5076
40.171153913178564 17.3959
40.194860712584955 17.4765
40.2185693066637 17.4253
40.242464941335314 17.3905
40.26617714307655 17.3258
40.289891143772046 17.2786
40.3136069448471 17.2267
40.33750984859743 17.2713
40.3612292688043 17.1848
40.3849504936829 17.1394
40.40867352466194 17.1457
40.43258372059144 17.1622
40.45631038219906 17.1892
40.48003885420956 17.102
40.503769138055105 17.0121
40.52768664931955 17.0507
40.55142057531802 17.0212
40.57515631746428 16.9596
40.599079334038514 16.9284
40.62281872700477 16.8835
40.64655994043941 16.9078
40.67030297578061 16.8519
40.69423334835778 16.8389
40.71798004609188 16.838
40.74172857006355 16.7852
40.76547892171441 16.828
40.7894166736039 16.7271
40.813170699248566 16.708
40.83692655691388 16.6214
40.86068424804498 16.6757
40.884629402612525 16.6385
40.908390779366385 16.6124
40.932153993938 16.5565
40.95591904777605 16.5785
40.979871628443995 16.5794
41.003640379561936 16.5791
41.02741097430883 16.5309
41.05118341413683 16.5117
41.075143444384416 16.412
41.098919593177826 16.3768
41.1226975914255 16.3948
41.14647744058318 16.3468
41.170444943946755 16.3294
41.19422851378379 16.3244
41.218013938914645 16.2924
41.24198706625173 16.2294
41.26577622087193 16.1956
41.289567235177785 16.2046
41.31336011063129 16.132
41.337340752422875 16.1523
41.361137369129835 16.1283
41.38493585138705 16.1353
41.40873620066004 16.0877
41.43272438060107 15.9774
41.45652848292052 15.9497
41.48033445666918 15.9124
41.50414230331616 15.9531
41.528138045159764 15.9468
41.551949656675205 15.8607
41.575763145513235 15.8409
41.59957851314666 15.8531
41.62358184070442 15.8254
41.64740098505737 15.7916
41.6712220126409 15.7656
41.69504492493139 15.7982
41.71905586207357 15.6948
41.74288256296395 15.6973
41.766711153007456 15.6453
41.79054163368412 15.6493
41.814560204340054 15.5751
41.838394485526365 15.5816
41.86223066180303 15.5128
41.88625497706819 15.4742
41.910094962812 15.5088
41.93393684811168 15.5137
41.95778063445365 15.452
41.981812625263366 15.464
42.00566023303407 15.4227
42.029509746323676 15.3769
42.05336116662236 15.3102
42.077400857069705 15.28
42.10125611078846 15.3035
42.12511327600405 15.232000000000001
42.14897235421036 15.21
42.173019768448455 15.2552
42.19688269209613 15.2308
42.22074753323349 15.1717
42.24461429335818 15.1318
42.268669455600495 15.1586
42.292540073217886 15.1593
42.31641261433284 15.04
42.34028708044675 14.9849
42.36435001496739 15.0251
42.38822835065557 14.9742
42.41210861586426 14.9389
42.4359908120986 14.9601
42.46006154323262 14.8856
42.48394762115317 14.8814
42.507835634632315 14.9058
42.531912233047436 14.8881
42.55580413732265 14.7848
42.579697981698 14.7843
42.60359376768525 14.7433
42.62767820545945 14.7201
42.65157789440821 14.7227
42.67547952952185 14.7006
42.699383112316 14.6672
42.72347541395347 14.6312
42.74738291190531 14.6151
42.771292362102166 14.61
42.795203766063516 14.5562
42.819303956130405 14.5473
42.843219287476536 14.5018
42.86713657716324 14.4967
42.89105582671383 14.4844
42.91516392983864 14.4582
42.939087119032166 14.4037
42.963012272677304 14.4339
42.98693939230129 14.3794
43.01105543317513 14.3459
43.034986504731386 14.2856
43.05891954686589 14.3048
43.08285456110972 14.2716
43.10697856448665 14.2436
43.130917542983475 14.1736
43.15485849820081 14.1955
43.17880143167367 14.1487
43.20293342237094 14.0969
43.226880332449 14.0911
43.25082922540554 14.1426
43.27496722682525 14.1075
43.29892010567796 14.0666
43.32287497204102 13.9695
43.34683182745632 13.9098
43.370977859791836 13.9455
43.39493871351105 13.9447
43.41890156092628 13.9683
43.44286640358341 13.9297
43.46702049182749 13.9056
43.49098934522816 13.8699
43.51496019852649 13.8149
43.5389330532723 13.7969
43.56309522248204 13.7668
43.58707210044314 13.7609
43.61105098451946 13.6818
43.63503187626491 13.7151
43.659202151562134 13.7415
43.68318707902681 13.6824
43.70717401884041 13.6407
43.731162972560874 13.564
43.75534137913236 13.6028
43.779334381108384 13.5517
43.803329401683186 13.5502
43.82732644241872 13.5294
43.8515130055166 13.4956
43.87551410707659 13.4312
43.89951723350145 13.4866
43.923709934595614 13.4172
43.94771713129917 13.4399
43.97172635758096 13.3826
43.99573761501002 13.3804
44.0199385169922 13.3455
44.04395385732619 13.2772
44.067971233533086 13.3387
44.09199064718605 13.2873
44.11619977548961 13.2014
44.14022328470671 13.177999999999999
44.16424883610785 13.2183
44.18827643127035 13.2148
44.21249381139513 13.1614
44.236525514814076 13.1549
44.26055926674478 13.1225
44.28459506876863 13.1265
44.3088207262813 13.0435
44.33286064928722 12.9824
44.35690262714919 12.991
44.38094666145278 12.9441
44.4051806219871 12.9788
44.42922879003185 12.950999999999999
44.45327901929361 12.9144
44.477331311362136 12.8667
44.501573600619416 12.8492
44.525630039221795 12.8503
44.54968854541895 12.8206
44.573937102200176 12.8182
44.5979997645541 12.7758
44.622064499300315 12.7703
44.64613130803592 12.6931
44.67038823869318 12.7276
44.69445921643748 12.6959
44.718532272981385 12.6541
44.742607409926194 12.7095
44.76687274034801 12.645
44.79095205918753 12.6008
44.81503346325094 12.5993
44.839116954143876 12.5406
44.86339071028742 12.5732
44.88747839599524 12.5617
44.91156817336837 12.5047
44.93566004401666 12.503
44.959942251908146 12.436
44.984038330325966 12.4327
45.00813650686762 12.3801
45.03223678314731 12.36
45.05652746888232 12.3312
45.08063196592069 12.357999999999999
45.104738567558705 12.2527
45.128847275414856 12.2975
45.15314646515866 12.2577
45.17725940679741 12.2686
45.20137445952892 12.222999999999999
45.22568004865265 12.2099
45.24979934496396 12.1614
45.27392075725247 12.1393
45.29804428714431 12.1673
45.322358426247604 12.1763
45.346486212804315 12.0812
45.370616121861914 12.0565
45.39474815505086 12.0412
45.41907087049246 11.9987
45.4432071734666 12.0208
45.46734560548283 12.0085
45.49148616817604 11.9749
45.51581748638564 11.9815
45.5399623320197 11.9015
45.56410931325473 11.9018
45.58825843173002 11.9164
45.61259837920865 11.8759
45.636751793816 11.8398
45.66090735060093 11.8052
45.68506505120716 11.8132
45.7094136545275 11.8032
45.73357566449271 11.7254
45.75773982322992 11.7562
45.78190613238733 11.7525
45.806263418194064 11.6908
45.83043404997326 11.7167
45.85460683713677 11.722999999999999
45.87897065658495 11.652999999999999
45.90314777634752 11.5907
45.92732705646868 11.5928
45.9515084986045 11.5724
45.97588104735473 11.6019
46.00006683541565 11.5441
46.02425479047904 11.5668
46.04844491420549 11.533
46.0728262191024 11.5077
46.09702070211635 11.4764
46.12121735879483 11.4598
46.14541619080294 11.4327
46.169806278764455 11.4201
46.194009483459034 11.3953
46.21821486849841 11.3686
46.24242243555223 11.3499
46.266821333570014 11.3457
46.29103328674601 11.3073
46.31524742696538 11.3084
46.33946375590237 11.252
46.36387149104216 11.2197
46.38809221957392 11.1882
46.41231514186606 11.2146
46.436540259597464 11.1765
46.460956858999374 11.207
46.48518638983522 11.1222
46.509418121166966 11.1037
46.533652054678114 11.0966
46.55807754555709 11.0752
46.58231590571962 11.0728
46.60655647313217 11.0006
46.630988654873654 10.9851
46.655233659129024 10.9994
46.67948087571551 10.9883
46.70373030632484 10.9203
46.72817142736393 10.9367
46.752425308428684 10.8935
46.77668140861147 10.8802
46.80093972960865 10.8707
46.82538981736788 10.8275
46.849652602470904 10.7768
46.87391761349769 10.8117
46.8981848521493 10.8112
46.9226439341274 10.7517
46.946915650573224 10.7657
46.97118959976749 10.7451
46.99546578341598 10.7038
47.019933887188216 10.7066
47.04421456235744 10.6862
47.06849747711879 10.6216
47.09278263318286 10.6184
47.11725978640143 10.577
47.14154944775105 10.6075
47.165841355555656 10.5803
47.1901355115306 10.5627
47.214621741924994 10.5382
47.23892041698887 10.5283
47.26322134538975 10.4611
47.28771440635075 10.4469
47.31201986422527 10.4814
47.33632758061436 10.4156
47.360637557241866 10.397
47.38513974410611 10.4123
47.40945426407847 10.3546
47.43377104948137 10.3451
47.45809010204344 10.3314
47.48260144275502 10.3125
47.506925052572285 10.2927
47.53125093475548 10.2555
47.55557909103813 10.2848
47.58009961361992 10.2526
47.60443234110732 10.1883
47.62876734791564 10.215
47.65310463578333 10.1737
47.6776343683373 10.1755
47.7019762413987 10.1251
47.72632040075572 10.0911
47.75066684815169 10.0798
47.77520581885936 10.1107
47.799556865477655 10.0628
47.823910205386 10.0525
47.84826584033272 10.05
47.87281407745551 9.998660000000001
47.89717432569297 10.0198
47.92153687423484 9.99431
47.94609208429692 9.95927
47.97045925671401 9.95047
47.99482873471275 9.90059
48.01920052005013 9.86655
48.04376504619224 9.87381
48.068141469543484 9.92475
48.09252020552573 9.91042
48.11690125590099 9.836910000000001
48.1414751266064 9.839
48.16586082917454 9.79653
48.19024885144316 9.77271
48.2146391951793 9.77936
48.239222439012764 9.750630000000001
48.26361744916137 9.72852
48.28801478610016 9.73681
48.31241445160131 9.708
48.337007097209366 9.68321
48.36141144338331 9.67199
48.38581812345755 9.65286
48.41022713920929 9.65565
48.434829215320704 9.6236
48.45924292604658 9.6354
48.48365897780325 9.62613
48.50807737237308 9.55385
48.532688907799276 9.53125
48.55711201168574 9.51912
48.581537463754074 9.50052
48.60615611725119 9.50933
48.63058628942721 9.49491
48.65501881516546 9.48201
48.6794536962573 9.43832
48.70408185970339 9.4018
48.72852147531801 9.39097
48.75296345168211 9.40954
48.77740779059232 9.41547
48.80204549302823 9.38466
48.82649458091802 9.38309
48.85094603676547 9.32854
48.87539986237231 9.2721
48.90004713292306 9.257060000000001
48.92450572200832 9.28284
48.94896668628025 9.291939999999999
48.97343002754588 9.23265
48.99808689542115 9.192789999999999
49.02255501470614 9.20331
49.04702551642794 9.1648
49.0714984023988 9.15441
49.096164896893235 9.16612
49.120642575466796 9.10966
49.145122643748394 9.093160000000001
49.16960510355558 9.109810000000001
49.19428125404938 9.08378
49.2187685210852 9.04842
49.243258185121555 9.03701
49.26794160167084 9.050980000000001
49.2924360839405 8.99824
49.31693296869764 9.002939999999999
49.34143225776915 8.97372
49.36612538195438 8.94281
49.39062950396021 8.94932
49.41513603578346 8.913730000000001
49.4396449792564 8.857000000000001
49.46434784069503 8.88583
49.488861631846454 8.83725
49.513377840166804 8.84768
49.537896467493745 8.816460000000001
49.56260909589029 8.77581
49.587132585683285 8.811810000000001
49.611658500018365 8.777519999999999
49.636186840738596 8.75298
49.66090926588511 8.75515
49.685442483902584 8.68839
49.70997813385706 8.66968
49.734516217597076 8.68615
49.75924846937352 8.64466
49.7837914452858 8.639389999999999
49.80833686055187 8.63523
49.83288471702571 8.61538
49.85762682540054 8.59198
49.882179588965734 8.56298
49.9067347993235 8.569230000000001
49.93129245833333 8.56124
49.95604445336378 8.55855
49.98060703442832 8.51329
50.005172069746266 8.53047
50.02993150438364 8.49284
50.05450147301533 8.46305
50.07907390151433 8.44782
50.10364879174981 8.44749
50.12841816587289 8.43741
50.1529980044635 8.39275
50.17758031042124 8.39927
50.20216508562089 8.39115
50.22694442953363 8.3765
50.25153416817468 8.35543
50.27612638170508 8.36047
50.300721072005196 8.297989999999999
50.325510416102105 8.30852
50.350110084975064 8.27314
50.37471223628208 8.25424
50.39931687190919 8.23886
50.424116246675766 8.2362
50.44872587605249 8.257
50.47333799543065 8.25312
50.49795260670191 8.20777
50.52276204271512 8.16663
50.54738166295838 8.135539999999999
50.57200378079314 8.12522
50.596628398116835 8.09683
50.62144792604559 8.10962
50.646077567609396 8.12118
50.670709714377715 8.0783
50.69553683636198 8.04843
50.72017401885922 8.05133
50.7448137122895 8.05953
50.76945591856022 8.03318
50.79429318636823 8.04048
50.818940443716784 8.02203
50.84359021965163 7.9669
50.868242516085964 7.961
50.893089960641895 7.92117
50.917747323549435 7.9322
50.94240721271973 7.90745
50.96706963007175 7.88623
50.99192728239342 7.86821
51.01659478166073 7.8834100000000005
51.04126481489051 7.86753
51.06593738400761 7.7988
51.090805275207074 7.79719
51.11548294172845 7.79592
51.14016314993547 7.76805
51.164845901758845 7.759460000000001
51.18972406304274 7.769480000000001
51.21441192780656 7.73959
51.23910234200271 7.71495
51.2637953075678 7.68048
51.288683770237945 7.69602
51.31338186432707 7.677739999999999
51.33808251561888 7.63881
51.362978729967345 7.63318
51.387684521509755 7.626110000000001
51.41239287610203 7.615660000000001
51.437103795691165 7.6020199999999996
51.46201036644977 7.57454
51.486726441956634 7.553719999999999
51.51144508832545 7.57215
51.536166307509156 7.517989999999999
51.56108326624387 7.529319999999999
51.58580965706056 7.507910000000001
51.61053862657523 7.48683
51.635270176746864 7.47325
51.66019755512065 7.42599
51.68493429268881 7.42442
51.70967361681515 7.42001
51.73441552946465 7.40495
51.759353359237934 7.41025
51.7841004750961 7.4063300000000005
51.80885018539685 7.383710000000001
51.833602492111254 7.36322
51.8585508051424 7.36218
51.883308330926425 7.332260000000001
51.90806845906181 7.294910000000001
51.932831191525715 7.2784699999999996
51.95779001977161 7.223910000000001
51.98255798721516 7.2525
52.00732856494335 7.2314300000000005
52.03229530577543 7.223510000000001
52.057071130455945 7.18354
52.081849571391054 7.18629
52.106630630568695 7.216239999999999
52.13160794279417 7.170039999999999
52.15639426492067 7.1749600000000004
52.18118321127822 7.13417
52.205974783860896 7.12338
52.23096269971011 7.09393
52.255759551287994 7.07182
52.280559035098186 7.0709800000000005
52.30536115314103 7.0652
52.33035970494467 7.05053
52.35516711807904 7.0449399999999995
52.37997717147198 7.023
52.40478986713005 7.00758
52.42979908731974 6.999060000000001
52.454617094216 7.001510000000001
52.47943774942214 6.964589999999999
52.50426105495102 6.93967
52.529280976059844 6.93297
52.554109609024096 6.942660000000001
52.57894089837482 6.90128
52.60377484613117 6.88967
52.62880550079408 6.85222
52.65364479223379 6.8521399999999995
52.67848674816189 6.845439999999999
52.70352547971946 6.84865
52.72837279155837 6.84478
52.753222773982785 6.795210000000001
52.778075429022984 6.81072
52.80312495150885 6.7777199999999995
52.827982978797436 6.7531
52.85284368481815 6.7371
52.87770707160767 6.7233600000000004
52.90276741793998 6.7309399999999995
52.92763619336701 6.725280000000001
52.952507655698504 6.692060000000001
52.977381806977576 6.66903
53.00245301017842 6.65716
53.02733256653592 6.64445
53.052214817996074 6.638389999999999
53.077099766608484 6.643
53.102181859804446 6.5851
53.127072229988265 6.613060000000001
53.15196530349892 6.58673
53.17686108239249 6.576919999999999
53.20195409881522 6.53633
53.22685531582556 6.52001
53.25175924441303 6.49112
53.27666588664027 6.4804
53.30176985962693 6.47615
53.3266819565689 6.51387
53.35159677336455 6.445469999999999
53.376514312083096 6.464169999999999
53.40162927507703 6.45115
53.42655228516116 6.43006
53.45147802340193 6.3791199999999995
53.47660125628886 6.4135
53.50153247842639 6.37197
53.52646643496923 6.34145
53.55140312799818 6.353940000000001
53.576537409691696 6.36439
53.60147960336152 6.318630000000001
53.626424539786164 6.28673
53.65137222105307 6.30839
53.67651758529126 6.29712
53.70147078399681 6.25776
53.72642673383343 6.24547
53.75138543689533 6.24514
53.776541917524526 6.24596
53.801506154876755 6.2188099999999995
53.826473151763246 6.18144
53.851442910284916 6.173030000000001
53.87661054126026 6.1567099999999995
53.9015858509782 6.16009
53.92656392866066 6.145519999999999
53.95154477641532 6.1641900000000005
53.976723591801296 6.14755
54.00171000771266 6.11252
54.02669920004598 6.10661
54.051691170915745 6.10433
54.076881204886796 6.0666
54.101878760928514 6.0719
54.12687910187696 6.053030000000001
54.152077577768296 6.06286
54.1770835166946 6.01726
54.20209224691339 6.01941
54.22710377055121 5.9879
54.25231352511594 5.943890000000001
54.27733066384342 5.9568900000000005
54.30235060239643 5.95657
54.32737334290836 5.9282699999999995
54.35259441062629 5.88722
54.377622783395324 5.86655
54.40265396455061 5.82819
54.42768795623251 5.8595
54.45292037169559 5.82828
54.477960012857906 5.8435
54.50300247099511 5.8373099999999996
54.52804774825457 5.79143
54.55329154616743 5.75397
54.57834249018678 5.7632699999999994
54.6033962597977 5.69545
54.6284528571545 5.698519999999999
54.653708072335164 5.65192
54.67877035378786 5.6671
54.70383546947698 5.6863
54.72890342156389 5.64334
54.7541700889442 5.60773
54.77924374251975 5.5835
54.8043202390049 5.57369
54.82959552413022 5.52292
54.8546777351945 5.5417
54.87976279569621 5.50749
54.90485070780914 5.5123
54.930137506558005 5.45285
54.95523115074295 5.4674
54.98032765308844 5.43175
55.005427015775496 5.39502
55.03072536339621 5.42973
55.05583047570572 5.3781099999999995
55.080938454927676 5.36672
55.10604930325027 5.33272
55.131359235107396 5.32685
55.15647585066083 5.29531
55.181595341907496 5.2889
55.20671771104285 5.26294
55.232039262617704 5.24213
55.25716741665048 5.22504
55.28229845518636 5.18574
55.30743238042802 5.09693
55.33276558731939 5.13111
55.357905315183636 5.13574
55.383047936390035 5.11249
55.40819345314859 5.070119999999999
55.433538351073295 5.054130000000001
55.458689688238415 5.01656
55.483843927614096 4.96358
55.509197623043605 4.94822
55.53435769621134 4.92544
55.55952067826466 4.92497
55.5846865714265 4.93739
55.61005202069737 4.92442
55.63522376553902 4.90612
55.66039842818645 4.85011
55.68557601087004 4.85222
55.7109532500271 4.76457
55.73613670233794 4.78855
