TT I
1.2716486653135266 7.39907
1.2939594142134223 7.3194300000000005
1.3162702121660406 6.50105
1.3385810600174564 6.3573699999999995
1.3608919586137629 6.14366
1.383202908801069 6.32016
1.405513911425503 5.801
1.4278249673332093 6.0370800000000004
1.4501343378461518 5.75689
1.4724455028545926 5.77499
1.4947567236847858 5.95225
1.517068001182951 6.2519800000000005
1.5393793361953272 5.73707
1.5616907295681737 5.03366
1.5840021821477681 5.0058300000000004
1.60631369478041 5.0605400000000005
1.6286252683124185 5.452000000000001
1.6509369035901333 4.323119999999999
1.6732468618895553 4.7211300000000005
1.695558623192809 5.1681099999999995
1.7178704487808514 5.1226
1.7401823395001077 4.67301
1.7625012545597203 4.67401
1.7848028405262486 4.92595
1.8071218901122095 5.11726
1.8294236121921872 4.38863
1.8517427996910911 4.75537
1.8740620574440425 4.32199
1.8963639900671978 4.90572
1.9186833908139995 5.21746
1.9409854680117449 5.0442599999999995
1.9633050151394713 4.7594
1.9856246367570705 4.4054400000000005
2.0079269371922672 4.24573
2.03024671027244 4.81049
2.0525491637446027 4.67546
2.074869091674931 4.03404
2.097171701569106 4.8869
2.1194917877373847 4.97875
2.141811954326636 4.78989
2.164114805233074 4.6156
2.186435135143035 5.29835
2.208738150935709 9.96915
2.231058647554722 17.2827
2.2533792288321184 13.0367
2.275682498336085 7.56763
2.298003251406138 5.8263
2.3203066942619714 5.9869699999999995
2.3426276225136022 5.59596
2.3649486396617507 5.59924
2.387252348930071 6.12608
2.4095735463442893 6.4966099999999996
2.4318774374315884 7.150410000000001
2.4541988185014043 6.52474
2.476502894794693 6.657789999999999
2.498824462909887 7.40199
2.521146125856138 7.6343
2.5434504863470337 7.34484
2.5657723414244717 7.91662
2.588076895590662 8.72132
2.610398946189713 8.83104
2.6327210958598384 8.2509
2.6550259469304716 8.89583
2.6773482972090137 8.45445
2.6996533504259 7.97647
2.7219759047039602 8.13775
2.744298562293959 8.63135
2.7666039251246595 8.36163
2.7889267918020164 8.22076
2.8112323652516555 8.30635
2.833555444408179 8.97857
2.8558786311183852 8.68644
2.8781845268938557 9.10657
2.9005079311721484 9.74793
2.9228140460410397 10.0509
2.9451376712799635 9.347560000000001
2.967444008632326 9.808769999999999
2.9897678582247247 10.1439
3.0120918213106695 10.2173
3.0343984987899373 10.2432
3.0567226913198637 11.2661
3.079029599759726 11.6957
3.101354025127254 12.4945
3.123678568232338 12.9708
3.145985829517914 13.1717
3.16831061055229 13.8993
3.1906181112775593 14.1797
3.212943133635653 15.0072
3.2352682779763207 15.4701
3.2575761442691227 15.6576
3.2799015350264273 15.7549
3.302209649240067 16.1664
3.3245352898092655 16.9109
3.3468436553365257 17.4998
3.369169549113219 17.8253
3.3914955708171384 18.6709
3.413804319727358 18.6364
3.4361305997334863 18.879
3.4584396084414553 19.5404
3.4807661501462652 19.8582
3.503092824025881 20.1621
3.5254022288463154 20.811999999999998
3.5477291695206588 21.6155
3.5700388426251948 21.4598
3.5923660534916446 23.2047
3.6146934007816114 31.6934
3.637003482731501 58.0885
3.6593311053109985 61.9289
3.681641464033634 40.4713
3.7039693653009733 27.2972
3.726297407241705 25.1757
3.7486081875460804 25.3857
3.7709365132734978 25.8944
3.793247578841633 26.0391
3.8155761917550093 26.3146
3.8378875459837216 26.7824
3.8602164494827234 27.0824
3.882545499606844 27.9302
3.9048572932539183 28.6055
3.9271866390645718 28.4513
3.9494987298666713 28.9773
3.971828374764527 29.921
3.9941581705403255 30.1906
4.016470713506008 31.0439
4.038800813471445 31.7634
4.061113662089144 32.3833
4.0834440696459176 32.9168
4.105774632334751 32.8097
4.128087945865126 33.9399
4.150418821249301 34.6903
4.172732448931298 35.4702
4.195063640413578 36.9847
4.2173775856475215 39.5445
4.239709096631102 59.0784
4.262040768704612 143.92700000000002
4.284355196706267 184.824
4.306687193387355 123.56200000000001
4.329001947444346 61.4026
4.35133427213731 45.0138
4.373666762177566 43.0135
4.395982011761091 43.3076
4.418314834921175 44.4522
4.44063041906622 49.6391
4.4629635787515625 55.2938
4.4852969080429785 55.5316
4.5076130004776225 51.8878
4.529946671403969 54.281000000000006
4.552263106909177 56.8505
4.574597122877047 55.3423
4.596931312711224 53.2422
4.619248269273446 53.065
4.6415828092605835 53.8691
4.663900117405352 54.828
4.686235010953232 56.2657
4.708552674085913 57.0866
4.730887924602802 58.2552
4.753223354952695 60.2748
4.775541557023902 63.1543
4.797877349456786 66.1991
4.820195915032126 67.2378
4.842532072957498 67.1434
4.864868414979744 69.2722
4.88718753227192 72.7278
4.909524244902505 74.4924
4.931843734218147 75.2787
4.954180820867835 76.7555
4.976518095879839 79.9896
4.998838149695359 82.3248
5.021175803844231 86.0784
5.043496238205739 88.7643
5.065834274903528 93.2582
5.088172504230693 98.1116
5.1104935158799565 103.84700000000001
5.132832132875765 121.87700000000001
5.155153533596801 153.637
5.1774925416746225 188.771
5.199814334878411 352.83
5.2221537374521505 936.2460000000001
5.244493338631803 2725.9
5.266815727034316 7912.89
5.289155727832427 13692.9
5.311478517248165 8911.45
5.333818921080011 2628.79
5.356159527788849 483.582
5.3784829252032536 182.81799999999998
5.400823940070432 146.121
5.423147747031976 126.93799999999999
5.445489173474152 116.98899999999999
5.467830807066149 114.954
5.490155234831516 113.807
5.512497285125229 108.725
5.534822130975162 103.35600000000001
5.557164601388673 100.67
5.579489868738879 97.6193
5.601832762690846 96.6584
5.6241758697774475 95.0521
5.646501775867269 94.3291
5.668845311622074 93.5576
5.691171647754637 93.0156
5.713515615597765 91.5398
5.735859800852677 90.8268
5.758186788542988 92.0322
5.780531411018185 94.6724
5.802858837297399 94.5952
5.825203900414495 94.2351
5.8475491852224 96.8443
5.869877275883075 96.6354
5.892223006467101 94.0532
5.914551544266608 93.1519
5.936897724049891 95.6384
5.959244129804903 101.51899999999999
5.981573344815301 122.92299999999999
6.0039202049061 216.61599999999999
6.026249875609095 441.663
6.04859719346037 920.555
6.070927323278297 2214.65
6.093275102315365 4605.45
6.115623113320588 5239.0
6.137953938319995 3006.36
6.160302415650845 824.703
6.182633708324452 196.56799999999998
6.2049826554078376 104.969
6.227331838745022 87.7565
6.249663839443684 81.7715
6.27201349767565 78.722
6.294345974611799 81.4064
6.316696111167083 86.4742
6.339046488263839 82.9514
6.361379686074702 74.59
6.383730546639482 70.0451
6.406064229255215 68.7939
6.428415576718203 68.983
6.450749747566656 67.793
6.47310158535871 66.1013
6.495453669698332 64.6171
6.517788579421056 63.6095
6.540141159237969 62.5879
6.562476565766648 61.8629
6.5848296444934045 61.7397
6.607182974060425 61.8961
6.6295191323281015 61.765
6.651872965955752 62.9485
6.6742096296068985 76.745
6.6965639707294615 101.06
6.71891856698715 99.1541
6.741255995248479 76.186
6.763611104154477 62.5617
6.785949046381137 58.6001
6.808304671371482 58.2153
6.8306605557940046 59.0305
6.852999275508618 58.0673
6.875355681171544 56.7429
6.897694923437771 55.8903
6.92005185377892 55.7982
6.9423916220322655 55.2678
6.964749080490181 54.6072
6.987106804399774 54.9119
7.009447368180821 55.45
7.031805625367033 55.1055
7.054146723727803 54.6671
7.076505517631004 54.0688
7.098864581288365 54.1525
7.121206488070854 54.118
7.143566093607822 54.2637
7.165908543567245 55.0185
7.188268694426048 55.2194
7.2106291193438095 54.8463
7.232972390625943 54.8718
7.255333366030969 61.6736
7.277677189091925 89.589
7.300038718428332 112.45100000000001
7.322400526130865 99.54899999999999
7.344745183422596 71.4573
7.367107550224791 57.3723
7.389452767901992 54.5604
7.411815697249891 54.0076
7.434161478756298 53.0992
7.456524974096713 53.1558
7.478888753837185 52.8873
7.501235387657368 53.593
7.523599738562711 53.5322
7.545946944825532 53.6157
7.568311870344528 54.2515
7.5906770845765665 54.6919
7.613025156078678 55.3441
7.635390950099687 55.8581
7.657739602662809 55.6177
7.680105979923558 55.4233
7.702472650212829 55.8336
7.724822180948224 55.9347
7.747189439655568 55.7412
7.769539560075357 55.3758
7.791907410653562 55.5925
7.81425812420825 55.6939
7.836626570110925 55.8212
7.858995315087906 56.8635
7.881346924933401 56.9754
7.903716270417482 57.2117
7.926068482028405 57.8598
7.948438431475253 58.2899
7.9708086843180235 58.7703
7.993161805171116 59.1596
8.015532667162402 59.9713
8.037886398416653 61.2907
8.060257873014221 61.8248
8.082629655331942 62.2527
8.104984308787587 63.1362
8.127356708900503 65.5686
8.149711981398308 69.9656
8.172085002766314 71.7777
8.194458336181368 70.0643
8.216814543847752 68.2653
8.23918850371002 68.5704
8.26154533906492 69.0944
8.283919928836452 70.6636
8.306277395339652 71.3631
8.328652618483376 72.6103
8.351028159736202 74.5721
8.373386579575245 77.1802
8.395762759396959 78.9572
8.418121819038275 83.0453
8.440498640894003 91.6383
8.462875785192262 102.757
8.485235811156207 121.59899999999999
8.507613602688501 168.02599999999998
8.529974277114228 246.21
8.552352719347912 364.94
8.574731488360351 625.5459999999999
8.59709314210385 1194.61
8.619472567021075 1967.52
8.64183487789147 2281.84
8.664214962183097 1716.85
8.686577933647762 832.363
8.708958680784317 299.711
8.731339760774953 141.158
8.753703729764451 104.723
8.77608547780821 95.495
8.798450116065078 92.8794
8.820832535634787 90.7273
8.843215292401656 90.3776
8.865580941199045 89.7563
8.887964374703538 89.7795
8.910330701447199 90.0674
8.932714815164482 90.50399999999999
8.955099270424924 88.5578
8.977466620733543 85.6643
8.999851761421976 83.9151
9.022219798361645 82.5813
9.04460562795561 82.5946
9.066991803441677 82.4343
9.089360876979615 82.1541
9.111747746589993 82.0889
9.13411751544971 81.1542
9.156505082664324 80.8363
9.178875550323522 80.6242
9.20126381862328 80.9327
9.223652438908596 81.0616
9.246023961427412 80.8598
9.26841328802173 80.8356
9.290785518039224 81.1802
9.313175554425882 82.8996
9.335565947154315 83.8643
9.357939245086508 83.8385
9.380330352834827 83.6531
9.40270436697103 83.8043
9.425096193225055 82.9395
9.447488380180165 83.2118
9.469863475295412 83.2181
9.492256385987508 83.7649
9.514632206018318 84.2169
9.537025843935714 84.7333
9.559402392368193 85.2689
9.581796761000229 87.2664
9.604191496441521 89.3069
9.626569144158516 92.0387
9.648964615551032 94.3716
9.671343000390081 94.7355
9.693739211225699 92.8575
9.716135793237463 91.3836
9.738515290448102 91.8312
9.760912617143402 93.2582
9.783292860202891 95.1048
9.805690935076182 97.2907
9.828089385495742 97.6874
9.850470754023561 98.9905
9.872869957865444 103.95299999999999
9.89525208097539 112.677
9.917652041736662 120.887
9.940052382417589 126.03200000000001
9.962435644102392 143.714
9.984836746950979 180.392
10.007220771957746 237.99400000000003
10.029622640473708 328.967
10.052007432299963 505.34
10.074410069984072 820.8639999999999
10.096813093716005 1306.16
10.119199042482517 1845.46
10.141602840636468 2002.44
10.163989564971628 1481.03
10.186394141051062 776.8839999999999
10.208799107559706 325.157
10.231187001965623 160.865
10.253592751657669 117.773
10.275981430388155 108.834
10.298387966769793 107.619
10.320794897965431 108.655
10.343184759907361 107.602
10.36559248305461 104.245
10.387983138083852 102.818
10.410391656691655 107.551
10.432800574501677 117.899
10.455192425893369 132.621
10.47760214443012 156.809
10.499994797678786 202.041
10.522405320453982 287.431
10.54479877906917 415.559
10.567210109595656 540.673
10.5896218454736 590.085
10.612016518879773 488.202
10.634429067781074 317.968
10.656824555333241 178.4
10.679237920773568 112.777
10.701651695961992 91.8878
10.724048411481384 86.9942
10.746463008485165 84.6752
10.768860546937125 83.1327
10.791275969274796 81.8542
10.81369180576079 80.3764
10.836090585366925 79.4827
10.858507252467449 78.0796
10.88090686379991 77.2091
10.903324365036394 76.9051
10.925724811614439 76.6254
10.948143150509463 77.4031
10.970561909719066 76.89
10.992963615930844 75.5929
11.015383218085756 73.83
11.037785768347074 72.4765
11.06020621697282 71.73100000000001
11.082627090322113 71.0144
11.105030913430326 70.2738
11.12745263854165 70.3472
11.149857314510728 71.8861
11.172279894912576 74.8406
11.194702904450653 74.7405
11.217108866490921 72.2078
11.239532736615194 69.9911
11.26193956033512 68.7907
11.284364294577085 67.4628
11.306789462371718 66.4657
11.329197585398376 65.8035
11.351623622610898 65.831
11.37403261614354 65.1989
11.396459526308487 64.6284
11.418869393879497 64.2276
11.441297180532617 63.9566
11.463725406927658 63.733999999999995
11.486136592353875 63.5062
11.508565700543707 63.8143
11.530977768845315 64.4974
11.553407762368774 64.7446
11.575838200059769 64.4503
11.598251599479612 63.4914
11.620682927815501 62.4635
11.64309721895548 62.2671
11.665529441478206 61.9178
11.687962112597958 61.7786
11.710377748130886 61.8749
11.732811318753434 61.6545
11.755227854859067 61.6942
11.777662328529495 61.5285
11.800079768750786 61.5969
11.822515149015453 61.5098
11.844950984084935 61.8408
11.867369787303163 61.4256
11.889806534289491 60.9837
11.912226250487029 61.526
11.934663912939751 61.8672
11.9571020346363 61.9208
11.979523127133968 62.0044
12.001962169624331 62.9301
12.024384183972964 63.9296
12.046824150809913 67.1388
12.069264581333726 71.3078
12.091687985297767 76.859
12.11412934550045 85.4758
12.136553680195208 101.354
12.158995973632788 126.355
12.181438735204349 157.266
12.20386447284199 188.774
12.226308172985636 213.735
12.24873485024193 198.175
12.271179492516982 154.578
12.293607112949127 113.572
12.316052700916226 85.8679
12.338498763250042 71.919
12.360927805303868 66.2285
12.383374818673879 64.0696
12.405804812803074 63.1214
12.428252780773262 62.8751
12.45070122756722 62.9321
12.473132656675375 62.868
12.49558206341869 63.2859
12.518014453510101 63.4806
12.540464823770117 63.6987
12.562915677315177 63.8418
12.58534951575545 64.1841
12.607801338171472 65.1693
12.630236146511358 68.2034
12.652688941369085 70.4777
12.675124723177234 70.9735
12.697578494048786 69.5729
12.720032754458185 67.3363
12.742470003354093 66.4499
12.764925245138771 66.5772
12.787363476431278 66.7815
12.809819703166806 67.1942
12.83227642391173 68.0935
12.854716135692716 68.8646
12.877173846755147 70.0286
12.899614549869717 70.0578
12.9220732548287 71.0868
12.94453245827299 71.5171
12.966974655289818 72.4334
12.989434858002571 73.3891
13.011878055298721 73.8705
13.034339260862497 74.7032
13.056800969391883 75.9713
13.079245674017244 78.4946
13.101708390774869 81.7875
13.12415410463411 89.4409
13.146617833206086 99.7216
13.169064559883248 109.227
13.191529303857127 122.84299999999999
13.213994557076367 144.852
13.236442809902437 183.37900000000002
13.258909083908291 243.812
13.28135835851934 316.182
13.30382565690295 391.403
13.326293469022952 442.255
13.348744283242008 425.30300000000005
13.371213125129904 334.155
13.39366497011003 231.55200000000002
13.416134845360597 152.528
13.438605238843131 113.791
13.46105863690397 102.087
13.483530069144786 103.802
13.505984506951902 108.632
13.528456981549432 117.837
13.550929978879088 131.476
13.573385983253365 156.05
13.595860028340867 199.588
13.618317081455832 257.281
13.64079217790333 326.557
13.663250283359057 378.68
13.685726434770173 387.79400000000004
13.708203115221277 329.236
13.730662806148091 240.398
13.75314054697177 167.695
13.775601299246777 115.896
13.798080104050406 91.5663
13.820559442405358 82.8333
13.843021793671388 79.9096
13.865502201420897 78.5936
13.887965623051947 78.1152
13.910447103807167 77.1621
13.932929122629764 75.9415
13.955394156785959 75.2241
13.977877254034569 74.4366
14.000343367582113 73.6049
14.022827546871707 72.9162
14.045294743423524 72.2703
14.06778000837062 71.6304
14.090265817715476 71.7158
14.112734645763819 71.2787
14.13522154619454 70.6469
14.157691466286913 70.6988
14.180179461423874 70.6165
14.202668005486178 69.9955
14.22513957064374 69.4561
14.247629214846473 69.1344
14.270101881097517 68.9421
14.29259262906496 69.0349
14.315083930490205 69.419
14.337558255389705 69.5759
14.360050666019726 69.4939
14.382526101071944 68.804
14.405019624534942 68.2754
14.427513705993134 67.8688
14.449990813291825 67.6759
14.47248601302899 67.5393
14.49496423954951 67.5467
14.517460561197822 67.5778
14.539939910570322 67.2505
14.562437357763558 67.7215
14.58493536931253 68.2988
14.607416409993311 68.9517
14.62991555254159 69.3641
14.652397725157423 69.3714
14.674898002342799 69.2901
14.697398848433282 69.3464
14.719882725991326 70.4282
14.74238471217934 71.7329
14.764869730765593 75.095
14.787372860692983 78.1207
14.809876564079925 81.8618
14.83236330125751 87.2234
14.854868153850365 95.544
14.877356041159485 109.447
14.899862046604186 129.703
14.922351087688757 158.22799999999998
14.944858249632887 189.267
14.967365991421232 217.78799999999998
14.989856770231246 229.373
15.012365673994204 215.679
15.03485761569738 179.303
15.05736768508665 138.136
15.07987833888692 104.03
15.102372032001655 83.944
15.124883856909658 73.832
15.14737872204565 70.5174
15.169891721717274 69.1299
15.192405310371893 68.8494
15.214901940621196 69.1092
15.237416709527137 68.7406
15.259914520936249 68.4882
15.282430473753607 67.7964
15.304947020131227 66.9194
15.327446610371178 66.275
15.349964346154254 65.804
15.372465126703139 65.3599
15.394984055556009 65.2867
15.417486030076159 65.2517
15.44000615566487 64.9319
15.462526881230803 64.9855
15.485030653812652 64.703
15.507552581617434 64.7674
15.530057557334603 64.7136
15.55258069104857 64.7322
15.575104429329837 64.8316
15.597611216864632 64.7752
15.620136166564563 65.2697
15.6426441664095 66.3304
15.665170331202765 68.4353
15.687697105158826 71.2298
15.710206930593545 74.4377
15.732734925158933 78.1923
15.755245972089478 84.3679
15.77777519094324 93.1973
15.800287463046663 107.522
15.822817909869592 128.239
15.84534897229804 152.59
15.867863089299354 176.93200000000002
15.890395385222186 194.005
15.912910736597423 194.84400000000002
15.935444269699861 177.291
15.957978423016485 145.889
15.980495633101265 112.26299999999999
16.003031029129367 87.132
16.02554948280019 71.7
16.048086125229432 64.6547
16.070623392487107 62.8909
16.09314371869582 62.3178
16.11568223789321 61.3799
16.13820381691126 60.6977
16.160743591742527 59.7936
16.183283996022084 59.1609
16.205807461423195 58.1118
16.228349126881973 57.7625
16.25087385432698 57.556000000000004
16.27341678466365 57.0139
16.29594277784926 57.0776
16.31848697676433 56.9415
16.341031811604868 56.7398
16.36355971058487 57.0882
16.3861058195587 56.8728
16.40863499352978 55.783
16.431182380342005 55.3118
16.453730407713202 54.8405
16.476261501364792 54.5792
16.498810812136167 54.465
16.52134319004079 54.6026
16.54389378792203 54.4284
16.566445031001553 54.1825
16.588979342490088 54.0851
16.61153187824822 53.8944
16.634067483263312 53.8931
16.656621315414416 53.9049
16.679175797408888 53.4706
16.701713349928728 53.5186
16.72426913389191 53.7617
16.74680798922351 53.5736
16.76936507887444 53.7268
16.791905240734874 53.7953
16.814463639794468 53.7518
16.837022695210294 53.8506
16.859564824093756 54.14
16.882125194503903 54.2978
16.904668639217885 54.9575
16.927230328348003 54.7622
16.949792678493612 54.9478
16.972338104193863 54.638999999999996
16.994901778652235 54.4657
17.017448529496576 54.5263
17.040013531998152 54.9612
17.06257920018044 55.6648
17.0851279459922 56.3949
17.107694947817667 56.9125
17.130245028099072 57.74100000000001
17.15281336730298 58.7854
17.17536478578733 60.4407
17.19793446610687 62.7947
17.220504818648422 65.8596
17.243058251703697 69.6726
17.265629950971032 74.5591
17.288184731571736 79.3826
17.310757781306908 83.0957
17.33333150794385 83.1544
17.355888317140174 79.8896
17.37846339986244 73.8703
17.401021565958885 67.4413
17.42359800851343 62.9451
17.44617513265564 60.1097
17.468735341390783 58.8904
17.491261035594565 58.1462
17.51396340099364 57.7081
17.536490463869136 58.1171
17.559018209820174 57.9093
17.58154663977963 58.1981
17.604251766089718 58.4302
17.626781572227713 58.6951
17.64931206518155 58.7794
17.671843245885103 59.2403
17.69455114821572 59.4682
17.717083712612634 59.5455
17.739616967569667 60.0062
17.762150914021706 60.2376
17.78486160749854 60.3153
17.807396945166804 61.2431
17.829932977143503 62.3047
17.85246970436452 63.7098
17.875183204129467 65.3035
17.897721330097664 67.0303
17.920260154126645 69.1928
17.942799677153296 72.0254
17.9655159983646 75.8728
17.988056927677544 81.3627
18.010598558807683 89.7368
18.033140892692916 100.696
18.05586005052525 113.065
18.07840379824407 125.54
18.10094825154059 134.821
18.12366954819864 139.635
18.146215420998306 136.46200000000002
18.16876200220057 125.304
18.191309292745153 110.79
18.214033452627167 96.3153
18.236582170236648 87.0546
18.259131600016456 83.677
18.281681742907335 85.20200000000001
18.304408781233683 90.4439
18.32696035875955 96.8092
18.349512652227624 102.542
18.372065662579683 106.257
18.394795594587553 105.73100000000001
18.41735004715306 99.6542
18.43990521943684 91.4142
18.46246111238171 81.8149
18.485193953325208 73.2731
18.507751296070428 67.0483
18.530309362314178 63.961000000000006
18.552868153000343 62.2447
18.57560391815056 61.0564
18.59816416623245 60.5487
18.620725141597372 60.0999
18.643286845190268 59.6725
18.666025549835414 59.2729
18.688588718427933 58.7148
18.711152618092243 58.5393
18.73389353884365 58.2463
18.75645890921984 57.8941
18.77902501351406 57.611000000000004
18.801591852673102 57.4847
18.824335739722738 57.1652
18.846904057212626 57.0347
18.8694731124168 56.7131
18.89204290628315 56.6487
18.914789774966803 56.4636
18.937361054791623 56.1526
18.959933076131318 56.0506
18.982505839934877 56.0525
19.00525570560582 56.0725
19.027829963004184 55.9412
19.05040496572238 55.8901
19.072980714710468 55.9643
19.095733592739563 56.1567
19.11831084296757 56.538000000000004
19.140888842324735 56.6814
19.16346759176222 56.8147
19.18622349753803 57.363
19.208803755869358 58.3164
19.231384767143577 59.442
19.253966532312948 61.1188
19.276725481241822 63.4497
19.29930876296784 66.2461
19.3218928014549 69.3094
19.34465404436217 72.2394
19.36723960516257 74.6736
19.389825925592426 74.98100000000001
19.412413006605938 73.4156
19.43517731967805 69.1752
19.457765930683355 64.6064
19.48035530514408 60.435
19.50294544401556 56.9602
19.525712842708348 54.8944
19.54830451925909 53.7913
19.570896963095727 53.1108
19.593490175174704 52.9282
19.616260674962184 53.0674
19.638855432416964 52.6441
19.661450960992624 52.7942
19.68404726164677 52.7081
19.706820878021247 52.5629
19.729418731756834 52.7505
19.752017360452857 52.1513
19.77461676506804 52.4295
19.797393513540218 52.7743
19.819994478951667 52.9833
19.84259622316767 53.4079
19.8651987471481 53.7216
19.887978643247177 53.9215
19.91058273574792 54.4307
19.933187610901943 55.1953
19.955969879466828 56.3837
19.97857632894404 58.0184
20.00118356396599 59.7722
20.023791585494575 62.2872
20.046577028914875 65.0001
20.069186632506966 67.4703
20.091797025500632 69.2404
20.114408208858933 69.4714
20.137196842715273 68.3843
20.159809615886765 66.1437
20.18242318232135 63.4378
20.20503754298326 61.6231
20.227829382875154 61.0973
20.250445341109344 61.4184
20.27306209647285 62.4669
20.29567964993108 64.0194
20.31847471147704 64.8934
20.34109387027612 65.4224
20.363713830075454 64.3932
20.386334591841646 62.2329
20.409132890679302 59.3428
20.431755265564437 56.1034
20.454378445325528 53.465
20.477002430930366 51.8913
20.499803982716553 50.9872
20.522429589228004 50.1752
20.54505600449589 49.9182
20.567683229489194 49.5816
20.590488049900088 49.3578
20.61311690359731 49.2662
20.63574656993626 49.023999999999994
20.658553853717297 48.6544
20.681185154618298 48.783
20.703817271080066 48.7216
20.72645020407368 48.3774
20.749260783967177 48.1919
20.771895359337133 48.133
20.794530754161617 48.2336
20.817166969412938 48.056000000000004
20.83998086114876 48.0353
20.86261872660049 47.7792
20.885257415405402 47.8634
20.90789692853701 47.8425
20.930714147864748 47.6711
20.953355319030678 47.8501
20.97599731745334 47.952
20.99864014410749 47.7781
21.021460706796564 47.7191
21.044105199328826 47.8938
21.06675052302631 48.0565
21.089396678865015 48.3138
21.112220600704806 48.5887
21.134868430275347 48.9816
21.15751709492456 49.3234
21.180166595629693 49.5355
21.202993892429635 50.2531
21.22564507473034 50.5755
21.24829709602816 50.6776
21.27112693608965 50.6692
21.293780644891275 50.5206
21.316435195634053 49.6945
21.339090589297417 48.8493
21.361923832041875 48.4763
21.384580921090404 47.9699
21.407238856007325 47.4907
21.429897637773326 47.4287
21.45273429906592 47.5435
21.475394784108598 47.4524
21.498056118951983 47.3933
21.520718304578022 47.7991
21.543558400304388 47.8499
21.566222297108816 48.0994
21.58888704765135 48.1757
21.61155265291521 48.5202
21.63439619898156 48.8582
21.657063523335786 49.1733
21.67973170537063 49.5298
21.7024007460706 49.9125
21.72524775840385 50.7545
21.747918526116475 51.7342
21.770590155457388 53.1003
21.79326264741238 54.8747
21.816113141960237 56.9949
21.838787368860547 58.9825
21.861462461341976 61.1373
21.884315579735777 63.0688
21.90699241312273 64.0545
21.92967011506078 64.2533
21.95234868653799 63.2546
21.9752053151131 61.4298
21.997885635446785 59.3066
22.020566828293532 57.5502
22.04324889464272 56.3333
22.066109049404666 55.2247
22.088792872571794 55.1496
22.111477572219204 55.4088
22.1341631493376 55.4827
22.157026846313123 55.1056
22.179714188221507 54.0014
22.202402410582668 52.7005
22.22509151438863 51.321999999999996
22.24795876962584 50.0051
22.270649646204486 49.303000000000004
22.293341407213727 48.7891
22.316034053646906 48.4616
22.338904883215342 48.1281
22.36159931041458 48.1147
22.38429462602756 48.0342
22.40699083104897 47.8108
22.429865251039757 47.8073
22.452563244831367 47.861999999999995
22.47526213102522 47.9066
22.49813925616515 47.6984
22.520839937143307 47.7763
22.543541513520587 47.7718
22.56624398629403 47.7305
22.589124730075895 47.6226
22.611829005656723 47.9562
22.63453418063466 47.9286
22.657240256008077 48.0704
22.680124634582935 48.1583
22.70283252079775 48.1737
22.725541310413075 48.5659
22.74825100442868 48.9128
22.771139033969575 49.2627
22.79385054687155 49.6009
22.81656296718292 50.2562
22.83927629590484 51.1311
22.862167992606945 52.3228
22.88488314827121 53.5358
22.907599215359284 54.6931
22.93031619487366 55.985
22.953211574954405 56.7899
22.975930389478226 57.3537
22.998650119445763 57.3521
23.02137076586092 56.0451
23.044269845560063 54.4892
23.06699233506288 52.9575
23.089715744034912 51.044
23.112617610931565 49.7605
23.135342869061212 48.7237
23.158069049684816 48.0377
23.1807961538087 47.8629
23.20370174880544 47.9484
23.226430710184808 47.9243
23.249160598093425 47.9678
23.271891413539002 47.8974
23.294800752937697 47.9833
23.31753343374794 48.1349
23.340267045128353 48.1425
23.36300158808808 48.5386
23.38591468821339 48.9857
23.408651104658304 49.4993
23.431388455719986 50.1238
23.454126742409 50.9623
23.4770436196085 52.2812
23.499783787914662 53.5246
23.522524894889884 54.5121
23.54526694154616 55.714
23.56818761219047 56.9408
23.59093154860734 57.3535
23.613676427751283 57.2139
23.636422250635754 56.0113
23.659346731118656 54.2321
23.68209445191868 52.0176
23.704843119509587 49.9236
23.72759273490623 48.0574
23.750521041644767 46.824
23.77327256312355 45.9552
23.796025035462787 45.5994
23.818956224555475 45.2911
23.841710609113413 45.111999999999995
23.86446594758979 45.0272
23.887222241002014 44.5693
23.910157285144578 44.486999999999995
23.932915498962537 44.4223
23.955674670778713 44.3546
23.978434801611975 44.1416
24.001373717286125 43.9264
24.024135776723917 43.7831
24.046898798245582 43.7473
24.06966278287146 43.7807
24.092605586582614 43.6354
24.115371508023642 43.3868
24.1381383956401 43.2757
24.16090625045381 43.24100000000001
24.183852958731244 43.097
24.206622758582608 43.0328
24.229393528706886 42.8361
24.252165270127392 42.8682
24.27511589952438 42.9338
24.297889594216997 42.6816
24.32066426328598 42.443999999999996
24.34343990775613 42.5578
24.36639447485003 42.5134
24.38917208083877 42.3799
24.41195066531332 42.3106
24.43490819850244 42.3804
24.457688750692377 42.0814
24.48047028445616 42.1848
24.503252800821233 42.2927
24.526214300784112 42.3669
24.548998793132213 42.3938
24.57178427117417 42.1688
24.59457073593893 42.3265
24.617536219319863 42.0829
24.64032466834748 42.1426
24.663114107195035 41.9228
24.685904536893013 41.7945
24.708874020360852 41.656000000000006
24.731666442613744 41.7213
24.754459858818787 41.5799
24.777254270007962 41.6286
24.80022777025625 41.4495
24.82302418230472 41.461000000000006
24.845821592443674 41.5226
24.86862000170663 41.4834
24.891597535453727 41.4328
24.914397953892728 41.6259
24.93719937456671 41.5037
24.96000179851076 41.5367
24.98298338249997 41.7679
25.00578782394922 42.0535
25.028593271784167 42.2856
25.05157790644186 42.5487
25.07438537804115 42.6092
25.097193859145293 42.9719
25.120003350792075 43.0939
25.142992065061257 43.5722
25.165803588823465 43.6726
25.18861612625217 43.9135
25.211429678386736 44.0185
25.234422489079968 43.832
25.257238081693636 44.0584
25.280054692141732 44.2761
25.3028723214652 44.1972
25.325869245420463 44.3833
25.348688923599397 44.3517
25.371509623787006 44.2399
25.394331347025812 43.7629
25.41733240110666 43.1762
25.440156181590016 42.3726
25.46298098826268 41.9068
25.48580682216873 41.3522
25.50881202326435 40.8854
25.53163992281684 40.6448
25.55446885274561 40.3447
25.577298814096377 40.2147
25.600308179121807 40.2085
25.623140214533745 40.2398
25.64597328451537 40.0393
25.66898578564376 39.8273
25.691820936010206 39.9409
25.714657124097695 39.679
25.737494350954734 39.8831
25.760511045684957 39.7609
25.783350361364224 39.8562
25.806190718969255 39.8861
25.82903211955018 39.9117
25.852053024868923 39.8917
25.874896522722523 39.9134
25.897741066713106 39.9354
25.920586657892454 40.0794
25.943611790812668 40.1758
25.966459487728237 40.3903
25.989308234998564 40.4262
26.01215803367705 40.8725
26.03518741123814 40.988
26.05803932412957 41.0368
26.080892291600094 40.9694
26.10374631470478 40.9515
26.12677995397268 41.013999999999996
26.14963609978026 41.0591
26.172493304397875 40.6172
26.19535156888223 40.3477
26.218389486949604 39.9338
26.241249882640123 39.8021
26.26411134137826 39.4907
26.28715248187403 39.5745
26.31001607820869 39.4288
26.3328807407756 39.2745
26.35574647063438 39.5098
26.37879191991473 39.3697
26.401659795896734 39.4677
26.424528742360263 39.5053
26.447398760366614 39.6172
26.470448535598294 39.8658
26.49332070826805 40.1603
26.516193955675355 40.5891
26.53906827888316 40.559
26.562122397260108 40.8653
26.584998883685063 41.2209
26.607876449110325 41.4485
26.63075509460056 41.6063
26.65381357334404 41.7606
26.67669439061878 41.5039
26.699576291163382 41.4901
26.722459276044212 41.1701
26.745522132402975 40.8968
26.768407297649354 40.5435
26.791293550442003 40.3744
26.814180891848974 40.1317
26.837248143099337 39.8118
26.860137673466657 39.7596
26.88302829566349 39.4548
26.90592001075963 39.2243
26.92899167420566 39.0337
26.951885586870763 38.7774
26.974780595655517 38.608000000000004
26.99785558178161 38.5273
27.020752794605112 38.3267
27.043651106772522 38.109
27.06655051935668 38.0852
27.089629948036183 38.0826
27.112531573292053 38.0195
27.135434302194138 38.113
27.158338135817015 37.8941
27.181422024430987 37.8618
27.204328079372566 37.8235
27.22723524226965 37.817
27.250143514198573 37.9767
27.273231880156334 37.9548
27.296142382065014 37.8115
27.319053996245536 37.7785
27.341966723775965 37.7443
27.365059584515222 37.7842
27.38797455070062 37.8866
27.410890633481237 37.731
27.433807833936918 37.6748
27.456905206923906 37.8202
27.47982465472398 37.8984
27.502745223449743 37.9559
27.525666914182825 38.1811
27.548768816912457 38.0428
27.571692763693633 37.8466
27.59461783573812 37.7668
27.617723149491244 37.5754
27.640650484125285 37.4566
27.66357894728264 37.4659
27.686508540048052 37.3939
27.709618414237887 37.3427
27.732550278321757 37.2633
27.755483275279115 37.203
27.778417406196485 37.2732
27.801531858397514 37.2799
27.824468269376716 37.1909
27.847405817586786 37.1963
27.870344504116094 37.3365
27.893463551932008 37.4368
27.916404527281053 37.6996
27.93934664422563 37.8223
27.962289903855886 37.9419
27.98541356491974 38.1286
28.00835912214229 38.1522
28.03130582533231 38.5514
28.054253675581805 38.676
28.077381967556104 38.507
28.100332124185126 38.4404
28.123283431160893 38.2479
28.146235889577238 38.0807
28.169368830154156 37.9448
28.192323603752033 37.7235
28.215279532083304 37.5184
28.238415973016764 37.2479
28.261374223145094 37.1012
28.284333631303806 36.9059
28.307294198589954 36.7431
28.330435319167677 36.4596
28.353398217078915 36.2742
28.376362277420153 35.9523
28.39932750129032 35.8383
28.422473319286713 35.7427
28.44544088262495 35.6452
28.468409612800283 35.611
28.491379510913497 35.473
28.51453004413313 35.2912
28.53750229057244 35.2658
28.56047570826344 35.3467
28.583450298308804 35.2105
28.606605564586562 35.0927
28.629582511831156 35.1293
28.65256063474956 35.0061
28.675539934446338 35.044000000000004
28.698699951647605 34.9446
28.72168161743193 34.9219
28.74466446331978 34.8578
28.767648490417624 34.8005
28.790813276438353 34.8427
28.813799678527303 34.9106
28.836787265157085 34.8399
28.859955641890075 34.8064
28.882945610203045 34.9027
28.905936766392035 34.7204
28.928929111566863 34.7216
28.952102288520145 34.5635
28.975097024308607 34.5276
28.998092952423807 34.3516
29.021090073977508 34.3405
29.04426806913204 34.2431
29.067267590245258 33.9555
29.090268308143695 34.0103
29.11327022394099 33.9133
29.13645305530891 33.8386
29.159457379627167 33.7698
29.18246290519685 33.7287
29.20546963313352 33.7288
29.22865731875826 33.6866
29.25166646419296 33.7314
29.27467681535305 33.6704
29.29768837335608 33.747
29.320880931312562 33.7931
29.34389491580634 33.7249
29.366910110507334 33.6425
29.38992651653503 33.6937
29.41312396492981 33.6813
29.436142806456754 33.5077
29.45916286268059 33.5455
29.48236399319994 33.4553
29.50538649169417 33.2563
29.528410208259935 33.1751
29.55143514402014 32.9324
29.574641196749695 32.8173
29.597668583816574 32.6853
29.6206971934585 32.6146
29.64372702680042 32.6554
29.666938019934474 32.5378
29.689970313635285 32.4391
29.713003834422636 32.4066
29.73603858342347 32.3711
29.759254535188578 32.3023
29.78229175361658 32.177
29.80533020365064 32.2845
29.82836988641968 32.301
29.85159081507472 32.1342
29.874632976355343 32.0617
29.89767637376955 32.0813
29.920721008448314 32.0273
29.9439469322847 32.1193
29.96699405457564 31.9347
29.9900424175358 32.0552
30.013092022298157 31.9727
30.03632295963995 31.9495
30.059375061131373 32.0181
30.08242840783577 32.1131
30.105483000888153 31.9133
30.128718970092244 31.8498
30.151776069006917 31.793000000000003
30.17483441768648 31.971
30.198074175317235 31.9609
30.221135036724256 31.8574
30.24419715131772 31.6926
30.267260520236203 31.7555
30.290505341942243 31.7755
30.313571232750228 31.7125
30.336638381310948 31.7661
30.35970678876503 31.6691
30.38295669299435 31.6689
30.40602763151657 31.5059
30.429099832366074 31.6098
30.452173296685572 31.5624
30.47542830191959 31.522
30.498504306502497 31.5126
30.521581577995562 31.588
30.544660117543582 31.5914
30.56792024229725 31.6238
30.59100133132069 31.6893
30.614083691845494 31.7472
30.637167325018545 31.7088
30.660432587840603 31.7241
30.683518779717886 31.7119
30.70660624769615 31.6089
30.729694992924372 31.7324
30.75296541239743 31.7598
30.77605672557558 31.6476
30.799149319462742 31.5669
30.8224236211637 31.4573
30.845518789950724 31.3082
30.868615242910597 31.2576
30.891712981195973 31.2122
30.91499247215866 30.9126
30.938092794619365 31.0452
30.96119440587579 30.9677
30.984297307082752 30.8377
31.00758200598383 30.6947
31.030687500658694 30.7421
31.053794288760695 30.6191
31.076902371446767 30.500999999999998
31.100192296997445 30.6465
31.12330298246119 30.4941
31.14641496599209 30.4091
31.169528248749216 30.4517
31.19282341969534 30.4686
31.215939314557186 30.4136
31.239056512134788 30.4031
31.262175013589378 30.3868
31.28547544871168 30.3612
31.30859657161541 30.3726
31.331719001892175 30.3695
31.35484274070538 30.4296
31.378148458819545 30.3546
31.401274828443725 30.3373
31.424402510106933 30.3109
31.447712205419993 30.3906
31.470842524931633 30.3333
31.493974159989783 30.3702
31.51710711176168 30.3491
31.54042212308802 30.2982
31.563557722100917 30.2466
31.586694641341655 29.9961
31.609832881979628 29.9775
31.63315322823208 29.9505
31.656294125521327 29.7882
31.679436347728515 29.7974
31.70257989602529 29.7177
31.725905596152327 29.686
31.74905181052835 29.6401
31.772199354521323 29.6908
31.79534822930507 29.719
31.818679302290967 29.6748
31.84183085259981 29.6231
31.864983737233473 29.598000000000003
31.88813795736804 29.641
31.911474422233013 29.6278
31.934631327356435 29.5956
31.9577895715215 29.5416
31.980949155906522 29.5209
32.004291031706956 29.4894
32.027453310562606 29.444000000000003
32.05061693318573 29.2365
32.07396288236386 29.1925
32.09712920658542 29.1681
32.12029687812702 29.0472
32.14346589817093 28.98
32.166817291729984 29.0223
32.18998902288583 28.999000000000002
32.21316210610336 28.9124
32.23633654256711 28.8357
32.259693399663725 28.69
32.282870556771144 28.5831
32.30604907069099 28.6188
32.329228942610065 28.7152
32.35259128243769 28.5481
32.375773884550505 28.4649
32.398957848235646 28.4324
32.422143174682176 28.2358
32.445511016471215 28.2659
32.468699082679954 28.2705
32.49188851523011 28.2241
32.51507931531304 28.1261
32.538452678331 28.1641
32.56164622776311 28.124000000000002
32.58484114831493 28.1304
32.60803744118015 28.0597
32.631416344731896 28.0951
32.654615396551876 28.0695
32.67781582427913 27.9692
32.701198898634416 27.8663
32.72440209253756 27.7463
32.747606665947124 27.7713
32.77081262006088 27.6412
32.79420126883317 27.616999999999997
32.81740999876112 27.7311
32.840620112999424 27.6639
32.86383161274818 27.5602
32.88722585534586 27.5672
32.91044014056596 27.5859
32.933655814909734 27.5799
32.95687287957963 27.5361
32.98027273544904 27.4502
33.00349259526636 27.4737
33.026713849030116 27.4394
33.04993649794511 27.3917
33.073341986570746 27.3009
33.09656744032826 27.3562
33.11979429286444 27.3232
33.14302254538647 27.3014
33.166433686291185 27.2711
33.18966475336992 27.3091
33.212897224069096 27.1659
33.23613109959831 27.2293
33.259547912343415 27.1285
33.2827846121627 27.1323
33.306022720453775 27.0048
33.32926223842861 26.9967
33.352684742614166 27.0873
33.37592709463173 26.9868
33.399170859982064 26.8221
33.422597648419426 26.8051
33.44584425514446 26.6628
33.46909227885668 26.6796
33.4923417207723 26.5701
33.51577423505344 26.5936
33.539026528130385 26.4367
33.56228024307245 26.4736
33.585535381098246 26.2986
33.60897364093058 26.3415
33.63223163992385 26.3781
33.6554910656699 26.3185
33.678751919389796 26.2663
33.702195944520106 26.1228
33.72545966903325 26.0769
33.74872482519663 26.0981
33.771991414233746 26.049
33.79544122444841 26.0337
33.81871069412428 25.9721
33.84198160035767 25.9769
33.86525394437455 25.9586
33.88870955949969 25.8588
33.911984794020626 25.8435
33.93526147001624 25.7652
33.958539588715006 25.79
33.98200102861669 25.7478
34.0052820477047 25.6816
34.02856451319451 25.6109
34.05203033759056 25.5137
34.07531571090147 25.4985
34.09860253431845 25.589000000000002
34.121890809074316 25.4001
34.145362493118924 25.4546
34.16865368561615 25.4161
34.191946333164054 25.3679
34.21524043699793 25.3392
34.23871800066799 25.3499
34.26201503218366 25.2699
34.28531352370466 25.2335
34.30861347646881 25.0807
34.33209693978188 25.0678
34.3553998301885 25.1014
34.378704185565205 24.9539
34.402010007152356 24.9665
34.42549939016683 24.923000000000002
34.44880815937748 24.7722
34.472118398533134 24.7466
34.49543010887669 24.8171
34.51892543169198 24.7104
34.54224009966052 24.7715
34.56555624255917 24.7342
34.58887386163339 24.5133
34.61237514439016 24.5265
34.6356957311114 24.5362
34.65901779775809 24.496
34.68252356662995 24.4476
34.705848608458616 24.4999
34.72917513396849 24.3804
34.75250314440949 24.4035
34.77601490857862 24.3404
34.799345904259795 24.2589
34.82267838863559 24.2519
34.846012362958525 24.2385
34.869530142679984 24.1873
34.89286711232212 24.1491
34.91620557568269 24.1532
34.93954553401677 24.1299
34.9630693495876 24.0734
34.986412313340814 24.17
35.00975677584668 24.1454
35.033102738362956 24.0504
35.05663261012228 23.9806
35.0799815881786 23.8815
35.10333207003229 23.854
35.12668405694369 23.9025
35.150220005273056 23.8067
35.17357501786656 23.7717
35.19693153931268 23.7754
35.220289570874385 23.7705
35.24383161619786 23.7865
35.267192683604904 23.7073
35.290555264930376 23.6523
35.314101899412165 23.6337
35.33746752422433 23.6575
35.36083466676374 23.6782
35.38420332829803 23.6366
35.407756095629054 23.6315
35.43112781085063 23.5694
35.45450104888391 23.5276
35.477875810999194 23.5019
35.50143473172161 23.3793
35.52481255774625 23.3883
35.54819191167777 23.4273
35.57157279478914 23.3265
35.595137889488406 23.3024
35.61852184675279 23.2367
35.641907337029984 23.2815
35.665294361595684 23.1901
35.68886565090076 23.169
35.7122557598848 23.186
35.73564740699838 23.0923
35.759040593519934 23.1471
35.78261809810353 23.0247
35.80601437933051 22.9157
35.829412203814705 22.9179
35.85281157283719 22.8811
35.876395313415884 22.9314
35.8997977874528 22.781999999999996
35.92320180988546 22.7701
35.946790244133936 22.7769
35.97019737933222 22.6932
35.993606066789866 22.6345
36.01701630779276 22.5977
36.04061101440684 22.5431
36.06402437852291 22.5614
36.08743930005611 22.6168
36.1108557802951 22.5367
36.13445678011326 22.5538
36.15787639383515 22.5077
36.18129757014299 22.4142
36.20472031032821 22.4352
36.22832762423364 22.3662
36.25175350829375 22.3112
36.275180960119776 22.1882
36.298609981005924 22.2861
36.32222362992669 22.261999999999997
36.34565580510207 22.2505
36.36908955323448 22.1861
36.39252487562093 22.1449
36.416144880530226 22.0433
36.43958336764275 22.0668
36.463023432914625 22.1219
36.486465077645676 22.0169
36.51009145956204 22.049
36.53353627947859 21.9474
36.55698268276811 21.974
36.58043067073321 21.8539
36.60406345072071 21.7968
36.62751462435344 21.8579
36.65096738658405 21.8093
36.67460498210655 21.706999999999997
36.69806093788647 21.7549
36.72151848619297 21.6463
36.744977628333636 21.608
36.76862165890998 21.5423
36.79208400512205 21.5538
36.81554794910557 21.5885
36.83901349217101 21.4605
36.862663978991606 21.4304
36.88613273667352 21.3945
36.90960309738324 21.4305
36.933075062434064 21.4006
36.95673202673572 21.3421
36.98020721697122 21.2706
37.003684015502365 21.2177
37.027162423645365 21.2467
37.050825886711465 21.2173
37.07430753063053 21.1719
37.09779078812467 21.198
37.121275660513014 21.0971
37.144945643673694 21.0781
37.16843376245278 21.0996
37.19192350009803 21.1178
37.215414857931435 21.0192
37.239091382563885 20.9086
37.262585997426164 20.896
37.28608223645736 20.8409
37.309763684451696 20.7863
37.33326318851098 20.8021
37.356764320726555 20.7887
37.380267082425526 20.7551
37.40395510942588 20.7226
37.42746114683234 20.6546
37.45096881771841 20.6678
37.474478123414166 20.6741
37.49817275092816 20.6108
37.52168534303452 20.5167
37.54519957395567 20.4595
37.568715445024665 20.5469
37.592416694607714 20.3976
37.61593586281424 20.4312
37.63945667518264 20.4701
37.66297913304891 20.4003
37.68668702630454 20.375
37.710212792059274 20.2908
37.733740207334854 20.250999999999998
37.757269273470364 20.14
37.780983832050374 20.0961
37.80451621684926 20.0911
37.82805025654007 20.1662
37.851585952464795 20.0747
37.8753071980695 20.0261
37.89884622345676 19.9701
37.92238690911902 20.0412
37.94611318753442 19.8983
37.969657210779765 19.9016
37.99320289834801 19.9063
38.016750251586465 19.8519
38.04048325513017 19.9158
38.06403395679343 19.8102
38.087586328183946 19.7108
38.11114037065203 19.6497
38.13488012115898 19.7616
38.1584375229181 19.6875
38.181996599821 19.6526
38.205557353221124 19.5694
38.229303872575656 19.6113
38.2528679961576 19.5796
38.27643380031219 19.5186
38.30000128639589 19.5071
38.32375459653193 19.4702
38.34732546371299 19.4704
38.37089801690786 19.3988
38.39447225747609 19.335
38.418232380377425 19.2478
38.441810012983396 19.2786
38.46538933705673 19.2933
38.488970353960084 19.2084
38.51273731166058 19.1754
38.536321731567014 19.1139
38.55990784840681 19.178
38.58367995004091 19.144000000000002
38.60726947812959 19.012
38.63086070726198 19.0774
38.654453638806274 19.0566
38.678232613930824 19.0093
38.70182896773327 18.9678
38.72542702806741 18.9113
38.7490267963045 18.9277
38.77281266709232 18.8772
38.79641586862214 18.8132
38.8200207821842 18.7193
38.843627409152944 18.7939
38.86742019782782 18.7835
38.891030269149255 18.6876
38.914642058016156 18.6582
38.938255565806124 18.6748
38.96205529464307 18.6873
38.98567225787121 18.657
39.00929094417078 18.5961
39.03291135492255 18.5719
39.05671804624804 18.4908
39.080341923549106 18.4672
39.103967529460334 18.4738
39.127594865365744 18.4287
39.15140854155791 18.392
39.17503935514948 18.4181
39.19867190290282 18.361
39.22249083587951 18.3565
39.24612686969409 18.3487
39.269764641845306 18.2954
39.293404153722804 18.172
39.317230110864074 18.1408
39.34087311998506 18.129
39.36451787301696 18.1398
39.388164371352595 18.1208
39.41199737518003 18.0656
39.43564738196752 18.0584
39.45929913825317 18.0043
39.48295264543308 17.9771
39.506792718520884 17.9347
39.530449745387216 17.9689
39.55410852735203 17.9113
39.57776906581474 17.8862
39.60161623079 17.824
39.625280300200025 17.8023
39.64894613032202 17.8042
39.67261372255866 17.8038
39.6964680021016 17.7704
39.72013913657293 17.8027
39.74381203738292 17.7196
39.76748670593756 17.659000000000002
39.79134812278169 17.6194
39.81502634488497 17.5737
39.83870633896685 17.572
39.862388106436654 17.5713
39.88625668336918 17.5322
39.90994201572829 17.5196
39.933629125719285 17.4717
39.957503091207826 17.3871
39.9811937746168 17.4485
40.00488623990914 17.4653
40.02858048850006 17.3861
40.05246165409549 17.3146
40.076159487492085 17.2849
40.099859108448875 17.332
40.123560518384345 17.2202
40.1474489070226 17.2189
40.171153913178564 17.1828
40.194860712584955 17.2074
40.2185693066637 17.1218
40.242464941335314 17.1102
40.26617714307655 17.1165
40.289891143772046 17.0942
40.3136069448471 16.9844
40.33750984859743 17.0158
40.3612292688043 17.0222
40.3849504936829 16.9608
40.40867352466194 16.9288
40.43258372059144 16.9319
40.45631038219906 16.8739
40.48003885420956 16.8292
40.503769138055105 16.8287
40.52768664931955 16.8194
40.55142057531802 16.8147
40.57515631746428 16.72
40.599079334038514 16.7029
40.62281872700477 16.6914
40.64655994043941 16.6583
40.67030297578061 16.6466
40.69423334835778 16.5946
40.71798004609188 16.6241
40.74172857006355 16.6048
40.76547892171441 16.5614
40.7894166736039 16.5316
40.813170699248566 16.5073
40.83692655691388 16.4609
40.86068424804498 16.4687
40.884629402612525 16.4046
40.908390779366385 16.3536
40.932153993938 16.3671
40.95591904777605 16.3466
40.979871628443995 16.3263
41.003640379561936 16.2926
41.02741097430883 16.2406
41.05118341413683 16.1641
41.075143444384416 16.169
41.098919593177826 16.2017
41.1226975914255 16.1567
41.14647744058318 16.1336
41.170444943946755 16.0757
41.19422851378379 15.9903
41.218013938914645 15.9918
41.24198706625173 15.9794
41.26577622087193 15.9635
41.289567235177785 15.9667
41.31336011063129 15.9083
41.337340752422875 15.8982
41.361137369129835 15.8283
41.38493585138705 15.8498
41.40873620066004 15.7888
41.43272438060107 15.8152
41.45652848292052 15.7679
41.48033445666918 15.7311
41.50414230331616 15.7373
41.528138045159764 15.6878
41.551949656675205 15.6534
41.575763145513235 15.6066
41.59957851314666 15.5989
41.62358184070442 15.5491
41.64740098505737 15.6057
41.6712220126409 15.5756
41.69504492493139 15.5292
41.71905586207357 15.4508
41.74288256296395 15.4366
41.766711153007456 15.4426
41.79054163368412 15.3662
41.814560204340054 15.3796
41.838394485526365 15.4286
41.86223066180303 15.3386
41.88625497706819 15.3043
41.910094962812 15.290999999999999
41.93393684811168 15.1871
41.95778063445365 15.2138
41.981812625263366 15.2035
42.00566023303407 15.1418
42.029509746323676 15.1293
42.05336116662236 15.165
42.077400857069705 15.1423
42.10125611078846 15.0543
42.12511327600405 15.0294
42.14897235421036 15.0561
42.173019768448455 15.0104
42.19688269209613 14.9608
42.22074753323349 14.9255
42.24461429335818 14.9053
42.268669455600495 14.9028
42.292540073217886 14.8554
42.31641261433284 14.9034
42.34028708044675 14.8272
42.36435001496739 14.8177
42.38822835065557 14.8252
42.41210861586426 14.7565
42.4359908120986 14.7283
42.46006154323262 14.7255
42.48394762115317 14.6449
42.507835634632315 14.6732
42.531912233047436 14.6203
42.55580413732265 14.533
42.579697981698 14.5632
42.60359376768525 14.5161
42.62767820545945 14.5596
42.65157789440821 14.4737
42.67547952952185 14.4913
42.699383112316 14.5214
42.72347541395347 14.3901
42.74738291190531 14.3638
42.771292362102166 14.3414
42.795203766063516 14.3456
42.819303956130405 14.3482
42.843219287476536 14.2794
42.86713657716324 14.2819
42.89105582671383 14.2523
42.91516392983864 14.2508
42.939087119032166 14.2063
42.963012272677304 14.2028
42.98693939230129 14.1482
43.01105543317513 14.0883
43.034986504731386 14.1278
43.05891954686589 14.075
43.08285456110972 14.0866
43.10697856448665 14.0678
43.130917542983475 13.9757
43.15485849820081 13.9601
43.17880143167367 13.8936
43.20293342237094 13.8948
43.226880332449 13.9409
43.25082922540554 13.9061
43.27496722682525 13.850999999999999
43.29892010567796 13.8065
43.32287497204102 13.7856
43.34683182745632 13.7555
43.370977859791836 13.7112
43.39493871351105 13.7709
43.41890156092628 13.7574
43.44286640358341 13.6989
43.46702049182749 13.7107
43.49098934522816 13.6837
43.51496019852649 13.6673
43.5389330532723 13.5651
43.56309522248204 13.5362
43.58707210044314 13.5292
43.61105098451946 13.4935
43.63503187626491 13.4966
43.659202151562134 13.4867
43.68318707902681 13.4734
43.70717401884041 13.4531
43.731162972560874 13.4228
43.75534137913236 13.3343
43.779334381108384 13.3265
43.803329401683186 13.3041
43.82732644241872 13.3263
43.8515130055166 13.2857
43.87551410707659 13.2531
43.89951723350145 13.2732
43.923709934595614 13.2065
43.94771713129917 13.2016
43.97172635758096 13.1969
43.99573761501002 13.1253
44.0199385169922 13.1382
44.04395385732619 13.1309
44.067971233533086 13.0965
44.09199064718605 13.0567
44.11619977548961 13.0663
44.14022328470671 13.0003
44.16424883610785 13.0219
44.18827643127035 12.9958
44.21249381139513 12.9661
44.236525514814076 12.9307
44.26055926674478 12.8947
44.28459506876863 12.9336
44.3088207262813 12.8774
44.33286064928722 12.8673
44.35690262714919 12.8436
44.38094666145278 12.8324
44.4051806219871 12.8289
44.42922879003185 12.7973
44.45327901929361 12.7593
44.477331311362136 12.7272
44.501573600619416 12.7009
44.525630039221795 12.685
44.54968854541895 12.6216
44.573937102200176 12.6589
44.5979997645541 12.6664
44.622064499300315 12.5938
44.64613130803592 12.5069
44.67038823869318 12.5772
44.69445921643748 12.5046
44.718532272981385 12.4728
44.742607409926194 12.4934
44.76687274034801 12.44
44.79095205918753 12.4061
44.81503346325094 12.3995
44.839116954143876 12.4322
44.86339071028742 12.3627
44.88747839599524 12.3809
44.91156817336837 12.2979
44.93566004401666 12.325999999999999
44.959942251908146 12.29
44.984038330325966 12.219000000000001
45.00813650686762 12.1476
45.03223678314731 12.1553
45.05652746888232 12.1736
45.08063196592069 12.1636
45.104738567558705 12.1316
45.128847275414856 12.0933
45.15314646515866 12.0601
45.17725940679741 12.058
45.20137445952892 12.0601
45.22568004865265 12.0476
45.24979934496396 12.0422
45.27392075725247 11.9554
45.29804428714431 11.9484
45.322358426247604 11.9501
45.346486212804315 11.9179
45.370616121861914 11.9741
45.39474815505086 11.875
45.41907087049246 11.850999999999999
45.4432071734666 11.8245
45.46734560548283 11.808
45.49148616817604 11.8315
45.51581748638564 11.7949
45.5399623320197 11.7971
45.56410931325473 11.7368
45.58825843173002 11.7143
45.61259837920865 11.6999
45.636751793816 11.6956
45.66090735060093 11.6254
45.68506505120716 11.6167
45.7094136545275 11.592
45.73357566449271 11.5553
45.75773982322992 11.5453
45.78190613238733 11.5494
45.806263418194064 11.5019
45.83043404997326 11.5026
45.85460683713677 11.4938
45.87897065658495 11.5061
45.90314777634752 11.458
45.92732705646868 11.4104
45.9515084986045 11.4319
45.97588104735473 11.4139
46.00006683541565 11.413
46.02425479047904 11.3407
46.04844491420549 11.3136
46.0728262191024 11.3055
46.09702070211635 11.3005
46.12121735879483 11.2582
46.14541619080294 11.2329
46.169806278764455 11.2499
46.194009483459034 11.2
46.21821486849841 11.1763
46.24242243555223 11.148
46.266821333570014 11.1323
46.29103328674601 11.1269
46.31524742696538 11.0973
46.33946375590237 11.0688
46.36387149104216 11.0975
46.38809221957392 11.0119
46.41231514186606 11.0118
46.436540259597464 11.0378
46.460956858999374 10.944
46.48518638983522 10.9678
46.509418121166966 10.9331
46.533652054678114 10.9197
46.55807754555709 10.9005
46.58231590571962 10.9045
46.60655647313217 10.8699
46.630988654873654 10.815999999999999
46.655233659129024 10.807
46.67948087571551 10.8154
46.70373030632484 10.8155
46.72817142736393 10.7582
46.752425308428684 10.7408
46.77668140861147 10.7544
46.80093972960865 10.6843
46.82538981736788 10.6261
46.849652602470904 10.6442
46.87391761349769 10.6434
46.8981848521493 10.6248
46.9226439341274 10.5935
46.946915650573224 10.5999
46.97118959976749 10.5523
46.99546578341598 10.5371
47.019933887188216 10.5359
47.04421456235744 10.5249
47.06849747711879 10.4902
47.09278263318286 10.468
47.11725978640143 10.4689
47.14154944775105 10.4368
47.165841355555656 10.3879
47.1901355115306 10.3844
47.214621741924994 10.3607
47.23892041698887 10.3697
47.26322134538975 10.3024
47.28771440635075 10.3171
47.31201986422527 10.2852
47.33632758061436 10.2457
47.360637557241866 10.2511
47.38513974410611 10.242
47.40945426407847 10.2506
47.43377104948137 10.1946
47.45809010204344 10.2169
47.48260144275502 10.1689
47.506925052572285 10.1364
47.53125093475548 10.1249
47.55557909103813 10.1343
47.58009961361992 10.0685
47.60443234110732 10.0859
47.62876734791564 10.0511
47.65310463578333 10.0408
47.6776343683373 10.0373
47.7019762413987 9.992
47.72632040075572 9.946010000000001
47.75066684815169 9.94069
47.77520581885936 9.91258
47.799556865477655 9.916089999999999
47.823910205386 9.9211
47.84826584033272 9.903369999999999
47.87281407745551 9.86523
47.89717432569297 9.8728
47.92153687423484 9.84168
47.94609208429692 9.804269999999999
47.97045925671401 9.80172
47.99482873471275 9.75028
48.01920052005013 9.724110000000001
48.04376504619224 9.69013
48.068141469543484 9.70782
48.09252020552573 9.705589999999999
48.11690125590099 9.70539
48.1414751266064 9.68597
48.16586082917454 9.69289
48.19024885144316 9.64653
48.2146391951793 9.67708
48.239222439012764 9.62097
48.26361744916137 9.56528
48.28801478610016 9.553469999999999
48.31241445160131 9.55265
48.337007097209366 9.54107
48.36141144338331 9.5393
48.38581812345755 9.50922
48.41022713920929 9.50095
48.434829215320704 9.45951
48.45924292604658 9.45585
48.48365897780325 9.41255
48.50807737237308 9.41736
48.532688907799276 9.4035
48.55711201168574 9.394169999999999
48.581537463754074 9.360339999999999
48.60615611725119 9.384210000000001
48.63058628942721 9.34414
48.65501881516546 9.31775
48.6794536962573 9.31937
48.70408185970339 9.28285
48.72852147531801 9.246
48.75296345168211 9.20325
48.77740779059232 9.18891
48.80204549302823 9.22377
48.82649458091802 9.19172
48.85094603676547 9.16254
48.87539986237231 9.16225
48.90004713292306 9.12825
48.92450572200832 9.1283
48.94896668628025 9.13069
48.97343002754588 9.09093
48.99808689542115 9.07479
49.02255501470614 9.04518
49.04702551642794 9.06436
49.0714984023988 8.99505
49.096164896893235 8.99509
49.120642575466796 8.983189999999999
49.145122643748394 8.97092
49.16960510355558 8.93711
49.19428125404938 8.9324
49.2187685210852 8.90316
49.243258185121555 8.90405
49.26794160167084 8.85367
49.2924360839405 8.83765
49.31693296869764 8.85361
49.34143225776915 8.81867
49.36612538195438 8.77846
49.39062950396021 8.79839
49.41513603578346 8.78839
49.4396449792564 8.75858
49.46434784069503 8.76704
49.488861631846454 8.720260000000001
49.513377840166804 8.734869999999999
49.537896467493745 8.7192
49.56260909589029 8.65648
49.587132585683285 8.65255
49.611658500018365 8.65565
49.636186840738596 8.62991
49.66090926588511 8.62435
49.685442483902584 8.6165
49.70997813385706 8.5667
49.734516217597076 8.59075
49.75924846937352 8.57752
49.7837914452858 8.537460000000001
49.80833686055187 8.496789999999999
49.83288471702571 8.49779
49.85762682540054 8.53925
49.882179588965734 8.49204
49.9067347993235 8.48193
49.93129245833333 8.471160000000001
49.95604445336378 8.4274
49.98060703442832 8.389619999999999
50.005172069746266 8.36789
50.02993150438364 8.3641
50.05450147301533 8.3795
50.07907390151433 8.34618
50.10364879174981 8.31512
50.12841816587289 8.27955
50.1529980044635 8.31962
50.17758031042124 8.270710000000001
50.20216508562089 8.243139999999999
50.22694442953363 8.22667
50.25153416817468 8.22816
50.27612638170508 8.22984
50.300721072005196 8.17976
50.325510416102105 8.162360000000001
50.350110084975064 8.17028
50.37471223628208 8.14454
50.39931687190919 8.09453
50.424116246675766 8.07617
50.44872587605249 8.08482
50.47333799543065 8.09457
50.49795260670191 8.045819999999999
50.52276204271512 8.04279
50.54738166295838 8.065719999999999
50.57200378079314 8.04335
50.596628398116835 7.98376
50.62144792604559 7.988389999999999
50.646077567609396 7.96462
50.670709714377715 7.951039999999999
50.69553683636198 7.95993
50.72017401885922 7.93461
50.7448137122895 7.93708
50.76945591856022 7.899589999999999
50.79429318636823 7.883830000000001
50.818940443716784 7.9090300000000004
50.84359021965163 7.85486
50.868242516085964 7.830369999999999
50.893089960641895 7.85743
50.917747323549435 7.79718
50.94240721271973 7.76708
50.96706963007175 7.7781199999999995
50.99192728239342 7.7822
51.01659478166073 7.77376
51.04126481489051 7.76695
51.06593738400761 7.75121
51.090805275207074 7.724589999999999
51.11548294172845 7.723269999999999
51.14016314993547 7.675389999999999
51.164845901758845 7.66717
51.18972406304274 7.631189999999999
51.21441192780656 7.61315
51.23910234200271 7.599310000000001
51.2637953075678 7.5884100000000005
51.288683770237945 7.5754399999999995
51.31338186432707 7.56655
51.33808251561888 7.54736
51.362978729967345 7.5452
51.387684521509755 7.547210000000001
51.41239287610203 7.51483
51.437103795691165 7.4962
51.46201036644977 7.48831
51.486726441956634 7.42238
51.51144508832545 7.41909
51.536166307509156 7.427339999999999
51.56108326624387 7.412389999999999
51.58580965706056 7.423610000000001
51.61053862657523 7.350060000000001
51.635270176746864 7.331810000000001
51.66019755512065 7.331169999999999
51.68493429268881 7.3164
51.70967361681515 7.31544
51.73441552946465 7.29351
51.759353359237934 7.29328
51.7841004750961 7.27693
51.80885018539685 7.25753
51.833602492111254 7.255139999999999
51.8585508051424 7.22646
51.883308330926425 7.21192
51.90806845906181 7.22955
51.932831191525715 7.186710000000001
51.95779001977161 7.15291
51.98255798721516 7.142469999999999
52.00732856494335 7.10988
52.03229530577543 7.13995
52.057071130455945 7.103610000000001
52.081849571391054 7.07194
52.106630630568695 7.10089
52.13160794279417 7.0662
52.15639426492067 7.077610000000001
52.18118321127822 7.05501
52.205974783860896 6.99194
52.23096269971011 7.02567
52.255759551287994 6.99783
52.280559035098186 6.96915
52.30536115314103 6.95591
52.33035970494467 6.96748
52.35516711807904 6.958760000000001
52.37997717147198 6.922960000000001
52.40478986713005 6.88852
52.42979908731974 6.85779
52.454617094216 6.876860000000001
52.47943774942214 6.8814
52.50426105495102 6.843139999999999
52.529280976059844 6.840210000000001
52.554109609024096 6.802039999999999
52.57894089837482 6.79473
52.60377484613117 6.796010000000001
52.62880550079408 6.80254
52.65364479223379 6.76204
52.67848674816189 6.7352
52.70352547971946 6.74804
52.72837279155837 6.72606
52.753222773982785 6.71847
52.778075429022984 6.702389999999999
52.80312495150885 6.68508
52.827982978797436 6.67139
52.85284368481815 6.65003
52.87770707160767 6.629630000000001
52.90276741793998 6.62684
52.92763619336701 6.5894
52.952507655698504 6.56922
52.977381806977576 6.592110000000001
53.00245301017842 6.583239999999999
53.02733256653592 6.54985
53.052214817996074 6.5744
53.077099766608484 6.53329
53.102181859804446 6.51896
53.127072229988265 6.49754
53.15196530349892 6.5126800000000005
53.17686108239249 6.48287
53.20195409881522 6.47147
53.22685531582556 6.45378
53.25175924441303 6.43029
53.27666588664027 6.39625
53.30176985962693 6.3842300000000005
53.3266819565689 6.36299
53.35159677336455 6.38375
53.376514312083096 6.3541
53.40162927507703 6.35548
53.42655228516116 6.31839
53.45147802340193 6.33549
53.47660125628886 6.30123
53.50153247842639 6.31184
53.52646643496923 6.26489
53.55140312799818 6.2838400000000005
53.576537409691696 6.277419999999999
53.60147960336152 6.21983
53.626424539786164 6.20718
53.65137222105307 6.23135
53.67651758529126 6.2129900000000005
53.70147078399681 6.19341
53.72642673383343 6.19284
53.75138543689533 6.1470199999999995
53.776541917524526 6.123130000000001
53.801506154876755 6.12205
53.826473151763246 6.12472
53.851442910284916 6.07608
53.87661054126026 6.070790000000001
53.9015858509782 6.1058900000000005
53.92656392866066 6.07792
53.95154477641532 6.07062
53.976723591801296 6.061730000000001
54.00171000771266 6.011369999999999
54.02669920004598 6.02048
54.051691170915745 5.9795300000000005
54.076881204886796 5.962219999999999
54.101878760928514 5.98532
54.12687910187696 5.9543099999999995
54.152077577768296 5.94388
54.1770835166946 5.91427
54.20209224691339 5.9228
54.22710377055121 5.89914
54.25231352511594 5.895230000000001
54.27733066384342 5.88961
54.30235060239643 5.8568
54.32737334290836 5.85909
54.35259441062629 5.79542
54.377622783395324 5.78188
54.40265396455061 5.79394
54.42768795623251 5.78519
54.45292037169559 5.76995
54.477960012857906 5.73908
54.50300247099511 5.70795
54.52804774825457 5.7070099999999995
54.55329154616743 5.71999
54.57834249018678 5.6573400000000005
54.6033962597977 5.686
54.6284528571545 5.65026
54.653708072335164 5.58426
54.67877035378786 5.62329
54.70383546947698 5.55567
54.72890342156389 5.56841
54.7541700889442 5.49655
54.77924374251975 5.49594
54.8043202390049 5.50017
54.82959552413022 5.45371
54.8546777351945 5.451569999999999
54.87976279569621 5.44859
54.90485070780914 5.40819
54.930137506558005 5.42035
54.95523115074295 5.38301
54.98032765308844 5.35745
55.005427015775496 5.35409
55.03072536339621 5.36189
55.05583047570572 5.28216
55.080938454927676 5.2542599999999995
55.10604930325027 5.27775
55.131359235107396 5.29475
55.15647585066083 5.26346
55.181595341907496 5.208880000000001
55.20671771104285 5.1747
55.232039262617704 5.18018
55.25716741665048 5.16261
55.28229845518636 5.1361
55.30743238042802 5.04244
55.33276558731939 5.06955
55.357905315183636 5.0215
55.383047936390035 4.994269999999999
55.40819345314859 5.00296
55.433538351073295 4.98775
55.458689688238415 4.9658
55.483843927614096 4.91381
55.509197623043605 4.94071
55.53435769621134 4.94451
55.55952067826466 4.8672699999999995
55.5846865714265 4.84295
55.61005202069737 4.85203
55.63522376553902 4.83312
55.66039842818645 4.7778599999999996
55.68557601087004 4.72393
55.7109532500271 4.764390000000001
55.73613670233794 4.708419999999999
