TT I
1.2716486653135266 7.17665
1.2939594142134223 6.7826
1.3162702121660406 6.3537
1.3385810600174564 6.3596900000000005
1.3608919586137629 7.158189999999999
1.383202908801069 7.2014
1.405513911425503 6.24636
1.4278249673332093 6.09321
1.4501343378461518 6.2008
1.4724455028545926 5.98308
1.4947567236847858 5.54996
1.517068001182951 5.90116
1.5393793361953272 6.15549
1.5616907295681737 5.75327
1.5840021821477681 5.31075
1.60631369478041 4.70525
1.6286252683124185 4.7373
1.6509369035901333 5.80774
1.6732468618895553 4.92322
1.695558623192809 4.29542
1.7178704487808514 4.97275
1.7401823395001077 5.16029
1.7625012545597203 4.8362099999999995
1.7848028405262486 4.3749400000000005
1.8071218901122095 4.61067
1.8294236121921872 4.46448
1.8517427996910911 4.63962
1.8740620574440425 4.5953
1.8963639900671978 4.78854
1.9186833908139995 4.53275
1.9409854680117449 4.75546
1.9633050151394713 4.69581
1.9856246367570705 4.72485
2.0079269371922672 5.06261
2.03024671027244 4.17716
2.0525491637446027 4.02271
2.074869091674931 4.672280000000001
2.097171701569106 4.13258
2.1194917877373847 4.96563
2.141811954326636 5.34016
2.164114805233074 5.42457
2.186435135143035 6.57147
2.208738150935709 12.9768
2.231058647554722 25.3917
2.2533792288321184 19.7818
2.275682498336085 9.46694
2.298003251406138 6.40905
2.3203066942619714 5.7297199999999995
2.3426276225136022 5.66587
2.3649486396617507 5.854369999999999
2.387252348930071 5.93099
2.4095735463442893 6.12212
2.4318774374315884 6.00002
2.4541988185014043 6.48236
2.476502894794693 7.41022
2.498824462909887 7.251360000000001
2.521146125856138 7.62185
2.5434504863470337 7.7530399999999995
2.5657723414244717 8.11546
2.588076895590662 8.3539
2.610398946189713 8.51797
2.6327210958598384 8.05097
2.6550259469304716 8.44508
2.6773482972090137 7.989489999999999
2.6996533504259 7.943739999999999
2.7219759047039602 8.40696
2.744298562293959 8.13706
2.7666039251246595 8.52143
2.7889267918020164 8.20167
2.8112323652516555 8.28759
2.833555444408179 8.50614
2.8558786311183852 8.49567
2.8781845268938557 8.619439999999999
2.9005079311721484 9.19384
2.9228140460410397 9.21996
2.9451376712799635 9.67343
2.967444008632326 10.0374
2.9897678582247247 10.1753
3.0120918213106695 10.4077
3.0343984987899373 11.1919
3.0567226913198637 11.8499
3.079029599759726 11.7176
3.101354025127254 12.3094
3.123678568232338 12.8388
3.145985829517914 13.0678
3.16831061055229 13.3328
3.1906181112775593 14.5617
3.212943133635653 15.0625
3.2352682779763207 15.8447
3.2575761442691227 15.4988
3.2799015350264273 15.854000000000001
3.302209649240067 16.555999999999997
3.3245352898092655 16.614
3.3468436553365257 17.0625
3.369169549113219 17.4374
3.3914955708171384 18.3111
3.413804319727358 18.7024
3.4361305997334863 19.4824
3.4584396084414553 20.0869
3.4807661501462652 20.3156
3.503092824025881 20.7685
3.5254022288463154 20.8961
3.5477291695206588 21.9632
3.5700388426251948 22.3277
3.5923660534916446 23.587
3.6146934007816114 36.8046
3.637003482731501 79.1019
3.6593311053109985 87.8491
3.681641464033634 52.1719
3.7039693653009733 29.881
3.726297407241705 26.0351
3.7486081875460804 25.3998
3.7709365132734978 25.851
3.793247578841633 26.2201
3.8155761917550093 26.4546
3.8378875459837216 26.9515
3.8602164494827234 27.4639
3.882545499606844 27.808000000000003
3.9048572932539183 28.5034
3.9271866390645718 28.5225
3.9494987298666713 29.2873
3.971828374764527 30.7799
3.9941581705403255 31.2029
4.016470713506008 31.3466
4.038800813471445 31.9196
4.061113662089144 32.6758
4.0834440696459176 33.1198
4.105774632334751 33.7252
4.128087945865126 34.9094
4.150418821249301 35.3744
4.172732448931298 36.1752
4.195063640413578 38.438
4.2173775856475215 42.1467
4.239709096631102 70.7595
4.262040768704612 211.62099999999998
4.284355196706267 280.48400000000004
4.306687193387355 181.88400000000001
4.329001947444346 75.523
4.35133427213731 47.4715
4.373666762177566 43.9037
4.395982011761091 43.7215
4.418314834921175 45.6476
4.44063041906622 52.0496
4.4629635787515625 61.9387
4.4852969080429785 61.2778
4.5076130004776225 53.1496
4.529946671403969 50.2278
4.552263106909177 50.688
4.574597122877047 51.5495
4.596931312711224 52.4442
4.619248269273446 52.7684
4.6415828092605835 54.2386
4.663900117405352 55.035
4.686235010953232 56.5961
4.708552674085913 57.6167
4.730887924602802 59.0439
4.753223354952695 60.4007
4.775541557023902 62.0346
4.797877349456786 63.7281
4.820195915032126 65.9253
4.842532072957498 67.0303
4.864868414979744 69.133
4.88718753227192 70.9972
4.909524244902505 72.9153
4.931843734218147 74.1869
4.954180820867835 76.7231
4.976518095879839 79.7068
4.998838149695359 81.8932
5.021175803844231 85.4326
5.043496238205739 88.0987
5.065834274903528 92.6399
5.088172504230693 97.5413
5.1104935158799565 103.564
5.132832132875765 123.264
5.155153533596801 159.77200000000002
5.1774925416746225 189.886
5.199814334878411 314.825
5.2221537374521505 852.908
5.244493338631803 2644.11
5.266815727034316 7714.33
5.289155727832427 12354.5
5.311478517248165 8671.49
5.333818921080011 2681.51
5.356159527788849 503.73
5.3784829252032536 177.984
5.400823940070432 139.968
5.423147747031976 125.137
5.445489173474152 116.792
5.467830807066149 112.40700000000001
5.490155234831516 108.919
5.512497285125229 105.352
5.534822130975162 103.10700000000001
5.557164601388673 100.85
5.579489868738879 97.887
5.601832762690846 97.083
5.6241758697774475 96.2593
5.646501775867269 95.2367
5.668845311622074 93.9419
5.691171647754637 93.0847
5.713515615597765 91.6824
5.735859800852677 91.3081
5.758186788542988 90.3893
5.780531411018185 90.9575
5.802858837297399 90.3503
5.825203900414495 90.1576
5.8475491852224 90.8935
5.869877275883075 91.2115
5.892223006467101 91.6581
5.914551544266608 92.1684
5.936897724049891 94.3284
5.959244129804903 98.4226
5.981573344815301 113.29700000000001
6.0039202049061 188.297
6.026249875609095 406.77
6.04859719346037 901.337
6.070927323278297 2137.72
6.093275102315365 4378.55
6.115623113320588 5279.23
6.137953938319995 3117.83
6.160302415650845 931.36
6.182633708324452 225.137
6.2049826554078376 109.958
6.227331838745022 89.8632
6.249663839443684 83.1269
6.27201349767565 80.6906
6.294345974611799 86.2002
6.316696111167083 95.7436
6.339046488263839 90.5815
6.361379686074702 77.955
6.383730546639482 71.029
6.406064229255215 68.061
6.428415576718203 68.0686
6.450749747566656 66.7011
6.47310158535871 65.4657
6.495453669698332 64.7245
6.517788579421056 63.8999
6.540141159237969 63.0961
6.562476565766648 62.7296
6.5848296444934045 61.9779
6.607182974060425 61.6806
6.6295191323281015 61.9952
6.651872965955752 65.1036
6.6742096296068985 87.7158
6.6965639707294615 127.11399999999999
6.71891856698715 124.89200000000001
6.741255995248479 88.3566
6.763611104154477 66.0931
6.785949046381137 59.6981
6.808304671371482 58.2898
6.8306605557940046 57.65
6.852999275508618 56.882
6.875355681171544 56.7972
6.897694923437771 56.387
6.92005185377892 56.0359
6.9423916220322655 56.1626
6.964749080490181 55.4336
6.987106804399774 55.2171
7.009447368180821 55.5576
7.031805625367033 55.0672
7.054146723727803 54.5648
7.076505517631004 54.8141
7.098864581288365 54.7826
7.121206488070854 54.4163
7.143566093607822 54.3183
7.165908543567245 54.5778
7.188268694426048 54.8224
7.2106291193438095 54.8467
7.232972390625943 56.1221
7.255333366030969 68.0659
7.277677189091925 113.04899999999999
7.300038718428332 152.85399999999998
7.322400526130865 129.382
7.344745183422596 83.1714
7.367107550224791 60.2366
7.389452767901992 55.5312
7.411815697249891 54.6185
7.434161478756298 53.8333
7.456524974096713 53.5271
7.478888753837185 53.727
7.501235387657368 54.2329
7.523599738562711 54.1418
7.545946944825532 54.4215
7.568311870344528 54.7621
7.5906770845765665 54.9293
7.613025156078678 56.0472
7.635390950099687 56.9988
7.657739602662809 56.1079
7.680105979923558 55.4251
7.702472650212829 55.4735
7.724822180948224 55.3806
7.747189439655568 55.7566
7.769539560075357 55.8072
7.791907410653562 56.0352
7.81425812420825 56.2182
7.836626570110925 56.3116
7.858995315087906 56.982
7.881346924933401 57.3415
7.903716270417482 57.7976
7.926068482028405 58.2052
7.948438431475253 58.5792
7.9708086843180235 59.1374
7.993161805171116 59.6038
8.015532667162402 60.1657
8.037886398416653 61.1128
8.060257873014221 61.1077
8.082629655331942 62.528999999999996
8.104984308787587 63.2554
8.127356708900503 66.0395
8.149711981398308 71.3057
8.172085002766314 73.3998
8.194458336181368 70.5075
8.216814543847752 68.5665
8.23918850371002 68.357
8.26154533906492 69.2527
8.283919928836452 70.941
8.306277395339652 71.6622
8.328652618483376 73.112
8.351028159736202 75.2177
8.373386579575245 77.0845
8.395762759396959 78.8551
8.418121819038275 83.6731
8.440498640894003 95.3573
8.462875785192262 107.479
8.485235811156207 117.649
8.507613602688501 152.167
8.529974277114228 233.63
8.552352719347912 358.63300000000004
8.574731488360351 627.953
8.59709314210385 1166.8
8.619472567021075 1890.15
8.64183487789147 2166.5
8.664214962183097 1797.35
8.686577933647762 937.987
8.708958680784317 357.81
8.731339760774953 160.52200000000002
8.753703729764451 109.32799999999999
8.77608547780821 97.7539
8.798450116065078 93.8397
8.820832535634787 91.1789
8.843215292401656 90.0569
8.865580941199045 88.8189
8.887964374703538 87.74700000000001
8.910330701447199 88.7175
8.932714815164482 90.5474
8.955099270424924 90.0679
8.977466620733543 86.969
8.999851761421976 84.5188
9.022219798361645 83.1029
9.04460562795561 82.5178
9.066991803441677 82.2419
9.089360876979615 82.0876
9.111747746589993 81.8811
9.13411751544971 81.4337
9.156505082664324 81.3365
9.178875550323522 81.1028
9.20126381862328 81.5234
9.223652438908596 81.6334
9.246023961427412 81.6466
9.26841328802173 81.2492
9.290785518039224 80.9791
9.313175554425882 81.944
9.335565947154315 82.0214
9.357939245086508 82.4699
9.380330352834827 82.4392
9.40270436697103 82.40299999999999
9.425096193225055 82.1448
9.447488380180165 83.169
9.469863475295412 83.7215
9.492256385987508 83.6506
9.514632206018318 84.491
9.537025843935714 84.7238
9.559402392368193 85.3211
9.581796761000229 86.4367
9.604191496441521 87.3012
9.626569144158516 90.9944
9.648964615551032 95.0994
9.671343000390081 96.02
9.693739211225699 94.2111
9.716135793237463 92.2146
9.738515290448102 91.8186
9.760912617143402 92.9497
9.783292860202891 94.1437
9.805690935076182 95.6065
9.828089385495742 96.4475
9.850470754023561 98.5379
9.872869957865444 105.99600000000001
9.89525208097539 118.605
9.917652041736662 129.20600000000002
9.940052382417589 128.982
9.962435644102392 134.422
9.984836746950979 164.077
10.007220771957746 223.78099999999998
10.029622640473708 320.434
10.052007432299963 497.542
10.074410069984072 805.315
10.096813093716005 1285.98
10.119199042482517 1773.27
10.141602840636468 1953.63
10.163989564971628 1557.46
10.186394141051062 886.049
10.208799107559706 403.12699999999995
10.231187001965623 186.31400000000002
10.253592751657669 124.171
10.275981430388155 111.211
10.298387966769793 110.426
10.320794897965431 112.646
10.343184759907361 111.705
10.36559248305461 106.40899999999999
10.387983138083852 103.03299999999999
10.410391656691655 104.882
10.432800574501677 114.57600000000001
10.455192425893369 129.813
10.47760214443012 154.90200000000002
10.499994797678786 200.38
10.522405320453982 284.246
10.54479877906917 412.43199999999996
10.567210109595656 532.173
10.5896218454736 589.226
10.612016518879773 509.23400000000004
10.634429067781074 346.744
10.656824555333241 200.81599999999997
10.679237920773568 122.85
10.701651695961992 95.939
10.724048411481384 88.4633
10.746463008485165 85.6779
10.768860546937125 84.0271
10.791275969274796 82.0782
10.81369180576079 81.1796
10.836090585366925 80.1027
10.858507252467449 79.0194
10.88090686379991 77.7732
10.903324365036394 77.7369
10.925724811614439 77.282
10.948143150509463 78.2755
10.970561909719066 77.4823
10.992963615930844 75.8102
11.015383218085756 73.6713
11.037785768347074 72.3726
11.06020621697282 71.7803
11.082627090322113 71.2126
11.105030913430326 70.8997
11.12745263854165 71.2185
11.149857314510728 74.47
11.172279894912576 79.4427
11.194702904450653 79.6107
11.217108866490921 75.9532
11.239532736615194 72.3109
11.26193956033512 70.5725
11.284364294577085 69.0196
11.306789462371718 67.3524
11.329197585398376 66.4335
11.351623622610898 66.1374
11.37403261614354 65.247
11.396459526308487 65.2545
11.418869393879497 65.0095
11.441297180532617 64.6398
11.463725406927658 64.3266
11.486136592353875 63.9684
11.508565700543707 64.4122
11.530977768845315 66.2374
11.553407762368774 66.6544
11.575838200059769 66.2576
11.598251599479612 64.3835
11.620682927815501 63.1545
11.64309721895548 62.7691
11.665529441478206 62.2918
11.687962112597958 62.1202
11.710377748130886 62.1155
11.732811318753434 62.2743
11.755227854859067 62.1749
11.777662328529495 61.8587
11.800079768750786 61.8566
11.822515149015453 61.498999999999995
11.844950984084935 62.1861
11.867369787303163 61.4985
11.889806534289491 61.7465
11.912226250487029 62.1998
11.934663912939751 62.0068
11.9571020346363 61.9276
11.979523127133968 61.9937
12.001962169624331 62.4736
12.024384183972964 63.3819
12.046824150809913 66.2255
12.069264581333726 70.8939
12.091687985297767 76.5121
12.11412934550045 85.3034
12.136553680195208 100.54700000000001
12.158995973632788 124.93700000000001
12.181438735204349 156.403
12.20386447284199 189.91099999999997
12.226308172985636 206.213
12.24873485024193 201.831
12.271179492516982 169.338
12.293607112949127 124.149
12.316052700916226 94.0247
12.338498763250042 76.8024
12.360927805303868 68.7217
12.383374818673879 65.2952
12.405804812803074 63.4058
12.428252780773262 63.4013
12.45070122756722 63.3601
12.473132656675375 63.2235
12.49558206341869 63.6112
12.518014453510101 63.8174
12.540464823770117 63.7405
12.562915677315177 64.1184
12.58534951575545 64.8249
12.607801338171472 66.3806
12.630236146511358 71.2079
12.652688941369085 75.0865
12.675124723177234 75.3935
12.697578494048786 72.1381
12.720032754458185 68.4097
12.742470003354093 66.8109
12.764925245138771 67.1425
12.787363476431278 67.5203
12.809819703166806 67.7484
12.83227642391173 68.2055
12.854716135692716 68.7698
12.877173846755147 69.6634
12.899614549869717 69.9622
12.9220732548287 71.0455
12.94453245827299 71.2866
12.966974655289818 72.2707
12.989434858002571 73.0365
13.011878055298721 73.8972
13.034339260862497 74.9474
13.056800969391883 76.021
13.079245674017244 77.6658
13.101708390774869 79.7414
13.12415410463411 85.8209
13.146617833206086 96.3316
13.169064559883248 107.14399999999999
13.191529303857127 121.64200000000001
13.213994557076367 144.38
13.236442809902437 182.05200000000002
13.258909083908291 241.072
13.28135835851934 308.91
13.30382565690295 382.70300000000003
13.326293469022952 419.829
13.348744283242008 412.045
13.371213125129904 345.82599999999996
13.39366497011003 254.12099999999998
13.416134845360597 168.861
13.438605238843131 121.447
13.46105863690397 103.38600000000001
13.483530069144786 102.476
13.505984506951902 107.154
13.528456981549432 116.18299999999999
13.550929978879088 130.64600000000002
13.573385983253365 155.368
13.595860028340867 196.794
13.618317081455832 251.674
13.64079217790333 310.55400000000003
13.663250283359057 353.7
13.685726434770173 366.309
13.708203115221277 327.508
13.730662806148091 253.27599999999998
13.75314054697177 178.445
13.775601299246777 125.445
13.798080104050406 95.7656
13.820559442405358 84.0721
13.843021793671388 80.5899
13.865502201420897 79.078
13.887965623051947 78.4843
13.910447103807167 77.4415
13.932929122629764 76.317
13.955394156785959 75.8147
13.977877254034569 74.5761
14.000343367582113 73.7696
14.022827546871707 73.4702
14.045294743423524 72.7262
14.06778000837062 72.056
14.090265817715476 72.058
14.112734645763819 71.4552
14.13522154619454 71.4453
14.157691466286913 71.3634
14.180179461423874 71.3209
14.202668005486178 70.4698
14.22513957064374 69.6981
14.247629214846473 69.4324
14.270101881097517 69.2941
14.29259262906496 69.7386
14.315083930490205 70.3581
14.337558255389705 70.3553
14.360050666019726 70.1288
14.382526101071944 69.1026
14.405019624534942 68.4526
14.427513705993134 68.2392
14.449990813291825 67.9809
14.47248601302899 67.872
14.49496423954951 67.8913
14.517460561197822 68.0814
14.539939910570322 67.6911
14.562437357763558 68.1623
14.58493536931253 69.1548
14.607416409993311 69.9608
14.62991555254159 70.4168
14.652397725157423 70.4138
14.674898002342799 69.9609
14.697398848433282 69.3052
14.719882725991326 70.1098
14.74238471217934 70.9739
14.764869730765593 73.5079
14.787372860692983 76.7341
14.809876564079925 80.9171
14.83236330125751 86.4236
14.854868153850365 94.8234
14.877356041159485 108.855
14.899862046604186 128.175
14.922351087688757 155.034
14.944858249632887 185.092
14.967365991421232 213.06099999999998
14.989856770231246 222.167
15.012365673994204 216.957
15.03485761569738 186.71599999999998
15.05736768508665 146.465
15.07987833888692 113.54700000000001
15.102372032001655 89.7776
15.124883856909658 76.6489
15.14737872204565 71.8051
15.169891721717274 69.8503
15.192405310371893 69.5115
15.214901940621196 69.7231
15.237416709527137 69.5084
15.259914520936249 69.7791
15.282430473753607 68.9027
15.304947020131227 67.8649
15.327446610371178 67.1566
15.349964346154254 66.2865
15.372465126703139 65.7406
15.394984055556009 65.6636
15.417486030076159 65.6703
15.44000615566487 65.1081
15.462526881230803 65.0833
15.485030653812652 65.2933
15.507552581617434 65.2422
15.530057557334603 65.2168
15.55258069104857 65.2774
15.575104429329837 65.0965
15.597611216864632 64.7553
15.620136166564563 64.7419
15.6426441664095 65.4952
15.665170331202765 67.3347
15.687697105158826 70.3003
15.710206930593545 73.3941
15.732734925158933 77.7405
15.755245972089478 83.8261
15.77777519094324 92.6959
15.800287463046663 106.553
15.822817909869592 126.48899999999999
15.84534897229804 148.844
15.867863089299354 171.736
15.890395385222186 188.234
15.912910736597423 190.766
15.935444269699861 180.35
15.957978423016485 150.488
15.980495633101265 119.963
16.003031029129367 93.7382
16.02554948280019 75.7743
16.048086125229432 67.0916
16.070623392487107 64.1897
16.09314371869582 63.4917
16.11568223789321 62.5525
16.13820381691126 61.5962
16.160743591742527 60.6893
16.183283996022084 59.7532
16.205807461423195 58.6218
16.228349126881973 58.2833
16.25087385432698 58.2287
16.27341678466365 57.8694
16.29594277784926 57.4788
16.31848697676433 57.7219
16.341031811604868 57.8732
16.36355971058487 57.86
16.3861058195587 57.778999999999996
16.40863499352978 56.6754
16.431182380342005 56.0041
16.453730407713202 55.4561
16.476261501364792 55.2228
16.498810812136167 54.7345
16.52134319004079 54.9183
16.54389378792203 54.6281
16.566445031001553 54.74100000000001
16.588979342490088 54.4888
16.61153187824822 54.4234
16.634067483263312 54.251000000000005
16.656621315414416 54.0397
16.679175797408888 53.7314
16.701713349928728 53.8735
16.72426913389191 54.1651
16.74680798922351 54.222
16.76936507887444 54.0445
16.791905240734874 54.0667
16.814463639794468 54.2607
16.837022695210294 54.0435
16.859564824093756 54.4942
16.882125194503903 55.2682
16.904668639217885 55.7062
16.927230328348003 55.7576
16.949792678493612 55.9731
16.972338104193863 55.3536
16.994901778652235 54.9733
17.017448529496576 55.03
17.040013531998152 54.9921
17.06257920018044 55.4973
17.0851279459922 56.3065
17.107694947817667 57.1532
17.130245028099072 57.9578
17.15281336730298 59.0007
17.17536478578733 60.7249
17.19793446610687 63.0391
17.220504818648422 66.1678
17.243058251703697 69.888
17.265629950971032 75.1269
17.288184731571736 79.5256
17.310757781306908 82.2663
17.33333150794385 83.4543
17.355888317140174 80.9307
17.37846339986244 75.63
17.401021565958885 69.925
17.42359800851343 64.988
17.44617513265564 61.2425
17.468735341390783 59.6185
17.491261035594565 58.3512
17.51396340099364 58.2242
17.536490463869136 58.238
17.559018209820174 58.3211
17.58154663977963 58.5105
17.604251766089718 58.6547
17.626781572227713 58.7111
17.64931206518155 59.088
17.671843245885103 59.6325
17.69455114821572 59.8692
17.717083712612634 59.8133
17.739616967569667 60.1921
17.762150914021706 60.4416
17.78486160749854 60.7065
17.807396945166804 61.217
17.829932977143503 62.0162
17.85246970436452 63.1254
17.875183204129467 64.8022
17.897721330097664 67.0052
17.920260154126645 69.2337
17.942799677153296 72.2487
17.9655159983646 76.0717
17.988056927677544 81.3338
18.010598558807683 89.3036
18.033140892692916 100.072
18.05586005052525 111.24
18.07840379824407 122.434
18.10094825154059 131.946
18.12366954819864 138.00799999999998
18.146215420998306 135.947
18.16876200220057 126.82700000000001
18.191309292745153 113.65100000000001
18.214033452627167 101.36200000000001
18.236582170236648 90.7267
18.259131600016456 85.6262
18.281681742907335 86.3058
18.304408781233683 90.709
18.32696035875955 96.1538
18.349512652227624 100.13600000000001
18.372065662579683 103.495
18.394795594587553 103.455
18.41735004715306 100.171
18.43990521943684 93.1238
18.46246111238171 84.4275
18.485193953325208 75.8911
18.507751296070428 68.9048
18.530309362314178 65.0145
18.552868153000343 62.6156
18.57560391815056 61.4347
18.59816416623245 60.865
18.620725141597372 60.5437
18.643286845190268 59.9469
18.666025549835414 59.6782
18.688588718427933 59.0749
18.711152618092243 59.1342
18.73389353884365 58.5972
18.75645890921984 58.0398
18.77902501351406 57.8855
18.801591852673102 57.8645
18.824335739722738 57.43899999999999
18.846904057212626 57.3382
18.8694731124168 57.0898
18.89204290628315 56.9511
18.914789774966803 56.7526
18.937361054791623 56.5614
18.959933076131318 56.3696
18.982505839934877 56.4265
19.00525570560582 56.4257
19.027829963004184 56.0737
19.05040496572238 56.2451
19.072980714710468 56.1679
19.095733592739563 56.1464
19.11831084296757 56.4868
19.140888842324735 57.0659
19.16346759176222 57.3156
19.18622349753803 58.0528
19.208803755869358 58.597
19.231384767143577 59.8952
19.253966532312948 61.4837
19.276725481241822 63.5586
19.29930876296784 66.1688
19.3218928014549 69.2347
19.34465404436217 72.2979
19.36723960516257 75.1461
19.389825925592426 75.8269
19.412413006605938 74.6037
19.43517731967805 70.7727
19.457765930683355 66.3754
19.48035530514408 62.1594
19.50294544401556 58.5809
19.525712842708348 56.0491
19.54830451925909 54.617
19.570896963095727 53.6815
19.593490175174704 53.33
19.616260674962184 53.1929
19.638855432416964 52.9459
19.661450960992624 52.9005
19.68404726164677 52.9008
19.706820878021247 52.6861
19.729418731756834 52.9204
19.752017360452857 52.7308
19.77461676506804 52.81100000000001
19.797393513540218 52.7913
19.819994478951667 53.1445
19.84259622316767 53.4411
19.8651987471481 54.1118
19.887978643247177 54.3413
19.91058273574792 54.6159
19.933187610901943 55.5006
19.955969879466828 56.7458
19.97857632894404 58.2058
20.00118356396599 60.0459
20.023791585494575 62.1038
20.046577028914875 64.7418
20.069186632506966 66.816
20.091797025500632 68.8092
20.114408208858933 69.1672
20.137196842715273 68.64
20.159809615886765 67.2973
20.18242318232135 64.7004
20.20503754298326 62.7714
20.227829382875154 61.9187
20.250445341109344 61.92100000000001
20.27306209647285 62.672
20.29567964993108 63.61
20.31847471147704 64.4897
20.34109387027612 64.953
20.363713830075454 64.5871
20.386334591841646 62.8685
20.409132890679302 60.5748
20.431755265564437 57.3868
20.454378445325528 54.7809
20.477002430930366 53.0234
20.499803982716553 51.6962
20.522429589228004 50.9397
20.54505600449589 50.4614
20.567683229489194 50.2634
20.590488049900088 49.8424
20.61311690359731 49.5711
20.63574656993626 49.2774
20.658553853717297 48.9204
20.681185154618298 49.0767
20.703817271080066 49.0067
20.72645020407368 48.5807
20.749260783967177 48.4992
20.771895359337133 48.5106
20.794530754161617 48.3909
20.817166969412938 48.3556
20.83998086114876 48.293
20.86261872660049 48.119
20.885257415405402 48.0914
20.90789692853701 47.9274
20.930714147864748 48.0347
20.953355319030678 48.0065
20.97599731745334 48.2257
20.99864014410749 48.0249
21.021460706796564 48.0925
21.044105199328826 48.2544
21.06675052302631 48.5137
21.089396678865015 48.63
21.112220600704806 48.9369
21.134868430275347 49.4163
21.15751709492456 49.6027
21.180166595629693 49.935
21.202993892429635 50.3917
21.22564507473034 50.4983
21.24829709602816 50.8128
21.27112693608965 50.8555
21.293780644891275 50.7394
21.316435195634053 50.0444
21.339090589297417 49.3931
21.361923832041875 49.0345
21.384580921090404 48.3364
21.407238856007325 47.9605
21.429897637773326 47.723
21.45273429906592 47.7249
21.475394784108598 47.8389
21.498056118951983 47.7267
21.520718304578022 48.0549
21.543558400304388 48.1923
21.566222297108816 48.097
21.58888704765135 48.1501
21.61155265291521 48.7395
21.63439619898156 49.1682
21.657063523335786 49.2429
21.67973170537063 49.5533
21.7024007460706 50.1069
21.72524775840385 50.8351
21.747918526116475 51.8699
21.770590155457388 53.1765
21.79326264741238 54.7984
21.816113141960237 56.67
21.838787368860547 58.8236
21.861462461341976 60.5417
21.884315579735777 62.2299
21.90699241312273 63.2737
21.92967011506078 63.7118
21.95234868653799 63.3455
21.9752053151131 61.9993
21.997885635446785 60.1575
22.020566828293532 58.5619
22.04324889464272 57.0692
22.066109049404666 56.126999999999995
22.088792872571794 55.4152
22.111477572219204 55.3383
22.1341631493376 55.1823
22.157026846313123 55.2102
22.179714188221507 54.343
22.202402410582668 53.3249
22.22509151438863 51.9545
22.24795876962584 50.8128
22.270649646204486 49.8515
22.293341407213727 49.2568
22.316034053646906 48.7354
22.338904883215342 48.5451
22.36159931041458 48.4605
22.38429462602756 48.3132
22.40699083104897 48.2784
22.429865251039757 48.2544
22.452563244831367 48.2794
22.47526213102522 48.3152
22.49813925616515 48.0248
22.520839937143307 48.0981
22.543541513520587 48.0575
22.56624398629403 47.9123
22.589124730075895 47.8257
22.611829005656723 48.1171
22.63453418063466 47.8848
22.657240256008077 48.3558
22.680124634582935 48.4451
22.70283252079775 48.5873
22.725541310413075 48.663999999999994
22.74825100442868 48.9954
22.771139033969575 49.3986
22.79385054687155 49.6411
22.81656296718292 50.522
22.83927629590484 51.4861
22.862167992606945 52.4012
22.88488314827121 53.5878
22.907599215359284 54.8906
22.93031619487366 56.1591
22.953211574954405 56.505
22.975930389478226 57.1121
22.998650119445763 57.3584
23.02137076586092 56.3385
23.044269845560063 55.1656
23.06699233506288 53.696000000000005
23.089715744034912 51.8584
23.112617610931565 50.4831
23.135342869061212 49.3548
23.158069049684816 48.6847
23.1807961538087 48.1925
23.20370174880544 48.2248
23.226430710184808 48.2189
23.249160598093425 48.1047
23.271891413539002 48.1044
23.294800752937697 48.0596
23.31753343374794 48.4439
23.340267045128353 48.4115
23.36300158808808 48.7505
23.38591468821339 49.0358
23.408651104658304 49.4624
23.431388455719986 50.1115
23.454126742409 51.336999999999996
23.4770436196085 52.183
23.499783787914662 53.3708
23.522524894889884 54.4396
23.54526694154616 55.6133
23.56818761219047 56.6195
23.59093154860734 56.9788
23.613676427751283 56.9558
23.636422250635754 56.1575
23.659346731118656 54.6448
23.68209445191868 52.8706
23.704843119509587 50.9334
23.72759273490623 49.0932
23.750521041644767 47.6922
23.77327256312355 46.7283
23.796025035462787 46.1325
23.818956224555475 45.6061
23.841710609113413 45.4362
23.86446594758979 45.2181
23.887222241002014 45.0207
23.910157285144578 44.6765
23.932915498962537 44.7177
23.955674670778713 44.5875
23.978434801611975 44.3093
24.001373717286125 44.2116
24.024135776723917 44.1568
24.046898798245582 43.9574
24.06966278287146 43.8152
24.092605586582614 43.7832
24.115371508023642 43.6026
24.1381383956401 43.4788
24.16090625045381 43.3772
24.183852958731244 43.5244
24.206622758582608 43.3897
24.229393528706886 43.0302
24.252165270127392 43.1139
24.27511589952438 43.1262
24.297889594216997 42.9092
24.32066426328598 42.858000000000004
24.34343990775613 42.8254
24.36639447485003 42.69
24.38917208083877 42.7243
24.41195066531332 42.5182
24.43490819850244 42.681999999999995
24.457688750692377 42.56100000000001
24.48047028445616 42.4486
24.503252800821233 42.5131
24.526214300784112 42.5234
24.548998793132213 42.6263
24.57178427117417 42.6263
24.59457073593893 42.4811
24.617536219319863 42.4286
24.64032466834748 42.2767
24.663114107195035 42.1579
24.685904536893013 42.1253
24.708874020360852 42.0182
24.731666442613744 41.9947
24.754459858818787 41.8866
24.777254270007962 41.8554
24.80022777025625 41.7232
24.82302418230472 41.7077
24.845821592443674 41.8147
24.86862000170663 41.7137
24.891597535453727 41.705
24.914397953892728 41.7469
24.93719937456671 41.6969
24.96000179851076 41.806000000000004
24.98298338249997 41.9922
25.00578782394922 42.093999999999994
25.028593271784167 42.3564
25.05157790644186 42.6108
25.07438537804115 42.8544
25.097193859145293 43.1101
25.120003350792075 43.3091
25.142992065061257 43.6394
25.165803588823465 43.8146
25.18861612625217 44.0607
25.211429678386736 44.2311
25.234422489079968 44.2897
25.257238081693636 44.3266
25.280054692141732 44.5582
25.3028723214652 44.4439
25.325869245420463 44.4281
25.348688923599397 44.5098
25.371509623787006 44.3545
25.394331347025812 44.0643
25.41733240110666 43.5821
25.440156181590016 42.957
25.46298098826268 42.316
25.48580682216873 41.8841
25.50881202326435 41.3551
25.53163992281684 41.0864
25.55446885274561 40.8158
25.577298814096377 40.574
25.600308179121807 40.4346
25.623140214533745 40.349000000000004
25.64597328451537 40.236999999999995
25.66898578564376 40.0129
25.691820936010206 40.0672
25.714657124097695 40.1839
25.737494350954734 40.0378
25.760511045684957 39.9643
25.783350361364224 40.1513
25.806190718969255 40.0373
25.82903211955018 40.1587
25.852053024868923 40.024
25.874896522722523 40.2842
25.897741066713106 40.0671
25.920586657892454 40.2171
25.943611790812668 40.3035
25.966459487728237 40.5802
25.989308234998564 40.5424
26.01215803367705 40.9551
26.03518741123814 40.8937
26.05803932412957 41.1446
26.080892291600094 41.0327
26.10374631470478 41.0619
26.12677995397268 41.2186
26.14963609978026 41.2113
26.172493304397875 40.7176
26.19535156888223 40.7486
26.218389486949604 40.4105
26.241249882640123 40.0493
26.26411134137826 39.7294
26.28715248187403 39.7488
26.31001607820869 39.6141
26.3328807407756 39.4773
26.35574647063438 39.6797
26.37879191991473 39.6028
26.401659795896734 39.531
26.424528742360263 39.7884
26.447398760366614 39.8648
26.470448535598294 40.1593
26.49332070826805 40.2919
26.516193955675355 40.5372
26.53906827888316 40.8124
26.562122397260108 40.97
26.584998883685063 41.282
26.607876449110325 41.468
26.63075509460056 41.5736
26.65381357334404 41.6903
26.67669439061878 41.6376
26.699576291163382 41.5519
26.722459276044212 41.4259
26.745522132402975 41.1808
26.768407297649354 40.9994
26.791293550442003 40.6488
26.814180891848974 40.3907
26.837248143099337 40.0979
26.860137673466657 39.9663
26.88302829566349 39.7059
26.90592001075963 39.5817
26.92899167420566 39.4054
26.951885586870763 39.0568
26.974780595655517 38.8317
26.99785558178161 38.6408
27.020752794605112 38.6089
27.043651106772522 38.5197
27.06655051935668 38.4671
27.089629948036183 38.3589
27.112531573292053 38.3501
27.135434302194138 38.2929
27.158338135817015 38.0978
27.181422024430987 38.0391
27.204328079372566 38.0396
27.22723524226965 38.0993
27.250143514198573 38.1068
27.273231880156334 38.1113
27.296142382065014 38.0371
27.319053996245536 37.9242
27.341966723775965 37.9465
27.365059584515222 37.9887
27.38797455070062 38.0443
27.410890633481237 38.0227
27.433807833936918 37.9844
27.456905206923906 38.1415
27.47982465472398 38.0905
27.502745223449743 38.1854
27.525666914182825 38.2186
27.548768816912457 38.0987
27.571692763693633 37.93
27.59461783573812 37.9187
27.617723149491244 37.8072
27.640650484125285 37.6811
27.66357894728264 37.4858
27.686508540048052 37.5985
27.709618414237887 37.5142
27.732550278321757 37.3583
27.755483275279115 37.4102
27.778417406196485 37.2737
27.801531858397514 37.4079
27.824468269376716 37.3514
27.847405817586786 37.3022
27.870344504116094 37.5558
27.893463551932008 37.7074
27.916404527281053 37.9272
27.93934664422563 37.9703
27.962289903855886 38.0542
27.98541356491974 38.3267
28.00835912214229 38.2004
28.03130582533231 38.4915
28.054253675581805 38.7332
28.077381967556104 38.6524
28.100332124185126 38.7182
28.123283431160893 38.6002
28.146235889577238 38.3681
28.169368830154156 38.3072
28.192323603752033 38.1453
28.215279532083304 37.791
28.238415973016764 37.5828
28.261374223145094 37.3701
28.284333631303806 37.1399
28.307294198589954 37.0922
28.330435319167677 36.7241
28.353398217078915 36.4403
28.376362277420153 36.3233
28.39932750129032 36.1003
28.422473319286713 35.9098
28.44544088262495 36.0315
28.468409612800283 35.7728
28.491379510913497 35.599000000000004
28.51453004413313 35.5983
28.53750229057244 35.5588
28.56047570826344 35.4638
28.583450298308804 35.423
28.606605564586562 35.245
28.629582511831156 35.3936
28.65256063474956 35.2073
28.675539934446338 35.1767
28.698699951647605 35.146
28.72168161743193 35.0997
28.74466446331978 35.0479
28.767648490417624 35.034
28.790813276438353 35.0084
28.813799678527303 35.0998
28.836787265157085 35.0596
28.859955641890075 35.1326
28.882945610203045 35.06
28.905936766392035 34.9217
28.928929111566863 34.973
28.952102288520145 34.8444
28.975097024308607 34.6882
28.998092952423807 34.7232
29.021090073977508 34.522
29.04426806913204 34.367
29.067267590245258 34.2507
29.090268308143695 34.2176
29.11327022394099 34.2103
29.13645305530891 34.0826
29.159457379627167 33.9825
29.18246290519685 33.9646
29.20546963313352 33.9604
29.22865731875826 33.9867
29.25166646419296 33.9538
29.27467681535305 33.8758
29.29768837335608 33.8705
29.320880931312562 33.931
29.34389491580634 33.8949
29.366910110507334 33.9501
29.38992651653503 33.9757
29.41312396492981 33.8683
29.436142806456754 33.6717
29.45916286268059 33.6938
29.48236399319994 33.5989
29.50538649169417 33.3571
29.528410208259935 33.3376
29.55143514402014 33.0644
29.574641196749695 33.016
29.597668583816574 32.982
29.6206971934585 32.7092
29.64372702680042 32.8231
29.666938019934474 32.741
29.689970313635285 32.6845
29.713003834422636 32.6116
29.73603858342347 32.4088
29.759254535188578 32.3534
29.78229175361658 32.4698
29.80533020365064 32.6068
29.82836988641968 32.4864
29.85159081507472 32.2637
29.874632976355343 32.2341
29.89767637376955 32.4058
29.920721008448314 32.2663
29.9439469322847 32.2322
29.96699405457564 32.1447
29.9900424175358 32.2055
30.013092022298157 32.1497
30.03632295963995 32.0179
30.059375061131373 32.1328
30.08242840783577 32.1741
30.105483000888153 32.1453
30.128718970092244 32.0042
30.151776069006917 32.0609
30.17483441768648 32.1187
30.198074175317235 32.126999999999995
30.221135036724256 31.994
30.24419715131772 31.9471
30.267260520236203 31.9844
30.290505341942243 31.8654
30.313571232750228 31.9943
30.336638381310948 31.8879
30.35970678876503 31.8404
30.38295669299435 31.8632
30.40602763151657 31.8313
30.429099832366074 31.8012
30.452173296685572 31.695999999999998
30.47542830191959 31.7002
30.498504306502497 31.7615
30.521581577995562 31.8008
30.544660117543582 31.7455
30.56792024229725 31.9196
30.59100133132069 31.8734
30.614083691845494 31.891
30.637167325018545 31.9291
30.660432587840603 31.8357
30.683518779717886 31.8774
30.70660624769615 31.9425
30.729694992924372 31.8815
30.75296541239743 31.7487
30.77605672557558 31.8295
30.799149319462742 31.7974
30.8224236211637 31.5793
30.845518789950724 31.5381
30.868615242910597 31.4491
30.891712981195973 31.2457
30.91499247215866 31.2981
30.938092794619365 31.2883
30.96119440587579 31.1697
30.984297307082752 31.0156
31.00758200598383 30.9882
31.030687500658694 30.9237
31.053794288760695 30.774
31.076902371446767 30.6502
31.100192296997445 30.803
31.12330298246119 30.6868
31.14641496599209 30.5814
31.169528248749216 30.6437
31.19282341969534 30.6078
31.215939314557186 30.6039
31.239056512134788 30.6286
31.262175013589378 30.6701
31.28547544871168 30.4307
31.30859657161541 30.5017
31.331719001892175 30.5364
31.35484274070538 30.561999999999998
31.378148458819545 30.6342
31.401274828443725 30.5468
31.424402510106933 30.576999999999998
31.447712205419993 30.5955
31.470842524931633 30.4534
31.493974159989783 30.4655
31.51710711176168 30.4494
31.54042212308802 30.4661
31.563557722100917 30.3851
31.586694641341655 30.2899
31.609832881979628 30.2305
31.63315322823208 30.0375
31.656294125521327 30.0258
31.679436347728515 29.9871
31.70257989602529 29.9351
31.725905596152327 29.9214
31.74905181052835 29.8244
31.772199354521323 29.8636
31.79534822930507 29.8249
31.818679302290967 29.8808
31.84183085259981 29.8567
31.864983737233473 29.8516
31.88813795736804 29.8324
31.911474422233013 29.6417
31.934631327356435 29.7139
31.9577895715215 29.713
31.980949155906522 29.7252
32.004291031706956 29.6414
32.027453310562606 29.5176
32.05061693318573 29.4789
32.07396288236386 29.5485
32.09712920658542 29.3832
32.12029687812702 29.3182
32.14346589817093 29.3634
32.166817291729984 29.2183
32.18998902288583 29.1304
32.21316210610336 29.0196
32.23633654256711 28.9477
32.259693399663725 28.9442
32.282870556771144 28.9045
32.30604907069099 28.9027
32.329228942610065 28.715
32.35259128243769 28.5916
32.375773884550505 28.6152
32.398957848235646 28.6201
32.422143174682176 28.4762
32.445511016471215 28.4352
32.468699082679954 28.4047
32.49188851523011 28.3757
32.51507931531304 28.3935
32.538452678331 28.3191
32.56164622776311 28.2118
32.58484114831493 28.1321
32.60803744118015 28.1083
32.631416344731896 28.2142
32.654615396551876 28.2167
32.67781582427913 28.2234
32.701198898634416 28.0114
32.72440209253756 28.0139
32.747606665947124 28.0518
32.77081262006088 27.9414
32.79420126883317 27.8981
32.81740999876112 27.84
32.840620112999424 27.7872
32.86383161274818 27.7212
32.88722585534586 27.6677
32.91044014056596 27.7498
32.933655814909734 27.6114
32.95687287957963 27.604
32.98027273544904 27.4583
33.00349259526636 27.5236
33.026713849030116 27.5845
33.04993649794511 27.5588
33.073341986570746 27.4587
33.09656744032826 27.5446
33.11979429286444 27.4556
33.14302254538647 27.4921
33.166433686291185 27.5177
33.18966475336992 27.4707
33.212897224069096 27.2785
33.23613109959831 27.3294
33.259547912343415 27.3708
33.2827846121627 27.2673
33.306022720453775 27.1473
33.32926223842861 27.0559
33.352684742614166 27.0442
33.37592709463173 27.0734
33.399170859982064 27.0577
33.422597648419426 27.0368
33.44584425514446 26.8216
33.46909227885668 26.8394
33.4923417207723 26.7169
33.51577423505344 26.8008
33.539026528130385 26.6882
33.56228024307245 26.6014
33.585535381098246 26.4361
33.60897364093058 26.4557
33.63223163992385 26.5031
33.6554910656699 26.3457
33.678751919389796 26.3333
33.702195944520106 26.3567
33.72545966903325 26.3517
33.74872482519663 26.1612
33.771991414233746 26.2699
33.79544122444841 26.1935
33.81871069412428 26.0792
33.84198160035767 26.0997
33.86525394437455 26.0701
33.88870955949969 26.0632
33.911984794020626 25.9976
33.93526147001624 25.9436
33.958539588715006 25.9471
33.98200102861669 25.8114
34.0052820477047 25.764
34.02856451319451 25.7413
34.05203033759056 25.6539
34.07531571090147 25.7074
34.09860253431845 25.7299
34.121890809074316 25.5821
34.145362493118924 25.7195
34.16865368561615 25.5166
34.191946333164054 25.5348
34.21524043699793 25.5211
34.23871800066799 25.4393
34.26201503218366 25.3976
34.28531352370466 25.4052
34.30861347646881 25.3356
34.33209693978188 25.1996
34.3553998301885 25.2487
34.378704185565205 25.2164
34.402010007152356 25.1302
34.42549939016683 25.0907
34.44880815937748 25.034000000000002
34.472118398533134 25.0301
34.49543010887669 24.9264
34.51892543169198 24.9263
34.54224009966052 24.94
34.56555624255917 24.9038
34.58887386163339 24.7528
34.61237514439016 24.6656
34.6356957311114 24.6678
34.65901779775809 24.6765
34.68252356662995 24.6754
34.705848608458616 24.654
34.72917513396849 24.6231
34.75250314440949 24.5847
34.77601490857862 24.4567
34.799345904259795 24.393
34.82267838863559 24.3561
34.846012362958525 24.3891
34.869530142679984 24.3653
34.89286711232212 24.2809
34.91620557568269 24.2861
34.93954553401677 24.2562
34.9630693495876 24.2245
34.986412313340814 24.2578
35.00975677584668 24.2014
35.033102738362956 24.1768
35.05663261012228 24.0852
35.0799815881786 24.0785
35.10333207003229 24.0263
35.12668405694369 24.0724
35.150220005273056 23.984
35.17357501786656 23.9369
35.19693153931268 23.9869
35.220289570874385 23.8865
35.24383161619786 23.872
35.267192683604904 23.8838
35.290555264930376 23.8637
35.314101899412165 23.7787
35.33746752422433 23.769000000000002
35.36083466676374 23.8359
35.38420332829803 23.7063
35.407756095629054 23.7282
35.43112781085063 23.7696
35.45450104888391 23.7237
35.477875810999194 23.674
35.50143473172161 23.5921
35.52481255774625 23.6142
35.54819191167777 23.6137
35.57157279478914 23.5385
35.595137889488406 23.5401
35.61852184675279 23.4775
35.641907337029984 23.4312
35.665294361595684 23.3435
35.68886565090076 23.3499
35.7122557598848 23.3353
35.73564740699838 23.2847
35.759040593519934 23.2266
35.78261809810353 23.215999999999998
35.80601437933051 23.1142
35.829412203814705 23.0531
35.85281157283719 22.9849
35.876395313415884 23.0014
35.8997977874528 22.963
35.92320180988546 22.8732
35.946790244133936 22.8245
35.97019737933222 22.9176
35.993606066789866 22.8181
36.01701630779276 22.7574
36.04061101440684 22.6976
36.06402437852291 22.7262
36.08743930005611 22.8076
36.1108557802951 22.6692
36.13445678011326 22.6481
36.15787639383515 22.6279
36.18129757014299 22.5893
36.20472031032821 22.4913
36.22832762423364 22.4854
36.25175350829375 22.5024
36.275180960119776 22.4297
36.298609981005924 22.4032
36.32222362992669 22.3774
36.34565580510207 22.416
36.36908955323448 22.3674
36.39252487562093 22.2531
36.416144880530226 22.1707
36.43958336764275 22.2322
36.463023432914625 22.1617
36.486465077645676 22.1573
36.51009145956204 22.1662
36.53353627947859 22.1219
36.55698268276811 22.0905
36.58043067073321 22.09
36.60406345072071 21.9489
36.62751462435344 21.9922
36.65096738658405 21.9346
36.67460498210655 21.8451
36.69806093788647 21.8386
36.72151848619297 21.8131
36.744977628333636 21.7461
36.76862165890998 21.6576
36.79208400512205 21.623
36.81554794910557 21.6709
36.83901349217101 21.6111
36.862663978991606 21.583000000000002
36.88613273667352 21.5162
36.90960309738324 21.6013
36.933075062434064 21.487
36.95673202673572 21.4602
36.98020721697122 21.4279
37.003684015502365 21.346999999999998
37.027162423645365 21.3088
37.050825886711465 21.2849
37.07430753063053 21.3043
37.09779078812467 21.2351
37.121275660513014 21.273000000000003
37.144945643673694 21.1629
37.16843376245278 21.176
37.19192350009803 21.2244
37.215414857931435 21.0764
37.239091382563885 21.0594
37.262585997426164 21.0195
37.28608223645736 21.0758
37.309763684451696 20.9493
37.33326318851098 20.892
37.356764320726555 20.903000000000002
37.380267082425526 20.8909
37.40395510942588 20.8082
37.42746114683234 20.8133
37.45096881771841 20.7472
37.474478123414166 20.7451
37.49817275092816 20.6937
37.52168534303452 20.6734
37.54519957395567 20.5658
37.568715445024665 20.6027
37.592416694607714 20.6043
37.61593586281424 20.6429
37.63945667518264 20.5023
37.66297913304891 20.5285
37.68668702630454 20.5469
37.710212792059274 20.3897
37.733740207334854 20.3577
37.757269273470364 20.3625
37.780983832050374 20.3282
37.80451621684926 20.2894
37.82805025654007 20.2178
37.851585952464795 20.2131
37.8753071980695 20.0737
37.89884622345676 20.0977
37.92238690911902 20.1084
37.94611318753442 20.0966
37.969657210779765 20.0504
37.99320289834801 20.0435
38.016750251586465 19.987000000000002
38.04048325513017 19.9178
38.06403395679343 19.8947
38.087586328183946 19.8534
38.11114037065203 19.837
38.13488012115898 19.887999999999998
38.1584375229181 19.8023
38.181996599821 19.7447
38.205557353221124 19.7097
38.229303872575656 19.6817
38.2528679961576 19.7082
38.27643380031219 19.6529
38.30000128639589 19.6262
38.32375459653193 19.5726
38.34732546371299 19.5963
38.37089801690786 19.562
38.39447225747609 19.4614
38.418232380377425 19.4231
38.441810012983396 19.4578
38.46538933705673 19.4273
38.488970353960084 19.3933
38.51273731166058 19.3905
38.536321731567014 19.288
38.55990784840681 19.2568
38.58367995004091 19.2054
38.60726947812959 19.1351
38.63086070726198 19.1941
38.654453638806274 19.172
38.678232613930824 19.0852
38.70182896773327 19.0236
38.72542702806741 19.0462
38.7490267963045 18.9593
38.77281266709232 19.0247
38.79641586862214 18.9914
38.8200207821842 18.9391
38.843627409152944 19.0167
38.86742019782782 18.9135
38.891030269149255 18.7706
38.914642058016156 18.8213
38.938255565806124 18.7659
38.96205529464307 18.7541
38.98567225787121 18.7459
39.00929094417078 18.7736
39.03291135492255 18.6863
39.05671804624804 18.6149
39.080341923549106 18.5899
39.103967529460334 18.537
39.127594865365744 18.5232
39.15140854155791 18.5105
39.17503935514948 18.4685
39.19867190290282 18.4915
39.22249083587951 18.3863
39.24612686969409 18.3925
39.269764641845306 18.3879
39.293404153722804 18.3459
39.317230110864074 18.2595
39.34087311998506 18.2333
39.36451787301696 18.2743
39.388164371352595 18.2153
39.41199737518003 18.1477
39.43564738196752 18.1661
39.45929913825317 18.1322
39.48295264543308 18.1347
39.506792718520884 18.1155
39.530449745387216 18.0272
39.55410852735203 18.0546
39.57776906581474 18.0296
39.60161623079 17.9587
39.625280300200025 17.9926
39.64894613032202 17.8892
39.67261372255866 17.918
39.6964680021016 17.842
39.72013913657293 17.8722
39.74381203738292 17.8263
39.76748670593756 17.8469
39.79134812278169 17.7649
39.81502634488497 17.709
39.83870633896685 17.7141
39.862388106436654 17.6519
39.88625668336918 17.6175
39.90994201572829 17.6504
39.933629125719285 17.6564
39.957503091207826 17.5391
39.9811937746168 17.5048
40.00488623990914 17.4926
40.02858048850006 17.4475
40.05246165409549 17.4153
40.076159487492085 17.344
40.099859108448875 17.4067
40.123560518384345 17.3809
40.1474489070226 17.34
40.171153913178564 17.2614
40.194860712584955 17.2861
40.2185693066637 17.2609
40.242464941335314 17.217
40.26617714307655 17.1676
40.289891143772046 17.1694
40.3136069448471 17.1098
40.33750984859743 17.1212
40.3612292688043 17.0715
40.3849504936829 16.9845
40.40867352466194 17.0258
40.43258372059144 17.0333
40.45631038219906 17.0373
40.48003885420956 16.9278
40.503769138055105 16.921
40.52768664931955 16.9188
40.55142057531802 16.8749
40.57515631746428 16.8255
40.599079334038514 16.8163
40.62281872700477 16.8268
40.64655994043941 16.8237
40.67030297578061 16.7251
40.69423334835778 16.7348
40.71798004609188 16.6573
40.74172857006355 16.6219
40.76547892171441 16.6713
40.7894166736039 16.6219
40.813170699248566 16.6056
40.83692655691388 16.5755
40.86068424804498 16.5571
40.884629402612525 16.4792
40.908390779366385 16.4837
40.932153993938 16.4397
40.95591904777605 16.4296
40.979871628443995 16.4416
41.003640379561936 16.3642
41.02741097430883 16.4266
41.05118341413683 16.3469
41.075143444384416 16.2835
41.098919593177826 16.277
41.1226975914255 16.2731
41.14647744058318 16.2216
41.170444943946755 16.1701
41.19422851378379 16.1231
41.218013938914645 16.1029
41.24198706625173 16.0643
41.26577622087193 16.057000000000002
41.289567235177785 16.0235
41.31336011063129 16.0255
41.337340752422875 16.0461
41.361137369129835 16.0511
41.38493585138705 15.9866
41.40873620066004 15.9464
41.43272438060107 15.9126
41.45652848292052 15.8281
41.48033445666918 15.7926
41.50414230331616 15.8425
41.528138045159764 15.8584
41.551949656675205 15.7415
41.575763145513235 15.6684
41.59957851314666 15.636
41.62358184070442 15.6547
41.64740098505737 15.6673
41.6712220126409 15.624
41.69504492493139 15.5821
41.71905586207357 15.5673
41.74288256296395 15.4904
41.766711153007456 15.4738
41.79054163368412 15.4278
41.814560204340054 15.4828
41.838394485526365 15.4397
41.86223066180303 15.4039
41.88625497706819 15.3778
41.910094962812 15.3448
41.93393684811168 15.3058
41.95778063445365 15.2935
41.981812625263366 15.2557
42.00566023303407 15.2134
42.029509746323676 15.1752
42.05336116662236 15.1951
42.077400857069705 15.2133
42.10125611078846 15.1421
42.12511327600405 15.1452
42.14897235421036 15.140999999999998
42.173019768448455 15.1138
42.19688269209613 15.0096
42.22074753323349 15.0051
42.24461429335818 15.0298
42.268669455600495 14.9663
42.292540073217886 14.9797
42.31641261433284 14.9376
42.34028708044675 14.8573
42.36435001496739 14.9288
42.38822835065557 14.8768
42.41210861586426 14.8253
42.4359908120986 14.8639
42.46006154323262 14.7637
42.48394762115317 14.6485
42.507835634632315 14.6631
42.531912233047436 14.692
42.55580413732265 14.6969
42.579697981698 14.7035
42.60359376768525 14.6426
42.62767820545945 14.5959
42.65157789440821 14.6
42.67547952952185 14.5464
42.699383112316 14.5402
42.72347541395347 14.4862
42.74738291190531 14.4835
42.771292362102166 14.4427
42.795203766063516 14.3893
42.819303956130405 14.4448
42.843219287476536 14.3734
42.86713657716324 14.3657
42.89105582671383 14.3379
42.91516392983864 14.359000000000002
42.939087119032166 14.2869
42.963012272677304 14.2736
42.98693939230129 14.2441
43.01105543317513 14.2119
43.034986504731386 14.2002
43.05891954686589 14.1625
43.08285456110972 14.1488
43.10697856448665 14.0868
43.130917542983475 14.0489
43.15485849820081 14.0617
43.17880143167367 14.0384
43.20293342237094 13.9841
43.226880332449 13.9843
43.25082922540554 13.9806
43.27496722682525 13.9833
43.29892010567796 13.8976
43.32287497204102 13.9057
43.34683182745632 13.8691
43.370977859791836 13.8063
43.39493871351105 13.8357
43.41890156092628 13.8372
43.44286640358341 13.7327
43.46702049182749 13.7738
43.49098934522816 13.7706
43.51496019852649 13.7404
43.5389330532723 13.6873
43.56309522248204 13.6678
43.58707210044314 13.671
43.61105098451946 13.6239
43.63503187626491 13.5708
43.659202151562134 13.5426
43.68318707902681 13.573
43.70717401884041 13.5081
43.731162972560874 13.4592
43.75534137913236 13.4771
43.779334381108384 13.4275
43.803329401683186 13.42
43.82732644241872 13.3758
43.8515130055166 13.3674
43.87551410707659 13.3609
43.89951723350145 13.3607
43.923709934595614 13.2914
43.94771713129917 13.3251
43.97172635758096 13.3118
43.99573761501002 13.2138
44.0199385169922 13.2086
44.04395385732619 13.1717
44.067971233533086 13.200999999999999
44.09199064718605 13.1664
44.11619977548961 13.1423
44.14022328470671 13.1099
44.16424883610785 13.0461
44.18827643127035 13.0912
44.21249381139513 13.0509
44.236525514814076 12.979000000000001
44.26055926674478 13.024000000000001
44.28459506876863 13.030999999999999
44.3088207262813 12.9474
44.33286064928722 12.8886
44.35690262714919 12.8879
44.38094666145278 12.9044
44.4051806219871 12.8754
44.42922879003185 12.8267
44.45327901929361 12.806
44.477331311362136 12.8152
44.501573600619416 12.7043
44.525630039221795 12.7116
44.54968854541895 12.7294
44.573937102200176 12.7349
44.5979997645541 12.6636
44.622064499300315 12.6624
44.64613130803592 12.6277
44.67038823869318 12.6071
44.69445921643748 12.5757
44.718532272981385 12.5405
44.742607409926194 12.5298
44.76687274034801 12.4957
44.79095205918753 12.4978
44.81503346325094 12.4911
44.839116954143876 12.4252
44.86339071028742 12.4202
44.88747839599524 12.4411
44.91156817336837 12.3809
44.93566004401666 12.3855
44.959942251908146 12.362
44.984038330325966 12.3203
45.00813650686762 12.2687
45.03223678314731 12.2691
45.05652746888232 12.2426
45.08063196592069 12.2269
45.104738567558705 12.1672
45.128847275414856 12.1939
45.15314646515866 12.1457
45.17725940679741 12.1582
45.20137445952892 12.1415
45.22568004865265 12.1231
45.24979934496396 12.0681
45.27392075725247 12.0572
45.29804428714431 12.0554
45.322358426247604 12.0087
45.346486212804315 11.991
45.370616121861914 11.9756
45.39474815505086 12.0108
45.41907087049246 11.9034
45.4432071734666 11.8773
45.46734560548283 11.8992
45.49148616817604 11.912
45.51581748638564 11.8247
45.5399623320197 11.8266
45.56410931325473 11.8064
45.58825843173002 11.7829
45.61259837920865 11.7724
45.636751793816 11.7672
45.66090735060093 11.732999999999999
45.68506505120716 11.6875
45.7094136545275 11.6746
45.73357566449271 11.6737
45.75773982322992 11.6497
45.78190613238733 11.6388
45.806263418194064 11.572000000000001
45.83043404997326 11.5536
45.85460683713677 11.5656
45.87897065658495 11.5492
45.90314777634752 11.5269
45.92732705646868 11.5031
45.9515084986045 11.4609
45.97588104735473 11.4588
46.00006683541565 11.4352
46.02425479047904 11.4416
46.04844491420549 11.4398
46.0728262191024 11.3455
46.09702070211635 11.3718
46.12121735879483 11.3442
46.14541619080294 11.3414
46.169806278764455 11.3297
46.194009483459034 11.2999
46.21821486849841 11.2738
46.24242243555223 11.2358
46.266821333570014 11.212
46.29103328674601 11.1879
46.31524742696538 11.1484
46.33946375590237 11.1547
46.36387149104216 11.1789
46.38809221957392 11.132
46.41231514186606 11.0823
46.436540259597464 11.0917
46.460956858999374 11.0505
46.48518638983522 11.0272
46.509418121166966 11.017999999999999
46.533652054678114 10.9718
46.55807754555709 10.9463
46.58231590571962 10.9531
46.60655647313217 10.9542
46.630988654873654 10.91
46.655233659129024 10.8875
46.67948087571551 10.8708
46.70373030632484 10.8194
46.72817142736393 10.8436
46.752425308428684 10.8241
46.77668140861147 10.8019
46.80093972960865 10.7513
46.82538981736788 10.7258
46.849652602470904 10.7206
46.87391761349769 10.745
46.8981848521493 10.704
46.9226439341274 10.6659
46.946915650573224 10.6358
46.97118959976749 10.6381
46.99546578341598 10.5713
47.019933887188216 10.5716
47.04421456235744 10.6192
47.06849747711879 10.5439
47.09278263318286 10.5178
47.11725978640143 10.509
47.14154944775105 10.5009
47.165841355555656 10.4767
47.1901355115306 10.4501
47.214621741924994 10.4576
47.23892041698887 10.4094
47.26322134538975 10.4314
47.28771440635075 10.3998
47.31201986422527 10.3889
47.33632758061436 10.3425
47.360637557241866 10.3257
47.38513974410611 10.3234
47.40945426407847 10.2707
47.43377104948137 10.2539
47.45809010204344 10.2552
47.48260144275502 10.2311
47.506925052572285 10.2033
47.53125093475548 10.1754
47.55557909103813 10.1714
47.58009961361992 10.105
47.60443234110732 10.1299
47.62876734791564 10.0932
47.65310463578333 10.1054
47.6776343683373 10.081
47.7019762413987 10.0419
47.72632040075572 10.0341
47.75066684815169 10.0401
47.77520581885936 9.9892
47.799556865477655 9.980030000000001
47.823910205386 10.001
47.84826584033272 9.97072
47.87281407745551 9.91333
47.89717432569297 9.900210000000001
47.92153687423484 9.88422
47.94609208429692 9.85573
47.97045925671401 9.835930000000001
47.99482873471275 9.85055
48.01920052005013 9.81685
48.04376504619224 9.78358
48.068141469543484 9.8068
48.09252020552573 9.79216
48.11690125590099 9.76299
48.1414751266064 9.737919999999999
48.16586082917454 9.73687
48.19024885144316 9.68878
48.2146391951793 9.67581
48.239222439012764 9.68768
48.26361744916137 9.68801
48.28801478610016 9.637139999999999
48.31241445160131 9.609630000000001
48.337007097209366 9.57289
48.36141144338331 9.58847
48.38581812345755 9.53974
48.41022713920929 9.55002
48.434829215320704 9.55526
48.45924292604658 9.526010000000001
48.48365897780325 9.547
48.50807737237308 9.4995
48.532688907799276 9.4511
48.55711201168574 9.47356
48.581537463754074 9.42633
48.60615611725119 9.43476
48.63058628942721 9.4002
48.65501881516546 9.37372
48.6794536962573 9.37065
48.70408185970339 9.369010000000001
48.72852147531801 9.314119999999999
48.75296345168211 9.300930000000001
48.77740779059232 9.29942
48.80204549302823 9.29244
48.82649458091802 9.25595
48.85094603676547 9.22911
48.87539986237231 9.18218
48.90004713292306 9.19256
48.92450572200832 9.23069
48.94896668628025 9.1521
48.97343002754588 9.154760000000001
48.99808689542115 9.155510000000001
49.02255501470614 9.14435
49.04702551642794 9.13031
49.0714984023988 9.10242
49.096164896893235 9.08941
49.120642575466796 9.04303
49.145122643748394 9.02073
49.16960510355558 9.020710000000001
49.19428125404938 9.01268
49.2187685210852 9.00657
49.243258185121555 8.94257
49.26794160167084 8.95856
49.2924360839405 8.944980000000001
49.31693296869764 8.9097
49.34143225776915 8.9129
49.36612538195438 8.86406
49.39062950396021 8.88007
49.41513603578346 8.878039999999999
49.4396449792564 8.82033
49.46434784069503 8.85007
49.488861631846454 8.80861
49.513377840166804 8.76637
49.537896467493745 8.77097
49.56260909589029 8.730889999999999
49.587132585683285 8.72872
49.611658500018365 8.68948
49.636186840738596 8.66715
49.66090926588511 8.68215
49.685442483902584 8.64717
49.70997813385706 8.61031
49.734516217597076 8.5976
49.75924846937352 8.59946
49.7837914452858 8.56012
49.80833686055187 8.57643
49.83288471702571 8.53832
49.85762682540054 8.534289999999999
49.882179588965734 8.50539
49.9067347993235 8.481489999999999
49.93129245833333 8.50025
49.95604445336378 8.46852
49.98060703442832 8.44515
50.005172069746266 8.41509
50.02993150438364 8.39826
50.05450147301533 8.369489999999999
50.07907390151433 8.377369999999999
50.10364879174981 8.36722
50.12841816587289 8.36773
50.1529980044635 8.354610000000001
50.17758031042124 8.315539999999999
50.20216508562089 8.298119999999999
50.22694442953363 8.28974
50.25153416817468 8.30936
50.27612638170508 8.30647
50.300721072005196 8.265260000000001
50.325510416102105 8.22654
50.350110084975064 8.19331
50.37471223628208 8.23056
50.39931687190919 8.22091
50.424116246675766 8.16343
50.44872587605249 8.18784
50.47333799543065 8.170869999999999
50.49795260670191 8.1023
50.52276204271512 8.112689999999999
50.54738166295838 8.11245
50.57200378079314 8.103580000000001
50.596628398116835 8.03152
50.62144792604559 8.03802
50.646077567609396 8.040389999999999
50.670709714377715 8.036810000000001
50.69553683636198 8.00475
50.72017401885922 7.986330000000001
50.7448137122895 7.978960000000001
50.76945591856022 7.96895
50.79429318636823 7.921360000000001
50.818940443716784 7.905760000000001
50.84359021965163 7.8867
50.868242516085964 7.8928199999999995
50.893089960641895 7.88395
50.917747323549435 7.861619999999999
50.94240721271973 7.85203
50.96706963007175 7.80883
50.99192728239342 7.8218
51.01659478166073 7.81808
51.04126481489051 7.78838
51.06593738400761 7.76823
51.090805275207074 7.76733
51.11548294172845 7.7497
51.14016314993547 7.72018
51.164845901758845 7.668360000000001
51.18972406304274 7.692539999999999
51.21441192780656 7.65698
51.23910234200271 7.65025
51.2637953075678 7.654260000000001
51.288683770237945 7.63065
51.31338186432707 7.592230000000001
51.33808251561888 7.5601
51.362978729967345 7.5684
51.387684521509755 7.58005
51.41239287610203 7.52832
51.437103795691165 7.522360000000001
51.46201036644977 7.54028
51.486726441956634 7.48795
51.51144508832545 7.4786600000000005
51.536166307509156 7.47205
51.56108326624387 7.4584399999999995
51.58580965706056 7.4593300000000005
51.61053862657523 7.4146
51.635270176746864 7.3919
51.66019755512065 7.41482
51.68493429268881 7.4073199999999995
51.70967361681515 7.354989999999999
51.73441552946465 7.340789999999999
51.759353359237934 7.360119999999999
51.7841004750961 7.339580000000001
51.80885018539685 7.319189999999999
51.833602492111254 7.29723
51.8585508051424 7.259510000000001
51.883308330926425 7.280869999999999
51.90806845906181 7.251110000000001
51.932831191525715 7.21598
51.95779001977161 7.19557
51.98255798721516 7.15844
52.00732856494335 7.16436
52.03229530577543 7.173839999999999
52.057071130455945 7.15322
52.081849571391054 7.14082
52.106630630568695 7.104019999999999
52.13160794279417 7.1252699999999995
52.15639426492067 7.12758
52.18118321127822 7.09185
52.205974783860896 7.067819999999999
52.23096269971011 7.057689999999999
52.255759551287994 7.0324100000000005
52.280559035098186 7.03112
52.30536115314103 7.00515
52.33035970494467 7.01063
52.35516711807904 6.98509
52.37997717147198 6.96357
52.40478986713005 6.9867
52.42979908731974 6.935630000000001
52.454617094216 6.89887
52.47943774942214 6.894589999999999
52.50426105495102 6.907260000000001
52.529280976059844 6.865530000000001
52.554109609024096 6.90189
52.57894089837482 6.86153
52.60377484613117 6.85721
52.62880550079408 6.81305
52.65364479223379 6.806369999999999
52.67848674816189 6.795380000000001
52.70352547971946 6.7694399999999995
52.72837279155837 6.74375
52.753222773982785 6.7706800000000005
52.778075429022984 6.76185
52.80312495150885 6.7606399999999995
52.827982978797436 6.69309
52.85284368481815 6.722230000000001
52.87770707160767 6.683889999999999
52.90276741793998 6.672960000000001
52.92763619336701 6.63892
52.952507655698504 6.674169999999999
52.977381806977576 6.64802
53.00245301017842 6.63473
53.02733256653592 6.5931
53.052214817996074 6.58577
53.077099766608484 6.562689999999999
53.102181859804446 6.55055
53.127072229988265 6.5489999999999995
53.15196530349892 6.53638
53.17686108239249 6.50751
53.20195409881522 6.50005
53.22685531582556 6.47391
53.25175924441303 6.46861
53.27666588664027 6.47485
53.30176985962693 6.4106
53.3266819565689 6.444780000000001
53.35159677336455 6.44911
53.376514312083096 6.39823
53.40162927507703 6.42747
53.42655228516116 6.4131599999999995
53.45147802340193 6.3314
53.47660125628886 6.32684
53.50153247842639 6.294980000000001
53.52646643496923 6.29854
53.55140312799818 6.31957
53.576537409691696 6.33634
53.60147960336152 6.27232
53.626424539786164 6.27119
53.65137222105307 6.24779
53.67651758529126 6.24111
53.70147078399681 6.19761
53.72642673383343 6.19571
53.75138543689533 6.21304
53.776541917524526 6.18947
53.801506154876755 6.16137
53.826473151763246 6.11407
53.851442910284916 6.15763
53.87661054126026 6.115559999999999
53.9015858509782 6.13169
53.92656392866066 6.088830000000001
53.95154477641532 6.11144
53.976723591801296 6.08425
54.00171000771266 6.08806
54.02669920004598 6.0454
54.051691170915745 6.04012
54.076881204886796 6.03407
54.101878760928514 6.02664
54.12687910187696 5.964230000000001
54.152077577768296 5.96235
54.1770835166946 5.94566
54.20209224691339 5.95601
54.22710377055121 5.9200099999999996
54.25231352511594 5.91862
54.27733066384342 5.90929
54.30235060239643 5.89205
54.32737334290836 5.86685
54.35259441062629 5.8333900000000005
54.377622783395324 5.85661
54.40265396455061 5.87479
54.42768795623251 5.830430000000001
54.45292037169559 5.80437
54.477960012857906 5.79831
54.50300247099511 5.7664800000000005
54.52804774825457 5.73763
54.55329154616743 5.710319999999999
54.57834249018678 5.71152
54.6033962597977 5.62902
54.6284528571545 5.64665
54.653708072335164 5.6377
54.67877035378786 5.65244
54.70383546947698 5.6103
54.72890342156389 5.64034
54.7541700889442 5.579940000000001
54.77924374251975 5.55426
54.8043202390049 5.5364
54.82959552413022 5.46122
54.8546777351945 5.49179
54.87976279569621 5.43011
54.90485070780914 5.4897800000000005
54.930137506558005 5.43289
54.95523115074295 5.42937
54.98032765308844 5.35131
55.005427015775496 5.33164
55.03072536339621 5.38583
55.05583047570572 5.35794
55.080938454927676 5.3109
55.10604930325027 5.315930000000001
55.131359235107396 5.307869999999999
55.15647585066083 5.28445
55.181595341907496 5.21137
55.20671771104285 5.1848
55.232039262617704 5.14701
55.25716741665048 5.11107
55.28229845518636 5.15489
55.30743238042802 5.10614
55.33276558731939 5.07095
55.357905315183636 5.11888
55.383047936390035 5.0363
55.40819345314859 4.98565
55.433538351073295 5.03529
55.458689688238415 5.03855
55.483843927614096 4.94461
55.509197623043605 4.94091
55.53435769621134 4.86814
55.55952067826466 4.89323
55.5846865714265 4.8756699999999995
55.61005202069737 4.83852
55.63522376553902 4.85273
55.66039842818645 4.79755
55.68557601087004 4.82585
55.7109532500271 4.7438199999999995
55.73613670233794 4.78274
