TT I
1.2716486653135266 7.65946
1.2939594142134223 7.13537
1.3162702121660406 6.65227
1.3385810600174564 6.58966
1.3608919586137629 6.2512300000000005
1.383202908801069 6.33935
1.405513911425503 5.85821
1.4278249673332093 6.29814
1.4501343378461518 6.45001
1.4724455028545926 6.51421
1.4947567236847858 5.14902
1.517068001182951 5.93377
1.5393793361953272 5.63858
1.5616907295681737 5.59377
1.5840021821477681 5.22096
1.60631369478041 5.24066
1.6286252683124185 5.12668
1.6509369035901333 4.6080000000000005
1.6732468618895553 5.09286
1.695558623192809 4.73347
1.7178704487808514 5.14176
1.7401823395001077 5.1241
1.7625012545597203 4.94377
1.7848028405262486 5.26916
1.8071218901122095 4.89043
1.8294236121921872 4.66118
1.8517427996910911 4.76593
1.8740620574440425 4.96483
1.8963639900671978 4.6318
1.9186833908139995 4.688619999999999
1.9409854680117449 4.98968
1.9633050151394713 5.1033
1.9856246367570705 5.2058
2.0079269371922672 4.2574
2.03024671027244 4.75847
2.0525491637446027 4.71581
2.074869091674931 4.558
2.097171701569106 4.52062
2.1194917877373847 4.70107
2.141811954326636 4.5158
2.164114805233074 4.52482
2.186435135143035 5.18924
2.208738150935709 10.6775
2.231058647554722 20.7033
2.2533792288321184 15.7845
2.275682498336085 8.722760000000001
2.298003251406138 6.15966
2.3203066942619714 5.69466
2.3426276225136022 5.17351
2.3649486396617507 5.78027
2.387252348930071 5.811719999999999
2.4095735463442893 5.52917
2.4318774374315884 6.39954
2.4541988185014043 6.24107
2.476502894794693 7.48538
2.498824462909887 6.836469999999999
2.521146125856138 6.3907300000000005
2.5434504863470337 7.068969999999999
2.5657723414244717 7.49223
2.588076895590662 8.10479
2.610398946189713 7.49374
2.6327210958598384 8.01148
2.6550259469304716 7.79293
2.6773482972090137 7.87628
2.6996533504259 7.8171
2.7219759047039602 8.012360000000001
2.744298562293959 8.054910000000001
2.7666039251246595 7.72192
2.7889267918020164 8.34876
2.8112323652516555 8.28952
2.833555444408179 8.26197
2.8558786311183852 8.07842
2.8781845268938557 8.322410000000001
2.9005079311721484 8.61818
2.9228140460410397 8.49898
2.9451376712799635 8.54081
2.967444008632326 8.91364
2.9897678582247247 9.70604
3.0120918213106695 10.6209
3.0343984987899373 10.9958
3.0567226913198637 11.1818
3.079029599759726 12.0188
3.101354025127254 12.2301
3.123678568232338 13.0662
3.145985829517914 12.8736
3.16831061055229 13.5293
3.1906181112775593 14.1103
3.212943133635653 14.9132
3.2352682779763207 15.2464
3.2575761442691227 14.6042
3.2799015350264273 15.5856
3.302209649240067 16.692999999999998
3.3245352898092655 17.1613
3.3468436553365257 17.1012
3.369169549113219 17.637999999999998
3.3914955708171384 18.6125
3.413804319727358 18.802
3.4361305997334863 19.0229
3.4584396084414553 19.6125
3.4807661501462652 20.1833
3.503092824025881 20.8451
3.5254022288463154 21.2154
3.5477291695206588 22.0669
3.5700388426251948 22.2731
3.5923660534916446 23.7902
3.6146934007816114 34.3009
3.637003482731501 68.3402
3.6593311053109985 74.7378
3.681641464033634 45.9774
3.7039693653009733 28.5743
3.726297407241705 26.1507
3.7486081875460804 25.3053
3.7709365132734978 25.8059
3.793247578841633 26.3072
3.8155761917550093 26.6814
3.8378875459837216 27.1669
3.8602164494827234 27.6098
3.882545499606844 28.2076
3.9048572932539183 28.8405
3.9271866390645718 29.3579
3.9494987298666713 29.5154
3.971828374764527 30.2032
3.9941581705403255 30.9064
4.016470713506008 31.8738
4.038800813471445 32.1126
4.061113662089144 32.9037
4.0834440696459176 33.5177
4.105774632334751 33.7062
4.128087945865126 34.8843
4.150418821249301 35.2132
4.172732448931298 36.3807
4.195063640413578 37.6996
4.2173775856475215 41.1733
4.239709096631102 64.9411
4.262040768704612 178.08900000000003
4.284355196706267 228.12599999999998
4.306687193387355 150.958
4.329001947444346 67.7237
4.35133427213731 46.3086
4.373666762177566 44.0098
4.395982011761091 44.1699
4.418314834921175 45.6228
4.44063041906622 51.5043
4.4629635787515625 59.2232
4.4852969080429785 59.1038
4.5076130004776225 52.2036
4.529946671403969 50.6645
4.552263106909177 51.7275
4.574597122877047 51.9927
4.596931312711224 52.7501
4.619248269273446 53.7187
4.6415828092605835 54.827
4.663900117405352 55.6238
4.686235010953232 57.1713
4.708552674085913 58.6281
4.730887924602802 59.9147
4.753223354952695 61.7237
4.775541557023902 63.0413
4.797877349456786 64.9749
4.820195915032126 67.1705
4.842532072957498 68.158
4.864868414979744 70.3167
4.88718753227192 71.9608
4.909524244902505 74.2934
4.931843734218147 76.0597
4.954180820867835 78.8186
4.976518095879839 81.9532
4.998838149695359 85.1759
5.021175803844231 88.6362
5.043496238205739 92.0392
5.065834274903528 96.6931
5.088172504230693 102.095
5.1104935158799565 108.15700000000001
5.132832132875765 128.026
5.155153533596801 165.87400000000002
5.1774925416746225 209.84099999999998
5.199814334878411 433.14099999999996
5.2221537374521505 1223.13
5.244493338631803 3162.03
5.266815727034316 7818.88
5.289155727832427 12270.6
5.311478517248165 8519.53
5.333818921080011 2941.91
5.356159527788849 619.621
5.3784829252032536 197.63400000000001
5.400823940070432 147.47
5.423147747031976 129.968
5.445489173474152 120.325
5.467830807066149 115.0
5.490155234831516 111.04
5.512497285125229 107.17299999999999
5.534822130975162 105.009
5.557164601388673 102.971
5.579489868738879 100.28299999999999
5.601832762690846 99.444
5.6241758697774475 98.8376
5.646501775867269 97.4455
5.668845311622074 96.0721
5.691171647754637 95.4166
5.713515615597765 94.6367
5.735859800852677 93.2687
5.758186788542988 93.0295
5.780531411018185 93.3621
5.802858837297399 93.0283
5.825203900414495 93.1307
5.8475491852224 93.8423
5.869877275883075 94.2347
5.892223006467101 95.204
5.914551544266608 96.7324
5.936897724049891 99.7396
5.959244129804903 107.524
5.981573344815301 134.086
6.0039202049061 252.42700000000002
6.026249875609095 539.6419999999999
6.04859719346037 1096.88
6.070927323278297 2329.97
6.093275102315365 4441.62
6.115623113320588 5489.05
6.137953938319995 3391.38
6.160302415650845 1076.31
6.182633708324452 251.794
6.2049826554078376 115.587
6.227331838745022 93.7357
6.249663839443684 86.0693
6.27201349767565 83.1863
6.294345974611799 86.4175
6.316696111167083 93.1657
6.339046488263839 88.9596
6.361379686074702 77.667
6.383730546639482 71.7661
6.406064229255215 69.358
6.428415576718203 68.8748
6.450749747566656 67.6759
6.47310158535871 66.4491
6.495453669698332 65.8416
6.517788579421056 64.8699
6.540141159237969 64.0657
6.562476565766648 63.646
6.5848296444934045 63.0009
6.607182974060425 62.3811
6.6295191323281015 62.676
6.651872965955752 65.1904
6.6742096296068985 82.8407
6.6965639707294615 115.193
6.71891856698715 114.47200000000001
6.741255995248479 83.5724
6.763611104154477 65.2977
6.785949046381137 59.8986
6.808304671371482 58.6536
6.8306605557940046 58.4041
6.852999275508618 57.7198
6.875355681171544 57.5361
6.897694923437771 56.9286
6.92005185377892 56.5189
6.9423916220322655 56.497
6.964749080490181 56.044
6.987106804399774 55.857
7.009447368180821 55.748999999999995
7.031805625367033 55.488
7.054146723727803 55.7979
7.076505517631004 55.5277
7.098864581288365 55.4503
7.121206488070854 55.3695
7.143566093607822 55.1831
7.165908543567245 55.5847
7.188268694426048 55.6071
7.2106291193438095 55.6278
7.232972390625943 56.9302
7.255333366030969 65.8928
7.277677189091925 103.00399999999999
7.300038718428332 136.232
7.322400526130865 117.429
7.344745183422596 78.9085
7.367107550224791 59.6629
7.389452767901992 55.8958
7.411815697249891 55.5736
7.434161478756298 54.4403
7.456524974096713 54.599
7.478888753837185 54.3659
7.501235387657368 54.4292
7.523599738562711 54.8034
7.545946944825532 54.9649
7.568311870344528 55.5382
7.5906770845765665 55.6708
7.613025156078678 56.54
7.635390950099687 57.5177
7.657739602662809 56.6506
7.680105979923558 56.0363
7.702472650212829 56.1153
7.724822180948224 56.261
7.747189439655568 56.5762
7.769539560075357 56.5365
7.791907410653562 56.8537
7.81425812420825 56.8675
7.836626570110925 57.1729
7.858995315087906 57.9121
7.881346924933401 58.2386
7.903716270417482 58.7668
7.926068482028405 59.3036
7.948438431475253 59.9156
7.9708086843180235 59.8974
7.993161805171116 60.8926
8.015532667162402 61.4606
8.037886398416653 62.3607
8.060257873014221 62.8367
8.082629655331942 63.2503
8.104984308787587 64.143
8.127356708900503 66.681
8.149711981398308 71.1863
8.172085002766314 73.1686
8.194458336181368 70.7432
8.216814543847752 69.5823
8.23918850371002 70.1009
8.26154533906492 70.7131
8.283919928836452 72.5183
8.306277395339652 73.4845
8.328652618483376 75.102
8.351028159736202 77.1966
8.373386579575245 79.1773
8.395762759396959 81.2179
8.418121819038275 85.7423
8.440498640894003 96.4986
8.462875785192262 109.219
8.485235811156207 130.314
8.507613602688501 186.878
8.529974277114228 287.375
8.552352719347912 432.658
8.574731488360351 710.435
8.59709314210385 1230.23
8.619472567021075 1876.04
8.64183487789147 2215.66
8.664214962183097 1784.6
8.686577933647762 973.959
8.708958680784317 371.454
8.731339760774953 164.02900000000002
8.753703729764451 111.919
8.77608547780821 100.23700000000001
8.798450116065078 96.5827
8.820832535634787 93.2117
8.843215292401656 91.8289
8.865580941199045 90.7723
8.887964374703538 89.7259
8.910330701447199 90.2364
8.932714815164482 91.0551
8.955099270424924 90.2011
8.977466620733543 87.6675
8.999851761421976 85.7274
9.022219798361645 84.3389
9.04460562795561 84.2727
9.066991803441677 83.7467
9.089360876979615 83.5792
9.111747746589993 83.13799999999999
9.13411751544971 82.6466
9.156505082664324 82.07700000000001
9.178875550323522 82.9869
9.20126381862328 82.8189
9.223652438908596 83.1663
9.246023961427412 82.8558
9.26841328802173 82.4262
9.290785518039224 82.656
9.313175554425882 83.53
9.335565947154315 83.4753
9.357939245086508 83.8499
9.380330352834827 84.0678
9.40270436697103 84.1576
9.425096193225055 83.9144
9.447488380180165 84.8455
9.469863475295412 84.8817
9.492256385987508 85.37200000000001
9.514632206018318 85.8009
9.537025843935714 86.2568
9.559402392368193 87.2002
9.581796761000229 88.0618
9.604191496441521 89.0731
9.626569144158516 91.6947
9.648964615551032 95.3613
9.671343000390081 96.4876
9.693739211225699 95.7915
9.716135793237463 93.8464
9.738515290448102 93.7882
9.760912617143402 94.7769
9.783292860202891 96.3429
9.805690935076182 97.9195
9.828089385495742 98.7709
9.850470754023561 100.905
9.872869957865444 107.005
9.89525208097539 118.536
9.917652041736662 128.60299999999998
9.940052382417589 133.412
9.962435644102392 152.787
9.984836746950979 200.359
10.007220771957746 269.781
10.029622640473708 378.348
10.052007432299963 565.85
10.074410069984072 854.538
10.096813093716005 1273.72
10.119199042482517 1712.17
10.141602840636468 1896.24
10.163989564971628 1540.45
10.186394141051062 877.953
10.208799107559706 398.048
10.231187001965623 187.521
10.253592751657669 126.647
10.275981430388155 113.62
10.298387966769793 112.115
10.320794897965431 113.307
10.343184759907361 112.15
10.36559248305461 107.728
10.387983138083852 105.804
10.410391656691655 111.34899999999999
10.432800574501677 125.255
10.455192425893369 143.416
10.47760214443012 170.34799999999998
10.499994797678786 215.0
10.522405320453982 294.95599999999996
10.54479877906917 409.244
10.567210109595656 518.585
10.5896218454736 564.6619999999999
10.612016518879773 499.77
10.634429067781074 338.13300000000004
10.656824555333241 193.56
10.679237920773568 119.76899999999999
10.701651695961992 95.7282
10.724048411481384 89.766
10.746463008485165 87.1455
10.768860546937125 85.5331
10.791275969274796 83.8931
10.81369180576079 82.78399999999999
10.836090585366925 81.4456
10.858507252467449 80.3804
10.88090686379991 79.3815
10.903324365036394 78.8943
10.925724811614439 78.6051
10.948143150509463 79.125
10.970561909719066 78.4017
10.992963615930844 76.6688
11.015383218085756 74.9858
11.037785768347074 73.4719
11.06020621697282 73.325
11.082627090322113 72.913
11.105030913430326 71.9298
11.12745263854165 72.2095
11.149857314510728 74.3537
11.172279894912576 78.61
11.194702904450653 78.7521
11.217108866490921 75.6003
11.239532736615194 72.7295
11.26193956033512 71.2043
11.284364294577085 69.895
11.306789462371718 68.4155
11.329197585398376 67.4429
11.351623622610898 67.2881
11.37403261614354 66.3748
11.396459526308487 66.2288
11.418869393879497 66.0878
11.441297180532617 65.4736
11.463725406927658 65.3881
11.486136592353875 65.2666
11.508565700543707 65.4947
11.530977768845315 66.4098
11.553407762368774 66.9608
11.575838200059769 66.55
11.598251599479612 64.9893
11.620682927815501 64.11399999999999
11.64309721895548 64.0655
11.665529441478206 63.3461
11.687962112597958 63.2338
11.710377748130886 63.2651
11.732811318753434 63.3365
11.755227854859067 63.4628
11.777662328529495 63.391999999999996
11.800079768750786 63.0417
11.822515149015453 63.0289
11.844950984084935 63.1857
11.867369787303163 62.8367
11.889806534289491 62.743
11.912226250487029 63.1374
11.934663912939751 63.321999999999996
11.9571020346363 63.3349
11.979523127133968 63.5899
12.001962169624331 64.4907
12.024384183972964 66.2236
12.046824150809913 69.8862
12.069264581333726 75.0798
12.091687985297767 81.4541
12.11412934550045 90.9837
12.136553680195208 105.704
12.158995973632788 127.943
12.181438735204349 155.319
12.20386447284199 184.115
12.226308172985636 200.571
12.24873485024193 198.453
12.271179492516982 159.751
12.293607112949127 120.837
12.316052700916226 91.3606
12.338498763250042 75.8619
12.360927805303868 68.7942
12.383374818673879 66.1315
12.405804812803074 64.6754
12.428252780773262 64.3802
12.45070122756722 64.512
12.473132656675375 64.4358
12.49558206341869 64.7283
12.518014453510101 64.4972
12.540464823770117 64.9303
12.562915677315177 65.0241
12.58534951575545 65.6175
12.607801338171472 67.0631
12.630236146511358 70.7414
12.652688941369085 74.0956
12.675124723177234 74.3636
12.697578494048786 72.4661
12.720032754458185 69.1482
12.742470003354093 68.0542
12.764925245138771 68.2574
12.787363476431278 68.4809
12.809819703166806 68.7321
12.83227642391173 69.435
12.854716135692716 69.9805
12.877173846755147 71.2183
12.899614549869717 71.5474
12.9220732548287 72.4954
12.94453245827299 72.8425
12.966974655289818 73.7355
12.989434858002571 74.6612
13.011878055298721 75.4843
13.034339260862497 76.6285
13.056800969391883 78.0309
13.079245674017244 80.5379
13.101708390774869 83.617
13.12415410463411 92.6679
13.146617833206086 105.37700000000001
13.169064559883248 117.148
13.191529303857127 132.461
13.213994557076367 156.988
13.236442809902437 195.123
13.258909083908291 248.735
13.28135835851934 308.878
13.30382565690295 373.01800000000003
13.326293469022952 426.336
13.348744283242008 425.756
13.371213125129904 352.13599999999997
13.39366497011003 257.324
13.416134845360597 169.984
13.438605238843131 123.294
13.46105863690397 107.97
13.483530069144786 109.45200000000001
13.505984506951902 115.796
13.528456981549432 125.93
13.550929978879088 141.83100000000002
13.573385983253365 166.035
13.595860028340867 205.225
13.618317081455832 254.351
13.64079217790333 306.871
13.663250283359057 348.69
13.685726434770173 367.47
13.708203115221277 337.329
13.730662806148091 255.762
13.75314054697177 181.28799999999998
13.775601299246777 125.26700000000001
13.798080104050406 96.9951
13.820559442405358 85.4833
13.843021793671388 82.1153
13.865502201420897 80.3987
13.887965623051947 79.8564
13.910447103807167 78.7041
13.932929122629764 77.5632
13.955394156785959 77.1066
13.977877254034569 76.2058
14.000343367582113 75.2399
14.022827546871707 75.0899
14.045294743423524 74.3406
14.06778000837062 73.7045
14.090265817715476 73.4575
14.112734645763819 72.85
14.13522154619454 72.4939
14.157691466286913 72.3133
14.180179461423874 72.4349
14.202668005486178 71.5741
14.22513957064374 71.0952
14.247629214846473 70.852
14.270101881097517 70.9083
14.29259262906496 71.0015
14.315083930490205 71.1087
14.337558255389705 71.2959
14.360050666019726 71.1097
14.382526101071944 70.2941
14.405019624534942 69.6686
14.427513705993134 69.3387
14.449990813291825 69.3442
14.47248601302899 69.0601
14.49496423954951 69.3652
14.517460561197822 69.2705
14.539939910570322 69.3139
14.562437357763558 69.6178
14.58493536931253 70.3252
14.607416409993311 71.0666
14.62991555254159 71.6668
14.652397725157423 71.5358
14.674898002342799 71.3085
14.697398848433282 71.0258
14.719882725991326 72.0733
14.74238471217934 73.6613
14.764869730765593 77.6535
14.787372860692983 81.4059
14.809876564079925 86.26799999999999
14.83236330125751 92.3505
14.854868153850365 101.095
14.877356041159485 115.28200000000001
14.899862046604186 133.7
14.922351087688757 157.906
14.944858249632887 184.646
14.967365991421232 209.59
14.989856770231246 222.332
15.012365673994204 218.09099999999998
15.03485761569738 185.173
15.05736768508665 144.356
15.07987833888692 110.536
15.102372032001655 88.9581
15.124883856909658 76.5229
15.14737872204565 72.189
15.169891721717274 70.553
15.192405310371893 70.7152
15.214901940621196 70.7359
15.237416709527137 70.7249
15.259914520936249 70.7089
15.282430473753607 69.8387
15.304947020131227 68.8939
15.327446610371178 68.2435
15.349964346154254 67.6633
15.372465126703139 67.2003
15.394984055556009 66.8779
15.417486030076159 66.8399
15.44000615566487 66.531
15.462526881230803 66.5405
15.485030653812652 66.7178
15.507552581617434 66.4467
15.530057557334603 66.558
15.55258069104857 66.6768
15.575104429329837 66.821
15.597611216864632 66.494
15.620136166564563 66.8286
15.6426441664095 68.5317
15.665170331202765 71.1741
15.687697105158826 74.5421
15.710206930593545 78.1328
15.732734925158933 82.4938
15.755245972089478 88.9368
15.77777519094324 98.6541
15.800287463046663 111.897
15.822817909869592 130.97299999999998
15.84534897229804 150.136
15.867863089299354 172.972
15.890395385222186 189.468
15.912910736597423 195.239
15.935444269699861 181.64700000000002
15.957978423016485 153.192
15.980495633101265 120.62700000000001
16.003031029129367 94.7838
16.02554948280019 75.4579
16.048086125229432 67.2174
16.070623392487107 64.9887
16.09314371869582 63.8707
16.11568223789321 63.0322
16.13820381691126 62.4699
16.160743591742527 61.6606
16.183283996022084 60.7623
16.205807461423195 59.9146
16.228349126881973 59.3601
16.25087385432698 59.4387
16.27341678466365 58.6065
16.29594277784926 58.4343
16.31848697676433 58.5236
16.341031811604868 58.7355
16.36355971058487 58.9263
16.3861058195587 58.7159
16.40863499352978 57.6342
16.431182380342005 56.9998
16.453730407713202 56.4202
16.476261501364792 56.2236
16.498810812136167 55.8242
16.52134319004079 55.873999999999995
16.54389378792203 55.5809
16.566445031001553 55.5229
16.588979342490088 55.4968
16.61153187824822 55.3406
16.634067483263312 55.3583
16.656621315414416 55.18
16.679175797408888 54.8653
16.701713349928728 55.0159
16.72426913389191 55.1997
16.74680798922351 55.0732
16.76936507887444 55.0731
16.791905240734874 55.2792
16.814463639794468 55.122
16.837022695210294 55.315
16.859564824093756 55.6116
16.882125194503903 56.0425
16.904668639217885 56.583
16.927230328348003 56.5056
16.949792678493612 56.786
16.972338104193863 56.1322
16.994901778652235 55.9913
17.017448529496576 56.173
17.040013531998152 56.3935
17.06257920018044 56.9548
17.0851279459922 57.956
17.107694947817667 58.7323
17.130245028099072 59.5714
17.15281336730298 60.824
17.17536478578733 62.7658
17.19793446610687 64.9039
17.220504818648422 67.8805
17.243058251703697 71.0254
17.265629950971032 75.2311
17.288184731571736 78.9826
17.310757781306908 82.7117
17.33333150794385 83.8359
17.355888317140174 81.5539
17.37846339986244 77.2944
17.401021565958885 71.2759
17.42359800851343 66.1351
17.44617513265564 62.3691
17.468735341390783 60.7058
17.491261035594565 59.5131
17.51396340099364 59.3093
17.536490463869136 59.4675
17.559018209820174 59.4025
17.58154663977963 59.5661
17.604251766089718 59.7811
17.626781572227713 60.0501
17.64931206518155 60.09
17.671843245885103 60.7822
17.69455114821572 60.8406
17.717083712612634 61.4363
17.739616967569667 61.6127
17.762150914021706 61.8543
17.78486160749854 62.0236
17.807396945166804 62.7143
17.829932977143503 63.8539
17.85246970436452 65.7665
17.875183204129467 67.6391
17.897721330097664 69.6991
17.920260154126645 72.351
17.942799677153296 75.508
17.9655159983646 79.3164
17.988056927677544 84.8918
18.010598558807683 92.7604
18.033140892692916 102.663
18.05586005052525 112.277
18.07840379824407 123.38
18.10094825154059 134.44299999999998
18.12366954819864 141.41899999999998
18.146215420998306 141.83700000000002
18.16876200220057 132.905
18.191309292745153 117.65700000000001
18.214033452627167 102.912
18.236582170236648 91.6673
18.259131600016456 87.0923
18.281681742907335 87.6215
18.304408781233683 91.9833
18.32696035875955 96.5208
18.349512652227624 101.15799999999999
18.372065662579683 105.339
18.394795594587553 106.281
18.41735004715306 103.02
18.43990521943684 95.4189
18.46246111238171 86.3171
18.485193953325208 77.2106
18.507751296070428 69.9263
18.530309362314178 65.9009
18.552868153000343 63.8401
18.57560391815056 62.5524
18.59816416623245 62.0404
18.620725141597372 61.5237
18.643286845190268 61.0188
18.666025549835414 60.7042
18.688588718427933 60.1923
18.711152618092243 59.9565
18.73389353884365 59.7199
18.75645890921984 59.3285
18.77902501351406 59.0411
18.801591852673102 59.0638
18.824335739722738 58.4893
18.846904057212626 58.5689
18.8694731124168 58.2257
18.89204290628315 58.1071
18.914789774966803 57.998999999999995
18.937361054791623 57.5565
18.959933076131318 57.3938
18.982505839934877 57.5665
19.00525570560582 57.3897
19.027829963004184 57.297
19.05040496572238 57.552
19.072980714710468 57.6261
19.095733592739563 57.5872
19.11831084296757 57.7789
19.140888842324735 58.2572
19.16346759176222 58.5012
19.18622349753803 59.1039
19.208803755869358 60.2058
19.231384767143577 61.5526
19.253966532312948 62.9521
19.276725481241822 64.9588
19.29930876296784 67.5104
19.3218928014549 70.2063
19.34465404436217 73.0258
19.36723960516257 75.2638
19.389825925592426 76.4318
19.412413006605938 75.4908
19.43517731967805 72.0905
19.457765930683355 67.3656
19.48035530514408 63.0514
19.50294544401556 59.6079
19.525712842708348 56.7973
19.54830451925909 55.4835
19.570896963095727 54.4664
19.593490175174704 54.2799
19.616260674962184 54.113
19.638855432416964 53.9051
19.661450960992624 54.0021
19.68404726164677 53.8494
19.706820878021247 53.6378
19.729418731756834 53.8123
19.752017360452857 53.5753
19.77461676506804 53.8194
19.797393513540218 54.2633
19.819994478951667 54.7045
19.84259622316767 54.9661
19.8651987471481 55.4306
19.887978643247177 55.6584
19.91058273574792 56.2309
19.933187610901943 57.1167
19.955969879466828 58.2143
19.97857632894404 59.4229
20.00118356396599 61.2096
20.023791585494575 63.3173
20.046577028914875 65.9363
20.069186632506966 67.8179
20.091797025500632 69.7541
20.114408208858933 70.3554
20.137196842715273 70.0462
20.159809615886765 68.4434
20.18242318232135 65.9269
20.20503754298326 63.9543
20.227829382875154 62.5313
20.250445341109344 62.5635
20.27306209647285 63.2738
20.29567964993108 64.3252
20.31847471147704 65.1647
20.34109387027612 65.8122
20.363713830075454 65.4203
20.386334591841646 64.0324
20.409132890679302 61.3601
20.431755265564437 58.278
20.454378445325528 55.3932
20.477002430930366 53.5446
20.499803982716553 52.5265
20.522429589228004 51.961000000000006
20.54505600449589 51.1914
20.567683229489194 51.1106
20.590488049900088 50.6684
20.61311690359731 50.6616
20.63574656993626 50.4059
20.658553853717297 49.9911
20.681185154618298 49.8458
20.703817271080066 49.7975
20.72645020407368 49.3423
20.749260783967177 49.2754
20.771895359337133 49.4806
20.794530754161617 49.2939
20.817166969412938 49.23
20.83998086114876 49.0802
20.86261872660049 49.1665
20.885257415405402 49.0956
20.90789692853701 49.0328
20.930714147864748 48.8124
20.953355319030678 48.9276
20.97599731745334 49.2085
20.99864014410749 48.8529
21.021460706796564 48.7875
21.044105199328826 49.3308
21.06675052302631 49.4619
21.089396678865015 49.5447
21.112220600704806 49.7394
21.134868430275347 50.3176
21.15751709492456 50.4708
21.180166595629693 50.6818
21.202993892429635 51.1858
21.22564507473034 51.3226
21.24829709602816 51.7281
21.27112693608965 51.8447
21.293780644891275 51.6483
21.316435195634053 51.0397
21.339090589297417 50.3686
21.361923832041875 49.8249
21.384580921090404 49.2183
21.407238856007325 48.8206
21.429897637773326 48.7739
21.45273429906592 48.7392
21.475394784108598 48.8672
21.498056118951983 48.56100000000001
21.520718304578022 48.8774
21.543558400304388 48.8519
21.566222297108816 49.0955
21.58888704765135 49.2975
21.61155265291521 49.6006
21.63439619898156 50.1856
21.657063523335786 50.4263
21.67973170537063 50.8725
21.7024007460706 51.3168
21.72524775840385 52.1663
21.747918526116475 53.3945
21.770590155457388 54.5729
21.79326264741238 56.2758
21.816113141960237 58.0699
21.838787368860547 59.6984
21.861462461341976 61.4195
21.884315579735777 63.3963
21.90699241312273 64.39
21.92967011506078 65.008
21.95234868653799 64.8371
21.9752053151131 63.4436
21.997885635446785 61.4562
22.020566828293532 59.7053
22.04324889464272 57.9092
22.066109049404666 56.7342
22.088792872571794 56.2349
22.111477572219204 56.4567
22.1341631493376 56.5949
22.157026846313123 56.2166
22.179714188221507 55.4515
22.202402410582668 54.4086
22.22509151438863 52.8432
22.24795876962584 51.5697
22.270649646204486 50.7062
22.293341407213727 49.9369
22.316034053646906 49.8439
22.338904883215342 49.5328
22.36159931041458 49.328
22.38429462602756 49.1648
22.40699083104897 49.0593
22.429865251039757 49.1092
22.452563244831367 49.1271
22.47526213102522 49.1207
22.49813925616515 49.0548
22.520839937143307 48.9708
22.543541513520587 48.9307
22.56624398629403 48.6888
22.589124730075895 48.7784
22.611829005656723 49.0687
22.63453418063466 48.9496
22.657240256008077 49.2461
22.680124634582935 49.4263
22.70283252079775 49.7364
22.725541310413075 50.0544
22.74825100442868 50.2729
22.771139033969575 50.7592
22.79385054687155 51.0732
22.81656296718292 51.6465
22.83927629590484 52.473
22.862167992606945 53.5872
22.88488314827121 54.562
22.907599215359284 55.6025
22.93031619487366 56.6835
22.953211574954405 57.4162
22.975930389478226 58.1862
22.998650119445763 58.4027
23.02137076586092 57.6042
23.044269845560063 56.208
23.06699233506288 54.6201
23.089715744034912 52.9402
23.112617610931565 51.294
23.135342869061212 50.1756
23.158069049684816 49.5456
23.1807961538087 49.0817
23.20370174880544 49.0281
23.226430710184808 49.2392
23.249160598093425 49.1715
23.271891413539002 49.1734
23.294800752937697 49.5125
23.31753343374794 49.7712
23.340267045128353 49.6049
23.36300158808808 50.0431
23.38591468821339 50.3391
23.408651104658304 50.8572
23.431388455719986 51.3385
23.454126742409 52.0584
23.4770436196085 53.1578
23.499783787914662 54.2819
23.522524894889884 55.2676
23.54526694154616 56.4388
23.56818761219047 57.4891
23.59093154860734 57.8426
23.613676427751283 58.3026
23.636422250635754 57.3614
23.659346731118656 55.6355
23.68209445191868 53.8191
23.704843119509587 51.545
23.72759273490623 49.7119
23.750521041644767 48.3666
23.77327256312355 47.4848
23.796025035462787 46.8649
23.818956224555475 46.2986
23.841710609113413 46.103
23.86446594758979 46.0814
23.887222241002014 45.8659
23.910157285144578 45.5456
23.932915498962537 45.4584
23.955674670778713 45.2598
23.978434801611975 45.1503
24.001373717286125 45.1036
24.024135776723917 44.9668
24.046898798245582 44.8547
24.06966278287146 44.748999999999995
24.092605586582614 44.4588
24.115371508023642 44.3427
24.1381383956401 44.2128
24.16090625045381 44.1856
24.183852958731244 44.1748
24.206622758582608 44.045
24.229393528706886 44.0092
24.252165270127392 44.0249
24.27511589952438 43.7535
24.297889594216997 43.7014
24.32066426328598 43.568999999999996
24.34343990775613 43.5544
24.36639447485003 43.4889
24.38917208083877 43.3508
24.41195066531332 43.3954
24.43490819850244 43.431999999999995
24.457688750692377 43.3695
24.48047028445616 43.1254
24.503252800821233 43.3025
24.526214300784112 43.4037
24.548998793132213 43.2319
24.57178427117417 43.2374
24.59457073593893 43.2905
24.617536219319863 43.2219
24.64032466834748 43.0585
24.663114107195035 42.9957
24.685904536893013 42.8817
24.708874020360852 42.7198
24.731666442613744 42.5944
24.754459858818787 42.57899999999999
24.777254270007962 42.5631
24.80022777025625 42.3824
24.82302418230472 42.4258
24.845821592443674 42.4272
24.86862000170663 42.4824
24.891597535453727 42.3425
24.914397953892728 42.6229
24.93719937456671 42.3697
24.96000179851076 42.5835
24.98298338249997 42.8347
25.00578782394922 43.0405
25.028593271784167 43.145
25.05157790644186 43.4414
25.07438537804115 43.7314
25.097193859145293 43.9351
25.120003350792075 44.1372
25.142992065061257 44.3844
25.165803588823465 44.8318
25.18861612625217 44.9581
25.211429678386736 44.9247
25.234422489079968 45.0817
25.257238081693636 45.1289
25.280054692141732 45.1901
25.3028723214652 45.0077
25.325869245420463 44.9628
25.348688923599397 45.1552
25.371509623787006 45.1068
25.394331347025812 44.8435
25.41733240110666 44.2706
25.440156181590016 43.608000000000004
25.46298098826268 43.1791
25.48580682216873 42.5751
25.50881202326435 42.2229
25.53163992281684 41.6925
25.55446885274561 41.408
25.577298814096377 41.2866
25.600308179121807 41.1316
25.623140214533745 41.1717
25.64597328451537 41.2152
25.66898578564376 40.8798
25.691820936010206 40.8346
25.714657124097695 40.739000000000004
25.737494350954734 40.9186
25.760511045684957 40.7133
25.783350361364224 40.7969
25.806190718969255 40.75
25.82903211955018 40.8845
25.852053024868923 40.971000000000004
25.874896522722523 41.0811
25.897741066713106 40.9197
25.920586657892454 40.9421
25.943611790812668 41.1879
25.966459487728237 41.3314
25.989308234998564 41.278
26.01215803367705 41.7546
26.03518741123814 41.8684
26.05803932412957 41.9053
26.080892291600094 41.8493
26.10374631470478 41.906000000000006
26.12677995397268 41.9171
26.14963609978026 41.9906
26.172493304397875 41.6493
26.19535156888223 41.4107
26.218389486949604 41.034
26.241249882640123 40.8321
26.26411134137826 40.5837
26.28715248187403 40.5352
26.31001607820869 40.5433
26.3328807407756 40.2265
26.35574647063438 40.4225
26.37879191991473 40.3771
26.401659795896734 40.4075
26.424528742360263 40.422
26.447398760366614 40.6158
26.470448535598294 40.8262
26.49332070826805 41.0928
26.516193955675355 41.4501
26.53906827888316 41.6063
26.562122397260108 41.68899999999999
26.584998883685063 41.8936
26.607876449110325 42.2612
26.63075509460056 42.4517
26.65381357334404 42.5291
26.67669439061878 42.4319
26.699576291163382 42.3904
26.722459276044212 42.231
26.745522132402975 41.8474
26.768407297649354 41.7027
26.791293550442003 41.2731
26.814180891848974 41.0956
26.837248143099337 40.7762
26.860137673466657 40.5719
26.88302829566349 40.4151
26.90592001075963 40.3072
26.92899167420566 40.1671
26.951885586870763 39.6995
26.974780595655517 39.5591
26.99785558178161 39.4409
27.020752794605112 39.2426
27.043651106772522 39.0172
27.06655051935668 38.9685
27.089629948036183 39.0121
27.112531573292053 38.9914
27.135434302194138 39.0312
27.158338135817015 38.8182
27.181422024430987 38.8708
27.204328079372566 38.7862
27.22723524226965 38.7135
27.250143514198573 38.8117
27.273231880156334 38.7941
27.296142382065014 38.7058
27.319053996245536 38.5765
27.341966723775965 38.6029
27.365059584515222 38.7511
27.38797455070062 38.8081
27.410890633481237 38.5995
27.433807833936918 38.6609
27.456905206923906 38.9209
27.47982465472398 38.7449
27.502745223449743 38.772
27.525666914182825 38.907
27.548768816912457 38.8325
27.571692763693633 38.6072
27.59461783573812 38.5861
27.617723149491244 38.4265
27.640650484125285 38.4673
27.66357894728264 38.4518
27.686508540048052 38.3061
27.709618414237887 38.2613
27.732550278321757 38.1692
27.755483275279115 38.0718
27.778417406196485 38.192
27.801531858397514 38.1433
27.824468269376716 38.1087
27.847405817586786 38.1067
27.870344504116094 38.2492
27.893463551932008 38.3807
27.916404527281053 38.5612
27.93934664422563 38.7903
27.962289903855886 38.6974
27.98541356491974 38.9641
28.00835912214229 38.964
28.03130582533231 39.2582
28.054253675581805 39.3735
28.077381967556104 39.2596
28.100332124185126 39.205999999999996
28.123283431160893 39.1258
28.146235889577238 39.0843
28.169368830154156 38.84
28.192323603752033 38.6644
28.215279532083304 38.3866
28.238415973016764 38.1145
28.261374223145094 38.0052
28.284333631303806 37.7005
28.307294198589954 37.6872
28.330435319167677 37.3421
28.353398217078915 37.1627
28.376362277420153 36.9842
28.39932750129032 36.7528
28.422473319286713 36.5455
28.44544088262495 36.6701
28.468409612800283 36.5514
28.491379510913497 36.2257
28.51453004413313 36.2277
28.53750229057244 36.1636
28.56047570826344 36.0513
28.583450298308804 36.1678
28.606605564586562 35.7195
28.629582511831156 35.9938
28.65256063474956 35.8415
28.675539934446338 35.8722
28.698699951647605 35.8635
28.72168161743193 35.7368
28.74466446331978 35.7134
28.767648490417624 35.6931
28.790813276438353 35.6657
28.813799678527303 35.6344
28.836787265157085 35.8211
28.859955641890075 35.7448
28.882945610203045 35.6391
28.905936766392035 35.5614
28.928929111566863 35.5309
28.952102288520145 35.4862
28.975097024308607 35.3048
28.998092952423807 35.1878
29.021090073977508 35.0793
29.04426806913204 34.9923
29.067267590245258 34.7988
29.090268308143695 34.7628
29.11327022394099 34.7063
29.13645305530891 34.7421
29.159457379627167 34.527
29.18246290519685 34.5194
29.20546963313352 34.5687
29.22865731875826 34.6934
29.25166646419296 34.5609
29.27467681535305 34.4539
29.29768837335608 34.5133
29.320880931312562 34.5086
29.34389491580634 34.5776
29.366910110507334 34.4072
29.38992651653503 34.5135
29.41312396492981 34.5434
29.436142806456754 34.419000000000004
29.45916286268059 34.2531
29.48236399319994 34.1906
29.50538649169417 33.983000000000004
29.528410208259935 33.9451
29.55143514402014 33.7252
29.574641196749695 33.4771
29.597668583816574 33.4785
29.6206971934585 33.3728
29.64372702680042 33.3583
29.666938019934474 33.2813
29.689970313635285 33.1834
29.713003834422636 33.1289
29.73603858342347 33.1462
29.759254535188578 33.0669
29.78229175361658 33.0731
29.80533020365064 33.1522
29.82836988641968 33.1188
29.85159081507472 33.0371
29.874632976355343 32.8976
29.89767637376955 33.0126
29.920721008448314 32.7236
29.9439469322847 32.8451
29.96699405457564 32.7189
29.9900424175358 32.784
30.013092022298157 32.6587
30.03632295963995 32.788000000000004
30.059375061131373 32.8017
30.08242840783577 32.8112
30.105483000888153 32.7641
30.128718970092244 32.6069
30.151776069006917 32.6211
30.17483441768648 32.6579
30.198074175317235 32.6248
30.221135036724256 32.5793
30.24419715131772 32.6046
30.267260520236203 32.5289
30.290505341942243 32.542
30.313571232750228 32.6471
30.336638381310948 32.5752
30.35970678876503 32.4354
30.38295669299435 32.3681
30.40602763151657 32.3437
30.429099832366074 32.383
30.452173296685572 32.2915
30.47542830191959 32.3229
30.498504306502497 32.2763
30.521581577995562 32.3643
30.544660117543582 32.4637
30.56792024229725 32.4759
30.59100133132069 32.4
30.614083691845494 32.3644
30.637167325018545 32.4084
30.660432587840603 32.4533
30.683518779717886 32.4539
30.70660624769615 32.4192
30.729694992924372 32.346
30.75296541239743 32.493
30.77605672557558 32.2331
30.799149319462742 32.2787
30.8224236211637 32.1211
30.845518789950724 32.0407
30.868615242910597 32.0348
30.891712981195973 31.878
30.91499247215866 31.8331
30.938092794619365 31.7668
30.96119440587579 31.7594
30.984297307082752 31.6471
31.00758200598383 31.5608
31.030687500658694 31.4066
31.053794288760695 31.3984
31.076902371446767 31.3441
31.100192296997445 31.3999
31.12330298246119 31.276999999999997
31.14641496599209 31.247
31.169528248749216 31.1875
31.19282341969534 31.1348
31.215939314557186 31.1458
31.239056512134788 31.1035
31.262175013589378 31.0836
31.28547544871168 31.0916
31.30859657161541 31.0195
31.331719001892175 31.0341
31.35484274070538 31.1429
31.378148458819545 31.0832
31.401274828443725 31.2007
31.424402510106933 31.1677
31.447712205419993 31.2386
31.470842524931633 31.0928
31.493974159989783 30.8924
31.51710711176168 30.9612
31.54042212308802 31.0042
31.563557722100917 30.8602
31.586694641341655 30.8178
31.609832881979628 30.826999999999998
31.63315322823208 30.8057
31.656294125521327 30.555999999999997
31.679436347728515 30.4979
31.70257989602529 30.3257
31.725905596152327 30.3023
31.74905181052835 30.3602
31.772199354521323 30.419
31.79534822930507 30.4588
31.818679302290967 30.2841
31.84183085259981 30.414
31.864983737233473 30.3447
31.88813795736804 30.2747
31.911474422233013 30.2284
31.934631327356435 30.2764
31.9577895715215 30.2652
31.980949155906522 30.1856
32.004291031706956 30.2245
32.027453310562606 30.076
32.05061693318573 29.9766
32.07396288236386 30.0188
32.09712920658542 29.986
32.12029687812702 29.8009
32.14346589817093 29.6883
32.166817291729984 29.7089
32.18998902288583 29.7305
32.21316210610336 29.5637
32.23633654256711 29.5321
32.259693399663725 29.4953
32.282870556771144 29.3444
32.30604907069099 29.4058
32.329228942610065 29.3639
32.35259128243769 29.2179
32.375773884550505 29.1687
32.398957848235646 29.0892
32.422143174682176 29.1159
32.445511016471215 28.945
32.468699082679954 28.9889
32.49188851523011 28.8989
32.51507931531304 28.7993
32.538452678331 28.763
32.56164622776311 28.7473
32.58484114831493 28.7171
32.60803744118015 28.6131
32.631416344731896 28.6524
32.654615396551876 28.5735
32.67781582427913 28.6092
32.701198898634416 28.4246
32.72440209253756 28.4462
32.747606665947124 28.3493
32.77081262006088 28.2525
32.79420126883317 28.2581
32.81740999876112 28.2623
32.840620112999424 28.1609
32.86383161274818 28.1522
32.88722585534586 28.2403
32.91044014056596 28.2956
32.933655814909734 28.1482
32.95687287957963 28.1917
32.98027273544904 28.0463
33.00349259526636 28.0109
33.026713849030116 28.0728
33.04993649794511 28.0188
33.073341986570746 28.0628
33.09656744032826 27.919
33.11979429286444 27.9586
33.14302254538647 27.9461
33.166433686291185 27.8665
33.18966475336992 27.889
33.212897224069096 27.8276
33.23613109959831 27.7642
33.259547912343415 27.7379
33.2827846121627 27.7223
33.306022720453775 27.6225
33.32926223842861 27.5877
33.352684742614166 27.5836
33.37592709463173 27.5378
33.399170859982064 27.4382
33.422597648419426 27.4027
33.44584425514446 27.2785
33.46909227885668 27.3053
33.4923417207723 27.1022
33.51577423505344 27.1766
33.539026528130385 27.0603
33.56228024307245 27.1087
33.585535381098246 26.9929
33.60897364093058 26.9363
33.63223163992385 26.9028
33.6554910656699 26.8949
33.678751919389796 26.8376
33.702195944520106 26.6309
33.72545966903325 26.7706
33.74872482519663 26.6227
33.771991414233746 26.6479
33.79544122444841 26.6689
33.81871069412428 26.5089
33.84198160035767 26.6271
33.86525394437455 26.5855
33.88870955949969 26.5633
33.911984794020626 26.5137
33.93526147001624 26.4712
33.958539588715006 26.4849
33.98200102861669 26.3261
34.0052820477047 26.2007
34.02856451319451 26.2373
34.05203033759056 26.2402
34.07531571090147 26.1607
34.09860253431845 26.1152
34.121890809074316 26.065
34.145362493118924 26.0665
34.16865368561615 25.9946
34.191946333164054 25.9446
34.21524043699793 25.9831
34.23871800066799 25.8965
34.26201503218366 25.8239
34.28531352370466 25.8648
34.30861347646881 25.7781
34.33209693978188 25.7058
34.3553998301885 25.7223
34.378704185565205 25.5893
34.402010007152356 25.5382
34.42549939016683 25.5576
34.44880815937748 25.4238
34.472118398533134 25.3999
34.49543010887669 25.4215
34.51892543169198 25.3154
34.54224009966052 25.4053
34.56555624255917 25.3338
34.58887386163339 25.1919
34.61237514439016 25.1154
34.6356957311114 25.0857
34.65901779775809 25.0772
34.68252356662995 25.0592
34.705848608458616 24.996
34.72917513396849 24.9589
34.75250314440949 24.904
34.77601490857862 24.8327
34.799345904259795 24.8175
34.82267838863559 24.7852
34.846012362958525 24.7904
34.869530142679984 24.7185
34.89286711232212 24.7161
34.91620557568269 24.7566
34.93954553401677 24.7127
34.9630693495876 24.5926
34.986412313340814 24.5944
35.00975677584668 24.6324
35.033102738362956 24.5801
35.05663261012228 24.5322
35.0799815881786 24.5016
35.10333207003229 24.4995
35.12668405694369 24.5379
35.150220005273056 24.4237
35.17357501786656 24.3318
35.19693153931268 24.3854
35.220289570874385 24.3452
35.24383161619786 24.3407
35.267192683604904 24.3542
35.290555264930376 24.3112
35.314101899412165 24.2549
35.33746752422433 24.1739
35.36083466676374 24.1784
35.38420332829803 24.1444
35.407756095629054 24.1468
35.43112781085063 24.1362
35.45450104888391 24.0685
35.477875810999194 24.0511
35.50143473172161 23.9665
35.52481255774625 24.0777
35.54819191167777 23.9464
35.57157279478914 23.9134
35.595137889488406 23.815
35.61852184675279 23.8162
35.641907337029984 23.7308
35.665294361595684 23.6908
35.68886565090076 23.6164
35.7122557598848 23.6242
35.73564740699838 23.6092
35.759040593519934 23.5468
35.78261809810353 23.5339
35.80601437933051 23.408
35.829412203814705 23.4142
35.85281157283719 23.3332
35.876395313415884 23.458000000000002
35.8997977874528 23.3449
35.92320180988546 23.3472
35.946790244133936 23.3062
35.97019737933222 23.2565
35.993606066789866 23.2532
36.01701630779276 23.2091
36.04061101440684 23.1805
36.06402437852291 23.1798
36.08743930005611 23.1544
36.1108557802951 23.0659
36.13445678011326 23.0245
36.15787639383515 23.009
36.18129757014299 22.975
36.20472031032821 22.903000000000002
36.22832762423364 22.8614
36.25175350829375 22.8405
36.275180960119776 22.744
36.298609981005924 22.8547
36.32222362992669 22.7831
36.34565580510207 22.7391
36.36908955323448 22.7128
36.39252487562093 22.5878
36.416144880530226 22.7152
36.43958336764275 22.5726
36.463023432914625 22.6228
36.486465077645676 22.4806
36.51009145956204 22.5224
36.53353627947859 22.5064
36.55698268276811 22.469
36.58043067073321 22.4389
36.60406345072071 22.3468
36.62751462435344 22.3811
36.65096738658405 22.2713
36.67460498210655 22.2542
36.69806093788647 22.2031
36.72151848619297 22.1567
36.744977628333636 22.2269
36.76862165890998 22.0307
36.79208400512205 22.0938
36.81554794910557 22.0771
36.83901349217101 21.9583
36.862663978991606 21.945999999999998
36.88613273667352 21.9163
36.90960309738324 21.9093
36.933075062434064 21.8056
36.95673202673572 21.7427
36.98020721697122 21.7217
37.003684015502365 21.7295
37.027162423645365 21.6647
37.050825886711465 21.6671
37.07430753063053 21.6169
37.09779078812467 21.659000000000002
37.121275660513014 21.6725
37.144945643673694 21.5215
37.16843376245278 21.5394
37.19192350009803 21.5713
37.215414857931435 21.4946
37.239091382563885 21.4244
37.262585997426164 21.3699
37.28608223645736 21.3312
37.309763684451696 21.3777
37.33326318851098 21.2726
37.356764320726555 21.2739
37.380267082425526 21.2786
37.40395510942588 21.2475
37.42746114683234 21.156
37.45096881771841 21.0207
37.474478123414166 21.1252
37.49817275092816 21.1433
37.52168534303452 21.0943
37.54519957395567 21.0457
37.568715445024665 20.9841
37.592416694607714 20.9034
37.61593586281424 20.9324
37.63945667518264 20.9298
37.66297913304891 20.8606
37.68668702630454 20.8902
37.710212792059274 20.8107
37.733740207334854 20.8004
37.757269273470364 20.7534
37.780983832050374 20.651
37.80451621684926 20.5625
37.82805025654007 20.5804
37.851585952464795 20.5919
37.8753071980695 20.5823
37.89884622345676 20.4648
37.92238690911902 20.4336
37.94611318753442 20.4318
37.969657210779765 20.3637
37.99320289834801 20.3329
38.016750251586465 20.2976
38.04048325513017 20.2792
38.06403395679343 20.2703
38.087586328183946 20.2334
38.11114037065203 20.2392
38.13488012115898 20.279
38.1584375229181 20.1488
38.181996599821 20.0403
38.205557353221124 20.0654
38.229303872575656 20.0507
38.2528679961576 19.9682
38.27643380031219 19.9631
38.30000128639589 20.0218
38.32375459653193 20.023
38.34732546371299 19.965
38.37089801690786 19.8627
38.39447225747609 19.7638
38.418232380377425 19.6913
38.441810012983396 19.7174
38.46538933705673 19.7179
38.488970353960084 19.733
38.51273731166058 19.7036
38.536321731567014 19.5705
38.55990784840681 19.5439
38.58367995004091 19.5614
38.60726947812959 19.5379
38.63086070726198 19.4632
38.654453638806274 19.4937
38.678232613930824 19.4133
38.70182896773327 19.3768
38.72542702806741 19.357
38.7490267963045 19.3546
38.77281266709232 19.3006
38.79641586862214 19.2405
38.8200207821842 19.2543
38.843627409152944 19.2225
38.86742019782782 19.2178
38.891030269149255 19.113
38.914642058016156 19.1075
38.938255565806124 19.1166
38.96205529464307 19.035999999999998
38.98567225787121 19.0895
39.00929094417078 19.0202
39.03291135492255 19.0265
39.05671804624804 18.9527
39.080341923549106 18.8791
39.103967529460334 18.8638
39.127594865365744 18.8338
39.15140854155791 18.817999999999998
39.17503935514948 18.8204
39.19867190290282 18.7874
39.22249083587951 18.7711
39.24612686969409 18.767
39.269764641845306 18.7436
39.293404153722804 18.7274
39.317230110864074 18.5715
39.34087311998506 18.553
39.36451787301696 18.6193
39.388164371352595 18.5504
39.41199737518003 18.5313
39.43564738196752 18.4227
39.45929913825317 18.4092
39.48295264543308 18.4134
39.506792718520884 18.3265
39.530449745387216 18.344
39.55410852735203 18.3135
39.57776906581474 18.3473
39.60161623079 18.3133
39.625280300200025 18.2464
39.64894613032202 18.2031
39.67261372255866 18.2033
39.6964680021016 18.1824
39.72013913657293 18.1808
39.74381203738292 18.1335
39.76748670593756 18.1034
39.79134812278169 18.0646
39.81502634488497 18.0087
39.83870633896685 17.9493
39.862388106436654 17.8951
39.88625668336918 17.922
39.90994201572829 17.9488
39.933629125719285 17.8923
39.957503091207826 17.8129
39.9811937746168 17.8202
40.00488623990914 17.851
40.02858048850006 17.7975
40.05246165409549 17.7542
40.076159487492085 17.6744
40.099859108448875 17.7353
40.123560518384345 17.6303
40.1474489070226 17.689
40.171153913178564 17.5953
40.194860712584955 17.5699
40.2185693066637 17.5836
40.242464941335314 17.5147
40.26617714307655 17.526
40.289891143772046 17.4599
40.3136069448471 17.4299
40.33750984859743 17.4093
40.3612292688043 17.2969
40.3849504936829 17.3909
40.40867352466194 17.3825
40.43258372059144 17.3311
40.45631038219906 17.2967
40.48003885420956 17.2173
40.503769138055105 17.2501
40.52768664931955 17.2194
40.55142057531802 17.1754
40.57515631746428 17.1418
40.599079334038514 17.0791
40.62281872700477 17.0378
40.64655994043941 17.023
40.67030297578061 16.9774
40.69423334835778 17.0002
40.71798004609188 16.9761
40.74172857006355 16.942999999999998
40.76547892171441 16.9604
40.7894166736039 16.8951
40.813170699248566 16.8321
40.83692655691388 16.7932
40.86068424804498 16.7988
40.884629402612525 16.7886
40.908390779366385 16.7638
40.932153993938 16.721
40.95591904777605 16.6878
40.979871628443995 16.7154
41.003640379561936 16.6387
41.02741097430883 16.6235
41.05118341413683 16.5781
41.075143444384416 16.5263
41.098919593177826 16.5472
41.1226975914255 16.4899
41.14647744058318 16.4884
41.170444943946755 16.4644
41.19422851378379 16.4091
41.218013938914645 16.3386
41.24198706625173 16.3386
41.26577622087193 16.3186
41.289567235177785 16.31
41.31336011063129 16.2993
41.337340752422875 16.338
41.361137369129835 16.2674
41.38493585138705 16.2645
41.40873620066004 16.2203
41.43272438060107 16.1666
41.45652848292052 16.1355
41.48033445666918 16.0844
41.50414230331616 16.0316
41.528138045159764 16.0838
41.551949656675205 15.9863
41.575763145513235 15.9852
41.59957851314666 15.9783
41.62358184070442 15.9276
41.64740098505737 15.9015
41.6712220126409 15.8687
41.69504492493139 15.8437
41.71905586207357 15.8225
41.74288256296395 15.8002
41.766711153007456 15.7285
41.79054163368412 15.7363
41.814560204340054 15.7044
41.838394485526365 15.7293
41.86223066180303 15.6843
41.88625497706819 15.6365
41.910094962812 15.6582
41.93393684811168 15.6162
41.95778063445365 15.5386
41.981812625263366 15.5157
42.00566023303407 15.5257
42.029509746323676 15.5011
42.05336116662236 15.4
42.077400857069705 15.418
42.10125611078846 15.4689
42.12511327600405 15.4111
42.14897235421036 15.3403
42.173019768448455 15.3183
42.19688269209613 15.2721
42.22074753323349 15.2787
42.24461429335818 15.2347
42.268669455600495 15.2246
42.292540073217886 15.2057
42.31641261433284 15.2066
42.34028708044675 15.1557
42.36435001496739 15.1413
42.38822835065557 15.1239
42.41210861586426 15.0494
42.4359908120986 15.0385
42.46006154323262 15.0468
42.48394762115317 15.0141
42.507835634632315 15.0132
42.531912233047436 15.0053
42.55580413732265 15.0038
42.579697981698 14.9293
42.60359376768525 14.9188
42.62767820545945 14.8565
42.65157789440821 14.8233
42.67547952952185 14.7939
42.699383112316 14.8045
42.72347541395347 14.7416
42.74738291190531 14.7114
42.771292362102166 14.7243
42.795203766063516 14.6913
42.819303956130405 14.677
42.843219287476536 14.6353
42.86713657716324 14.6162
42.89105582671383 14.6277
42.91516392983864 14.5141
42.939087119032166 14.4996
42.963012272677304 14.4604
42.98693939230129 14.4186
43.01105543317513 14.4136
43.034986504731386 14.4257
43.05891954686589 14.43
43.08285456110972 14.3958
43.10697856448665 14.3695
43.130917542983475 14.3354
43.15485849820081 14.3417
43.17880143167367 14.2208
43.20293342237094 14.2196
43.226880332449 14.1793
43.25082922540554 14.2332
43.27496722682525 14.1507
43.29892010567796 14.1909
43.32287497204102 14.1195
43.34683182745632 14.0814
43.370977859791836 14.0507
43.39493871351105 14.0433
43.41890156092628 14.0402
43.44286640358341 13.9748
43.46702049182749 13.989
43.49098934522816 13.9488
43.51496019852649 13.9514
43.5389330532723 13.927
43.56309522248204 13.8543
43.58707210044314 13.8466
43.61105098451946 13.787
43.63503187626491 13.8144
43.659202151562134 13.8053
43.68318707902681 13.7798
43.70717401884041 13.7852
43.731162972560874 13.7372
43.75534137913236 13.6468
43.779334381108384 13.6548
43.803329401683186 13.6664
43.82732644241872 13.6463
43.8515130055166 13.6629
43.87551410707659 13.5731
43.89951723350145 13.5693
43.923709934595614 13.5507
43.94771713129917 13.5151
43.97172635758096 13.4657
43.99573761501002 13.4744
44.0199385169922 13.4371
44.04395385732619 13.4721
44.067971233533086 13.4253
44.09199064718605 13.3795
44.11619977548961 13.315
44.14022328470671 13.2848
44.16424883610785 13.3479
44.18827643127035 13.3232
44.21249381139513 13.2366
44.236525514814076 13.2282
44.26055926674478 13.2248
44.28459506876863 13.2594
44.3088207262813 13.1242
44.33286064928722 13.1241
44.35690262714919 13.0929
44.38094666145278 13.0785
44.4051806219871 13.1109
44.42922879003185 13.03
44.45327901929361 13.0082
44.477331311362136 12.9893
44.501573600619416 12.9547
44.525630039221795 12.9382
44.54968854541895 12.9735
44.573937102200176 12.9453
44.5979997645541 12.890999999999998
44.622064499300315 12.8803
44.64613130803592 12.8563
44.67038823869318 12.8614
44.69445921643748 12.8091
44.718532272981385 12.7788
44.742607409926194 12.7908
44.76687274034801 12.7336
44.79095205918753 12.6596
44.81503346325094 12.6526
44.839116954143876 12.6733
44.86339071028742 12.6645
44.88747839599524 12.6287
44.91156817336837 12.5887
44.93566004401666 12.5577
44.959942251908146 12.5639
44.984038330325966 12.5787
45.00813650686762 12.4907
45.03223678314731 12.4961
45.05652746888232 12.4286
45.08063196592069 12.4182
45.104738567558705 12.4211
45.128847275414856 12.4161
45.15314646515866 12.3473
45.17725940679741 12.3142
45.20137445952892 12.2883
45.22568004865265 12.3392
45.24979934496396 12.2986
45.27392075725247 12.2461
45.29804428714431 12.2524
45.322358426247604 12.1894
45.346486212804315 12.1931
45.370616121861914 12.1967
45.39474815505086 12.1468
45.41907087049246 12.1098
45.4432071734666 12.0857
45.46734560548283 12.1066
45.49148616817604 12.0821
45.51581748638564 12.0612
45.5399623320197 12.0424
45.56410931325473 12.0024
45.58825843173002 12.0262
45.61259837920865 11.9559
45.636751793816 11.9618
45.66090735060093 11.8606
45.68506505120716 11.8381
45.7094136545275 11.8636
45.73357566449271 11.8531
45.75773982322992 11.8376
45.78190613238733 11.8133
45.806263418194064 11.7424
45.83043404997326 11.7667
45.85460683713677 11.7828
45.87897065658495 11.7447
45.90314777634752 11.6733
45.92732705646868 11.6776
45.9515084986045 11.6591
45.97588104735473 11.674000000000001
46.00006683541565 11.6317
46.02425479047904 11.6031
46.04844491420549 11.5988
46.0728262191024 11.5948
46.09702070211635 11.5644
46.12121735879483 11.5652
46.14541619080294 11.5207
46.169806278764455 11.5057
46.194009483459034 11.5025
46.21821486849841 11.4996
46.24242243555223 11.447000000000001
46.266821333570014 11.4001
46.29103328674601 11.4022
46.31524742696538 11.4087
46.33946375590237 11.3518
46.36387149104216 11.3421
46.38809221957392 11.3093
46.41231514186606 11.3239
46.436540259597464 11.328
46.460956858999374 11.2149
46.48518638983522 11.2461
46.509418121166966 11.1723
46.533652054678114 11.1367
46.55807754555709 11.1366
46.58231590571962 11.1475
46.60655647313217 11.0996
46.630988654873654 11.0808
46.655233659129024 11.0775
46.67948087571551 11.0814
46.70373030632484 11.03
46.72817142736393 11.049000000000001
46.752425308428684 11.0146
46.77668140861147 10.9679
46.80093972960865 10.9329
46.82538981736788 10.8773
46.849652602470904 10.9011
46.87391761349769 10.9129
46.8981848521493 10.8505
46.9226439341274 10.8534
46.946915650573224 10.8395
46.97118959976749 10.7998
46.99546578341598 10.7736
47.019933887188216 10.7926
47.04421456235744 10.7694
47.06849747711879 10.7317
47.09278263318286 10.7329
47.11725978640143 10.7145
47.14154944775105 10.6708
47.165841355555656 10.6105
47.1901355115306 10.5919
47.214621741924994 10.5885
47.23892041698887 10.6269
47.26322134538975 10.5645
47.28771440635075 10.5368
47.31201986422527 10.5257
47.33632758061436 10.5162
47.360637557241866 10.4625
47.38513974410611 10.4624
47.40945426407847 10.4524
47.43377104948137 10.4464
47.45809010204344 10.3841
47.48260144275502 10.3849
47.506925052572285 10.3366
47.53125093475548 10.341
47.55557909103813 10.3162
47.58009961361992 10.2866
47.60443234110732 10.3071
47.62876734791564 10.3081
47.65310463578333 10.2931
47.6776343683373 10.2178
47.7019762413987 10.1778
47.72632040075572 10.2085
47.75066684815169 10.181000000000001
47.77520581885936 10.1813
47.799556865477655 10.1578
47.823910205386 10.1375
47.84826584033272 10.1241
47.87281407745551 10.0794
47.89717432569297 10.0394
47.92153687423484 10.0451
47.94609208429692 10.0444
47.97045925671401 10.0463
47.99482873471275 9.99414
48.01920052005013 9.98815
48.04376504619224 9.960360000000001
48.068141469543484 9.95636
48.09252020552573 9.97247
48.11690125590099 9.86941
48.1414751266064 9.87721
48.16586082917454 9.885019999999999
48.19024885144316 9.85052
48.2146391951793 9.84432
48.239222439012764 9.8382
48.26361744916137 9.795060000000001
48.28801478610016 9.79767
48.31241445160131 9.792069999999999
48.337007097209366 9.79486
48.36141144338331 9.72895
48.38581812345755 9.71822
48.41022713920929 9.71045
48.434829215320704 9.678980000000001
48.45924292604658 9.65375
48.48365897780325 9.68745
48.50807737237308 9.596860000000001
48.532688907799276 9.60939
48.55711201168574 9.58382
48.581537463754074 9.606060000000001
48.60615611725119 9.59388
48.63058628942721 9.58089
48.65501881516546 9.54622
48.6794536962573 9.51121
48.70408185970339 9.513739999999999
48.72852147531801 9.46898
48.75296345168211 9.45019
48.77740779059232 9.42085
48.80204549302823 9.452539999999999
48.82649458091802 9.43848
48.85094603676547 9.38267
48.87539986237231 9.36703
48.90004713292306 9.31788
48.92450572200832 9.32872
48.94896668628025 9.33868
48.97343002754588 9.3315
48.99808689542115 9.3037
49.02255501470614 9.24752
49.04702551642794 9.21242
49.0714984023988 9.24847
49.096164896893235 9.215489999999999
49.120642575466796 9.170069999999999
49.145122643748394 9.177669999999999
49.16960510355558 9.14911
49.19428125404938 9.16211
49.2187685210852 9.13573
49.243258185121555 9.08928
49.26794160167084 9.08312
49.2924360839405 9.08222
49.31693296869764 9.06419
49.34143225776915 9.03655
49.36612538195438 8.985430000000001
49.39062950396021 9.02519
49.41513603578346 9.009260000000001
49.4396449792564 8.9535
49.46434784069503 8.97377
49.488861631846454 8.98087
49.513377840166804 8.93629
49.537896467493745 8.87497
49.56260909589029 8.85956
49.587132585683285 8.86594
49.611658500018365 8.83239
49.636186840738596 8.80137
49.66090926588511 8.81679
49.685442483902584 8.81241
49.70997813385706 8.77331
49.734516217597076 8.784989999999999
49.75924846937352 8.759310000000001
49.7837914452858 8.69915
49.80833686055187 8.685830000000001
49.83288471702571 8.66019
49.85762682540054 8.7048
49.882179588965734 8.696769999999999
49.9067347993235 8.65784
49.93129245833333 8.62238
49.95604445336378 8.59703
49.98060703442832 8.6005
50.005172069746266 8.57025
50.02993150438364 8.53465
50.05450147301533 8.52158
50.07907390151433 8.5203
50.10364879174981 8.49597
50.12841816587289 8.510480000000001
50.1529980044635 8.48283
50.17758031042124 8.44909
50.20216508562089 8.46172
50.22694442953363 8.42848
50.25153416817468 8.439110000000001
50.27612638170508 8.40238
50.300721072005196 8.36989
50.325510416102105 8.380930000000001
50.350110084975064 8.34502
50.37471223628208 8.33338
50.39931687190919 8.29625
50.424116246675766 8.31305
50.44872587605249 8.2827
50.47333799543065 8.264510000000001
50.49795260670191 8.27203
50.52276204271512 8.22156
50.54738166295838 8.21915
50.57200378079314 8.20622
50.596628398116835 8.179269999999999
50.62144792604559 8.18149
50.646077567609396 8.197980000000001
50.670709714377715 8.16545
50.69553683636198 8.133289999999999
50.72017401885922 8.12705
50.7448137122895 8.12067
50.76945591856022 8.09361
50.79429318636823 8.07435
50.818940443716784 8.06745
50.84359021965163 7.986789999999999
50.868242516085964 7.9973399999999994
50.893089960641895 7.971769999999999
50.917747323549435 7.97427
50.94240721271973 7.985110000000001
50.96706963007175 7.943510000000001
50.99192728239342 7.93398
51.01659478166073 7.973610000000001
51.04126481489051 7.9341
51.06593738400761 7.94875
51.090805275207074 7.877619999999999
51.11548294172845 7.8773800000000005
51.14016314993547 7.85538
51.164845901758845 7.81447
51.18972406304274 7.8154699999999995
51.21441192780656 7.800489999999999
51.23910234200271 7.781739999999999
51.2637953075678 7.7954300000000005
51.288683770237945 7.7506
51.31338186432707 7.743589999999999
51.33808251561888 7.72272
51.362978729967345 7.7049199999999995
51.387684521509755 7.6867399999999995
51.41239287610203 7.67766
51.437103795691165 7.67035
51.46201036644977 7.642189999999999
51.486726441956634 7.6109800000000005
51.51144508832545 7.607410000000001
51.536166307509156 7.59329
51.56108326624387 7.58091
51.58580965706056 7.56045
51.61053862657523 7.565919999999999
51.635270176746864 7.53137
51.66019755512065 7.5071699999999995
51.68493429268881 7.50795
51.70967361681515 7.49799
51.73441552946465 7.45523
51.759353359237934 7.467960000000001
51.7841004750961 7.439189999999999
51.80885018539685 7.45043
51.833602492111254 7.44292
51.8585508051424 7.4294
51.883308330926425 7.3796100000000004
51.90806845906181 7.33904
51.932831191525715 7.3289100000000005
51.95779001977161 7.32486
51.98255798721516 7.27905
52.00732856494335 7.306
52.03229530577543 7.27993
52.057071130455945 7.228789999999999
52.081849571391054 7.2194199999999995
52.106630630568695 7.261260000000001
52.13160794279417 7.22501
52.15639426492067 7.22468
52.18118321127822 7.20918
52.205974783860896 7.13404
52.23096269971011 7.156680000000001
52.255759551287994 7.162730000000001
52.280559035098186 7.12803
52.30536115314103 7.087269999999999
52.33035970494467 7.138660000000001
52.35516711807904 7.08662
52.37997717147198 7.096089999999999
52.40478986713005 7.07561
52.42979908731974 7.0362800000000005
52.454617094216 7.0473
52.47943774942214 7.051019999999999
52.50426105495102 7.0030399999999995
52.529280976059844 6.96788
52.554109609024096 7.01088
52.57894089837482 6.9542600000000006
52.60377484613117 6.943560000000001
52.62880550079408 6.92517
52.65364479223379 6.926480000000001
52.67848674816189 6.88185
52.70352547971946 6.87765
52.72837279155837 6.923080000000001
52.753222773982785 6.885039999999999
52.778075429022984 6.84755
52.80312495150885 6.813619999999999
52.827982978797436 6.81261
52.85284368481815 6.788130000000001
52.87770707160767 6.755160000000001
52.90276741793998 6.774089999999999
52.92763619336701 6.7477100000000005
52.952507655698504 6.746560000000001
52.977381806977576 6.74755
53.00245301017842 6.732760000000001
53.02733256653592 6.70415
53.052214817996074 6.65232
53.077099766608484 6.6761800000000004
53.102181859804446 6.65635
53.127072229988265 6.6869
53.15196530349892 6.63404
53.17686108239249 6.625960000000001
53.20195409881522 6.63565
53.22685531582556 6.56835
53.25175924441303 6.5342400000000005
53.27666588664027 6.55218
53.30176985962693 6.56542
53.3266819565689 6.53523
53.35159677336455 6.49798
53.376514312083096 6.52361
53.40162927507703 6.46744
53.42655228516116 6.48081
53.45147802340193 6.45096
53.47660125628886 6.44367
53.50153247842639 6.45263
53.52646643496923 6.42467
53.55140312799818 6.43195
53.576537409691696 6.36632
53.60147960336152 6.4012199999999995
53.626424539786164 6.32525
53.65137222105307 6.33044
53.67651758529126 6.33942
53.70147078399681 6.3025
53.72642673383343 6.26895
53.75138543689533 6.2977
53.776541917524526 6.2750699999999995
53.801506154876755 6.27232
53.826473151763246 6.26703
53.851442910284916 6.19104
53.87661054126026 6.2205699999999995
53.9015858509782 6.21393
53.92656392866066 6.20222
53.95154477641532 6.2412
53.976723591801296 6.14269
54.00171000771266 6.13535
54.02669920004598 6.18202
54.051691170915745 6.1371400000000005
54.076881204886796 6.09185
54.101878760928514 6.11523
54.12687910187696 6.09831
54.152077577768296 6.06613
54.1770835166946 6.0648800000000005
54.20209224691339 6.05125
54.22710377055121 6.037780000000001
54.25231352511594 6.03567
54.27733066384342 5.99654
54.30235060239643 5.932519999999999
54.32737334290836 5.9233
54.35259441062629 5.92036
54.377622783395324 5.88349
54.40265396455061 5.90621
54.42768795623251 5.9317400000000005
54.45292037169559 5.89456
54.477960012857906 5.85139
54.50300247099511 5.84903
54.52804774825457 5.831919999999999
54.55329154616743 5.790780000000001
54.57834249018678 5.79298
54.6033962597977 5.7702800000000005
54.6284528571545 5.7173
54.653708072335164 5.748480000000001
54.67877035378786 5.68916
54.70383546947698 5.633290000000001
54.72890342156389 5.6462
54.7541700889442 5.62103
54.77924374251975 5.6432400000000005
54.8043202390049 5.578930000000001
54.82959552413022 5.6069
54.8546777351945 5.6058900000000005
54.87976279569621 5.54838
54.90485070780914 5.5272
54.930137506558005 5.51275
54.95523115074295 5.53635
54.98032765308844 5.4576
55.005427015775496 5.46177
55.03072536339621 5.47406
55.05583047570572 5.37937
55.080938454927676 5.3386
55.10604930325027 5.43423
55.131359235107396 5.398969999999999
55.15647585066083 5.3691
55.181595341907496 5.341469999999999
55.20671771104285 5.2865
55.232039262617704 5.26081
55.25716741665048 5.2085300000000005
55.28229845518636 5.22465
55.30743238042802 5.20027
55.33276558731939 5.11068
55.357905315183636 5.15759
55.383047936390035 5.1466400000000005
55.40819345314859 5.10962
55.433538351073295 5.09048
55.458689688238415 5.1018300000000005
55.483843927614096 5.04164
55.509197623043605 4.97772
55.53435769621134 4.95569
55.55952067826466 4.9464
55.5846865714265 4.90348
55.61005202069737 4.911490000000001
55.63522376553902 4.92077
55.66039842818645 4.88575
55.68557601087004 4.92141
55.7109532500271 4.79166
55.73613670233794 4.87627
