TT I
1.2716486653135266 7.079
1.2939594142134223 6.76209
1.3162702121660406 6.764639999999999
1.3385810600174564 6.555389999999999
1.3608919586137629 6.5288
1.383202908801069 6.38488
1.405513911425503 6.77009
1.4278249673332093 6.922389999999999
1.4501343378461518 6.19654
1.4724455028545926 6.37615
1.4947567236847858 6.3459900000000005
1.517068001182951 5.98447
1.5393793361953272 5.772930000000001
1.5616907295681737 6.431
1.5840021821477681 5.6717699999999995
1.60631369478041 5.12333
1.6286252683124185 5.3929
1.6509369035901333 4.46811
1.6732468618895553 4.7301
1.695558623192809 4.70675
1.7178704487808514 5.49699
1.7401823395001077 4.901730000000001
1.7625012545597203 4.60931
1.7848028405262486 5.11295
1.8071218901122095 4.40026
1.8294236121921872 4.66822
1.8517427996910911 4.9848
1.8740620574440425 4.88339
1.8963639900671978 4.9425300000000005
1.9186833908139995 4.75535
1.9409854680117449 4.58673
1.9633050151394713 4.20759
1.9856246367570705 4.87432
2.0079269371922672 4.79288
2.03024671027244 4.66951
2.0525491637446027 5.025440000000001
2.074869091674931 4.1971099999999995
2.097171701569106 4.48925
2.1194917877373847 5.079969999999999
2.141811954326636 5.00549
2.164114805233074 4.79524
2.186435135143035 6.02856
2.208738150935709 10.6272
2.231058647554722 19.5084
2.2533792288321184 15.9254
2.275682498336085 8.69045
2.298003251406138 6.1351
2.3203066942619714 5.7437
2.3426276225136022 4.88574
2.3649486396617507 5.27838
2.387252348930071 5.937469999999999
2.4095735463442893 6.173080000000001
2.4318774374315884 6.35386
2.4541988185014043 6.32913
2.476502894794693 7.37603
2.498824462909887 7.175489999999999
2.521146125856138 6.792889999999999
2.5434504863470337 6.97917
2.5657723414244717 7.300339999999999
2.588076895590662 8.74361
2.610398946189713 8.280560000000001
2.6327210958598384 7.91564
2.6550259469304716 9.19891
2.6773482972090137 8.70308
2.6996533504259 8.19023
2.7219759047039602 8.516760000000001
2.744298562293959 8.3475
2.7666039251246595 8.36411
2.7889267918020164 8.891160000000001
2.8112323652516555 9.09868
2.833555444408179 8.70447
2.8558786311183852 9.021519999999999
2.8781845268938557 9.05288
2.9005079311721484 9.08722
2.9228140460410397 9.3254
2.9451376712799635 9.3722
2.967444008632326 9.94864
2.9897678582247247 10.2824
3.0120918213106695 10.5049
3.0343984987899373 11.0056
3.0567226913198637 11.3352
3.079029599759726 11.6978
3.101354025127254 12.448
3.123678568232338 12.8713
3.145985829517914 13.1296
3.16831061055229 13.5267
3.1906181112775593 13.7861
3.212943133635653 14.6811
3.2352682779763207 15.6848
3.2575761442691227 15.0991
3.2799015350264273 15.6085
3.302209649240067 16.3255
3.3245352898092655 16.7028
3.3468436553365257 17.0598
3.369169549113219 17.3963
3.3914955708171384 18.3933
3.413804319727358 18.6698
3.4361305997334863 19.2831
3.4584396084414553 19.3218
3.4807661501462652 20.0679
3.503092824025881 20.9218
3.5254022288463154 21.4224
3.5477291695206588 21.6503
3.5700388426251948 22.605999999999998
3.5923660534916446 23.8225
3.6146934007816114 34.1076
3.637003482731501 65.3299
3.6593311053109985 71.3176
3.681641464033634 44.9966
3.7039693653009733 28.3504
3.726297407241705 25.5546
3.7486081875460804 25.4408
3.7709365132734978 26.0631
3.793247578841633 26.1952
3.8155761917550093 26.7477
3.8378875459837216 26.828000000000003
3.8602164494827234 27.3353
3.882545499606844 28.1752
3.9048572932539183 28.5546
3.9271866390645718 28.9067
3.9494987298666713 29.4912
3.971828374764527 30.244
3.9941581705403255 30.6089
4.016470713506008 31.5574
4.038800813471445 32.4747
4.061113662089144 32.1123
4.0834440696459176 33.0483
4.105774632334751 33.7375
4.128087945865126 34.6998
4.150418821249301 35.2315
4.172732448931298 36.7727
4.195063640413578 38.1426
4.2173775856475215 41.2978
4.239709096631102 64.3495
4.262040768704612 170.882
4.284355196706267 222.829
4.306687193387355 146.575
4.329001947444346 67.2214
4.35133427213731 45.9708
4.373666762177566 44.2518
4.395982011761091 43.7475
4.418314834921175 45.2478
4.44063041906622 50.7401
4.4629635787515625 57.6242
4.4852969080429785 58.0497
4.5076130004776225 52.4946
4.529946671403969 52.338
4.552263106909177 54.077
4.574597122877047 53.7803
4.596931312711224 53.251000000000005
4.619248269273446 53.3512
4.6415828092605835 54.1025
4.663900117405352 54.938
4.686235010953232 56.631
4.708552674085913 58.1321
4.730887924602802 59.3363
4.753223354952695 60.8719
4.775541557023902 63.2972
4.797877349456786 65.6708
4.820195915032126 66.6603
4.842532072957498 67.2343
4.864868414979744 69.7591
4.88718753227192 72.8327
4.909524244902505 74.4097
4.931843734218147 75.1359
4.954180820867835 77.2336
4.976518095879839 80.2511
4.998838149695359 82.9381
5.021175803844231 86.2477
5.043496238205739 89.8228
5.065834274903528 93.694
5.088172504230693 97.7094
5.1104935158799565 104.118
5.132832132875765 125.715
5.155153533596801 157.719
5.1774925416746225 186.486
5.199814334878411 333.26
5.2221537374521505 909.3639999999999
5.244493338631803 2732.26
5.266815727034316 7671.57
5.289155727832427 12293.7
5.311478517248165 8558.7
5.333818921080011 2714.81
5.356159527788849 526.009
5.3784829252032536 184.83599999999998
5.400823940070432 144.821
5.423147747031976 127.051
5.445489173474152 117.82799999999999
5.467830807066149 114.31
5.490155234831516 112.395
5.512497285125229 107.758
5.534822130975162 103.685
5.557164601388673 100.97200000000001
5.579489868738879 98.3602
5.601832762690846 97.2515
5.6241758697774475 96.1707
5.646501775867269 95.4996
5.668845311622074 94.3137
5.691171647754637 93.553
5.713515615597765 92.191
5.735859800852677 91.5583
5.758186788542988 91.6068
5.780531411018185 93.5129
5.802858837297399 93.0212
5.825203900414495 93.2552
5.8475491852224 94.6884
5.869877275883075 94.4945
5.892223006467101 93.5178
5.914551544266608 93.2434
5.936897724049891 95.4452
5.959244129804903 100.15100000000001
5.981573344815301 117.785
6.0039202049061 203.359
6.026249875609095 431.733
6.04859719346037 926.179
6.070927323278297 2196.71
6.093275102315365 4362.62
6.115623113320588 5184.48
6.137953938319995 3080.88
6.160302415650845 929.4760000000001
6.182633708324452 224.55
6.2049826554078376 109.554
6.227331838745022 89.7746
6.249663839443684 83.1853
6.27201349767565 80.5997
6.294345974611799 83.8589
6.316696111167083 90.0726
6.339046488263839 86.01899999999999
6.361379686074702 75.8085
6.383730546639482 70.8004
6.406064229255215 68.4536
6.428415576718203 68.8907
6.450749747566656 67.7862
6.47310158535871 65.9213
6.495453669698332 64.6656
6.517788579421056 63.8287
6.540141159237969 63.2826
6.562476565766648 62.8188
6.5848296444934045 62.2167
6.607182974060425 62.0328
6.6295191323281015 62.1838
6.651872965955752 64.4273
6.6742096296068985 81.37899999999999
6.6965639707294615 110.156
6.71891856698715 108.28
6.741255995248479 80.9874
6.763611104154477 64.1545
6.785949046381137 59.353
6.808304671371482 58.3527
6.8306605557940046 58.8214
6.852999275508618 57.8492
6.875355681171544 56.916000000000004
6.897694923437771 55.8898
6.92005185377892 55.7068
6.9423916220322655 55.7461
6.964749080490181 54.9057
6.987106804399774 55.1103
7.009447368180821 55.1857
7.031805625367033 55.1745
7.054146723727803 55.1169
7.076505517631004 54.6369
7.098864581288365 54.6717
7.121206488070854 54.7386
7.143566093607822 54.8103
7.165908543567245 55.4526
7.188268694426048 55.3155
7.2106291193438095 54.9614
7.232972390625943 55.9257
7.255333366030969 65.4806
7.277677189091925 100.209
7.300038718428332 127.98700000000001
7.322400526130865 110.193
7.344745183422596 75.4661
7.367107550224791 58.571000000000005
7.389452767901992 55.0058
7.411815697249891 54.3994
7.434161478756298 53.5544
7.456524974096713 53.8098
7.478888753837185 53.6637
7.501235387657368 54.2705
7.523599738562711 53.8679
7.545946944825532 54.2298
7.568311870344528 54.6523
7.5906770845765665 54.7662
7.613025156078678 55.7575
7.635390950099687 56.793
7.657739602662809 55.9343
7.680105979923558 55.5056
7.702472650212829 55.9874
7.724822180948224 55.6837
7.747189439655568 55.571999999999996
7.769539560075357 55.6662
7.791907410653562 56.2742
7.81425812420825 55.8624
7.836626570110925 56.2565
7.858995315087906 57.1463
7.881346924933401 57.1192
7.903716270417482 57.5318
7.926068482028405 57.9562
7.948438431475253 58.6636
7.9708086843180235 58.968
7.993161805171116 59.6691
8.015532667162402 60.1148
8.037886398416653 61.17100000000001
8.060257873014221 61.7285
8.082629655331942 62.4779
8.104984308787587 63.2632
8.127356708900503 66.242
8.149711981398308 70.8613
8.172085002766314 73.0213
8.194458336181368 70.6411
8.216814543847752 68.6636
8.23918850371002 68.798
8.26154533906492 69.3526
8.283919928836452 70.9264
8.306277395339652 72.1359
8.328652618483376 73.3041
8.351028159736202 75.5696
8.373386579575245 77.6368
8.395762759396959 79.4082
8.418121819038275 83.5166
8.440498640894003 93.3178
8.462875785192262 103.955
8.485235811156207 117.728
8.507613602688501 159.145
8.529974277114228 244.05900000000003
8.552352719347912 372.81699999999995
8.574731488360351 648.424
8.59709314210385 1187.89
8.619472567021075 1888.49
8.64183487789147 2161.21
8.664214962183097 1746.18
8.686577933647762 932.9630000000001
8.708958680784317 359.06699999999995
8.731339760774953 161.42600000000002
8.753703729764451 109.633
8.77608547780821 97.7563
8.798450116065078 94.0437
8.820832535634787 91.3085
8.843215292401656 90.7161
8.865580941199045 90.0822
8.887964374703538 89.175
8.910330701447199 89.7565
8.932714815164482 90.6014
8.955099270424924 89.2058
8.977466620733543 86.6485
8.999851761421976 84.6346
9.022219798361645 83.21799999999999
9.04460562795561 83.2118
9.066991803441677 83.0526
9.089360876979615 82.8496
9.111747746589993 82.4788
9.13411751544971 81.657
9.156505082664324 81.4937
9.178875550323522 81.4924
9.20126381862328 81.5599
9.223652438908596 81.756
9.246023961427412 81.9198
9.26841328802173 81.63
9.290785518039224 81.5554
9.313175554425882 82.7024
9.335565947154315 83.1474
9.357939245086508 83.6733
9.380330352834827 83.7311
9.40270436697103 83.6407
9.425096193225055 83.4072
9.447488380180165 83.7872
9.469863475295412 84.1036
9.492256385987508 83.9509
9.514632206018318 84.9639
9.537025843935714 84.8888
9.559402392368193 85.7899
9.581796761000229 87.5213
9.604191496441521 88.9708
9.626569144158516 91.8786
9.648964615551032 94.725
9.671343000390081 95.1306
9.693739211225699 94.1017
9.716135793237463 92.0896
9.738515290448102 92.2558
9.760912617143402 93.3158
9.783292860202891 94.7643
9.805690935076182 96.8752
9.828089385495742 97.7351
9.850470754023561 99.3709
9.872869957865444 105.445
9.89525208097539 115.24
9.917652041736662 123.55
9.940052382417589 125.514
9.962435644102392 137.482
9.984836746950979 172.797
10.007220771957746 233.83599999999998
10.029622640473708 332.583
10.052007432299963 511.50699999999995
10.074410069984072 823.289
10.096813093716005 1275.36
10.119199042482517 1738.52
10.141602840636468 1918.86
10.163989564971628 1533.13
10.186394141051062 877.2639999999999
10.208799107559706 402.69699999999995
10.231187001965623 188.607
10.253592751657669 124.616
10.275981430388155 111.37200000000001
10.298387966769793 110.34700000000001
10.320794897965431 110.79799999999999
10.343184759907361 109.35
10.36559248305461 105.522
10.387983138083852 103.06200000000001
10.410391656691655 106.36399999999999
10.432800574501677 117.073
10.455192425893369 132.708
10.47760214443012 158.662
10.499994797678786 205.11900000000003
10.522405320453982 290.55400000000003
10.54479877906917 416.851
10.567210109595656 523.039
10.5896218454736 571.632
10.612016518879773 489.11199999999997
10.634429067781074 338.713
10.656824555333241 197.52599999999998
10.679237920773568 121.715
10.701651695961992 95.4695
10.724048411481384 88.3065
10.746463008485165 85.3225
10.768860546937125 83.9095
10.791275969274796 82.2872
10.81369180576079 81.682
10.836090585366925 80.2467
10.858507252467449 79.1075
10.88090686379991 78.5021
10.903324365036394 77.7164
10.925724811614439 77.0841
10.948143150509463 77.9822
10.970561909719066 77.6119
10.992963615930844 76.2133
11.015383218085756 74.3941
11.037785768347074 72.7764
11.06020621697282 72.0334
11.082627090322113 71.6629
11.105030913430326 71.1768
11.12745263854165 71.3675
11.149857314510728 73.4564
11.172279894912576 77.3098
11.194702904450653 76.9167
11.217108866490921 74.128
11.239532736615194 71.1331
11.26193956033512 69.7396
11.284364294577085 68.7041
11.306789462371718 67.3511
11.329197585398376 66.5495
11.351623622610898 66.5078
11.37403261614354 65.6778
11.396459526308487 65.4166
11.418869393879497 64.9216
11.441297180532617 64.6622
11.463725406927658 64.1652
11.486136592353875 63.7756
11.508565700543707 64.312
11.530977768845315 65.8015
11.553407762368774 65.7717
11.575838200059769 65.2848
11.598251599479612 64.1278
11.620682927815501 63.1139
11.64309721895548 62.9392
11.665529441478206 62.4754
11.687962112597958 62.2551
11.710377748130886 62.3181
11.732811318753434 62.3165
11.755227854859067 62.1197
11.777662328529495 62.1181
11.800079768750786 61.8302
11.822515149015453 61.8735
11.844950984084935 62.0889
11.867369787303163 62.0584
11.889806534289491 61.8105
11.912226250487029 62.1225
11.934663912939751 62.2774
11.9571020346363 62.24100000000001
11.979523127133968 62.3198
12.001962169624331 62.8142
12.024384183972964 63.9518
12.046824150809913 67.0521
12.069264581333726 71.7775
12.091687985297767 77.3339
12.11412934550045 86.1014
12.136553680195208 102.354
12.158995973632788 127.19200000000001
12.181438735204349 157.066
12.20386447284199 187.87599999999998
12.226308172985636 208.108
12.24873485024193 201.44
12.271179492516982 170.049
12.293607112949127 124.48
12.316052700916226 92.8053
12.338498763250042 75.5907
12.360927805303868 67.7975
12.383374818673879 64.9154
12.405804812803074 63.6642
12.428252780773262 63.5898
12.45070122756722 63.6264
12.473132656675375 63.5329
12.49558206341869 63.7437
12.518014453510101 63.8074
12.540464823770117 64.3617
12.562915677315177 64.191
12.58534951575545 64.5744
12.607801338171472 66.1477
12.630236146511358 69.6173
12.652688941369085 72.7008
12.675124723177234 72.7228
12.697578494048786 70.53399999999999
12.720032754458185 68.0797
12.742470003354093 66.9663
12.764925245138771 67.1265
12.787363476431278 67.2268
12.809819703166806 67.4915
12.83227642391173 68.3405
12.854716135692716 68.9978
12.877173846755147 70.1038
12.899614549869717 70.4411
12.9220732548287 71.3401
12.94453245827299 71.6618
12.966974655289818 72.7065
12.989434858002571 73.6056
13.011878055298721 74.0643
13.034339260862497 75.0683
13.056800969391883 76.2991
13.079245674017244 78.2949
13.101708390774869 80.6229
13.12415410463411 87.507
13.146617833206086 98.0088
13.169064559883248 108.976
13.191529303857127 124.01700000000001
13.213994557076367 147.218
13.236442809902437 186.197
13.258909083908291 244.65900000000002
13.28135835851934 311.397
13.30382565690295 381.02099999999996
13.326293469022952 416.579
13.348744283242008 411.793
13.371213125129904 345.042
13.39366497011003 254.088
13.416134845360597 168.132
13.438605238843131 122.671
13.46105863690397 104.63600000000001
13.483530069144786 104.101
13.505984506951902 108.353
13.528456981549432 118.13
13.550929978879088 133.076
13.573385983253365 158.339
13.595860028340867 198.27900000000002
13.618317081455832 251.584
13.64079217790333 308.435
13.663250283359057 354.81199999999995
13.685726434770173 361.82
13.708203115221277 331.11699999999996
13.730662806148091 257.605
13.75314054697177 181.358
13.775601299246777 126.211
13.798080104050406 96.3569
13.820559442405358 84.5307
13.843021793671388 80.9067
13.865502201420897 79.4131
13.887965623051947 78.9154
13.910447103807167 77.602
13.932929122629764 76.1705
13.955394156785959 75.8325
13.977877254034569 75.015
14.000343367582113 74.3587
14.022827546871707 73.5201
14.045294743423524 73.0093
14.06778000837062 72.3003
14.090265817715476 72.1305
14.112734645763819 71.6407
14.13522154619454 71.4144
14.157691466286913 71.3526
14.180179461423874 71.1701
14.202668005486178 70.4869
14.22513957064374 69.8902
14.247629214846473 69.555
14.270101881097517 69.6051
14.29259262906496 69.5638
14.315083930490205 70.1328
14.337558255389705 70.1975
14.360050666019726 69.7704
14.382526101071944 69.1348
14.405019624534942 68.6444
14.427513705993134 67.995
14.449990813291825 67.9578
14.47248601302899 67.9857
14.49496423954951 68.2666
14.517460561197822 68.1225
14.539939910570322 68.0746
14.562437357763558 68.0978
14.58493536931253 69.0499
14.607416409993311 69.5381
14.62991555254159 70.0219
14.652397725157423 70.0198
14.674898002342799 69.9786
14.697398848433282 69.6172
14.719882725991326 70.2929
14.74238471217934 71.36399999999999
14.764869730765593 74.64
14.787372860692983 77.7672
14.809876564079925 82.0898
14.83236330125751 87.762
14.854868153850365 96.7016
14.877356041159485 110.801
14.899862046604186 130.908
14.922351087688757 157.589
14.944858249632887 186.024
14.967365991421232 211.588
14.989856770231246 220.72799999999998
15.012365673994204 213.57299999999998
15.03485761569738 187.308
15.05736768508665 145.23
15.07987833888692 112.706
15.102372032001655 89.7181
15.124883856909658 76.4494
15.14737872204565 71.6118
15.169891721717274 70.1964
15.192405310371893 69.7251
15.214901940621196 69.7722
15.237416709527137 69.3619
15.259914520936249 69.4572
15.282430473753607 68.5474
15.304947020131227 67.7158
15.327446610371178 66.9678
15.349964346154254 66.2779
15.372465126703139 66.0807
15.394984055556009 65.8613
15.417486030076159 65.7572
15.44000615566487 65.4199
15.462526881230803 65.2009
15.485030653812652 65.2918
15.507552581617434 65.1303
15.530057557334603 65.3191
15.55258069104857 65.3934
15.575104429329837 65.2678
15.597611216864632 64.9347
15.620136166564563 65.2176
15.6426441664095 66.2837
15.665170331202765 68.4888
15.687697105158826 71.5285
15.710206930593545 74.6102
15.732734925158933 78.8468
15.755245972089478 85.20100000000001
15.77777519094324 94.801
15.800287463046663 108.944
15.822817909869592 128.44799999999998
15.84534897229804 150.826
15.867863089299354 172.907
15.890395385222186 188.483
15.912910736597423 190.362
15.935444269699861 179.576
15.957978423016485 150.859
15.980495633101265 119.46
16.003031029129367 93.9653
16.02554948280019 75.7876
16.048086125229432 66.9628
16.070623392487107 64.1454
16.09314371869582 63.2977
16.11568223789321 61.9847
16.13820381691126 61.1866
16.160743591742527 60.3272
16.183283996022084 59.556000000000004
16.205807461423195 58.6935
16.228349126881973 58.0557
16.25087385432698 58.0737
16.27341678466365 57.6991
16.29594277784926 57.4706
16.31848697676433 57.5833
16.341031811604868 57.7549
16.36355971058487 57.5872
16.3861058195587 57.4457
16.40863499352978 56.4832
16.431182380342005 55.8424
16.453730407713202 55.4323
16.476261501364792 55.2807
16.498810812136167 54.7708
16.52134319004079 55.0789
16.54389378792203 54.9549
16.566445031001553 54.6167
16.588979342490088 54.3978
16.61153187824822 54.516999999999996
16.634067483263312 54.165
16.656621315414416 54.0909
16.679175797408888 53.8691
16.701713349928728 54.0067
16.72426913389191 54.3139
16.74680798922351 54.3738
16.76936507887444 54.297
16.791905240734874 54.4402
16.814463639794468 54.1443
16.837022695210294 54.3435
16.859564824093756 54.4803
16.882125194503903 54.8623
16.904668639217885 55.5514
16.927230328348003 55.586000000000006
16.949792678493612 55.5611
16.972338104193863 55.0586
16.994901778652235 54.7087
17.017448529496576 54.8923
17.040013531998152 55.1544
17.06257920018044 55.5926
17.0851279459922 56.2066
17.107694947817667 57.243
17.130245028099072 58.25
17.15281336730298 59.5457
17.17536478578733 60.9868
17.19793446610687 63.2861
17.220504818648422 66.5964
17.243058251703697 70.0927
17.265629950971032 74.5254
17.288184731571736 79.1267
17.310757781306908 82.0905
17.33333150794385 82.4825
17.355888317140174 80.9506
17.37846339986244 75.7511
17.401021565958885 69.7045
17.42359800851343 64.7392
17.44617513265564 61.1879
17.468735341390783 59.501000000000005
17.491261035594565 58.6317
17.51396340099364 58.3776
17.536490463869136 58.3729
17.559018209820174 58.4888
17.58154663977963 58.4154
17.604251766089718 58.7394
17.626781572227713 58.983999999999995
17.64931206518155 59.1524
17.671843245885103 59.5847
17.69455114821572 59.8349
17.717083712612634 60.2035
17.739616967569667 60.2859
17.762150914021706 60.5179
17.78486160749854 60.5295
17.807396945166804 61.1684
17.829932977143503 62.1967
17.85246970436452 63.6575
17.875183204129467 65.5992
17.897721330097664 67.4105
17.920260154126645 69.5564
17.942799677153296 72.7175
17.9655159983646 76.7395
17.988056927677544 82.221
18.010598558807683 90.4084
18.033140892692916 100.727
18.05586005052525 111.816
18.07840379824407 122.805
18.10094825154059 132.184
18.12366954819864 137.607
18.146215420998306 136.002
18.16876200220057 127.431
18.191309292745153 114.316
18.214033452627167 102.288
18.236582170236648 91.113
18.259131600016456 86.1224
18.281681742907335 86.6719
18.304408781233683 91.3193
18.32696035875955 96.6013
18.349512652227624 100.185
18.372065662579683 103.538
18.394795594587553 103.62700000000001
18.41735004715306 100.391
18.43990521943684 93.2722
18.46246111238171 84.7423
18.485193953325208 75.9886
18.507751296070428 69.2852
18.530309362314178 65.3481
18.552868153000343 62.786
18.57560391815056 61.4956
18.59816416623245 60.9881
18.620725141597372 60.5324
18.643286845190268 60.0564
18.666025549835414 59.7751
18.688588718427933 59.2431
18.711152618092243 59.0764
18.73389353884365 58.641000000000005
18.75645890921984 58.4294
18.77902501351406 58.0749
18.801591852673102 58.1036
18.824335739722738 57.4523
18.846904057212626 57.6279
18.8694731124168 57.2337
18.89204290628315 57.1063
18.914789774966803 56.9059
18.937361054791623 56.6773
18.959933076131318 56.3603
18.982505839934877 56.2901
19.00525570560582 56.4771
19.027829963004184 56.1986
19.05040496572238 56.2764
19.072980714710468 56.3332
19.095733592739563 56.498000000000005
19.11831084296757 56.8756
19.140888842324735 57.0318
19.16346759176222 57.2143
19.18622349753803 57.8477
19.208803755869358 58.5586
19.231384767143577 59.9058
19.253966532312948 61.4541
19.276725481241822 63.6587
19.29930876296784 66.1939
19.3218928014549 69.2007
19.34465404436217 71.9641
19.36723960516257 74.4539
19.389825925592426 74.9124
19.412413006605938 74.0539
19.43517731967805 70.0687
19.457765930683355 66.1317
19.48035530514408 61.9265
19.50294544401556 58.4115
19.525712842708348 55.838
19.54830451925909 54.5322
19.570896963095727 53.6703
19.593490175174704 53.2593
19.616260674962184 53.3435
19.638855432416964 53.0184
19.661450960992624 53.1186
19.68404726164677 52.9136
19.706820878021247 52.8884
19.729418731756834 53.0644
19.752017360452857 52.6836
19.77461676506804 52.9085
19.797393513540218 53.1155
19.819994478951667 53.183
19.84259622316767 53.6745
19.8651987471481 54.1484
19.887978643247177 54.3694
19.91058273574792 54.6125
19.933187610901943 55.7335
19.955969879466828 56.8904
19.97857632894404 58.647
20.00118356396599 60.3336
20.023791585494575 62.5742
20.046577028914875 65.2834
20.069186632506966 67.0969
20.091797025500632 68.6824
20.114408208858933 69.1957
20.137196842715273 68.8204
20.159809615886765 67.4445
20.18242318232135 64.8293
20.20503754298326 62.8966
20.227829382875154 62.0662
20.250445341109344 62.1655
20.27306209647285 62.7404
20.29567964993108 63.725
20.31847471147704 64.4565
20.34109387027612 64.8805
20.363713830075454 64.5477
20.386334591841646 63.0196
20.409132890679302 60.5369
20.431755265564437 57.5743
20.454378445325528 54.8008
20.477002430930366 53.1063
20.499803982716553 51.7681
20.522429589228004 50.8171
20.54505600449589 50.5816
20.567683229489194 50.3591
20.590488049900088 50.0035
20.61311690359731 49.7349
20.63574656993626 49.4676
20.658553853717297 48.9753
20.681185154618298 49.0563
20.703817271080066 48.9532
20.72645020407368 48.6402
20.749260783967177 48.6108
20.771895359337133 48.5281
20.794530754161617 48.548
20.817166969412938 48.3567
20.83998086114876 48.3478
20.86261872660049 48.428999999999995
20.885257415405402 48.2163
20.90789692853701 48.1135
20.930714147864748 48.148
20.953355319030678 48.1999
20.97599731745334 48.2071
20.99864014410749 47.9468
21.021460706796564 47.9495
21.044105199328826 48.1744
21.06675052302631 48.5535
21.089396678865015 48.7109
21.112220600704806 49.0219
21.134868430275347 49.4789
21.15751709492456 49.7887
21.180166595629693 49.9786
21.202993892429635 50.46
21.22564507473034 50.7123
21.24829709602816 50.8991
21.27112693608965 50.768
21.293780644891275 50.8609
21.316435195634053 50.043
21.339090589297417 49.5056
21.361923832041875 49.0994
21.384580921090404 48.574
21.407238856007325 48.2134
21.429897637773326 47.9006
21.45273429906592 47.8653
21.475394784108598 47.9273
21.498056118951983 47.751000000000005
21.520718304578022 48.0613
21.543558400304388 48.2473
21.566222297108816 48.4163
21.58888704765135 48.4525
21.61155265291521 48.6818
21.63439619898156 49.1302
21.657063523335786 49.4279
21.67973170537063 49.7751
21.7024007460706 50.25
21.72524775840385 51.1263
21.747918526116475 52.2017
21.770590155457388 53.43600000000001
21.79326264741238 55.1573
21.816113141960237 56.9245
21.838787368860547 58.8684
21.861462461341976 60.4403
21.884315579735777 62.1575
21.90699241312273 63.1493
21.92967011506078 63.5458
21.95234868653799 63.0744
21.9752053151131 62.1228
21.997885635446785 60.2516
22.020566828293532 58.6339
22.04324889464272 57.0962
22.066109049404666 56.0893
22.088792872571794 55.5794
22.111477572219204 55.4995
22.1341631493376 55.3184
22.157026846313123 54.9768
22.179714188221507 54.2078
22.202402410582668 53.3591
22.22509151438863 52.0656
22.24795876962584 50.7655
22.270649646204486 49.9733
22.293341407213727 49.3212
22.316034053646906 48.8942
22.338904883215342 48.6489
22.36159931041458 48.5445
22.38429462602756 48.4242
22.40699083104897 48.3619
22.429865251039757 48.3123
22.452563244831367 48.2503
22.47526213102522 48.1326
22.49813925616515 48.1619
22.520839937143307 48.041000000000004
22.543541513520587 48.1544
22.56624398629403 48.0158
22.589124730075895 47.928000000000004
22.611829005656723 48.1927
22.63453418063466 48.1743
22.657240256008077 48.3377
22.680124634582935 48.3125
22.70283252079775 48.6666
22.725541310413075 49.1019
22.74825100442868 49.1672
22.771139033969575 49.7864
22.79385054687155 49.983999999999995
22.81656296718292 50.8573
22.83927629590484 51.6294
22.862167992606945 52.5897
22.88488314827121 53.9634
22.907599215359284 54.7425
22.93031619487366 55.8216
22.953211574954405 56.4601
22.975930389478226 57.0209
22.998650119445763 57.037
23.02137076586092 56.3482
23.044269845560063 55.3377
23.06699233506288 53.8309
23.089715744034912 52.0576
23.112617610931565 50.5995
23.135342869061212 49.3901
23.158069049684816 48.6072
23.1807961538087 48.2788
23.20370174880544 48.2655
23.226430710184808 48.2569
23.249160598093425 48.3068
23.271891413539002 48.1405
23.294800752937697 48.2748
23.31753343374794 48.6332
23.340267045128353 48.6224
23.36300158808808 48.9182
23.38591468821339 49.1228
23.408651104658304 49.7372
23.431388455719986 50.3889
23.454126742409 51.2392
23.4770436196085 52.3452
23.499783787914662 53.5662
23.522524894889884 54.5443
23.54526694154616 55.5406
23.56818761219047 56.4497
23.59093154860734 56.9329
23.613676427751283 57.0032
23.636422250635754 56.2763
23.659346731118656 54.8419
23.68209445191868 52.9471
23.704843119509587 50.8648
23.72759273490623 49.1481
23.750521041644767 47.8496
23.77327256312355 46.7785
23.796025035462787 46.1313
23.818956224555475 45.6
23.841710609113413 45.4534
23.86446594758979 45.301
23.887222241002014 45.0333
23.910157285144578 44.6823
23.932915498962537 44.797
23.955674670778713 44.6134
23.978434801611975 44.4014
24.001373717286125 44.3509
24.024135776723917 44.0708
24.046898798245582 43.9532
24.06966278287146 43.8647
24.092605586582614 43.7487
24.115371508023642 43.5527
24.1381383956401 43.5483
24.16090625045381 43.4876
24.183852958731244 43.532
24.206622758582608 43.3337
24.229393528706886 43.1026
24.252165270127392 43.2448
24.27511589952438 43.1805
24.297889594216997 42.9516
24.32066426328598 42.7914
24.34343990775613 42.773999999999994
24.36639447485003 42.8142
24.38917208083877 42.7631
24.41195066531332 42.6161
24.43490819850244 42.61
24.457688750692377 42.6073
24.48047028445616 42.6149
24.503252800821233 42.6659
24.526214300784112 42.6642
24.548998793132213 42.5719
24.57178427117417 42.325
24.59457073593893 42.4154
24.617536219319863 42.3611
24.64032466834748 42.4186
24.663114107195035 42.3463
24.685904536893013 42.1297
24.708874020360852 42.032
24.731666442613744 42.0362
24.754459858818787 41.9833
24.777254270007962 41.8786
24.80022777025625 41.7975
24.82302418230472 41.754
24.845821592443674 41.8287
24.86862000170663 41.8318
24.891597535453727 41.6139
24.914397953892728 41.8639
24.93719937456671 41.7791
24.96000179851076 42.0335
24.98298338249997 41.9759
25.00578782394922 42.303000000000004
25.028593271784167 42.4902
25.05157790644186 42.7138
25.07438537804115 42.8947
25.097193859145293 43.1773
25.120003350792075 43.2924
25.142992065061257 43.7622
25.165803588823465 43.8803
25.18861612625217 44.1027
25.211429678386736 44.2275
25.234422489079968 44.4201
25.257238081693636 44.2822
25.280054692141732 44.4299
25.3028723214652 44.3484
25.325869245420463 44.4735
25.348688923599397 44.4544
25.371509623787006 44.3931
25.394331347025812 44.1597
25.41733240110666 43.7533
25.440156181590016 43.0089
25.46298098826268 42.5421
25.48580682216873 41.9531
25.50881202326435 41.3806
25.53163992281684 40.9885
25.55446885274561 40.7906
25.577298814096377 40.4943
25.600308179121807 40.3274
25.623140214533745 40.4706
25.64597328451537 40.4159
25.66898578564376 39.9863
25.691820936010206 40.1475
25.714657124097695 40.186
25.737494350954734 40.1538
25.760511045684957 39.9007
25.783350361364224 40.1236
25.806190718969255 40.0904
25.82903211955018 40.2287
25.852053024868923 40.1276
25.874896522722523 40.1473
25.897741066713106 40.251999999999995
25.920586657892454 40.3771
25.943611790812668 40.54
25.966459487728237 40.6263
25.989308234998564 40.6677
26.01215803367705 40.9445
26.03518741123814 41.126999999999995
26.05803932412957 41.1821
26.080892291600094 41.1989
26.10374631470478 41.2156
26.12677995397268 41.2015
26.14963609978026 41.2989
26.172493304397875 40.9321
26.19535156888223 40.7818
26.218389486949604 40.3262
26.241249882640123 40.1233
26.26411134137826 39.8717
26.28715248187403 39.8143
26.31001607820869 39.6406
26.3328807407756 39.6162
26.35574647063438 39.7066
26.37879191991473 39.6012
26.401659795896734 39.6803
26.424528742360263 39.9092
26.447398760366614 39.8702
26.470448535598294 40.0786
26.49332070826805 40.4419
26.516193955675355 40.7094
26.53906827888316 40.8623
26.562122397260108 41.0836
26.584998883685063 41.4168
26.607876449110325 41.5564
26.63075509460056 41.7161
26.65381357334404 41.7561
26.67669439061878 41.6263
26.699576291163382 41.6252
26.722459276044212 41.5574
26.745522132402975 41.1982
26.768407297649354 40.9565
26.791293550442003 40.6284
26.814180891848974 40.4155
26.837248143099337 40.1528
26.860137673466657 40.0896
26.88302829566349 39.7281
26.90592001075963 39.6058
26.92899167420566 39.4607
26.951885586870763 39.0796
26.974780595655517 38.8844
26.99785558178161 38.8003
27.020752794605112 38.5449
27.043651106772522 38.5153
27.06655051935668 38.4151
27.089629948036183 38.1869
27.112531573292053 38.2612
27.135434302194138 38.3392
27.158338135817015 38.1354
27.181422024430987 38.179
27.204328079372566 38.1014
27.22723524226965 38.1741
27.250143514198573 38.2151
27.273231880156334 38.1076
27.296142382065014 37.9805
27.319053996245536 37.8942
27.341966723775965 38.0375
27.365059584515222 38.1027
27.38797455070062 38.1571
27.410890633481237 37.9853
27.433807833936918 37.9543
27.456905206923906 38.0681
27.47982465472398 38.1986
27.502745223449743 38.1974
27.525666914182825 38.2386
27.548768816912457 38.2134
27.571692763693633 37.9778
27.59461783573812 37.9314
27.617723149491244 37.835
27.640650484125285 37.8272
27.66357894728264 37.7006
27.686508540048052 37.714
27.709618414237887 37.5817
27.732550278321757 37.3825
27.755483275279115 37.4883
27.778417406196485 37.4809
27.801531858397514 37.356
27.824468269376716 37.3607
27.847405817586786 37.4056
27.870344504116094 37.715
27.893463551932008 37.723
27.916404527281053 37.8447
27.93934664422563 38.0235
27.962289903855886 38.1082
27.98541356491974 38.2969
28.00835912214229 38.3119
28.03130582533231 38.7846
28.054253675581805 38.741
28.077381967556104 38.5199
28.100332124185126 38.5943
28.123283431160893 38.5476
28.146235889577238 38.4118
28.169368830154156 38.2571
28.192323603752033 38.107
28.215279532083304 37.726
28.238415973016764 37.5567
28.261374223145094 37.4786
28.284333631303806 37.2039
28.307294198589954 37.1443
28.330435319167677 36.7293
28.353398217078915 36.5304
28.376362277420153 36.2828
28.39932750129032 36.165
28.422473319286713 36.0654
28.44544088262495 36.003
28.468409612800283 35.9112
28.491379510913497 35.6668
28.51453004413313 35.4837
28.53750229057244 35.4857
28.56047570826344 35.4266
28.583450298308804 35.5259
28.606605564586562 35.3837
28.629582511831156 35.3183
28.65256063474956 35.2636
28.675539934446338 35.2998
28.698699951647605 35.2919
28.72168161743193 35.0793
28.74466446331978 35.0769
28.767648490417624 35.0805
28.790813276438353 34.9864
28.813799678527303 35.0871
28.836787265157085 35.0857
28.859955641890075 35.1794
28.882945610203045 35.1401
28.905936766392035 35.0251
28.928929111566863 35.0674
28.952102288520145 34.9084
28.975097024308607 34.7721
28.998092952423807 34.7152
29.021090073977508 34.5918
29.04426806913204 34.5545
29.067267590245258 34.3032
29.090268308143695 34.2102
29.11327022394099 34.2943
29.13645305530891 34.1099
29.159457379627167 34.0912
29.18246290519685 33.9386
29.20546963313352 33.8605
29.22865731875826 33.8732
29.25166646419296 33.9721
29.27467681535305 33.8412
29.29768837335608 33.9103
29.320880931312562 33.908
29.34389491580634 33.8387
29.366910110507334 33.9102
29.38992651653503 33.9459
29.41312396492981 33.8483
29.436142806456754 33.6919
29.45916286268059 33.6171
29.48236399319994 33.5327
29.50538649169417 33.4904
29.528410208259935 33.366
29.55143514402014 33.1009
29.574641196749695 33.1308
29.597668583816574 33.0901
29.6206971934585 32.7839
29.64372702680042 32.8324
29.666938019934474 32.713
29.689970313635285 32.6804
29.713003834422636 32.6498
29.73603858342347 32.5467
29.759254535188578 32.5788
29.78229175361658 32.4433
29.80533020365064 32.4913
29.82836988641968 32.4115
29.85159081507472 32.4164
29.874632976355343 32.3884
29.89767637376955 32.4444
29.920721008448314 32.2729
29.9439469322847 32.2915
29.96699405457564 32.2401
29.9900424175358 32.2307
30.013092022298157 32.2656
30.03632295963995 32.1289
30.059375061131373 32.1521
30.08242840783577 32.1763
30.105483000888153 32.2805
30.128718970092244 32.065
30.151776069006917 32.0437
30.17483441768648 32.0725
30.198074175317235 32.0285
30.221135036724256 32.1179
30.24419715131772 32.0676
30.267260520236203 31.8881
30.290505341942243 31.9441
30.313571232750228 31.9738
30.336638381310948 32.0047
30.35970678876503 32.0133
30.38295669299435 31.7846
30.40602763151657 31.8043
30.429099832366074 31.7461
30.452173296685572 31.701
30.47542830191959 31.7407
30.498504306502497 31.6972
30.521581577995562 31.7802
30.544660117543582 31.7914
30.56792024229725 31.8901
30.59100133132069 31.8263
30.614083691845494 31.9649
30.637167325018545 32.0095
30.660432587840603 31.9468
30.683518779717886 31.8736
30.70660624769615 31.9316
30.729694992924372 31.8285
30.75296541239743 31.9021
30.77605672557558 31.7755
30.799149319462742 31.7532
30.8224236211637 31.6805
30.845518789950724 31.5921
30.868615242910597 31.5033
30.891712981195973 31.3816
30.91499247215866 31.3424
30.938092794619365 31.2393
30.96119440587579 31.1726
30.984297307082752 31.0789
31.00758200598383 30.9318
31.030687500658694 30.9161
31.053794288760695 30.8976
31.076902371446767 30.7608
31.100192296997445 30.8253
31.12330298246119 30.7319
31.14641496599209 30.5526
31.169528248749216 30.5736
31.19282341969534 30.6561
31.215939314557186 30.6148
31.239056512134788 30.5562
31.262175013589378 30.491
31.28547544871168 30.491999999999997
31.30859657161541 30.355
31.331719001892175 30.4219
31.35484274070538 30.6058
31.378148458819545 30.559
31.401274828443725 30.5342
31.424402510106933 30.5334
31.447712205419993 30.6131
31.470842524931633 30.5328
31.493974159989783 30.4749
31.51710711176168 30.5131
31.54042212308802 30.4537
31.563557722100917 30.385
31.586694641341655 30.2219
31.609832881979628 30.1929
31.63315322823208 30.1739
31.656294125521327 30.0538
31.679436347728515 30.0065
31.70257989602529 29.885
31.725905596152327 29.8647
31.74905181052835 29.8302
31.772199354521323 29.8587
31.79534822930507 29.8428
31.818679302290967 29.9347
31.84183085259981 29.8319
31.864983737233473 29.8773
31.88813795736804 29.8581
31.911474422233013 29.741
31.934631327356435 29.7777
31.9577895715215 29.7717
31.980949155906522 29.7574
32.004291031706956 29.7078
32.027453310562606 29.6591
32.05061693318573 29.4449
32.07396288236386 29.5427
32.09712920658542 29.566
32.12029687812702 29.3842
32.14346589817093 29.302
32.166817291729984 29.2961
32.18998902288583 29.194000000000003
32.21316210610336 29.0953
32.23633654256711 28.8851
32.259693399663725 28.9729
32.282870556771144 28.8603
32.30604907069099 28.8581
32.329228942610065 28.769000000000002
32.35259128243769 28.6307
32.375773884550505 28.7573
32.398957848235646 28.6159
32.422143174682176 28.5137
32.445511016471215 28.5011
32.468699082679954 28.4436
32.49188851523011 28.4151
32.51507931531304 28.351
32.538452678331 28.4613
32.56164622776311 28.2528
32.58484114831493 28.2085
32.60803744118015 28.2599
32.631416344731896 28.1664
32.654615396551876 28.1164
32.67781582427913 28.1606
32.701198898634416 28.023000000000003
32.72440209253756 27.9951
32.747606665947124 27.9984
32.77081262006088 27.8146
32.79420126883317 27.7755
32.81740999876112 27.7631
32.840620112999424 27.6803
32.86383161274818 27.7494
32.88722585534586 27.6852
32.91044014056596 27.7544
32.933655814909734 27.745
32.95687287957963 27.7943
32.98027273544904 27.6775
33.00349259526636 27.6752
33.026713849030116 27.6149
33.04993649794511 27.5469
33.073341986570746 27.5309
33.09656744032826 27.525
33.11979429286444 27.4836
33.14302254538647 27.4493
33.166433686291185 27.4075
33.18966475336992 27.4055
33.212897224069096 27.3715
33.23613109959831 27.3855
33.259547912343415 27.3731
33.2827846121627 27.3342
33.306022720453775 27.2291
33.32926223842861 27.0897
33.352684742614166 27.0332
33.37592709463173 27.0506
33.399170859982064 27.0293
33.422597648419426 27.0442
33.44584425514446 26.872
33.46909227885668 26.811999999999998
33.4923417207723 26.6587
33.51577423505344 26.78
33.539026528130385 26.6103
33.56228024307245 26.5199
33.585535381098246 26.4797
33.60897364093058 26.5424
33.63223163992385 26.4741
33.6554910656699 26.4613
33.678751919389796 26.4138
33.702195944520106 26.2989
33.72545966903325 26.3624
33.74872482519663 26.2597
33.771991414233746 26.2925
33.79544122444841 26.2331
33.81871069412428 26.1299
33.84198160035767 26.1302
33.86525394437455 26.1042
33.88870955949969 26.0962
33.911984794020626 26.0301
33.93526147001624 26.0113
33.958539588715006 25.925
33.98200102861669 25.9094
34.0052820477047 25.7911
34.02856451319451 25.7916
34.05203033759056 25.7932
34.07531571090147 25.6462
34.09860253431845 25.6825
34.121890809074316 25.6452
34.145362493118924 25.7546
34.16865368561615 25.5885
34.191946333164054 25.5287
34.21524043699793 25.5278
34.23871800066799 25.4902
34.26201503218366 25.4131
34.28531352370466 25.424
34.30861347646881 25.2692
34.33209693978188 25.3063
34.3553998301885 25.2309
34.378704185565205 25.1629
34.402010007152356 25.0231
34.42549939016683 25.0797
34.44880815937748 25.0418
34.472118398533134 24.9891
34.49543010887669 25.0325
34.51892543169198 24.9173
34.54224009966052 24.9024
34.56555624255917 24.8304
34.58887386163339 24.824
34.61237514439016 24.7074
34.6356957311114 24.698
34.65901779775809 24.7158
34.68252356662995 24.6718
34.705848608458616 24.6117
34.72917513396849 24.6423
34.75250314440949 24.6233
34.77601490857862 24.4705
34.799345904259795 24.4441
34.82267838863559 24.5224
34.846012362958525 24.428
34.869530142679984 24.3577
34.89286711232212 24.3463
34.91620557568269 24.3585
34.93954553401677 24.3246
34.9630693495876 24.2534
34.986412313340814 24.2702
35.00975677584668 24.2063
35.033102738362956 24.116
35.05663261012228 24.1175
35.0799815881786 24.1531
35.10333207003229 24.0511
35.12668405694369 24.0402
35.150220005273056 23.9962
35.17357501786656 23.9521
35.19693153931268 23.9562
35.220289570874385 23.9082
35.24383161619786 23.8734
35.267192683604904 23.9287
35.290555264930376 23.8898
35.314101899412165 23.831999999999997
35.33746752422433 23.868000000000002
35.36083466676374 23.816999999999997
35.38420332829803 23.7199
35.407756095629054 23.8029
35.43112781085063 23.7659
35.45450104888391 23.656
35.477875810999194 23.6958
35.50143473172161 23.6666
35.52481255774625 23.603
35.54819191167777 23.4829
35.57157279478914 23.5018
35.595137889488406 23.5337
35.61852184675279 23.4262
35.641907337029984 23.4144
35.665294361595684 23.4369
35.68886565090076 23.3427
35.7122557598848 23.301
35.73564740699838 23.2862
35.759040593519934 23.1869
35.78261809810353 23.2327
35.80601437933051 23.1953
35.829412203814705 23.1121
35.85281157283719 23.0321
35.876395313415884 23.1436
35.8997977874528 23.0176
35.92320180988546 22.9514
35.946790244133936 22.8796
35.97019737933222 22.8703
35.993606066789866 22.8221
36.01701630779276 22.8424
36.04061101440684 22.6955
36.06402437852291 22.7469
36.08743930005611 22.7407
36.1108557802951 22.6326
36.13445678011326 22.6508
36.15787639383515 22.5728
36.18129757014299 22.6517
36.20472031032821 22.5934
36.22832762423364 22.5391
36.25175350829375 22.4967
36.275180960119776 22.3861
36.298609981005924 22.4887
36.32222362992669 22.455
36.34565580510207 22.4777
36.36908955323448 22.3541
36.39252487562093 22.2467
36.416144880530226 22.2242
36.43958336764275 22.3008
36.463023432914625 22.2564
36.486465077645676 22.0818
36.51009145956204 22.1781
36.53353627947859 22.1705
36.55698268276811 22.0963
36.58043067073321 22.0752
36.60406345072071 21.9912
36.62751462435344 21.9595
36.65096738658405 21.9344
36.67460498210655 21.9113
36.69806093788647 21.8693
36.72151848619297 21.819000000000003
36.744977628333636 21.7873
36.76862165890998 21.7332
36.79208400512205 21.7303
36.81554794910557 21.6738
36.83901349217101 21.6809
36.862663978991606 21.6251
36.88613273667352 21.5893
36.90960309738324 21.6254
36.933075062434064 21.5494
36.95673202673572 21.3978
36.98020721697122 21.3887
37.003684015502365 21.4007
37.027162423645365 21.4296
37.050825886711465 21.3828
37.07430753063053 21.2394
37.09779078812467 21.2588
37.121275660513014 21.2493
37.144945643673694 21.2326
37.16843376245278 21.2272
37.19192350009803 21.1703
37.215414857931435 21.0448
37.239091382563885 21.0595
37.262585997426164 21.0569
37.28608223645736 21.0688
37.309763684451696 20.9972
37.33326318851098 20.9726
37.356764320726555 20.9586
37.380267082425526 20.921999999999997
37.40395510942588 20.8339
37.42746114683234 20.8479
37.45096881771841 20.8097
37.474478123414166 20.7874
37.49817275092816 20.7272
37.52168534303452 20.7025
37.54519957395567 20.625
37.568715445024665 20.6159
37.592416694607714 20.5927
37.61593586281424 20.6478
37.63945667518264 20.6376
37.66297913304891 20.5496
37.68668702630454 20.5061
37.710212792059274 20.45
37.733740207334854 20.4337
37.757269273470364 20.3578
37.780983832050374 20.3175
37.80451621684926 20.3059
37.82805025654007 20.2025
37.851585952464795 20.1391
37.8753071980695 20.2412
37.89884622345676 20.1329
37.92238690911902 20.1619
37.94611318753442 20.0152
37.969657210779765 20.0281
37.99320289834801 20.0211
38.016750251586465 19.9505
38.04048325513017 19.9266
38.06403395679343 19.8869
38.087586328183946 19.8936
38.11114037065203 19.8188
38.13488012115898 19.8991
38.1584375229181 19.8051
38.181996599821 19.7473
38.205557353221124 19.6974
38.229303872575656 19.7356
38.2528679961576 19.6621
38.27643380031219 19.5892
38.30000128639589 19.6099
38.32375459653193 19.6049
38.34732546371299 19.5474
38.37089801690786 19.5306
38.39447225747609 19.4428
38.418232380377425 19.5013
38.441810012983396 19.4792
38.46538933705673 19.38
38.488970353960084 19.4171
38.51273731166058 19.3916
38.536321731567014 19.3581
38.55990784840681 19.3711
38.58367995004091 19.2077
38.60726947812959 19.2036
38.63086070726198 19.2033
38.654453638806274 19.1826
38.678232613930824 19.149
38.70182896773327 19.0858
38.72542702806741 19.0501
38.7490267963045 19.0372
38.77281266709232 19.0413
38.79641586862214 18.973
38.8200207821842 18.9135
38.843627409152944 18.9919
38.86742019782782 18.9379
38.891030269149255 18.9035
38.914642058016156 18.8961
38.938255565806124 18.8104
38.96205529464307 18.7713
38.98567225787121 18.7628
39.00929094417078 18.7481
39.03291135492255 18.7304
39.05671804624804 18.6629
39.080341923549106 18.660999999999998
39.103967529460334 18.5921
39.127594865365744 18.528
39.15140854155791 18.5165
39.17503935514948 18.5785
39.19867190290282 18.5389
39.22249083587951 18.4738
39.24612686969409 18.4833
39.269764641845306 18.4309
39.293404153722804 18.3162
39.317230110864074 18.2825
39.34087311998506 18.2854
39.36451787301696 18.2426
39.388164371352595 18.2246
39.41199737518003 18.1543
39.43564738196752 18.1392
39.45929913825317 18.1586
39.48295264543308 18.137999999999998
39.506792718520884 18.1066
39.530449745387216 18.0321
39.55410852735203 17.9864
39.57776906581474 18.0072
39.60161623079 17.9541
39.625280300200025 17.9885
39.64894613032202 17.9616
39.67261372255866 17.912
39.6964680021016 17.8613
39.72013913657293 17.8716
39.74381203738292 17.8588
39.76748670593756 17.8051
39.79134812278169 17.7741
39.81502634488497 17.7116
39.83870633896685 17.6796
39.862388106436654 17.615
39.88625668336918 17.6437
39.90994201572829 17.6659
39.933629125719285 17.5223
39.957503091207826 17.5435
39.9811937746168 17.5978
40.00488623990914 17.5537
40.02858048850006 17.4935
40.05246165409549 17.4331
40.076159487492085 17.3934
40.099859108448875 17.3877
40.123560518384345 17.3087
40.1474489070226 17.3499
40.171153913178564 17.3361
40.194860712584955 17.2601
40.2185693066637 17.2336
40.242464941335314 17.1686
40.26617714307655 17.1627
40.289891143772046 17.1375
40.3136069448471 17.1285
40.33750984859743 17.0979
40.3612292688043 17.1409
40.3849504936829 17.0164
40.40867352466194 17.0705
40.43258372059144 16.9996
40.45631038219906 16.993
40.48003885420956 16.952
40.503769138055105 16.947
40.52768664931955 16.8893
40.55142057531802 16.8906
40.57515631746428 16.8542
40.599079334038514 16.8523
40.62281872700477 16.7945
40.64655994043941 16.7634
40.67030297578061 16.735
40.69423334835778 16.729
40.71798004609188 16.6595
40.74172857006355 16.6068
40.76547892171441 16.6676
40.7894166736039 16.6385
40.813170699248566 16.6066
40.83692655691388 16.6065
40.86068424804498 16.5617
40.884629402612525 16.5181
40.908390779366385 16.4695
40.932153993938 16.4867
40.95591904777605 16.4753
40.979871628443995 16.4466
41.003640379561936 16.3888
41.02741097430883 16.3773
41.05118341413683 16.3005
41.075143444384416 16.2664
41.098919593177826 16.2177
41.1226975914255 16.2257
41.14647744058318 16.2124
41.170444943946755 16.1663
41.19422851378379 16.156
41.218013938914645 16.1049
41.24198706625173 16.0517
41.26577622087193 16.092
41.289567235177785 16.0119
41.31336011063129 16.0424
41.337340752422875 16.0399
41.361137369129835 15.9625
41.38493585138705 16.0011
41.40873620066004 15.9607
41.43272438060107 15.927999999999999
41.45652848292052 15.87
41.48033445666918 15.8251
41.50414230331616 15.7995
41.528138045159764 15.7869
41.551949656675205 15.7472
41.575763145513235 15.7166
41.59957851314666 15.6446
41.62358184070442 15.7147
41.64740098505737 15.6498
41.6712220126409 15.5916
41.69504492493139 15.6123
41.71905586207357 15.5771
41.74288256296395 15.4987
41.766711153007456 15.4963
41.79054163368412 15.5268
41.814560204340054 15.491
41.838394485526365 15.456
41.86223066180303 15.4196
41.88625497706819 15.390999999999998
41.910094962812 15.4295
41.93393684811168 15.3797
41.95778063445365 15.29
41.981812625263366 15.2948
42.00566023303407 15.2443
42.029509746323676 15.2589
42.05336116662236 15.2399
42.077400857069705 15.213
42.10125611078846 15.1737
42.12511327600405 15.1097
42.14897235421036 15.1022
42.173019768448455 15.1566
42.19688269209613 15.0659
42.22074753323349 14.9964
42.24461429335818 15.0114
42.268669455600495 14.957
42.292540073217886 14.924000000000001
42.31641261433284 14.9328
42.34028708044675 14.914000000000001
42.36435001496739 14.9067
42.38822835065557 14.8778
42.41210861586426 14.8264
42.4359908120986 14.8371
42.46006154323262 14.8062
42.48394762115317 14.7694
42.507835634632315 14.7997
42.531912233047436 14.7468
42.55580413732265 14.6747
42.579697981698 14.6616
42.60359376768525 14.6428
42.62767820545945 14.5637
42.65157789440821 14.5767
42.67547952952185 14.5823
42.699383112316 14.5692
42.72347541395347 14.4768
42.74738291190531 14.4665
42.771292362102166 14.4761
42.795203766063516 14.4053
42.819303956130405 14.4188
42.843219287476536 14.3739
42.86713657716324 14.3165
42.89105582671383 14.3263
42.91516392983864 14.3348
42.939087119032166 14.277000000000001
42.963012272677304 14.2604
42.98693939230129 14.2121
43.01105543317513 14.2395
43.034986504731386 14.2035
43.05891954686589 14.1643
43.08285456110972 14.1719
43.10697856448665 14.1182
43.130917542983475 14.0602
43.15485849820081 14.0812
43.17880143167367 14.0693
43.20293342237094 14.0188
43.226880332449 13.9571
43.25082922540554 14.0194
43.27496722682525 13.9705
43.29892010567796 13.9276
43.32287497204102 13.9217
43.34683182745632 13.8682
43.370977859791836 13.8344
43.39493871351105 13.7881
43.41890156092628 13.8496
43.44286640358341 13.7712
43.46702049182749 13.8111
43.49098934522816 13.7778
43.51496019852649 13.6956
43.5389330532723 13.682
43.56309522248204 13.6509
43.58707210044314 13.6606
43.61105098451946 13.6317
43.63503187626491 13.5971
43.659202151562134 13.5705
43.68318707902681 13.5737
43.70717401884041 13.5293
43.731162972560874 13.4237
43.75534137913236 13.4545
43.779334381108384 13.4415
43.803329401683186 13.4358
43.82732644241872 13.4224
43.8515130055166 13.3665
43.87551410707659 13.3545
43.89951723350145 13.3798
43.923709934595614 13.2844
43.94771713129917 13.2957
43.97172635758096 13.3142
43.99573761501002 13.2797
44.0199385169922 13.2087
44.04395385732619 13.1938
44.067971233533086 13.1826
44.09199064718605 13.14
44.11619977548961 13.1337
44.14022328470671 13.1355
44.16424883610785 13.0948
44.18827643127035 13.1031
44.21249381139513 13.082
44.236525514814076 12.9907
44.26055926674478 12.9491
44.28459506876863 12.9745
44.3088207262813 12.9335
44.33286064928722 12.9378
44.35690262714919 12.9607
44.38094666145278 12.8493
44.4051806219871 12.9125
44.42922879003185 12.8207
44.45327901929361 12.8211
44.477331311362136 12.8113
44.501573600619416 12.7453
44.525630039221795 12.7385
44.54968854541895 12.7431
44.573937102200176 12.7306
44.5979997645541 12.6685
44.622064499300315 12.7106
44.64613130803592 12.6333
44.67038823869318 12.6088
44.69445921643748 12.5399
44.718532272981385 12.5504
44.742607409926194 12.5557
44.76687274034801 12.5161
44.79095205918753 12.4809
44.81503346325094 12.4622
44.839116954143876 12.4419
44.86339071028742 12.4363
44.88747839599524 12.3896
44.91156817336837 12.4322
44.93566004401666 12.399000000000001
44.959942251908146 12.3456
44.984038330325966 12.3412
45.00813650686762 12.3267
45.03223678314731 12.2637
45.05652746888232 12.2655
45.08063196592069 12.2254
45.104738567558705 12.1885
45.128847275414856 12.2303
45.15314646515866 12.1259
45.17725940679741 12.138
45.20137445952892 12.117
45.22568004865265 12.1247
45.24979934496396 12.1102
45.27392075725247 12.0982
45.29804428714431 12.0651
45.322358426247604 12.0465
45.346486212804315 12.0335
45.370616121861914 11.9969
45.39474815505086 11.994000000000002
45.41907087049246 11.9574
45.4432071734666 11.8728
45.46734560548283 11.892000000000001
45.49148616817604 11.9065
45.51581748638564 11.8734
45.5399623320197 11.8638
45.56410931325473 11.8189
45.58825843173002 11.8536
45.61259837920865 11.8004
45.636751793816 11.7831
45.66090735060093 11.7274
45.68506505120716 11.6899
45.7094136545275 11.6598
45.73357566449271 11.6654
45.75773982322992 11.6654
45.78190613238733 11.6507
45.806263418194064 11.540999999999999
45.83043404997326 11.5701
45.85460683713677 11.5954
45.87897065658495 11.5435
45.90314777634752 11.4942
45.92732705646868 11.5001
45.9515084986045 11.5272
45.97588104735473 11.4434
46.00006683541565 11.4625
46.02425479047904 11.4244
46.04844491420549 11.3924
46.0728262191024 11.4071
46.09702070211635 11.4038
46.12121735879483 11.3624
46.14541619080294 11.3877
46.169806278764455 11.3286
46.194009483459034 11.3186
46.21821486849841 11.2521
46.24242243555223 11.2141
46.266821333570014 11.2124
46.29103328674601 11.2052
46.31524742696538 11.175
46.33946375590237 11.1286
46.36387149104216 11.140999999999998
46.38809221957392 11.1004
46.41231514186606 11.1101
46.436540259597464 11.0762
46.460956858999374 11.0553
46.48518638983522 11.0521
46.509418121166966 10.9915
46.533652054678114 11.0282
46.55807754555709 10.9685
46.58231590571962 10.9598
46.60655647313217 10.9187
46.630988654873654 10.932
46.655233659129024 10.9467
46.67948087571551 10.9315
46.70373030632484 10.8463
46.72817142736393 10.8539
46.752425308428684 10.8232
46.77668140861147 10.8117
46.80093972960865 10.7833
46.82538981736788 10.7634
46.849652602470904 10.7411
46.87391761349769 10.7161
46.8981848521493 10.6863
46.9226439341274 10.6726
46.946915650573224 10.6552
46.97118959976749 10.6373
46.99546578341598 10.5604
47.019933887188216 10.5785
47.04421456235744 10.5832
47.06849747711879 10.5787
47.09278263318286 10.5594
47.11725978640143 10.4862
47.14154944775105 10.4607
47.165841355555656 10.4669
47.1901355115306 10.4737
47.214621741924994 10.4357
47.23892041698887 10.4267
47.26322134538975 10.4054
47.28771440635075 10.3724
47.31201986422527 10.384
47.33632758061436 10.357999999999999
47.360637557241866 10.3264
47.38513974410611 10.284
47.40945426407847 10.2639
47.43377104948137 10.2862
47.45809010204344 10.2475
47.48260144275502 10.2152
47.506925052572285 10.1982
47.53125093475548 10.1924
47.55557909103813 10.1713
47.58009961361992 10.1416
47.60443234110732 10.1355
47.62876734791564 10.1294
47.65310463578333 10.0986
47.6776343683373 10.1009
47.7019762413987 10.0237
47.72632040075572 10.0123
47.75066684815169 10.0081
47.77520581885936 10.0
47.799556865477655 10.0378
47.823910205386 10.0242
47.84826584033272 9.978530000000001
47.87281407745551 9.91531
47.89717432569297 9.91743
47.92153687423484 9.89657
47.94609208429692 9.86552
47.97045925671401 9.88308
47.99482873471275 9.81503
48.01920052005013 9.839089999999999
48.04376504619224 9.81514
48.068141469543484 9.78432
48.09252020552573 9.783719999999999
48.11690125590099 9.78154
48.1414751266064 9.77023
48.16586082917454 9.73907
48.19024885144316 9.68795
48.2146391951793 9.73156
48.239222439012764 9.69758
48.26361744916137 9.64002
48.28801478610016 9.61962
48.31241445160131 9.59759
48.337007097209366 9.59735
48.36141144338331 9.60019
48.38581812345755 9.54657
48.41022713920929 9.54495
48.434829215320704 9.52975
48.45924292604658 9.534239999999999
48.48365897780325 9.568810000000001
48.50807737237308 9.46946
48.532688907799276 9.44807
48.55711201168574 9.43008
48.581537463754074 9.440430000000001
48.60615611725119 9.45176
48.63058628942721 9.38176
48.65501881516546 9.34044
48.6794536962573 9.37902
48.70408185970339 9.33398
48.72852147531801 9.33123
48.75296345168211 9.28682
48.77740779059232 9.29849
48.80204549302823 9.28202
48.82649458091802 9.28312
48.85094603676547 9.25971
48.87539986237231 9.23691
48.90004713292306 9.21546
48.92450572200832 9.189160000000001
48.94896668628025 9.14038
48.97343002754588 9.131689999999999
48.99808689542115 9.13308
49.02255501470614 9.131089999999999
49.04702551642794 9.106060000000001
49.0714984023988 9.077960000000001
49.096164896893235 9.051730000000001
49.120642575466796 9.03341
49.145122643748394 9.00075
49.16960510355558 9.00487
49.19428125404938 9.00201
49.2187685210852 8.987810000000001
49.243258185121555 8.93875
49.26794160167084 8.9489
49.2924360839405 8.96382
49.31693296869764 8.919780000000001
49.34143225776915 8.8992
49.36612538195438 8.87098
49.39062950396021 8.83102
49.41513603578346 8.862789999999999
49.4396449792564 8.81652
49.46434784069503 8.8223
49.488861631846454 8.8203
49.513377840166804 8.823039999999999
49.537896467493745 8.74503
49.56260909589029 8.71008
49.587132585683285 8.74094
49.611658500018365 8.74124
49.636186840738596 8.67709
49.66090926588511 8.654010000000001
49.685442483902584 8.63448
49.70997813385706 8.6298
49.734516217597076 8.59613
49.75924846937352 8.59806
49.7837914452858 8.57772
49.80833686055187 8.54846
49.83288471702571 8.56122
49.85762682540054 8.561910000000001
49.882179588965734 8.543339999999999
49.9067347993235 8.47972
49.93129245833333 8.477730000000001
49.95604445336378 8.517000000000001
49.98060703442832 8.48761
50.005172069746266 8.4344
50.02993150438364 8.42389
50.05450147301533 8.413310000000001
50.07907390151433 8.40356
50.10364879174981 8.37055
50.12841816587289 8.353580000000001
50.1529980044635 8.34464
50.17758031042124 8.30021
50.20216508562089 8.311639999999999
50.22694442953363 8.28701
50.25153416817468 8.26342
50.27612638170508 8.26812
50.300721072005196 8.21273
50.325510416102105 8.24586
50.350110084975064 8.22713
50.37471223628208 8.2168
50.39931687190919 8.18022
50.424116246675766 8.18073
50.44872587605249 8.194510000000001
50.47333799543065 8.15528
50.49795260670191 8.122630000000001
50.52276204271512 8.10488
50.54738166295838 8.09211
50.57200378079314 8.08382
50.596628398116835 8.064960000000001
50.62144792604559 8.05288
50.646077567609396 8.02928
50.670709714377715 8.05776
50.69553683636198 8.01233
50.72017401885922 7.97808
50.7448137122895 7.94533
50.76945591856022 7.9595
50.79429318636823 7.9511
50.818940443716784 7.901619999999999
50.84359021965163 7.894419999999999
50.868242516085964 7.90263
50.893089960641895 7.891830000000001
50.917747323549435 7.89775
50.94240721271973 7.85169
50.96706963007175 7.81146
50.99192728239342 7.81424
51.01659478166073 7.828939999999999
51.04126481489051 7.80077
51.06593738400761 7.80985
51.090805275207074 7.778810000000001
51.11548294172845 7.7533199999999995
51.14016314993547 7.70755
51.164845901758845 7.7175199999999995
51.18972406304274 7.696289999999999
51.21441192780656 7.6786
51.23910234200271 7.69228
51.2637953075678 7.636760000000001
51.288683770237945 7.60912
51.31338186432707 7.5933399999999995
51.33808251561888 7.6009899999999995
51.362978729967345 7.600169999999999
51.387684521509755 7.60158
51.41239287610203 7.5620899999999995
51.437103795691165 7.5143699999999995
51.46201036644977 7.502610000000001
51.486726441956634 7.50568
51.51144508832545 7.5350600000000005
51.536166307509156 7.4757
51.56108326624387 7.45287
51.58580965706056 7.4724699999999995
51.61053862657523 7.439210000000001
51.635270176746864 7.380489999999999
51.66019755512065 7.395510000000001
51.68493429268881 7.408410000000001
51.70967361681515 7.39012
51.73441552946465 7.376989999999999
51.759353359237934 7.3520199999999996
51.7841004750961 7.31375
51.80885018539685 7.2775300000000005
51.833602492111254 7.27067
51.8585508051424 7.25082
51.883308330926425 7.30192
51.90806845906181 7.2607800000000005
51.932831191525715 7.2301
51.95779001977161 7.25587
51.98255798721516 7.18164
52.00732856494335 7.13735
52.03229530577543 7.17046
52.057071130455945 7.147760000000001
52.081849571391054 7.1334
52.106630630568695 7.13939
52.13160794279417 7.11145
52.15639426492067 7.09607
52.18118321127822 7.087789999999999
52.205974783860896 7.06133
52.23096269971011 7.0475
52.255759551287994 7.06485
52.280559035098186 7.00188
52.30536115314103 7.007219999999999
52.33035970494467 6.99713
52.35516711807904 6.991960000000001
52.37997717147198 6.95255
52.40478986713005 6.968189999999999
52.42979908731974 6.919630000000001
52.454617094216 6.93197
52.47943774942214 6.93624
52.50426105495102 6.86163
52.529280976059844 6.88167
52.554109609024096 6.8848899999999995
52.57894089837482 6.86033
52.60377484613117 6.83777
52.62880550079408 6.83197
52.65364479223379 6.84318
52.67848674816189 6.79972
52.70352547971946 6.81233
52.72837279155837 6.76957
52.753222773982785 6.759989999999999
52.778075429022984 6.72895
52.80312495150885 6.6857
52.827982978797436 6.7244600000000005
52.85284368481815 6.70715
52.87770707160767 6.668589999999999
52.90276741793998 6.6238600000000005
52.92763619336701 6.636939999999999
52.952507655698504 6.6509100000000005
52.977381806977576 6.61615
53.00245301017842 6.601030000000001
53.02733256653592 6.60198
53.052214817996074 6.586539999999999
53.077099766608484 6.5535
53.102181859804446 6.54862
53.127072229988265 6.57786
53.15196530349892 6.52541
53.17686108239249 6.48224
53.20195409881522 6.504569999999999
53.22685531582556 6.50924
53.25175924441303 6.47633
53.27666588664027 6.45472
53.30176985962693 6.47159
53.3266819565689 6.41221
53.35159677336455 6.39869
53.376514312083096 6.44454
53.40162927507703 6.397130000000001
53.42655228516116 6.3926
53.45147802340193 6.36201
53.47660125628886 6.30885
53.50153247842639 6.30764
53.52646643496923 6.30704
53.55140312799818 6.28261
53.576537409691696 6.3160099999999995
53.60147960336152 6.3208400000000005
53.626424539786164 6.26538
53.65137222105307 6.19648
53.67651758529126 6.21195
53.70147078399681 6.20862
53.72642673383343 6.205830000000001
53.75138543689533 6.19906
53.776541917524526 6.18735
53.801506154876755 6.18509
53.826473151763246 6.1771199999999995
53.851442910284916 6.19281
53.87661054126026 6.13604
53.9015858509782 6.12941
53.92656392866066 6.10272
53.95154477641532 6.12251
53.976723591801296 6.05503
54.00171000771266 6.07399
54.02669920004598 6.07966
54.051691170915745 6.07395
54.076881204886796 6.04195
54.101878760928514 6.00143
54.12687910187696 6.01072
54.152077577768296 5.99878
54.1770835166946 5.93766
54.20209224691339 5.96516
54.22710377055121 5.93765
54.25231352511594 5.91461
54.27733066384342 5.91062
54.30235060239643 5.88161
54.32737334290836 5.89387
54.35259441062629 5.84039
54.377622783395324 5.87248
54.40265396455061 5.83182
54.42768795623251 5.8028
54.45292037169559 5.76532
54.477960012857906 5.7624
54.50300247099511 5.72741
54.52804774825457 5.75631
54.55329154616743 5.744730000000001
54.57834249018678 5.687930000000001
54.6033962597977 5.67291
54.6284528571545 5.66708
54.653708072335164 5.6126
54.67877035378786 5.65701
54.70383546947698 5.61642
54.72890342156389 5.65013
54.7541700889442 5.52653
54.77924374251975 5.52902
54.8043202390049 5.52988
54.82959552413022 5.4993300000000005
54.8546777351945 5.47195
54.87976279569621 5.41747
54.90485070780914 5.45359
54.930137506558005 5.409
54.95523115074295 5.47835
54.98032765308844 5.35515
55.005427015775496 5.35576
55.03072536339621 5.368469999999999
55.05583047570572 5.3231
55.080938454927676 5.290719999999999
55.10604930325027 5.31503
55.131359235107396 5.32311
55.15647585066083 5.21668
55.181595341907496 5.23414
55.20671771104285 5.274290000000001
55.232039262617704 5.17854
55.25716741665048 5.18722
55.28229845518636 5.1478
55.30743238042802 5.11142
55.33276558731939 5.09695
55.357905315183636 5.05575
55.383047936390035 5.00876
55.40819345314859 5.00185
55.433538351073295 5.0131
55.458689688238415 4.96739
55.483843927614096 4.974880000000001
55.509197623043605 4.93034
55.53435769621134 4.88328
55.55952067826466 4.84504
55.5846865714265 4.89615
55.61005202069737 4.88243
55.63522376553902 4.8539900000000005
55.66039842818645 4.82794
55.68557601087004 4.78867
55.7109532500271 4.73833
55.73613670233794 4.7813099999999995
