TT I
1.2716486653135266 6.89549
1.2939594142134223 7.24183
1.3162702121660406 7.06084
1.3385810600174564 7.16067
1.3608919586137629 7.0167
1.383202908801069 6.40669
1.405513911425503 6.54114
1.4278249673332093 5.92474
1.4501343378461518 5.39155
1.4724455028545926 5.5689400000000004
1.4947567236847858 5.83812
1.517068001182951 5.44934
1.5393793361953272 5.9778
1.5616907295681737 6.069
1.5840021821477681 5.845280000000001
1.60631369478041 5.30523
1.6286252683124185 5.01502
1.6509369035901333 5.03102
1.6732468618895553 4.6525
1.695558623192809 4.83451
1.7178704487808514 5.02905
1.7401823395001077 4.2987400000000004
1.7625012545597203 4.94297
1.7848028405262486 4.96481
1.8071218901122095 4.8306
1.8294236121921872 4.58322
1.8517427996910911 4.6327300000000005
1.8740620574440425 4.56749
1.8963639900671978 4.50559
1.9186833908139995 4.2483900000000006
1.9409854680117449 4.23904
1.9633050151394713 4.648630000000001
1.9856246367570705 4.85365
2.0079269371922672 4.33826
2.03024671027244 4.08862
2.0525491637446027 4.53011
2.074869091674931 4.45766
2.097171701569106 4.93763
2.1194917877373847 4.694030000000001
2.141811954326636 4.38709
2.164114805233074 4.4147300000000005
2.186435135143035 4.75631
2.208738150935709 5.82595
2.231058647554722 7.17405
2.2533792288321184 6.465
2.275682498336085 5.70832
2.298003251406138 5.020980000000001
2.3203066942619714 5.237019999999999
2.3426276225136022 5.70418
2.3649486396617507 5.696359999999999
2.387252348930071 5.535419999999999
2.4095735463442893 6.21099
2.4318774374315884 6.32459
2.4541988185014043 6.62668
2.476502894794693 7.069719999999999
2.498824462909887 6.34058
2.521146125856138 7.02712
2.5434504863470337 7.5965
2.5657723414244717 7.98685
2.588076895590662 8.67319
2.610398946189713 8.79209
2.6327210958598384 8.23471
2.6550259469304716 7.57021
2.6773482972090137 7.89535
2.6996533504259 8.524939999999999
2.7219759047039602 8.96241
2.744298562293959 8.18256
2.7666039251246595 8.27281
2.7889267918020164 8.48902
2.8112323652516555 8.77459
2.833555444408179 8.51699
2.8558786311183852 8.43975
2.8781845268938557 8.66575
2.9005079311721484 8.85357
2.9228140460410397 8.646239999999999
2.9451376712799635 9.08165
2.967444008632326 9.09143
2.9897678582247247 9.335989999999999
3.0120918213106695 10.06
3.0343984987899373 10.8469
3.0567226913198637 11.1333
3.079029599759726 11.636
3.101354025127254 11.4081
3.123678568232338 12.3859
3.145985829517914 12.3989
3.16831061055229 13.1774
3.1906181112775593 13.8563
3.212943133635653 14.847000000000001
3.2352682779763207 14.6073
3.2575761442691227 14.8889
3.2799015350264273 14.9483
3.302209649240067 15.8771
3.3245352898092655 16.3765
3.3468436553365257 16.7467
3.369169549113219 17.125999999999998
3.3914955708171384 18.1085
3.413804319727358 18.4124
3.4361305997334863 18.7448
3.4584396084414553 19.1808
3.4807661501462652 19.4494
3.503092824025881 20.0262
3.5254022288463154 20.7427
3.5477291695206588 21.4261
3.5700388426251948 21.646
3.5923660534916446 21.9588
3.6146934007816114 23.4787
3.637003482731501 28.3801
3.6593311053109985 29.7745
3.681641464033634 26.6173
3.7039693653009733 24.5667
3.726297407241705 24.6063
3.7486081875460804 24.5885
3.7709365132734978 25.3303
3.793247578841633 25.7712
3.8155761917550093 25.791999999999998
3.8378875459837216 26.4775
3.8602164494827234 26.5161
3.882545499606844 27.3275
3.9048572932539183 28.644000000000002
3.9271866390645718 28.6696
3.9494987298666713 29.0588
3.971828374764527 29.6462
3.9941581705403255 30.1885
4.016470713506008 30.7253
4.038800813471445 31.5039
4.061113662089144 31.7536
4.0834440696459176 32.5927
4.105774632334751 32.8376
4.128087945865126 33.8595
4.150418821249301 33.9789
4.172732448931298 34.7338
4.195063640413578 35.3254
4.2173775856475215 36.6194
4.239709096631102 39.5555
4.262040768704612 55.111999999999995
4.284355196706267 64.3194
4.306687193387355 55.3793
4.329001947444346 44.4449
4.35133427213731 42.1362
4.373666762177566 42.0774
4.395982011761091 42.7267
4.418314834921175 44.1386
4.44063041906622 45.0164
4.4629635787515625 47.1189
4.4852969080429785 48.56100000000001
4.5076130004776225 49.854
4.529946671403969 53.9011
4.552263106909177 56.9224
4.574597122877047 55.1317
4.596931312711224 53.2295
4.619248269273446 53.3525
4.6415828092605835 54.4449
4.663900117405352 55.2364
4.686235010953232 56.672
4.708552674085913 57.7265
4.730887924602802 59.7513
4.753223354952695 61.6651
4.775541557023902 63.9482
4.797877349456786 66.6692
4.820195915032126 67.794
4.842532072957498 67.67399999999999
4.864868414979744 70.4902
4.88718753227192 74.2587
4.909524244902505 76.2048
4.931843734218147 75.6287
4.954180820867835 77.7718
4.976518095879839 80.4176
4.998838149695359 83.1879
5.021175803844231 87.15700000000001
5.043496238205739 89.8404
5.065834274903528 94.1196
5.088172504230693 98.7211
5.1104935158799565 104.42
5.132832132875765 116.375
5.155153533596801 135.218
5.1774925416746225 173.56400000000002
5.199814334878411 380.285
5.2221537374521505 1040.4
5.244493338631803 2871.55
5.266815727034316 8117.71
5.289155727832427 13887.1
5.311478517248165 8509.5
5.333818921080011 2305.7
5.356159527788849 424.91900000000004
5.3784829252032536 177.524
5.400823940070432 144.157
5.423147747031976 125.426
5.445489173474152 116.93799999999999
5.467830807066149 116.663
5.490155234831516 115.741
5.512497285125229 110.068
5.534822130975162 104.76
5.557164601388673 101.75299999999999
5.579489868738879 98.57799999999999
5.601832762690846 97.5333
5.6241758697774475 95.73299999999999
5.646501775867269 95.7411
5.668845311622074 94.9823
5.691171647754637 93.7011
5.713515615597765 92.59100000000001
5.735859800852677 92.5576
5.758186788542988 93.8641
5.780531411018185 96.2962
5.802858837297399 95.6932
5.825203900414495 95.7628
5.8475491852224 98.5591
5.869877275883075 97.0129
5.892223006467101 95.0563
5.914551544266608 94.2193
5.936897724049891 97.2422
5.959244129804903 104.007
5.981573344815301 131.716
6.0039202049061 246.93400000000003
6.026249875609095 489.54900000000004
6.04859719346037 978.2389999999999
6.070927323278297 2272.54
6.093275102315365 4818.73
6.115623113320588 5590.95
6.137953938319995 2866.75
6.160302415650845 746.295
6.182633708324452 178.417
6.2049826554078376 101.633
6.227331838745022 87.0129
6.249663839443684 81.4576
6.27201349767565 78.1918
6.294345974611799 76.8385
6.316696111167083 75.5618
6.339046488263839 74.0583
6.361379686074702 70.8961
6.383730546639482 69.3488
6.406064229255215 68.5302
6.428415576718203 69.2225
6.450749747566656 68.0439
6.47310158535871 65.6982
6.495453669698332 64.6512
6.517788579421056 63.7185
6.540141159237969 62.8405
6.562476565766648 62.2925
6.5848296444934045 61.9902
6.607182974060425 62.4217
6.6295191323281015 61.2147
6.651872965955752 60.5581
6.6742096296068985 61.6662
6.6965639707294615 65.7823
6.71891856698715 65.6664
6.741255995248479 61.4454
6.763611104154477 58.2876
6.785949046381137 57.3942
6.808304671371482 57.6411
6.8306605557940046 58.6173
6.852999275508618 58.2303
6.875355681171544 56.6903
6.897694923437771 55.8006
6.92005185377892 55.7887
6.9423916220322655 55.2789
6.964749080490181 54.8877
6.987106804399774 55.178999999999995
7.009447368180821 55.312
7.031805625367033 54.6357
7.054146723727803 54.1863
7.076505517631004 54.0069
7.098864581288365 54.0772
7.121206488070854 53.4744
7.143566093607822 53.9363
7.165908543567245 54.7319
7.188268694426048 54.5186
7.2106291193438095 53.6066
7.232972390625943 53.1291
7.255333366030969 53.931999999999995
7.277677189091925 58.3465
7.300038718428332 63.3599
7.322400526130865 61.4887
7.344745183422596 56.685
7.367107550224791 53.8432
7.389452767901992 53.5217
7.411815697249891 53.3017
7.434161478756298 53.0099
7.456524974096713 52.9202
7.478888753837185 52.99
7.501235387657368 53.7207
7.523599738562711 54.9232
7.545946944825532 56.4892
7.568311870344528 57.69
7.5906770845765665 56.1073
7.613025156078678 54.8043
7.635390950099687 55.0218
7.657739602662809 54.7287
7.680105979923558 55.2179
7.702472650212829 55.9077
7.724822180948224 55.6225
7.747189439655568 55.522
7.769539560075357 55.4009
7.791907410653562 55.6816
7.81425812420825 55.725
7.836626570110925 56.0011
7.858995315087906 56.8889
7.881346924933401 56.9944
7.903716270417482 57.6367
7.926068482028405 57.9803
7.948438431475253 58.6078
7.9708086843180235 59.2017
7.993161805171116 59.7724
8.015532667162402 60.1636
8.037886398416653 61.0828
8.060257873014221 61.5687
8.082629655331942 62.3289
8.104984308787587 62.792
8.127356708900503 64.5997
8.149711981398308 67.4543
8.172085002766314 68.9137
8.194458336181368 68.0485
8.216814543847752 67.7467
8.23918850371002 69.0008
8.26154533906492 69.6376
8.283919928836452 71.0787
8.306277395339652 72.2014
8.328652618483376 73.4321
8.351028159736202 75.6845
8.373386579575245 77.8819
8.395762759396959 79.4927
8.418121819038275 82.2598
8.440498640894003 86.8403
8.462875785192262 96.5077
8.485235811156207 123.37899999999999
8.507613602688501 182.305
8.529974277114228 275.586
8.552352719347912 407.751
8.574731488360351 671.096
8.59709314210385 1265.06
8.619472567021075 2075.43
8.64183487789147 2376.99
8.664214962183097 1738.16
8.686577933647762 806.298
8.708958680784317 290.754
8.731339760774953 136.70600000000002
8.753703729764451 103.78
8.77608547780821 95.9005
8.798450116065078 93.2222
8.820832535634787 90.9822
8.843215292401656 91.0523
8.865580941199045 91.0965
8.887964374703538 90.56
8.910330701447199 89.666
8.932714815164482 89.4617
8.955099270424924 86.5553
8.977466620733543 85.1102
8.999851761421976 84.3277
9.022219798361645 83.7411
9.04460562795561 83.3862
9.066991803441677 83.2128
9.089360876979615 83.3938
9.111747746589993 83.815
9.13411751544971 82.3845
9.156505082664324 81.8636
9.178875550323522 81.7862
9.20126381862328 82.1441
9.223652438908596 84.4257
9.246023961427412 86.6028
9.26841328802173 87.2665
9.290785518039224 85.3586
9.313175554425882 84.9381
9.335565947154315 85.2485
9.357939245086508 85.9013
9.380330352834827 84.6863
9.40270436697103 84.8428
9.425096193225055 84.4703
9.447488380180165 84.9409
9.469863475295412 84.3369
9.492256385987508 84.6137
9.514632206018318 84.6976
9.537025843935714 85.1367
9.559402392368193 86.1805
9.581796761000229 88.8053
9.604191496441521 90.7741
9.626569144158516 91.7282
9.648964615551032 92.289
9.671343000390081 91.6719
9.693739211225699 91.8431
9.716135793237463 91.3402
9.738515290448102 92.3149
9.760912617143402 93.8651
9.783292860202891 96.2255
9.805690935076182 98.0669
9.828089385495742 98.456
9.850470754023561 99.83
9.872869957865444 101.802
9.89525208097539 105.61
9.917652041736662 110.555
9.940052382417589 120.93700000000001
9.962435644102392 150.542
9.984836746950979 197.808
10.007220771957746 263.903
10.029622640473708 371.583
10.052007432299963 555.2230000000001
10.074410069984072 855.988
10.096813093716005 1351.08
10.119199042482517 1920.87
10.141602840636468 2027.14
10.163989564971628 1457.96
10.186394141051062 739.45
10.208799107559706 305.782
10.231187001965623 157.525
10.253592751657669 117.41
10.275981430388155 108.61
10.298387966769793 105.947
10.320794897965431 105.15700000000001
10.343184759907361 104.12700000000001
10.36559248305461 103.09
10.387983138083852 104.27600000000001
10.410391656691655 111.62
10.432800574501677 124.33
10.455192425893369 141.623
10.47760214443012 168.857
10.499994797678786 215.32
10.522405320453982 298.699
10.54479877906917 427.215
10.567210109595656 555.8290000000001
10.5896218454736 596.5930000000001
10.612016518879773 477.881
10.634429067781074 290.45099999999996
10.656824555333241 167.74200000000002
10.679237920773568 111.66
10.701651695961992 93.2637
10.724048411481384 88.4199
10.746463008485165 85.5354
10.768860546937125 84.0154
10.791275969274796 82.23
10.81369180576079 81.2836
10.836090585366925 80.0162
10.858507252467449 79.1319
10.88090686379991 78.3383
10.903324365036394 77.6064
10.925724811614439 76.5413
10.948143150509463 76.8169
10.970561909719066 75.9605
10.992963615930844 75.2862
11.015383218085756 74.0407
11.037785768347074 72.9062
11.06020621697282 71.7603
11.082627090322113 71.3277
11.105030913430326 70.6256
11.12745263854165 70.2157
11.149857314510728 69.8368
11.172279894912576 70.502
11.194702904450653 69.67
11.217108866490921 68.6821
11.239532736615194 67.7004
11.26193956033512 67.4285
11.284364294577085 67.0601
11.306789462371718 66.4301
11.329197585398376 66.0752
11.351623622610898 66.1974
11.37403261614354 65.1528
11.396459526308487 65.2557
11.418869393879497 64.6213
11.441297180532617 64.5377
11.463725406927658 64.208
11.486136592353875 63.8783
11.508565700543707 63.6565
11.530977768845315 63.6197
11.553407762368774 63.668
11.575838200059769 63.7626
11.598251599479612 63.2927
11.620682927815501 62.8278
11.64309721895548 62.9259
11.665529441478206 62.338
11.687962112597958 62.196000000000005
11.710377748130886 62.2586
11.732811318753434 62.089
11.755227854859067 62.0692
11.777662328529495 62.1183
11.800079768750786 61.7085
11.822515149015453 62.0188
11.844950984084935 62.4959
11.867369787303163 62.0789
11.889806534289491 61.7792
11.912226250487029 62.4949
11.934663912939751 63.1577
11.9571020346363 63.7562
11.979523127133968 64.0144
12.001962169624331 64.6668
12.024384183972964 66.0463
12.046824150809913 69.3043
12.069264581333726 74.0895
12.091687985297767 80.5709
12.11412934550045 90.2049
12.136553680195208 105.49700000000001
12.158995973632788 129.224
12.181438735204349 159.563
12.20386447284199 197.043
12.226308172985636 208.572
12.24873485024193 192.1
12.271179492516982 150.005
12.293607112949127 109.17299999999999
12.316052700916226 82.2509
12.338498763250042 69.0396
12.360927805303868 64.7003
12.383374818673879 63.5661
12.405804812803074 63.2998
12.428252780773262 63.1173
12.45070122756722 63.1852
12.473132656675375 63.325
12.49558206341869 63.8328
12.518014453510101 64.1814
12.540464823770117 64.1775
12.562915677315177 64.0913
12.58534951575545 64.0029
12.607801338171472 64.1437
12.630236146511358 65.1281
12.652688941369085 65.7669
12.675124723177234 66.435
12.697578494048786 66.3934
12.720032754458185 66.4633
12.742470003354093 66.6471
12.764925245138771 66.9331
12.787363476431278 67.4961
12.809819703166806 67.9204
12.83227642391173 68.7777
12.854716135692716 69.1386
12.877173846755147 70.488
12.899614549869717 71.0316
12.9220732548287 71.8344
12.94453245827299 72.5008
12.966974655289818 73.4547
12.989434858002571 74.0587
13.011878055298721 74.8655
13.034339260862497 76.1453
13.056800969391883 77.3351
13.079245674017244 80.2616
13.101708390774869 85.069
13.12415410463411 93.7305
13.146617833206086 104.012
13.169064559883248 115.031
13.191529303857127 130.233
13.213994557076367 153.411
13.236442809902437 191.014
13.258909083908291 251.612
13.28135835851934 325.495
13.30382565690295 406.25
13.326293469022952 455.035
13.348744283242008 420.31300000000005
13.371213125129904 327.685
13.39366497011003 221.26
13.416134845360597 148.434
13.438605238843131 112.759
13.46105863690397 104.348
13.483530069144786 106.936
13.505984506951902 113.279
13.528456981549432 124.579
13.550929978879088 139.954
13.573385983253365 164.65400000000002
13.595860028340867 203.71
13.618317081455832 258.46299999999997
13.64079217790333 326.914
13.663250283359057 380.515
13.685726434770173 389.884
13.708203115221277 328.039
13.730662806148091 239.97299999999998
13.75314054697177 163.35
13.775601299246777 113.602
13.798080104050406 90.6698
13.820559442405358 83.0574
13.843021793671388 80.5094
13.865502201420897 79.0707
13.887965623051947 78.7409
13.910447103807167 77.7346
13.932929122629764 76.5714
13.955394156785959 76.2586
13.977877254034569 75.2668
14.000343367582113 74.5106
14.022827546871707 73.7733
14.045294743423524 73.2715
14.06778000837062 72.3969
14.090265817715476 72.3279
14.112734645763819 72.3243
14.13522154619454 71.9772
14.157691466286913 71.9247
14.180179461423874 71.8934
14.202668005486178 71.1943
14.22513957064374 70.6492
14.247629214846473 69.991
14.270101881097517 69.5194
14.29259262906496 69.1533
14.315083930490205 69.0914
14.337558255389705 69.3519
14.360050666019726 69.1542
14.382526101071944 68.628
14.405019624534942 68.5768
14.427513705993134 68.3498
14.449990813291825 68.4122
14.47248601302899 68.0969
14.49496423954951 68.3179
14.517460561197822 68.2586
14.539939910570322 68.4793
14.562437357763558 68.5118
14.58493536931253 68.6344
14.607416409993311 68.7992
14.62991555254159 69.3414
14.652397725157423 69.3805
14.674898002342799 69.5994
14.697398848433282 70.2276
14.719882725991326 71.5639
14.74238471217934 73.5933
14.764869730765593 77.3739
14.787372860692983 80.4373
14.809876564079925 85.2553
14.83236330125751 91.6777
14.854868153850365 100.63
14.877356041159485 114.564
14.899862046604186 133.153
14.922351087688757 160.584
14.944858249632887 195.78
14.967365991421232 222.935
14.989856770231246 232.082
15.012365673994204 215.393
15.03485761569738 176.708
15.05736768508665 132.297
15.07987833888692 102.586
15.102372032001655 84.3597
15.124883856909658 73.9743
15.14737872204565 71.1769
15.169891721717274 69.5955
15.192405310371893 69.1682
15.214901940621196 68.7855
15.237416709527137 68.1843
15.259914520936249 68.0207
15.282430473753607 67.3106
15.304947020131227 66.7853
15.327446610371178 66.5469
15.349964346154254 66.0914
15.372465126703139 66.0036
15.394984055556009 66.0442
15.417486030076159 65.7404
15.44000615566487 65.2808
15.462526881230803 65.3651
15.485030653812652 65.1811
15.507552581617434 64.9577
15.530057557334603 65.1523
15.55258069104857 65.2924
15.575104429329837 65.7806
15.597611216864632 65.61399999999999
15.620136166564563 66.1556
15.6426441664095 68.0942
15.665170331202765 70.5295
15.687697105158826 73.6142
15.710206930593545 77.5432
15.732734925158933 81.8881
15.755245972089478 88.2703
15.77777519094324 97.7839
15.800287463046663 110.74
15.822817909869592 130.474
15.84534897229804 153.65200000000002
15.867863089299354 180.84599999999998
15.890395385222186 197.59799999999998
15.912910736597423 196.187
15.935444269699861 174.898
15.957978423016485 140.516
15.980495633101265 108.35700000000001
16.003031029129367 84.8635
16.02554948280019 70.8725
16.048086125229432 64.8606
16.070623392487107 62.903
16.09314371869582 61.8661
16.11568223789321 60.8415
16.13820381691126 60.0653
16.160743591742527 59.7969
16.183283996022084 59.233999999999995
16.205807461423195 58.6404
16.228349126881973 58.2655
16.25087385432698 58.074
16.27341678466365 57.5396
16.29594277784926 57.2279
16.31848697676433 56.9356
16.341031811604868 56.4856
16.36355971058487 56.4577
16.3861058195587 56.3467
16.40863499352978 55.7825
16.431182380342005 55.4867
16.453730407713202 55.1332
16.476261501364792 54.9597
16.498810812136167 54.8249
16.52134319004079 55.0426
16.54389378792203 54.8765
16.566445031001553 54.6881
16.588979342490088 54.5286
16.61153187824822 54.4057
16.634067483263312 54.0145
16.656621315414416 54.1316
16.679175797408888 53.9885
16.701713349928728 53.8904
16.72426913389191 54.2083
16.74680798922351 54.0238
16.76936507887444 53.9973
16.791905240734874 54.0555
16.814463639794468 53.9383
16.837022695210294 54.0632
16.859564824093756 54.256
16.882125194503903 54.2571
16.904668639217885 54.3799
16.927230328348003 54.5218
16.949792678493612 54.7663
16.972338104193863 54.5689
16.994901778652235 54.708999999999996
17.017448529496576 55.0657
17.040013531998152 55.4521
17.06257920018044 56.2845
17.0851279459922 57.0573
17.107694947817667 57.843
17.130245028099072 58.7158
17.15281336730298 59.7105
17.17536478578733 61.3969
17.19793446610687 64.0033
17.220504818648422 66.9469
17.243058251703697 70.3218
17.265629950971032 75.3933
17.288184731571736 80.5822
17.310757781306908 83.9083
17.33333150794385 83.3748
17.355888317140174 80.1691
17.37846339986244 73.6146
17.401021565958885 67.6948
17.42359800851343 62.8443
17.44617513265564 60.231
17.468735341390783 59.2032
17.491261035594565 58.5684
17.51396340099364 58.5216
17.536490463869136 58.5374
17.559018209820174 58.6459
17.58154663977963 58.4961
17.604251766089718 58.906000000000006
17.626781572227713 59.1366
17.64931206518155 59.3263
17.671843245885103 59.6379
17.69455114821572 59.6963
17.717083712612634 60.0792
17.739616967569667 60.4728
17.762150914021706 61.0683
17.78486160749854 61.5189
17.807396945166804 62.2275
17.829932977143503 63.6725
17.85246970436452 65.1018
17.875183204129467 66.7806
17.897721330097664 68.7878
17.920260154126645 71.3224
17.942799677153296 74.5767
17.9655159983646 78.4992
17.988056927677544 83.8391
18.010598558807683 91.7395
18.033140892692916 102.145
18.05586005052525 114.729
18.07840379824407 128.1
18.10094825154059 138.583
18.12366954819864 142.53799999999998
18.146215420998306 137.305
18.16876200220057 125.057
18.191309292745153 109.186
18.214033452627167 96.3927
18.236582170236648 87.2114
18.259131600016456 84.2661
18.281681742907335 85.9544
18.304408781233683 91.2565
18.32696035875955 97.4706
18.349512652227624 102.665
18.372065662579683 106.149
18.394795594587553 105.084
18.41735004715306 98.8196
18.43990521943684 89.9094
18.46246111238171 81.2187
18.485193953325208 72.3499
18.507751296070428 66.8405
18.530309362314178 64.0149
18.552868153000343 62.523999999999994
18.57560391815056 61.5515
18.59816416623245 61.0842
18.620725141597372 60.5698
18.643286845190268 60.2169
18.666025549835414 59.8064
18.688588718427933 59.0846
18.711152618092243 58.8022
18.73389353884365 58.7949
18.75645890921984 58.3349
18.77902501351406 58.0626
18.801591852673102 58.0135
18.824335739722738 57.5601
18.846904057212626 57.3476
18.8694731124168 57.0945
18.89204290628315 57.2423
18.914789774966803 57.0584
18.937361054791623 56.7688
18.959933076131318 56.6276
18.982505839934877 56.4204
19.00525570560582 56.3157
19.027829963004184 56.1288
19.05040496572238 56.4749
19.072980714710468 56.5078
19.095733592739563 56.7153
19.11831084296757 56.5529
19.140888842324735 56.9505
19.16346759176222 57.3966
19.18622349753803 58.1285
19.208803755869358 58.9493
19.231384767143577 60.2015
19.253966532312948 61.9119
19.276725481241822 63.9636
19.29930876296784 66.6674
19.3218928014549 69.8795
19.34465404436217 72.6761
19.36723960516257 74.9919
19.389825925592426 75.3967
19.412413006605938 73.1139
19.43517731967805 68.5449
19.457765930683355 64.3047
19.48035530514408 60.0554
19.50294544401556 57.1406
19.525712842708348 55.1719
19.54830451925909 54.133
19.570896963095727 53.3652
19.593490175174704 53.0932
19.616260674962184 53.2425
19.638855432416964 52.9262
19.661450960992624 53.1213
19.68404726164677 52.9228
19.706820878021247 52.7673
19.729418731756834 53.042
19.752017360452857 52.8117
19.77461676506804 53.2142
19.797393513540218 53.2766
19.819994478951667 53.5272
19.84259622316767 54.0829
19.8651987471481 54.3766
19.887978643247177 54.7683
19.91058273574792 55.1027
19.933187610901943 55.7878
19.955969879466828 57.1676
19.97857632894404 58.7148
20.00118356396599 60.4771
20.023791585494575 62.88
20.046577028914875 66.0639
20.069186632506966 68.4812
20.091797025500632 70.0989
20.114408208858933 70.273
20.137196842715273 69.0747
20.159809615886765 66.619
20.18242318232135 63.6425
20.20503754298326 61.696000000000005
20.227829382875154 60.9519
20.250445341109344 61.4562
20.27306209647285 62.7109
20.29567964993108 64.3094
20.31847471147704 65.2714
20.34109387027612 65.6917
20.363713830075454 64.5155
20.386334591841646 62.2819
20.409132890679302 59.0574
20.431755265564437 56.093999999999994
20.454378445325528 53.5946
20.477002430930366 51.8402
20.499803982716553 50.9512
20.522429589228004 50.3033
20.54505600449589 49.821000000000005
20.567683229489194 49.74100000000001
20.590488049900088 49.6189
20.61311690359731 49.582
20.63574656993626 49.4341
20.658553853717297 48.992
20.681185154618298 49.0063
20.703817271080066 49.0463
20.72645020407368 48.7586
20.749260783967177 48.6385
20.771895359337133 48.5515
20.794530754161617 48.5039
20.817166969412938 48.5835
20.83998086114876 48.4975
20.86261872660049 48.3434
20.885257415405402 48.2802
20.90789692853701 48.1527
20.930714147864748 48.0105
20.953355319030678 48.1005
20.97599731745334 48.1751
20.99864014410749 48.0549
21.021460706796564 48.2041
21.044105199328826 48.3913
21.06675052302631 48.6602
21.089396678865015 48.659
21.112220600704806 49.0113
21.134868430275347 49.4795
21.15751709492456 49.7439
21.180166595629693 50.0951
21.202993892429635 50.7415
21.22564507473034 50.9172
21.24829709602816 51.0883
21.27112693608965 51.0432
21.293780644891275 50.9285
21.316435195634053 49.7891
21.339090589297417 49.2159
21.361923832041875 48.8603
21.384580921090404 48.2625
21.407238856007325 47.8916
21.429897637773326 47.8587
21.45273429906592 48.0178
21.475394784108598 48.0715
21.498056118951983 47.8676
21.520718304578022 48.2707
21.543558400304388 48.5229
21.566222297108816 48.5389
21.58888704765135 48.747
21.61155265291521 48.8876
21.63439619898156 49.4039
21.657063523335786 49.6719
21.67973170537063 50.1678
21.7024007460706 50.7802
21.72524775840385 51.5209
21.747918526116475 52.5396
21.770590155457388 53.7802
21.79326264741238 55.2962
21.816113141960237 57.2937
21.838787368860547 59.4085
21.861462461341976 61.5547
21.884315579735777 63.6979
21.90699241312273 64.5474
21.92967011506078 64.5002
21.95234868653799 63.0136
21.9752053151131 61.1773
21.997885635446785 59.1294
22.020566828293532 57.3422
22.04324889464272 56.0347
22.066109049404666 55.5068
22.088792872571794 55.5919
22.111477572219204 55.6818
22.1341631493376 55.9267
22.157026846313123 55.2755
22.179714188221507 54.1911
22.202402410582668 53.0353
22.22509151438863 51.4905
22.24795876962584 50.3621
22.270649646204486 49.513000000000005
22.293341407213727 48.8516
22.316034053646906 48.5338
22.338904883215342 48.3344
22.36159931041458 48.2471
22.38429462602756 48.1326
22.40699083104897 48.0833
22.429865251039757 47.9682
22.452563244831367 47.9554
22.47526213102522 48.1408
22.49813925616515 48.08
22.520839937143307 48.0558
22.543541513520587 48.1482
22.56624398629403 48.0658
22.589124730075895 48.0208
22.611829005656723 48.3394
22.63453418063466 48.3407
22.657240256008077 48.5429
22.680124634582935 48.6549
22.70283252079775 48.9317
22.725541310413075 49.4195
22.74825100442868 49.48
22.771139033969575 49.924
22.79385054687155 50.1306
22.81656296718292 50.7735
22.83927629590484 51.6202
22.862167992606945 52.605
22.88488314827121 54.1104
22.907599215359284 55.2297
22.93031619487366 56.1521
22.953211574954405 57.1003
22.975930389478226 57.6102
22.998650119445763 57.3056
23.02137076586092 55.953
23.044269845560063 54.39
23.06699233506288 52.6598
23.089715744034912 51.2879
23.112617610931565 49.7389
23.135342869061212 48.9291
23.158069049684816 48.3708
23.1807961538087 48.0779
23.20370174880544 48.2704
23.226430710184808 48.3507
23.249160598093425 48.461000000000006
23.271891413539002 48.5192
23.294800752937697 48.5794
23.31753343374794 48.6737
23.340267045128353 48.8665
23.36300158808808 49.1746
23.38591468821339 49.5615
23.408651104658304 49.8741
23.431388455719986 50.6136
23.454126742409 51.4436
23.4770436196085 52.5268
23.499783787914662 54.0364
23.522524894889884 55.273999999999994
23.54526694154616 56.4497
23.56818761219047 57.5802
23.59093154860734 57.8357
23.613676427751283 57.6635
23.636422250635754 56.2124
23.659346731118656 54.1344
23.68209445191868 52.0522
23.704843119509587 49.9258
23.72759273490623 48.2947
23.750521041644767 47.1698
23.77327256312355 46.3743
23.796025035462787 45.9184
23.818956224555475 45.50899999999999
23.841710609113413 45.4178
23.86446594758979 45.3304
23.887222241002014 45.1064
23.910157285144578 44.8025
23.932915498962537 44.7245
23.955674670778713 44.5571
23.978434801611975 44.3755
24.001373717286125 44.2717
24.024135776723917 44.1462
24.046898798245582 44.1291
24.06966278287146 43.9851
24.092605586582614 43.7719
24.115371508023642 43.5373
24.1381383956401 43.3883
24.16090625045381 43.4244
24.183852958731244 43.258
24.206622758582608 43.1065
24.229393528706886 42.9175
24.252165270127392 43.1689
24.27511589952438 43.0569
24.297889594216997 42.9647
24.32066426328598 42.7402
24.34343990775613 42.6583
24.36639447485003 42.4711
24.38917208083877 42.5932
24.41195066531332 42.6144
24.43490819850244 42.6673
24.457688750692377 42.3669
24.48047028445616 42.4443
24.503252800821233 42.5413
24.526214300784112 42.7019
24.548998793132213 42.589
24.57178427117417 42.5995
24.59457073593893 42.5021
24.617536219319863 42.4859
24.64032466834748 42.489
24.663114107195035 42.2887
24.685904536893013 42.007
24.708874020360852 41.9797
24.731666442613744 41.7969
24.754459858818787 41.7703
24.777254270007962 41.7303
24.80022777025625 41.6556
24.82302418230472 41.7392
24.845821592443674 41.7204
24.86862000170663 41.7698
24.891597535453727 41.7058
24.914397953892728 41.8998
24.93719937456671 41.7644
24.96000179851076 41.9922
24.98298338249997 42.1
25.00578782394922 42.4892
25.028593271784167 42.5037
25.05157790644186 42.8601
25.07438537804115 43.0659
25.097193859145293 43.4117
25.120003350792075 43.5926
25.142992065061257 43.8168
25.165803588823465 44.0849
25.18861612625217 44.2177
25.211429678386736 44.2181
25.234422489079968 44.3278
25.257238081693636 44.2302
25.280054692141732 44.4395
25.3028723214652 44.4899
25.325869245420463 44.5563
25.348688923599397 44.53
25.371509623787006 44.3429
25.394331347025812 43.9664
25.41733240110666 43.2959
25.440156181590016 42.4647
25.46298098826268 41.9851
25.48580682216873 41.5879
25.50881202326435 41.2586
25.53163992281684 40.8392
25.55446885274561 40.6129
25.577298814096377 40.3036
25.600308179121807 40.3026
25.623140214533745 40.4437
25.64597328451537 40.1537
25.66898578564376 40.0293
25.691820936010206 40.1096
25.714657124097695 40.0969
25.737494350954734 39.9872
25.760511045684957 39.9428
25.783350361364224 39.9559
25.806190718969255 40.1301
25.82903211955018 40.0969
25.852053024868923 40.0112
25.874896522722523 40.1222
25.897741066713106 40.0212
25.920586657892454 40.2704
25.943611790812668 40.4364
25.966459487728237 40.5201
25.989308234998564 40.6135
26.01215803367705 41.0315
26.03518741123814 41.2074
26.05803932412957 41.222
26.080892291600094 41.2324
26.10374631470478 41.2746
26.12677995397268 41.3452
26.14963609978026 41.3085
26.172493304397875 40.7527
26.19535156888223 40.5386
26.218389486949604 40.1248
26.241249882640123 40.0155
26.26411134137826 39.8403
26.28715248187403 39.8008
26.31001607820869 39.5878
26.3328807407756 39.5322
26.35574647063438 39.5749
26.37879191991473 39.7186
26.401659795896734 39.7752
26.424528742360263 39.8812
26.447398760366614 39.9352
26.470448535598294 40.1273
26.49332070826805 40.309
26.516193955675355 40.7226
26.53906827888316 40.9813
26.562122397260108 41.0838
26.584998883685063 41.5195
26.607876449110325 41.8118
26.63075509460056 41.7297
26.65381357334404 41.8921
26.67669439061878 41.7259
26.699576291163382 41.56100000000001
26.722459276044212 41.4176
26.745522132402975 41.0251
26.768407297649354 40.8492
26.791293550442003 40.4191
26.814180891848974 40.2308
26.837248143099337 40.0592
26.860137673466657 39.9326
26.88302829566349 39.6142
26.90592001075963 39.477
26.92899167420566 39.2697
26.951885586870763 38.8945
26.974780595655517 38.7039
26.99785558178161 38.663000000000004
27.020752794605112 38.6214
27.043651106772522 38.4698
27.06655051935668 38.4322
27.089629948036183 38.3926
27.112531573292053 38.2445
27.135434302194138 38.3016
27.158338135817015 38.1683
27.181422024430987 38.2874
27.204328079372566 38.0902
27.22723524226965 38.0813
27.250143514198573 38.1171
27.273231880156334 38.1229
27.296142382065014 38.0446
27.319053996245536 37.8244
27.341966723775965 37.9358
27.365059584515222 38.1709
27.38797455070062 38.0972
27.410890633481237 37.9932
27.433807833936918 38.0417
27.456905206923906 38.2085
27.47982465472398 38.1285
27.502745223449743 38.2897
27.525666914182825 38.3225
27.548768816912457 38.1984
27.571692763693633 38.1863
27.59461783573812 37.9735
27.617723149491244 37.6816
27.640650484125285 37.6634
27.66357894728264 37.6283
27.686508540048052 37.6605
27.709618414237887 37.5728
27.732550278321757 37.5058
27.755483275279115 37.5222
27.778417406196485 37.5224
27.801531858397514 37.46
27.824468269376716 37.3422
27.847405817586786 37.4384
27.870344504116094 37.5389
27.893463551932008 37.73
27.916404527281053 37.9049
27.93934664422563 38.0396
27.962289903855886 38.0789
27.98541356491974 38.3613
28.00835912214229 38.5653
28.03130582533231 38.7877
28.054253675581805 38.8356
28.077381967556104 38.7109
28.100332124185126 38.6216
28.123283431160893 38.4292
28.146235889577238 38.3527
28.169368830154156 38.1637
28.192323603752033 38.0547
28.215279532083304 37.6766
28.238415973016764 37.4495
28.261374223145094 37.4623
28.284333631303806 37.0365
28.307294198589954 36.968
28.330435319167677 36.6147
28.353398217078915 36.3309
28.376362277420153 36.1725
28.39932750129032 36.0576
28.422473319286713 35.9161
28.44544088262495 35.914
28.468409612800283 35.7854
28.491379510913497 35.5554
28.51453004413313 35.6383
28.53750229057244 35.5624
28.56047570826344 35.3692
28.583450298308804 35.3413
28.606605564586562 35.3001
28.629582511831156 35.3044
28.65256063474956 35.2416
28.675539934446338 35.2549
28.698699951647605 35.178000000000004
28.72168161743193 35.0101
28.74466446331978 35.0057
28.767648490417624 35.0234
28.790813276438353 35.0231
28.813799678527303 34.9977
28.836787265157085 35.0703
28.859955641890075 35.0074
28.882945610203045 35.0015
28.905936766392035 34.9106
28.928929111566863 34.9053
28.952102288520145 34.9114
28.975097024308607 34.7352
28.998092952423807 34.5894
29.021090073977508 34.5402
29.04426806913204 34.404
29.067267590245258 34.24
29.090268308143695 34.1662
29.11327022394099 34.1492
29.13645305530891 34.1838
29.159457379627167 34.0139
29.18246290519685 33.9668
29.20546963313352 33.9365
29.22865731875826 33.9815
29.25166646419296 34.0015
29.27467681535305 33.8814
29.29768837335608 33.8808
29.320880931312562 33.9894
29.34389491580634 33.9556
29.366910110507334 33.9238
29.38992651653503 33.8803
29.41312396492981 33.8639
29.436142806456754 33.6933
29.45916286268059 33.6656
29.48236399319994 33.4171
29.50538649169417 33.3244
29.528410208259935 33.2386
29.55143514402014 33.0719
29.574641196749695 32.9949
29.597668583816574 32.9538
29.6206971934585 32.7999
29.64372702680042 32.7707
29.666938019934474 32.6555
29.689970313635285 32.6283
29.713003834422636 32.654
29.73603858342347 32.5999
29.759254535188578 32.4563
29.78229175361658 32.3883
29.80533020365064 32.426
29.82836988641968 32.4222
29.85159081507472 32.3617
29.874632976355343 32.2593
29.89767637376955 32.4687
29.920721008448314 32.2714
29.9439469322847 32.2953
29.96699405457564 32.1798
29.9900424175358 32.2809
30.013092022298157 32.2129
30.03632295963995 32.1006
30.059375061131373 32.1852
30.08242840783577 32.0957
30.105483000888153 32.193000000000005
30.128718970092244 32.0245
30.151776069006917 32.0164
30.17483441768648 32.1138
30.198074175317235 32.049
30.221135036724256 32.0661
30.24419715131772 32.0595
30.267260520236203 31.8153
30.290505341942243 32.005
30.313571232750228 31.9659
30.336638381310948 31.9453
30.35970678876503 31.8425
30.38295669299435 31.7835
30.40602763151657 31.7842
30.429099832366074 31.6018
30.452173296685572 31.7234
30.47542830191959 31.7266
30.498504306502497 31.7305
30.521581577995562 31.8921
30.544660117543582 31.7686
30.56792024229725 31.8209
30.59100133132069 31.726999999999997
30.614083691845494 31.8609
30.637167325018545 31.7945
30.660432587840603 31.8784
30.683518779717886 31.8038
30.70660624769615 31.9369
30.729694992924372 31.9747
30.75296541239743 32.0204
30.77605672557558 31.8476
30.799149319462742 31.7711
30.8224236211637 31.6639
30.845518789950724 31.4901
30.868615242910597 31.4279
30.891712981195973 31.2823
30.91499247215866 31.303
30.938092794619365 31.2832
30.96119440587579 31.1129
30.984297307082752 31.1099
31.00758200598383 30.969
31.030687500658694 30.857
31.053794288760695 30.8449
31.076902371446767 30.6761
31.100192296997445 30.8029
31.12330298246119 30.7143
31.14641496599209 30.5697
31.169528248749216 30.6507
31.19282341969534 30.6857
31.215939314557186 30.6382
31.239056512134788 30.6041
31.262175013589378 30.576999999999998
31.28547544871168 30.4862
31.30859657161541 30.5348
31.331719001892175 30.4739
31.35484274070538 30.5579
31.378148458819545 30.6729
31.401274828443725 30.6192
31.424402510106933 30.6561
31.447712205419993 30.6456
31.470842524931633 30.5004
31.493974159989783 30.5388
31.51710711176168 30.5616
31.54042212308802 30.4964
31.563557722100917 30.4227
31.586694641341655 30.2722
31.609832881979628 30.2024
31.63315322823208 30.1318
31.656294125521327 30.0067
31.679436347728515 29.9134
31.70257989602529 29.9485
31.725905596152327 29.859
31.74905181052835 29.7661
31.772199354521323 29.8993
31.79534822930507 29.8984
31.818679302290967 29.8731
31.84183085259981 29.7787
31.864983737233473 29.8429
31.88813795736804 29.818
31.911474422233013 29.6776
31.934631327356435 29.824
31.9577895715215 29.691999999999997
31.980949155906522 29.6843
32.004291031706956 29.6478
32.027453310562606 29.5536
32.05061693318573 29.494
32.07396288236386 29.462
32.09712920658542 29.3498
32.12029687812702 29.2069
32.14346589817093 29.1571
32.166817291729984 29.1515
32.18998902288583 29.1414
32.21316210610336 29.0313
32.23633654256711 28.8409
32.259693399663725 28.9347
32.282870556771144 28.8922
32.30604907069099 28.8545
32.329228942610065 28.7278
32.35259128243769 28.677
32.375773884550505 28.6554
32.398957848235646 28.5601
32.422143174682176 28.5839
32.445511016471215 28.4491
32.468699082679954 28.4064
32.49188851523011 28.3043
32.51507931531304 28.3184
32.538452678331 28.3336
32.56164622776311 28.1278
32.58484114831493 28.1407
32.60803744118015 28.2354
32.631416344731896 28.2662
32.654615396551876 28.2033
32.67781582427913 28.1743
32.701198898634416 27.9715
32.72440209253756 27.9491
32.747606665947124 28.0474
32.77081262006088 27.72
32.79420126883317 27.8166
32.81740999876112 27.8419
32.840620112999424 27.7688
32.86383161274818 27.6843
32.88722585534586 27.643
32.91044014056596 27.7998
32.933655814909734 27.7525
32.95687287957963 27.7452
32.98027273544904 27.5778
33.00349259526636 27.5684
33.026713849030116 27.6633
33.04993649794511 27.5089
33.073341986570746 27.5176
33.09656744032826 27.5633
33.11979429286444 27.5635
33.14302254538647 27.5901
33.166433686291185 27.355999999999998
33.18966475336992 27.3458
33.212897224069096 27.3292
33.23613109959831 27.2968
33.259547912343415 27.2212
33.2827846121627 27.2908
33.306022720453775 27.1991
33.32926223842861 27.0974
33.352684742614166 27.1065
33.37592709463173 27.0383
33.399170859982064 26.9935
33.422597648419426 26.8328
33.44584425514446 26.8359
33.46909227885668 26.7175
33.4923417207723 26.611
33.51577423505344 26.695999999999998
33.539026528130385 26.5851
33.56228024307245 26.5305
33.585535381098246 26.3931
33.60897364093058 26.4566
33.63223163992385 26.4808
33.6554910656699 26.3404
33.678751919389796 26.3958
33.702195944520106 26.2702
33.72545966903325 26.223000000000003
33.74872482519663 26.2312
33.771991414233746 26.1607
33.79544122444841 26.186
33.81871069412428 26.0903
33.84198160035767 26.0819
33.86525394437455 26.0653
33.88870955949969 25.9555
33.911984794020626 25.9615
33.93526147001624 25.9619
33.958539588715006 25.8697
33.98200102861669 25.7774
34.0052820477047 25.6988
34.02856451319451 25.7366
34.05203033759056 25.6669
34.07531571090147 25.735
34.09860253431845 25.6631
34.121890809074316 25.6409
34.145362493118924 25.6466
34.16865368561615 25.5185
34.191946333164054 25.4446
34.21524043699793 25.4951
34.23871800066799 25.4107
34.26201503218366 25.3769
34.28531352370466 25.3343
34.30861347646881 25.2291
34.33209693978188 25.2646
34.3553998301885 25.2862
34.378704185565205 25.0817
34.402010007152356 25.0296
34.42549939016683 25.0377
34.44880815937748 25.0256
34.472118398533134 24.994
34.49543010887669 24.9841
34.51892543169198 24.831
34.54224009966052 24.8209
34.56555624255917 24.9027
34.58887386163339 24.8312
34.61237514439016 24.778000000000002
34.6356957311114 24.7174
34.65901779775809 24.6798
34.68252356662995 24.6251
34.705848608458616 24.5649
34.72917513396849 24.5609
34.75250314440949 24.4835
34.77601490857862 24.4341
34.799345904259795 24.3595
34.82267838863559 24.453000000000003
34.846012362958525 24.4982
34.869530142679984 24.3747
34.89286711232212 24.2999
34.91620557568269 24.2451
34.93954553401677 24.2996
34.9630693495876 24.2018
34.986412313340814 24.2336
35.00975677584668 24.2393
35.033102738362956 24.1273
35.05663261012228 24.0629
35.0799815881786 24.1968
35.10333207003229 24.0176
35.12668405694369 23.9833
35.150220005273056 23.9658
35.17357501786656 23.9586
35.19693153931268 23.9208
35.220289570874385 23.8901
35.24383161619786 23.9377
35.267192683604904 23.8611
35.290555264930376 23.8119
35.314101899412165 23.7939
35.33746752422433 23.772
35.36083466676374 23.7701
35.38420332829803 23.7292
35.407756095629054 23.7359
35.43112781085063 23.6606
35.45450104888391 23.6679
35.477875810999194 23.6094
35.50143473172161 23.5632
35.52481255774625 23.5631
35.54819191167777 23.5093
35.57157279478914 23.4942
35.595137889488406 23.5362
35.61852184675279 23.471999999999998
35.641907337029984 23.3373
35.665294361595684 23.2796
35.68886565090076 23.1887
35.7122557598848 23.2559
35.73564740699838 23.2651
35.759040593519934 23.1212
35.78261809810353 23.1559
35.80601437933051 23.0961
35.829412203814705 23.0564
35.85281157283719 22.9746
35.876395313415884 23.0615
35.8997977874528 22.9536
35.92320180988546 22.9125
35.946790244133936 22.8252
35.97019737933222 22.8569
35.993606066789866 22.7726
36.01701630779276 22.8089
36.04061101440684 22.7267
36.06402437852291 22.7752
36.08743930005611 22.7279
36.1108557802951 22.638
36.13445678011326 22.6883
36.15787639383515 22.5675
36.18129757014299 22.5502
36.20472031032821 22.4755
36.22832762423364 22.3943
36.25175350829375 22.4301
36.275180960119776 22.3445
36.298609981005924 22.3573
36.32222362992669 22.3524
36.34565580510207 22.3852
36.36908955323448 22.2808
36.39252487562093 22.1682
36.416144880530226 22.1383
36.43958336764275 22.2311
36.463023432914625 22.2089
36.486465077645676 22.0899
36.51009145956204 22.147
36.53353627947859 22.1884
36.55698268276811 22.0348
36.58043067073321 22.0585
36.60406345072071 21.9192
36.62751462435344 21.9154
36.65096738658405 21.9718
36.67460498210655 21.9794
36.69806093788647 21.8752
36.72151848619297 21.7912
36.744977628333636 21.7347
36.76862165890998 21.7804
36.79208400512205 21.7285
36.81554794910557 21.7066
36.83901349217101 21.59
36.862663978991606 21.5293
36.88613273667352 21.5382
36.90960309738324 21.4751
36.933075062434064 21.4619
36.95673202673572 21.4413
36.98020721697122 21.3842
37.003684015502365 21.377
37.027162423645365 21.4105
37.050825886711465 21.3128
37.07430753063053 21.1969
37.09779078812467 21.2805
37.121275660513014 21.1752
37.144945643673694 21.2186
37.16843376245278 21.2065
37.19192350009803 21.201
37.215414857931435 21.1107
37.239091382563885 20.9984
37.262585997426164 20.9909
37.28608223645736 20.9738
37.309763684451696 20.9094
37.33326318851098 20.9637
37.356764320726555 20.9378
37.380267082425526 20.9262
37.40395510942588 20.8033
37.42746114683234 20.7167
37.45096881771841 20.7145
37.474478123414166 20.7241
37.49817275092816 20.6824
37.52168534303452 20.7198
37.54519957395567 20.6503
37.568715445024665 20.557
37.592416694607714 20.5415
37.61593586281424 20.6393
37.63945667518264 20.6286
37.66297913304891 20.5201
37.68668702630454 20.5026
37.710212792059274 20.4049
37.733740207334854 20.3288
37.757269273470364 20.3321
37.780983832050374 20.3148
37.80451621684926 20.3034
37.82805025654007 20.2446
37.851585952464795 20.1934
37.8753071980695 20.1101
37.89884622345676 20.1076
37.92238690911902 20.076
37.94611318753442 20.0873
37.969657210779765 20.0475
37.99320289834801 19.9878
38.016750251586465 19.9734
38.04048325513017 19.9885
38.06403395679343 19.9524
38.087586328183946 19.8895
38.11114037065203 19.8736
38.13488012115898 19.8476
38.1584375229181 19.7923
38.181996599821 19.7196
38.205557353221124 19.7903
38.229303872575656 19.7204
38.2528679961576 19.6622
38.27643380031219 19.6224
38.30000128639589 19.6399
38.32375459653193 19.6244
38.34732546371299 19.544
38.37089801690786 19.4216
38.39447225747609 19.4324
38.418232380377425 19.4714
38.441810012983396 19.4623
38.46538933705673 19.4492
38.488970353960084 19.4119
38.51273731166058 19.2756
38.536321731567014 19.27
38.55990784840681 19.2826
38.58367995004091 19.1548
38.60726947812959 19.1607
38.63086070726198 19.1608
38.654453638806274 19.1323
38.678232613930824 19.1233
38.70182896773327 19.1005
38.72542702806741 19.0996
38.7490267963045 19.0534
38.77281266709232 18.9629
38.79641586862214 19.0069
38.8200207821842 18.9093
38.843627409152944 18.8847
38.86742019782782 18.8816
38.891030269149255 18.8233
38.914642058016156 18.7808
38.938255565806124 18.7526
38.96205529464307 18.7233
38.98567225787121 18.6902
39.00929094417078 18.6668
39.03291135492255 18.6661
39.05671804624804 18.5984
39.080341923549106 18.5802
39.103967529460334 18.5412
39.127594865365744 18.4868
39.15140854155791 18.4635
39.17503935514948 18.491
39.19867190290282 18.5428
39.22249083587951 18.5043
39.24612686969409 18.4573
39.269764641845306 18.4091
39.293404153722804 18.3385
39.317230110864074 18.2719
39.34087311998506 18.2657
39.36451787301696 18.2403
39.388164371352595 18.1538
39.41199737518003 18.197
39.43564738196752 18.1837
39.45929913825317 18.0888
39.48295264543308 18.148
39.506792718520884 18.0496
39.530449745387216 18.0274
39.55410852735203 18.0327
39.57776906581474 18.0396
39.60161623079 17.9216
39.625280300200025 17.903
39.64894613032202 17.9084
39.67261372255866 17.8919
39.6964680021016 17.8677
39.72013913657293 17.8035
39.74381203738292 17.7945
39.76748670593756 17.7379
39.79134812278169 17.7358
39.81502634488497 17.7308
39.83870633896685 17.6853
39.862388106436654 17.6426
39.88625668336918 17.5862
39.90994201572829 17.6164
39.933629125719285 17.5737
39.957503091207826 17.4949
39.9811937746168 17.5338
40.00488623990914 17.5226
40.02858048850006 17.4842
40.05246165409549 17.4439
40.076159487492085 17.3564
40.099859108448875 17.3564
40.123560518384345 17.3972
40.1474489070226 17.311
40.171153913178564 17.2604
40.194860712584955 17.2665
40.2185693066637 17.2557
40.242464941335314 17.1761
40.26617714307655 17.1873
40.289891143772046 17.1585
40.3136069448471 17.135
40.33750984859743 17.1247
40.3612292688043 17.0734
40.3849504936829 17.09
40.40867352466194 17.0966
40.43258372059144 17.0048
40.45631038219906 16.9974
40.48003885420956 16.9373
40.503769138055105 16.9029
40.52768664931955 16.922
40.55142057531802 16.8772
40.57515631746428 16.8226
40.599079334038514 16.7825
40.62281872700477 16.765
40.64655994043941 16.7783
40.67030297578061 16.7459
40.69423334835778 16.7107
40.71798004609188 16.6557
40.74172857006355 16.6168
40.76547892171441 16.6291
40.7894166736039 16.6064
40.813170699248566 16.5806
40.83692655691388 16.5697
40.86068424804498 16.5618
40.884629402612525 16.4697
40.908390779366385 16.5185
40.932153993938 16.4517
40.95591904777605 16.3725
40.979871628443995 16.36
41.003640379561936 16.3738
41.02741097430883 16.3729
41.05118341413683 16.3104
41.075143444384416 16.2971
41.098919593177826 16.257
41.1226975914255 16.2304
41.14647744058318 16.1827
41.170444943946755 16.1855
41.19422851378379 16.1829
41.218013938914645 16.1272
41.24198706625173 16.0696
41.26577622087193 16.0437
41.289567235177785 16.0211
41.31336011063129 16.0404
41.337340752422875 16.0295
41.361137369129835 15.9806
41.38493585138705 15.9247
41.40873620066004 15.8824
41.43272438060107 15.8539
41.45652848292052 15.8221
41.48033445666918 15.8511
41.50414230331616 15.8058
41.528138045159764 15.7558
41.551949656675205 15.7588
41.575763145513235 15.698
41.59957851314666 15.6366
41.62358184070442 15.5835
41.64740098505737 15.6132
41.6712220126409 15.591
41.69504492493139 15.5822
41.71905586207357 15.5446
41.74288256296395 15.5198
41.766711153007456 15.4813
41.79054163368412 15.4731
41.814560204340054 15.4739
41.838394485526365 15.446
41.86223066180303 15.3378
41.88625497706819 15.3326
41.910094962812 15.3231
41.93393684811168 15.344000000000001
41.95778063445365 15.2594
41.981812625263366 15.2539
42.00566023303407 15.2568
42.029509746323676 15.21
42.05336116662236 15.2336
42.077400857069705 15.1996
42.10125611078846 15.1691
42.12511327600405 15.0906
42.14897235421036 15.0566
42.173019768448455 15.0776
42.19688269209613 15.0368
42.22074753323349 14.9605
42.24461429335818 14.9778
42.268669455600495 14.9233
42.292540073217886 14.948
42.31641261433284 14.9013
42.34028708044675 14.8746
42.36435001496739 14.9251
42.38822835065557 14.8808
42.41210861586426 14.8228
42.4359908120986 14.7754
42.46006154323262 14.7705
42.48394762115317 14.6863
42.507835634632315 14.7679
42.531912233047436 14.7409
42.55580413732265 14.6643
42.579697981698 14.6918
42.60359376768525 14.6152
42.62767820545945 14.5485
42.65157789440821 14.5672
42.67547952952185 14.5493
42.699383112316 14.5462
42.72347541395347 14.5059
42.74738291190531 14.458
42.771292362102166 14.4455
42.795203766063516 14.4234
42.819303956130405 14.4224
42.843219287476536 14.4026
42.86713657716324 14.3826
42.89105582671383 14.3419
42.91516392983864 14.2958
42.939087119032166 14.2853
42.963012272677304 14.2488
42.98693939230129 14.2341
43.01105543317513 14.2001
43.034986504731386 14.1635
43.05891954686589 14.1597
43.08285456110972 14.1168
43.10697856448665 14.1239
43.130917542983475 14.1149
43.15485849820081 14.1208
43.17880143167367 13.9836
43.20293342237094 13.9587
43.226880332449 14.0
43.25082922540554 14.0072
43.27496722682525 13.9342
43.29892010567796 13.8979
43.32287497204102 13.8669
43.34683182745632 13.8304
43.370977859791836 13.8405
43.39493871351105 13.8175
43.41890156092628 13.8388
43.44286640358341 13.7833
43.46702049182749 13.7799
43.49098934522816 13.7274
43.51496019852649 13.6596
43.5389330532723 13.6532
43.56309522248204 13.6435
43.58707210044314 13.6388
43.61105098451946 13.6008
43.63503187626491 13.5906
43.659202151562134 13.584000000000001
43.68318707902681 13.5528
43.70717401884041 13.5085
43.731162972560874 13.4927
43.75534137913236 13.4404
43.779334381108384 13.3915
43.803329401683186 13.3784
43.82732644241872 13.3978
43.8515130055166 13.3888
43.87551410707659 13.3144
43.89951723350145 13.3434
43.923709934595614 13.277000000000001
43.94771713129917 13.2607
43.97172635758096 13.2458
43.99573761501002 13.2145
44.0199385169922 13.1978
44.04395385732619 13.1826
44.067971233533086 13.152999999999999
44.09199064718605 13.1696
44.11619977548961 13.1401
44.14022328470671 13.1154
44.16424883610785 13.0829
44.18827643127035 13.0499
44.21249381139513 13.0223
44.236525514814076 12.9683
44.26055926674478 12.9896
44.28459506876863 13.027999999999999
44.3088207262813 12.9201
44.33286064928722 12.9421
44.35690262714919 12.9006
44.38094666145278 12.8187
44.4051806219871 12.8419
44.42922879003185 12.7769
44.45327901929361 12.8032
44.477331311362136 12.7902
44.501573600619416 12.7717
44.525630039221795 12.7153
44.54968854541895 12.7186
44.573937102200176 12.7336
44.5979997645541 12.6702
44.622064499300315 12.6433
44.64613130803592 12.6203
44.67038823869318 12.6615
44.69445921643748 12.6041
44.718532272981385 12.5528
44.742607409926194 12.57
44.76687274034801 12.5504
44.79095205918753 12.466
44.81503346325094 12.4675
44.839116954143876 12.4929
44.86339071028742 12.4582
44.88747839599524 12.4273
44.91156817336837 12.355
44.93566004401666 12.3253
44.959942251908146 12.3429
44.984038330325966 12.3161
45.00813650686762 12.2573
45.03223678314731 12.2936
45.05652746888232 12.2033
45.08063196592069 12.2238
45.104738567558705 12.206
45.128847275414856 12.2106
45.15314646515866 12.120999999999999
45.17725940679741 12.1332
45.20137445952892 12.1204
45.22568004865265 12.1198
45.24979934496396 12.1075
45.27392075725247 12.0708
45.29804428714431 12.0573
45.322358426247604 12.0534
45.346486212804315 12.0008
45.370616121861914 11.9464
45.39474815505086 11.9553
45.41907087049246 11.8877
45.4432071734666 11.8776
45.46734560548283 11.8737
45.49148616817604 11.9243
45.51581748638564 11.8617
45.5399623320197 11.8014
45.56410931325473 11.7957
45.58825843173002 11.8263
45.61259837920865 11.7924
45.636751793816 11.7591
45.66090735060093 11.6853
45.68506505120716 11.6929
45.7094136545275 11.6497
45.73357566449271 11.6113
45.75773982322992 11.6298
45.78190613238733 11.6195
45.806263418194064 11.6099
45.83043404997326 11.5379
45.85460683713677 11.5564
45.87897065658495 11.5187
45.90314777634752 11.5351
45.92732705646868 11.5162
45.9515084986045 11.4582
45.97588104735473 11.4175
46.00006683541565 11.4324
46.02425479047904 11.4036
46.04844491420549 11.3688
46.0728262191024 11.3855
46.09702070211635 11.3634
46.12121735879483 11.3416
46.14541619080294 11.3588
46.169806278764455 11.3125
46.194009483459034 11.2746
46.21821486849841 11.228
46.24242243555223 11.2232
46.266821333570014 11.2086
46.29103328674601 11.1701
46.31524742696538 11.1916
46.33946375590237 11.1585
46.36387149104216 11.1046
46.38809221957392 11.1159
46.41231514186606 11.0973
46.436540259597464 11.0671
46.460956858999374 11.0333
46.48518638983522 11.0025
46.509418121166966 11.0095
46.533652054678114 10.993
46.55807754555709 10.9695
46.58231590571962 10.9849
46.60655647313217 10.924000000000001
46.630988654873654 10.9216
46.655233659129024 10.8819
46.67948087571551 10.8967
46.70373030632484 10.8499
46.72817142736393 10.857000000000001
46.752425308428684 10.7917
46.77668140861147 10.7726
46.80093972960865 10.7415
46.82538981736788 10.7313
46.849652602470904 10.710999999999999
46.87391761349769 10.7249
46.8981848521493 10.7074
46.9226439341274 10.7225
46.946915650573224 10.6314
46.97118959976749 10.5876
46.99546578341598 10.5692
47.019933887188216 10.587
47.04421456235744 10.5453
47.06849747711879 10.5096
47.09278263318286 10.4859
47.11725978640143 10.5063
47.14154944775105 10.4549
47.165841355555656 10.459000000000001
47.1901355115306 10.4419
47.214621741924994 10.4058
47.23892041698887 10.4177
47.26322134538975 10.3455
47.28771440635075 10.339
47.31201986422527 10.3604
47.33632758061436 10.3368
47.360637557241866 10.3111
47.38513974410611 10.2644
47.40945426407847 10.2568
47.43377104948137 10.2844
47.45809010204344 10.2575
47.48260144275502 10.2491
47.506925052572285 10.2172
47.53125093475548 10.1442
47.55557909103813 10.1413
47.58009961361992 10.0975
47.60443234110732 10.0919
47.62876734791564 10.0572
47.65310463578333 10.0615
47.6776343683373 10.0675
47.7019762413987 10.0328
47.72632040075572 10.031
47.75066684815169 9.99581
47.77520581885936 10.0032
47.799556865477655 9.92727
47.823910205386 9.93896
47.84826584033272 9.965860000000001
47.87281407745551 9.91211
47.89717432569297 9.91845
47.92153687423484 9.93096
47.94609208429692 9.890789999999999
47.97045925671401 9.85415
47.99482873471275 9.8401
48.01920052005013 9.83141
48.04376504619224 9.83645
48.068141469543484 9.80101
48.09252020552573 9.78298
48.11690125590099 9.72913
48.1414751266064 9.739989999999999
48.16586082917454 9.7182
48.19024885144316 9.6865
48.2146391951793 9.678469999999999
48.239222439012764 9.6645
48.26361744916137 9.627930000000001
48.28801478610016 9.637039999999999
48.31241445160131 9.59566
48.337007097209366 9.58963
48.36141144338331 9.560830000000001
48.38581812345755 9.52793
48.41022713920929 9.524289999999999
48.434829215320704 9.51713
48.45924292604658 9.50093
48.48365897780325 9.50816
48.50807737237308 9.45866
48.532688907799276 9.43646
48.55711201168574 9.43166
48.581537463754074 9.36515
48.60615611725119 9.39671
48.63058628942721 9.381
48.65501881516546 9.35873
48.6794536962573 9.371830000000001
48.70408185970339 9.34041
48.72852147531801 9.323039999999999
48.75296345168211 9.29565
48.77740779059232 9.30061
48.80204549302823 9.24498
48.82649458091802 9.22913
48.85094603676547 9.1799
48.87539986237231 9.185410000000001
48.90004713292306 9.16709
48.92450572200832 9.13125
48.94896668628025 9.15775
48.97343002754588 9.14354
48.99808689542115 9.15808
49.02255501470614 9.11985
49.04702551642794 9.04504
49.0714984023988 9.07803
49.096164896893235 9.04997
49.120642575466796 9.03838
49.145122643748394 9.042580000000001
49.16960510355558 8.97749
49.19428125404938 8.97897
49.2187685210852 8.95536
49.243258185121555 8.97402
49.26794160167084 8.93416
49.2924360839405 8.951080000000001
49.31693296869764 8.88137
49.34143225776915 8.906460000000001
49.36612538195438 8.87117
49.39062950396021 8.84704
49.41513603578346 8.84038
49.4396449792564 8.7852
49.46434784069503 8.76468
49.488861631846454 8.742519999999999
49.513377840166804 8.78154
49.537896467493745 8.73738
49.56260909589029 8.69374
49.587132585683285 8.73321
49.611658500018365 8.69461
49.636186840738596 8.6579
49.66090926588511 8.69219
49.685442483902584 8.6463
49.70997813385706 8.630980000000001
49.734516217597076 8.62526
49.75924846937352 8.617239999999999
49.7837914452858 8.57665
49.80833686055187 8.55102
49.83288471702571 8.545810000000001
49.85762682540054 8.539439999999999
49.882179588965734 8.48582
49.9067347993235 8.49657
49.93129245833333 8.50204
49.95604445336378 8.46468
49.98060703442832 8.40744
50.005172069746266 8.42425
50.02993150438364 8.441989999999999
50.05450147301533 8.39921
50.07907390151433 8.38027
50.10364879174981 8.372860000000001
50.12841816587289 8.351460000000001
50.1529980044635 8.31042
50.17758031042124 8.321819999999999
50.20216508562089 8.28919
50.22694442953363 8.298119999999999
50.25153416817468 8.257
50.27612638170508 8.24956
50.300721072005196 8.22596
50.325510416102105 8.225610000000001
50.350110084975064 8.22034
50.37471223628208 8.2028
50.39931687190919 8.14933
50.424116246675766 8.14511
50.44872587605249 8.154119999999999
50.47333799543065 8.1029
50.49795260670191 8.12386
50.52276204271512 8.10074
50.54738166295838 8.05724
50.57200378079314 8.04378
50.596628398116835 8.03333
50.62144792604559 8.038839999999999
50.646077567609396 8.01662
50.670709714377715 7.996360000000001
50.69553683636198 7.99405
50.72017401885922 7.98066
50.7448137122895 7.99258
50.76945591856022 7.9275199999999995
50.79429318636823 7.91672
50.818940443716784 7.927230000000001
50.84359021965163 7.881189999999999
50.868242516085964 7.89328
50.893089960641895 7.90827
50.917747323549435 7.869110000000001
50.94240721271973 7.82154
50.96706963007175 7.81747
50.99192728239342 7.79064
51.01659478166073 7.78447
51.04126481489051 7.7829999999999995
51.06593738400761 7.75378
51.090805275207074 7.7245
51.11548294172845 7.70787
51.14016314993547 7.73252
51.164845901758845 7.704439999999999
51.18972406304274 7.68658
51.21441192780656 7.639810000000001
51.23910234200271 7.64383
51.2637953075678 7.646210000000001
51.288683770237945 7.621910000000001
51.31338186432707 7.6032
51.33808251561888 7.6022
51.362978729967345 7.58403
51.387684521509755 7.5384
51.41239287610203 7.527710000000001
51.437103795691165 7.49867
51.46201036644977 7.4873899999999995
51.486726441956634 7.4682
51.51144508832545 7.4949
51.536166307509156 7.48685
51.56108326624387 7.464360000000001
51.58580965706056 7.44115
51.61053862657523 7.43843
51.635270176746864 7.38772
51.66019755512065 7.38738
51.68493429268881 7.38198
51.70967361681515 7.3696600000000005
51.73441552946465 7.34635
51.759353359237934 7.33512
51.7841004750961 7.35543
51.80885018539685 7.3085
51.833602492111254 7.270989999999999
51.8585508051424 7.24711
51.883308330926425 7.23406
51.90806845906181 7.228160000000001
51.932831191525715 7.2064699999999995
51.95779001977161 7.2156199999999995
51.98255798721516 7.185980000000001
52.00732856494335 7.15655
52.03229530577543 7.168539999999999
52.057071130455945 7.15251
52.081849571391054 7.1357800000000005
52.106630630568695 7.13289
52.13160794279417 7.06654
52.15639426492067 7.073180000000001
52.18118321127822 7.06826
52.205974783860896 7.0415399999999995
52.23096269971011 7.05668
52.255759551287994 7.064830000000001
52.280559035098186 7.009060000000001
52.30536115314103 7.000789999999999
52.33035970494467 6.9836800000000006
52.35516711807904 6.95377
52.37997717147198 6.9615
52.40478986713005 6.97947
52.42979908731974 6.91542
52.454617094216 6.875489999999999
52.47943774942214 6.9077
52.50426105495102 6.85757
52.529280976059844 6.8636800000000004
52.554109609024096 6.86837
52.57894089837482 6.85278
52.60377484613117 6.80322
52.62880550079408 6.79347
52.65364479223379 6.76575
52.67848674816189 6.7884199999999995
52.70352547971946 6.78742
52.72837279155837 6.79104
52.753222773982785 6.762689999999999
52.778075429022984 6.72748
52.80312495150885 6.68849
52.827982978797436 6.671880000000001
52.85284368481815 6.70166
52.87770707160767 6.67484
52.90276741793998 6.6378699999999995
52.92763619336701 6.59024
52.952507655698504 6.62983
52.977381806977576 6.67173
53.00245301017842 6.630839999999999
53.02733256653592 6.577839999999999
53.052214817996074 6.5465599999999995
53.077099766608484 6.57056
53.102181859804446 6.52228
53.127072229988265 6.52187
53.15196530349892 6.55468
53.17686108239249 6.51265
53.20195409881522 6.47588
53.22685531582556 6.51622
53.25175924441303 6.43319
53.27666588664027 6.46
53.30176985962693 6.41892
53.3266819565689 6.425619999999999
53.35159677336455 6.42537
53.376514312083096 6.359380000000001
53.40162927507703 6.404719999999999
53.42655228516116 6.3516900000000005
53.45147802340193 6.3244
53.47660125628886 6.32569
53.50153247842639 6.31792
53.52646643496923 6.30414
53.55140312799818 6.30819
53.576537409691696 6.28682
53.60147960336152 6.24064
53.626424539786164 6.245019999999999
53.65137222105307 6.2219
53.67651758529126 6.21049
53.70147078399681 6.21226
53.72642673383343 6.1757
53.75138543689533 6.15495
53.776541917524526 6.16049
53.801506154876755 6.16165
53.826473151763246 6.138669999999999
53.851442910284916 6.09388
53.87661054126026 6.12101
53.9015858509782 6.10989
53.92656392866066 6.06078
53.95154477641532 6.10307
53.976723591801296 6.09086
54.00171000771266 6.05804
54.02669920004598 6.02738
54.051691170915745 6.0102
54.076881204886796 6.0075199999999995
54.101878760928514 6.02388
54.12687910187696 5.98759
54.152077577768296 5.9695
54.1770835166946 5.92161
54.20209224691339 5.90057
54.22710377055121 5.95878
54.25231352511594 5.94816
54.27733066384342 5.8901699999999995
54.30235060239643 5.88492
54.32737334290836 5.8876800000000005
54.35259441062629 5.88097
54.377622783395324 5.81111
54.40265396455061 5.83108
54.42768795623251 5.83823
54.45292037169559 5.761819999999999
54.477960012857906 5.7657
54.50300247099511 5.7564400000000004
54.52804774825457 5.739240000000001
54.55329154616743 5.71822
54.57834249018678 5.7031
54.6033962597977 5.67681
54.6284528571545 5.685980000000001
54.653708072335164 5.60764
54.67877035378786 5.61054
54.70383546947698 5.60489
54.72890342156389 5.59663
54.7541700889442 5.5763
54.77924374251975 5.617430000000001
54.8043202390049 5.54124
54.82959552413022 5.49559
54.8546777351945 5.48716
54.87976279569621 5.46092
54.90485070780914 5.4489
54.930137506558005 5.43406
54.95523115074295 5.40158
54.98032765308844 5.38558
55.005427015775496 5.39759
55.03072536339621 5.4023
55.05583047570572 5.304119999999999
55.080938454927676 5.29522
55.10604930325027 5.30877
55.131359235107396 5.3111
55.15647585066083 5.2169099999999995
55.181595341907496 5.21476
55.20671771104285 5.2075
55.232039262617704 5.2043
55.25716741665048 5.13539
55.28229845518636 5.13149
55.30743238042802 5.10275
55.33276558731939 5.04793
55.357905315183636 5.0265699999999995
55.383047936390035 5.0652800000000004
55.40819345314859 5.01315
55.433538351073295 5.00139
55.458689688238415 4.97494
55.483843927614096 4.965
55.509197623043605 4.9012
55.53435769621134 4.88439
55.55952067826466 4.86845
55.5846865714265 4.87295
55.61005202069737 4.8557
55.63522376553902 4.82282
55.66039842818645 4.7983
55.68557601087004 4.72635
55.7109532500271 4.70677
55.73613670233794 4.78602
