TT I
1.2716486653135266 7.1166
1.2939594142134223 7.236789999999999
1.3162702121660406 6.2800400000000005
1.3385810600174564 6.20982
1.3608919586137629 6.09098
1.383202908801069 6.154669999999999
1.405513911425503 6.8564
1.4278249673332093 6.62109
1.4501343378461518 6.54049
1.4724455028545926 6.08007
1.4947567236847858 6.20421
1.517068001182951 6.4817
1.5393793361953272 5.96045
1.5616907295681737 5.24523
1.5840021821477681 4.848319999999999
1.60631369478041 5.26227
1.6286252683124185 5.23105
1.6509369035901333 4.66855
1.6732468618895553 5.08871
1.695558623192809 4.88591
1.7178704487808514 5.14168
1.7401823395001077 5.42411
1.7625012545597203 5.03116
1.7848028405262486 4.656969999999999
1.8071218901122095 4.92755
1.8294236121921872 4.16196
1.8517427996910911 4.2112300000000005
1.8740620574440425 4.28241
1.8963639900671978 4.31429
1.9186833908139995 4.43786
1.9409854680117449 5.43741
1.9633050151394713 5.15229
1.9856246367570705 5.31693
2.0079269371922672 4.9935599999999996
2.03024671027244 4.9684800000000005
2.0525491637446027 4.6974599999999995
2.074869091674931 4.2784699999999996
2.097171701569106 4.27223
2.1194917877373847 4.95579
2.141811954326636 4.34617
2.164114805233074 4.9753300000000005
2.186435135143035 5.28075
2.208738150935709 11.7752
2.231058647554722 20.3189
2.2533792288321184 15.7077
2.275682498336085 8.513910000000001
2.298003251406138 5.698930000000001
2.3203066942619714 5.76534
2.3426276225136022 5.34555
2.3649486396617507 5.51685
2.387252348930071 6.00231
2.4095735463442893 6.461130000000001
2.4318774374315884 6.09089
2.4541988185014043 6.48979
2.476502894794693 7.2648399999999995
2.498824462909887 7.360189999999999
2.521146125856138 7.37442
2.5434504863470337 7.73941
2.5657723414244717 8.5356
2.588076895590662 7.8068800000000005
2.610398946189713 8.231160000000001
2.6327210958598384 8.3918
2.6550259469304716 7.797560000000001
2.6773482972090137 8.52094
2.6996533504259 8.771230000000001
2.7219759047039602 8.470310000000001
2.744298562293959 8.45668
2.7666039251246595 7.9810300000000005
2.7889267918020164 8.63107
2.8112323652516555 8.86412
2.833555444408179 8.449860000000001
2.8558786311183852 7.867089999999999
2.8781845268938557 9.35492
2.9005079311721484 8.80386
2.9228140460410397 10.0698
2.9451376712799635 9.39874
2.967444008632326 10.0226
2.9897678582247247 10.1351
3.0120918213106695 10.8044
3.0343984987899373 10.9238
3.0567226913198637 11.3673
3.079029599759726 11.742
3.101354025127254 12.5049
3.123678568232338 12.6623
3.145985829517914 13.3937
3.16831061055229 13.8967
3.1906181112775593 14.2743
3.212943133635653 15.1514
3.2352682779763207 15.0697
3.2575761442691227 15.3778
3.2799015350264273 16.0421
3.302209649240067 16.5967
3.3245352898092655 16.7598
3.3468436553365257 17.6505
3.369169549113219 17.465999999999998
3.3914955708171384 18.6806
3.413804319727358 18.9503
3.4361305997334863 19.003
3.4584396084414553 19.1138
3.4807661501462652 19.9565
3.503092824025881 20.7978
3.5254022288463154 21.1545
3.5477291695206588 21.0716
3.5700388426251948 21.7713
3.5923660534916446 22.9447
3.6146934007816114 33.4986
3.637003482731501 66.0844
3.6593311053109985 71.8731
3.681641464033634 45.0922
3.7039693653009733 28.3379
3.726297407241705 25.2882
3.7486081875460804 25.3487
3.7709365132734978 25.7937
3.793247578841633 26.1081
3.8155761917550093 26.2306
3.8378875459837216 26.8118
3.8602164494827234 27.2695
3.882545499606844 28.1559
3.9048572932539183 28.214000000000002
3.9271866390645718 28.6306
3.9494987298666713 29.4743
3.971828374764527 29.9913
3.9941581705403255 30.7008
4.016470713506008 30.9766
4.038800813471445 31.7927
4.061113662089144 32.1923
4.0834440696459176 33.1018
4.105774632334751 33.0701
4.128087945865126 34.2401
4.150418821249301 35.2684
4.172732448931298 36.1613
4.195063640413578 36.983000000000004
4.2173775856475215 39.9137
4.239709096631102 62.6754
4.262040768704612 167.667
4.284355196706267 218.59
4.306687193387355 146.442
4.329001947444346 66.8557
4.35133427213731 45.7155
4.373666762177566 43.4468
4.395982011761091 43.9102
4.418314834921175 45.1086
4.44063041906622 50.7519
4.4629635787515625 57.381
4.4852969080429785 57.7893
4.5076130004776225 52.101000000000006
4.529946671403969 51.2874
4.552263106909177 52.3521
4.574597122877047 52.824
4.596931312711224 52.7903
4.619248269273446 53.0657
4.6415828092605835 53.6159
4.663900117405352 54.6821
4.686235010953232 55.7662
4.708552674085913 57.3259
4.730887924602802 58.9911
4.753223354952695 60.2323
4.775541557023902 62.6732
4.797877349456786 64.0633
4.820195915032126 65.9159
4.842532072957498 66.9625
4.864868414979744 69.2399
4.88718753227192 71.9559
4.909524244902505 73.115
4.931843734218147 74.5164
4.954180820867835 76.7273
4.976518095879839 79.407
4.998838149695359 82.0504
5.021175803844231 85.8581
5.043496238205739 88.7606
5.065834274903528 92.7661
5.088172504230693 97.4396
5.1104935158799565 103.76299999999999
5.132832132875765 121.719
5.155153533596801 155.518
5.1774925416746225 189.40900000000002
5.199814334878411 337.126
5.2221537374521505 912.5189999999999
5.244493338631803 2681.74
5.266815727034316 7893.54
5.289155727832427 13693.9
5.311478517248165 8958.32
5.333818921080011 2573.28
5.356159527788849 462.842
5.3784829252032536 174.12400000000002
5.400823940070432 140.539
5.423147747031976 124.309
5.445489173474152 115.54899999999999
5.467830807066149 112.477
5.490155234831516 109.99
5.512497285125229 105.859
5.534822130975162 102.60700000000001
5.557164601388673 99.81200000000001
5.579489868738879 97.1263
5.601832762690846 96.62200000000001
5.6241758697774475 95.1782
5.646501775867269 94.681
5.668845311622074 93.3519
5.691171647754637 92.676
5.713515615597765 91.4144
5.735859800852677 90.8409
5.758186788542988 91.2635
5.780531411018185 92.2173
5.802858837297399 91.8773
5.825203900414495 91.5843
5.8475491852224 93.2118
5.869877275883075 92.9962
5.892223006467101 92.3284
5.914551544266608 92.4092
5.936897724049891 94.7029
5.959244129804903 100.46700000000001
5.981573344815301 120.45200000000001
6.0039202049061 206.253
6.026249875609095 430.194
6.04859719346037 913.778
6.070927323278297 2242.49
6.093275102315365 4562.56
6.115623113320588 5155.55
6.137953938319995 3034.48
6.160302415650845 824.441
6.182633708324452 197.06
6.2049826554078376 105.59299999999999
6.227331838745022 88.2021
6.249663839443684 82.1218
6.27201349767565 79.5404
6.294345974611799 82.9288
6.316696111167083 89.1413
6.339046488263839 85.4749
6.361379686074702 75.4962
6.383730546639482 70.0997
6.406064229255215 67.9447
6.428415576718203 67.7637
6.450749747566656 66.6787
6.47310158535871 65.312
6.495453669698332 64.3375
6.517788579421056 63.8172
6.540141159237969 62.3082
6.562476565766648 61.9896
6.5848296444934045 61.8819
6.607182974060425 61.5275
6.6295191323281015 61.4418
6.651872965955752 63.6562
6.6742096296068985 80.9097
6.6965639707294615 110.755
6.71891856698715 109.09899999999999
6.741255995248479 81.1934
6.763611104154477 63.6654
6.785949046381137 58.6795
6.808304671371482 57.5708
6.8306605557940046 58.3353
6.852999275508618 57.2346
6.875355681171544 56.3487
6.897694923437771 55.6142
6.92005185377892 55.2735
6.9423916220322655 55.4898
6.964749080490181 54.9128
6.987106804399774 54.8797
7.009447368180821 54.8816
7.031805625367033 54.7626
7.054146723727803 54.6369
7.076505517631004 54.0939
7.098864581288365 54.1826
7.121206488070854 54.0495
7.143566093607822 54.0899
7.165908543567245 54.9266
7.188268694426048 54.9957
7.2106291193438095 54.483000000000004
7.232972390625943 55.433
7.255333366030969 63.9627
7.277677189091925 98.9538
7.300038718428332 127.06299999999999
7.322400526130865 111.27
7.344745183422596 75.9812
7.367107550224791 58.1649
7.389452767901992 54.8347
7.411815697249891 54.3231
7.434161478756298 53.4593
7.456524974096713 53.1276
7.478888753837185 53.0631
7.501235387657368 53.6397
7.523599738562711 53.6186
7.545946944825532 54.136
7.568311870344528 54.3928
7.5906770845765665 54.5397
7.613025156078678 55.3779
7.635390950099687 56.2733
7.657739602662809 55.8433
7.680105979923558 55.2701
7.702472650212829 55.4474
7.724822180948224 55.1318
7.747189439655568 55.3112
7.769539560075357 55.0979
7.791907410653562 55.6972
7.81425812420825 55.5163
7.836626570110925 55.6559
7.858995315087906 56.4445
7.881346924933401 57.113
7.903716270417482 57.2281
7.926068482028405 57.8285
7.948438431475253 58.173
7.9708086843180235 58.6403
7.993161805171116 59.2876
8.015532667162402 60.0273
8.037886398416653 61.0228
8.060257873014221 61.0811
8.082629655331942 61.8615
8.104984308787587 62.7122
8.127356708900503 65.3865
8.149711981398308 70.02600000000001
8.172085002766314 71.8771
8.194458336181368 69.9515
8.216814543847752 68.0977
8.23918850371002 68.2895
8.26154533906492 69.1391
8.283919928836452 70.516
8.306277395339652 71.4722
8.328652618483376 72.7815
8.351028159736202 74.696
8.373386579575245 76.8501
8.395762759396959 79.2678
8.418121819038275 82.995
8.440498640894003 93.1712
8.462875785192262 105.00399999999999
8.485235811156207 120.507
8.507613602688501 163.84900000000002
8.529974277114228 245.62099999999998
8.552352719347912 363.273
8.574731488360351 621.297
8.59709314210385 1190.13
8.619472567021075 1953.05
8.64183487789147 2293.02
8.664214962183097 1731.61
8.686577933647762 867.58
8.708958680784317 315.241
8.731339760774953 145.267
8.753703729764451 105.22200000000001
8.77608547780821 96.1248
8.798450116065078 92.4702
8.820832535634787 90.4972
8.843215292401656 89.4807
8.865580941199045 88.8111
8.887964374703538 87.9937
8.910330701447199 88.4508
8.932714815164482 89.426
8.955099270424924 88.0264
8.977466620733543 85.6622
8.999851761421976 83.7982
9.022219798361645 82.5433
9.04460562795561 82.0459
9.066991803441677 82.1036
9.089360876979615 81.9868
9.111747746589993 82.0494
9.13411751544971 80.6313
9.156505082664324 80.5509
9.178875550323522 81.0349
9.20126381862328 80.9361
9.223652438908596 81.3172
9.246023961427412 81.2947
9.26841328802173 80.8086
9.290785518039224 80.9178
9.313175554425882 82.3181
9.335565947154315 82.6213
9.357939245086508 82.9212
9.380330352834827 82.5394
9.40270436697103 82.7302
9.425096193225055 82.2986
9.447488380180165 82.8843
9.469863475295412 83.1606
9.492256385987508 83.6363
9.514632206018318 83.7751
9.537025843935714 84.0252
9.559402392368193 84.9603
9.581796761000229 86.5551
9.604191496441521 87.6668
9.626569144158516 90.5572
9.648964615551032 93.603
9.671343000390081 94.6268
9.693739211225699 93.3428
9.716135793237463 91.2839
9.738515290448102 91.2962
9.760912617143402 92.5606
9.783292860202891 94.0571
9.805690935076182 96.02600000000001
9.828089385495742 96.9278
9.850470754023561 98.542
9.872869957865444 103.81200000000001
9.89525208097539 114.603
9.917652041736662 124.35700000000001
9.940052382417589 127.738
9.962435644102392 140.762
9.984836746950979 176.166
10.007220771957746 234.37900000000002
10.029622640473708 326.39099999999996
10.052007432299963 500.955
10.074410069984072 812.5310000000001
10.096813093716005 1304.05
10.119199042482517 1846.68
10.141602840636468 1988.9
10.163989564971628 1485.54
10.186394141051062 769.828
10.208799107559706 330.23800000000006
10.231187001965623 161.469
10.253592751657669 118.105
10.275981430388155 109.15
10.298387966769793 108.285
10.320794897965431 109.344
10.343184759907361 108.66799999999999
10.36559248305461 104.82600000000001
10.387983138083852 102.56
10.410391656691655 106.60799999999999
10.432800574501677 117.32799999999999
10.455192425893369 132.43
10.47760214443012 156.436
10.499994797678786 200.322
10.522405320453982 286.348
10.54479877906917 418.749
10.567210109595656 541.741
10.5896218454736 603.138
10.612016518879773 490.86
10.634429067781074 321.57099999999997
10.656824555333241 182.021
10.679237920773568 114.235
10.701651695961992 92.3146
10.724048411481384 86.9653
10.746463008485165 84.1262
10.768860546937125 82.8181
10.791275969274796 81.6611
10.81369180576079 80.5406
10.836090585366925 79.7162
10.858507252467449 78.5347
10.88090686379991 77.5247
10.903324365036394 76.7662
10.925724811614439 76.7
10.948143150509463 77.2068
10.970561909719066 76.878
10.992963615930844 75.291
11.015383218085756 73.6968
11.037785768347074 72.0355
11.06020621697282 71.4956
11.082627090322113 71.1479
11.105030913430326 70.3351
11.12745263854165 70.6657
11.149857314510728 72.8175
11.172279894912576 76.3543
11.194702904450653 76.495
11.217108866490921 73.65899999999999
11.239532736615194 70.6963
11.26193956033512 69.5174
11.284364294577085 68.2529
11.306789462371718 66.6679
11.329197585398376 65.8506
11.351623622610898 65.5286
11.37403261614354 64.8381
11.396459526308487 64.9259
11.418869393879497 64.4705
11.441297180532617 63.8996
11.463725406927658 63.7292
11.486136592353875 63.5325
11.508565700543707 63.8807
11.530977768845315 65.1409
11.553407762368774 65.5531
11.575838200059769 64.8504
11.598251599479612 63.4623
11.620682927815501 62.4689
11.64309721895548 62.3425
11.665529441478206 62.0288
11.687962112597958 61.7626
11.710377748130886 61.9232
11.732811318753434 61.5299
11.755227854859067 61.7957
11.777662328529495 61.3373
11.800079768750786 61.2457
11.822515149015453 61.1546
11.844950984084935 61.6355
11.867369787303163 61.2178
11.889806534289491 61.176
11.912226250487029 61.5585
11.934663912939751 61.6939
11.9571020346363 61.9812
11.979523127133968 61.9565
12.001962169624331 62.8556
12.024384183972964 63.9022
12.046824150809913 66.9466
12.069264581333726 71.1261
12.091687985297767 76.706
12.11412934550045 85.2137
12.136553680195208 101.182
12.158995973632788 126.51899999999999
12.181438735204349 156.55200000000002
12.20386447284199 191.615
12.226308172985636 217.952
12.24873485024193 197.921
12.271179492516982 155.059
12.293607112949127 113.45299999999999
12.316052700916226 86.2516
12.338498763250042 72.59100000000001
12.360927805303868 66.8833
12.383374818673879 64.3554
12.405804812803074 62.9556
12.428252780773262 63.1541
12.45070122756722 63.0441
12.473132656675375 62.7747
12.49558206341869 63.2849
12.518014453510101 63.5447
12.540464823770117 63.1766
12.562915677315177 63.6401
12.58534951575545 64.2506
12.607801338171472 65.3333
12.630236146511358 68.9885
12.652688941369085 72.1228
12.675124723177234 72.2049
12.697578494048786 70.1386
12.720032754458185 67.4109
12.742470003354093 66.3941
12.764925245138771 66.3828
12.787363476431278 66.8079
12.809819703166806 66.9735
12.83227642391173 67.9223
12.854716135692716 68.5012
12.877173846755147 69.5471
12.899614549869717 69.8314
12.9220732548287 70.545
12.94453245827299 70.8437
12.966974655289818 72.1576
12.989434858002571 73.1348
13.011878055298721 73.7616
13.034339260862497 74.7062
13.056800969391883 75.9298
13.079245674017244 77.9146
13.101708390774869 80.798
13.12415410463411 88.0573
13.146617833206086 98.6543
13.169064559883248 108.89299999999999
13.191529303857127 122.691
13.213994557076367 144.29
13.236442809902437 182.102
13.258909083908291 242.025
13.28135835851934 314.733
13.30382565690295 390.44800000000004
13.326293469022952 439.496
13.348744283242008 426.871
13.371213125129904 334.667
13.39366497011003 231.635
13.416134845360597 153.565
13.438605238843131 113.71799999999999
13.46105863690397 101.611
13.483530069144786 103.18299999999999
13.505984506951902 107.975
13.528456981549432 117.137
13.550929978879088 131.243
13.573385983253365 155.528
13.595860028340867 196.88099999999997
13.618317081455832 257.07099999999997
13.64079217790333 324.615
13.663250283359057 374.033
13.685726434770173 385.784
13.708203115221277 332.9
13.730662806148091 241.50799999999998
13.75314054697177 167.412
13.775601299246777 116.323
13.798080104050406 91.5648
13.820559442405358 82.3902
13.843021793671388 79.8251
13.865502201420897 78.2824
13.887965623051947 77.9116
13.910447103807167 76.7598
13.932929122629764 75.8592
13.955394156785959 75.456
13.977877254034569 74.4043
14.000343367582113 73.4862
14.022827546871707 72.902
14.045294743423524 72.3455
14.06778000837062 71.7415
14.090265817715476 71.5097
14.112734645763819 71.2637
14.13522154619454 70.7945
14.157691466286913 70.628
14.180179461423874 70.4288
14.202668005486178 69.7926
14.22513957064374 69.3805
14.247629214846473 69.0664
14.270101881097517 68.82600000000001
14.29259262906496 68.9977
14.315083930490205 69.4549
14.337558255389705 69.5015
14.360050666019726 69.4138
14.382526101071944 68.7674
14.405019624534942 68.0473
14.427513705993134 67.4971
14.449990813291825 67.5249
14.47248601302899 67.6273
14.49496423954951 67.4852
14.517460561197822 67.9167
14.539939910570322 67.4926
14.562437357763558 67.9169
14.58493536931253 68.6716
14.607416409993311 69.1637
14.62991555254159 69.6266
14.652397725157423 69.6461
14.674898002342799 69.4689
14.697398848433282 69.2328
14.719882725991326 70.2508
14.74238471217934 71.2361
14.764869730765593 74.5166
14.787372860692983 77.6781
14.809876564079925 81.4621
14.83236330125751 86.8082
14.854868153850365 95.228
14.877356041159485 109.381
14.899862046604186 128.85299999999998
14.922351087688757 157.202
14.944858249632887 188.417
14.967365991421232 218.43400000000003
14.989856770231246 229.15900000000002
15.012365673994204 214.47099999999998
15.03485761569738 179.062
15.05736768508665 137.921
15.07987833888692 104.338
15.102372032001655 83.6733
15.124883856909658 73.718
15.14737872204565 70.4656
15.169891721717274 68.9134
15.192405310371893 68.6332
15.214901940621196 69.1713
15.237416709527137 68.6982
15.259914520936249 68.8857
15.282430473753607 68.24600000000001
15.304947020131227 67.2496
15.327446610371178 66.5482
15.349964346154254 65.8596
15.372465126703139 65.668
15.394984055556009 65.2706
15.417486030076159 65.2878
15.44000615566487 64.9597
15.462526881230803 64.9117
15.485030653812652 64.8377
15.507552581617434 64.8234
15.530057557334603 64.8572
15.55258069104857 64.8554
15.575104429329837 64.9979
15.597611216864632 64.8468
15.620136166564563 65.0467
15.6426441664095 66.0497
15.665170331202765 68.1548
15.687697105158826 71.214
15.710206930593545 74.3491
15.732734925158933 77.9922
15.755245972089478 84.0145
15.77777519094324 93.0162
15.800287463046663 106.887
15.822817909869592 127.994
15.84534897229804 151.541
15.867863089299354 176.24400000000003
15.890395385222186 192.75099999999998
15.912910736597423 194.107
15.935444269699861 177.282
15.957978423016485 146.731
15.980495633101265 113.79700000000001
16.003031029129367 88.8566
16.02554948280019 72.1419
16.048086125229432 64.9894
16.070623392487107 63.068999999999996
16.09314371869582 62.4226
16.11568223789321 61.6037
16.13820381691126 60.7504
16.160743591742527 60.012
16.183283996022084 59.0703
16.205807461423195 58.155
16.228349126881973 57.7121
16.25087385432698 57.8959
16.27341678466365 57.2385
16.29594277784926 57.2429
16.31848697676433 57.2257
16.341031811604868 57.1637
16.36355971058487 57.4105
16.3861058195587 57.1187
16.40863499352978 55.9798
16.431182380342005 55.3015
16.453730407713202 54.9076
16.476261501364792 54.5717
16.498810812136167 54.4482
16.52134319004079 54.4794
16.54389378792203 54.358999999999995
16.566445031001553 54.2761
16.588979342490088 54.1531
16.61153187824822 53.9625
16.634067483263312 53.8395
16.656621315414416 53.6559
16.679175797408888 53.3051
16.701713349928728 53.4204
16.72426913389191 53.7826
16.74680798922351 53.8112
16.76936507887444 53.7539
16.791905240734874 53.9213
16.814463639794468 53.7237
16.837022695210294 53.7388
16.859564824093756 54.1257
16.882125194503903 54.6002
16.904668639217885 55.0143
16.927230328348003 54.9695
16.949792678493612 55.216
16.972338104193863 54.8142
16.994901778652235 54.5027
17.017448529496576 54.4875
17.040013531998152 54.9997
17.06257920018044 55.2609
17.0851279459922 56.0447
17.107694947817667 56.68
17.130245028099072 57.5749
17.15281336730298 58.8022
17.17536478578733 60.4917
17.19793446610687 62.6972
17.220504818648422 65.7115
17.243058251703697 69.4546
17.265629950971032 74.5842
17.288184731571736 79.4833
17.310757781306908 83.4042
17.33333150794385 82.2699
17.355888317140174 80.3519
17.37846339986244 74.2665
17.401021565958885 67.5891
17.42359800851343 62.8618
17.44617513265564 60.0512
17.468735341390783 58.7391
17.491261035594565 57.8818
17.51396340099364 57.8446
17.536490463869136 57.9547
17.559018209820174 57.9409
17.58154663977963 58.2077
17.604251766089718 58.1567
17.626781572227713 58.4242
17.64931206518155 58.7879
17.671843245885103 59.1388
17.69455114821572 59.2252
17.717083712612634 59.4741
17.739616967569667 59.7106
17.762150914021706 60.0446
17.78486160749854 60.3484
17.807396945166804 61.1694
17.829932977143503 62.0759
17.85246970436452 63.646
17.875183204129467 65.339
17.897721330097664 66.9126
17.920260154126645 69.1147
17.942799677153296 72.0411
17.9655159983646 75.7097
17.988056927677544 81.199
18.010598558807683 89.3086
18.033140892692916 99.8921
18.05586005052525 112.475
18.07840379824407 124.736
18.10094825154059 134.077
18.12366954819864 139.394
18.146215420998306 136.29
18.16876200220057 125.515
18.191309292745153 110.54
18.214033452627167 96.5405
18.236582170236648 86.9722
18.259131600016456 83.3208
18.281681742907335 84.9738
18.304408781233683 90.4486
18.32696035875955 96.7283
18.349512652227624 102.35799999999999
18.372065662579683 106.335
18.394795594587553 106.17299999999999
18.41735004715306 100.037
18.43990521943684 91.4139
18.46246111238171 81.9212
18.485193953325208 73.134
18.507751296070428 66.7988
18.530309362314178 63.7982
18.552868153000343 61.9692
18.57560391815056 60.9396
18.59816416623245 60.6508
18.620725141597372 59.9737
18.643286845190268 59.618
18.666025549835414 59.3253
18.688588718427933 58.8196
18.711152618092243 58.7575
18.73389353884365 58.3304
18.75645890921984 57.6701
18.77902501351406 57.5348
18.801591852673102 57.7137
18.824335739722738 57.0139
18.846904057212626 57.0004
18.8694731124168 56.5774
18.89204290628315 56.8264
18.914789774966803 56.3298
18.937361054791623 56.0363
18.959933076131318 55.9986
18.982505839934877 55.9154
19.00525570560582 55.997
19.027829963004184 55.8228
19.05040496572238 55.7544
19.072980714710468 55.9698
19.095733592739563 56.1431
19.11831084296757 56.3159
19.140888842324735 56.6615
19.16346759176222 56.7104
19.18622349753803 57.1963
19.208803755869358 58.2691
19.231384767143577 59.6122
19.253966532312948 61.1246
19.276725481241822 63.2383
19.29930876296784 66.1907
19.3218928014549 69.1762
19.34465404436217 72.1502
19.36723960516257 74.6949
19.389825925592426 75.0757
19.412413006605938 73.4363
19.43517731967805 69.1358
19.457765930683355 64.8192
19.48035530514408 60.4312
19.50294544401556 57.0882
19.525712842708348 54.9292
19.54830451925909 53.9189
19.570896963095727 53.1012
19.593490175174704 52.8284
19.616260674962184 52.948
19.638855432416964 52.6597
19.661450960992624 52.8032
19.68404726164677 52.4718
19.706820878021247 52.4444
19.729418731756834 52.4872
19.752017360452857 52.1454
19.77461676506804 52.6391
19.797393513540218 52.5856
19.819994478951667 52.855
19.84259622316767 53.395
19.8651987471481 53.7155
19.887978643247177 53.9025
19.91058273574792 54.4072
19.933187610901943 55.1865
19.955969879466828 56.3797
19.97857632894404 57.9383
20.00118356396599 59.7294
20.023791585494575 62.31100000000001
20.046577028914875 65.1427
20.069186632506966 67.3393
20.091797025500632 69.2153
20.114408208858933 69.3859
20.137196842715273 68.3541
20.159809615886765 66.1755
20.18242318232135 63.4106
20.20503754298326 61.5246
20.227829382875154 60.7805
20.250445341109344 61.3862
20.27306209647285 62.248999999999995
20.29567964993108 63.9714
20.31847471147704 64.8639
20.34109387027612 65.5539
20.363713830075454 64.223
20.386334591841646 62.6929
20.409132890679302 59.4616
20.431755265564437 56.229
20.454378445325528 53.6891
20.477002430930366 51.9732
20.499803982716553 50.9199
20.522429589228004 50.3467
20.54505600449589 49.9482
20.567683229489194 49.7982
20.590488049900088 49.5635
20.61311690359731 49.4247
20.63574656993626 49.0426
20.658553853717297 48.7959
20.681185154618298 48.8985
20.703817271080066 48.4185
20.72645020407368 48.3153
20.749260783967177 48.2698
20.771895359337133 47.9082
20.794530754161617 48.037
20.817166969412938 48.0395
20.83998086114876 47.93
20.86261872660049 47.9046
20.885257415405402 47.9882
20.90789692853701 47.7322
20.930714147864748 47.6053
20.953355319030678 47.6807
20.97599731745334 47.8075
20.99864014410749 47.7075
21.021460706796564 47.8062
21.044105199328826 48.0367
21.06675052302631 48.1271
21.089396678865015 48.3489
21.112220600704806 48.7296
21.134868430275347 49.0784
21.15751709492456 49.3456
21.180166595629693 49.5601
21.202993892429635 50.1575
21.22564507473034 50.5951
21.24829709602816 50.7742
21.27112693608965 50.6359
21.293780644891275 50.5591
21.316435195634053 49.7979
21.339090589297417 48.9708
21.361923832041875 48.4523
21.384580921090404 47.8402
21.407238856007325 47.5196
21.429897637773326 47.4919
21.45273429906592 47.582
21.475394784108598 47.4754
21.498056118951983 47.5862
21.520718304578022 47.7249
21.543558400304388 47.7837
21.566222297108816 47.8986
21.58888704765135 48.1456
21.61155265291521 48.4441
21.63439619898156 48.8902
21.657063523335786 49.0267
21.67973170537063 49.4482
21.7024007460706 50.0608
21.72524775840385 50.7187
21.747918526116475 51.8068
21.770590155457388 53.0002
21.79326264741238 54.778999999999996
21.816113141960237 56.7372
21.838787368860547 58.8561
21.861462461341976 60.9849
21.884315579735777 62.9835
21.90699241312273 63.951
21.92967011506078 64.012
21.95234868653799 63.3161
21.9752053151131 61.4703
21.997885635446785 59.2595
22.020566828293532 57.6231
22.04324889464272 56.1259
22.066109049404666 55.3608
22.088792872571794 55.2743
22.111477572219204 55.5793
22.1341631493376 55.4746
22.157026846313123 55.0674
22.179714188221507 54.041000000000004
22.202402410582668 52.7141
22.22509151438863 51.071999999999996
22.24795876962584 49.9396
22.270649646204486 49.3613
22.293341407213727 48.6712
22.316034053646906 48.3442
22.338904883215342 48.1841
22.36159931041458 48.2188
22.38429462602756 48.0663
22.40699083104897 47.9236
22.429865251039757 47.8811
22.452563244831367 47.9868
22.47526213102522 47.8327
22.49813925616515 47.8034
22.520839937143307 47.6652
22.543541513520587 47.6761
22.56624398629403 47.5568
22.589124730075895 47.6901
22.611829005656723 47.8251
22.63453418063466 47.9267
22.657240256008077 48.1567
22.680124634582935 48.215
22.70283252079775 48.3962
22.725541310413075 48.5878
22.74825100442868 48.7529
22.771139033969575 49.2233
22.79385054687155 49.6495
22.81656296718292 50.278
22.83927629590484 51.1988
22.862167992606945 52.3369
22.88488314827121 53.5763
22.907599215359284 54.8182
22.93031619487366 55.8391
22.953211574954405 56.7612
22.975930389478226 57.4199
22.998650119445763 57.2913
23.02137076586092 56.161
23.044269845560063 54.5786
23.06699233506288 52.9017
23.089715744034912 51.1654
23.112617610931565 49.5706
23.135342869061212 48.6648
23.158069049684816 48.1742
23.1807961538087 47.7429
23.20370174880544 47.8337
23.226430710184808 47.8841
23.249160598093425 47.8999
23.271891413539002 47.9305
23.294800752937697 48.0452
23.31753343374794 48.1587
23.340267045128353 48.2902
23.36300158808808 48.674
23.38591468821339 48.8134
23.408651104658304 49.4539
23.431388455719986 50.0609
23.454126742409 51.0138
23.4770436196085 52.071000000000005
23.499783787914662 53.4428
23.522524894889884 54.5284
23.54526694154616 55.8121
23.56818761219047 56.8685
23.59093154860734 57.3779
23.613676427751283 57.3048
23.636422250635754 56.0151
23.659346731118656 54.2505
23.68209445191868 52.31399999999999
23.704843119509587 49.9672
23.72759273490623 48.3588
23.750521041644767 46.9941
23.77327256312355 46.2228
23.796025035462787 45.7446
23.818956224555475 45.3417
23.841710609113413 45.0955
23.86446594758979 44.8208
23.887222241002014 44.7781
23.910157285144578 44.3188
23.932915498962537 44.4604
23.955674670778713 44.3426
23.978434801611975 44.098
24.001373717286125 43.9781
24.024135776723917 43.9102
24.046898798245582 43.6259
24.06966278287146 43.6009
24.092605586582614 43.4561
24.115371508023642 43.2823
24.1381383956401 43.0769
24.16090625045381 43.1496
24.183852958731244 43.1475
24.206622758582608 42.8755
24.229393528706886 42.7688
24.252165270127392 42.8591
24.27511589952438 42.8484
24.297889594216997 42.7994
24.32066426328598 42.4617
24.34343990775613 42.4763
24.36639447485003 42.5152
24.38917208083877 42.3451
24.41195066531332 42.1725
24.43490819850244 42.3744
24.457688750692377 42.2255
24.48047028445616 42.1619
24.503252800821233 42.3572
24.526214300784112 42.4058
24.548998793132213 42.3083
24.57178427117417 42.2836
24.59457073593893 42.1919
24.617536219319863 42.0402
24.64032466834748 42.0329
24.663114107195035 41.9769
24.685904536893013 41.7812
24.708874020360852 41.7662
24.731666442613744 41.7987
24.754459858818787 41.6804
24.777254270007962 41.4484
24.80022777025625 41.5591
24.82302418230472 41.4789
24.845821592443674 41.4947
24.86862000170663 41.5632
24.891597535453727 41.3312
24.914397953892728 41.5758
24.93719937456671 41.5672
24.96000179851076 41.7649
24.98298338249997 41.9475
25.00578782394922 41.9454
25.028593271784167 42.0691
25.05157790644186 42.6191
25.07438537804115 42.7146
25.097193859145293 42.8941
25.120003350792075 43.2189
25.142992065061257 43.5499
25.165803588823465 43.8018
25.18861612625217 43.9577
25.211429678386736 43.8536
25.234422489079968 43.9993
25.257238081693636 44.0618
25.280054692141732 44.4905
25.3028723214652 44.268
25.325869245420463 44.2832
25.348688923599397 44.3408
25.371509623787006 44.19
25.394331347025812 43.6726
25.41733240110666 43.1857
25.440156181590016 42.3904
25.46298098826268 41.7905
25.48580682216873 41.3513
25.50881202326435 40.941
25.53163992281684 40.5484
25.55446885274561 40.4468
25.577298814096377 40.0425
25.600308179121807 40.0395
25.623140214533745 40.1327
25.64597328451537 40.1081
25.66898578564376 39.8173
25.691820936010206 39.8657
25.714657124097695 39.8549
25.737494350954734 39.842
25.760511045684957 39.6851
25.783350361364224 39.825
25.806190718969255 39.7539
25.82903211955018 39.792
25.852053024868923 39.9219
25.874896522722523 39.9616
25.897741066713106 39.8192
25.920586657892454 39.9766
25.943611790812668 40.2776
25.966459487728237 40.2545
25.989308234998564 40.2782
26.01215803367705 40.7716
26.03518741123814 40.9057
26.05803932412957 41.0668
26.080892291600094 40.9734
26.10374631470478 40.9889
26.12677995397268 41.0007
26.14963609978026 40.9321
26.172493304397875 40.5909
26.19535156888223 40.3581
26.218389486949604 39.9348
26.241249882640123 39.7128
26.26411134137826 39.5708
26.28715248187403 39.4536
26.31001607820869 39.4494
26.3328807407756 39.361999999999995
26.35574647063438 39.3904
26.37879191991473 39.2412
26.401659795896734 39.4689
26.424528742360263 39.5158
26.447398760366614 39.744
26.470448535598294 39.961
26.49332070826805 39.9829
26.516193955675355 40.3867
26.53906827888316 40.617
26.562122397260108 40.6925
26.584998883685063 41.1548
26.607876449110325 41.4586
26.63075509460056 41.5128
26.65381357334404 41.5986
26.67669439061878 41.5456
26.699576291163382 41.349
26.722459276044212 41.2253
26.745522132402975 40.8877
26.768407297649354 40.495
26.791293550442003 40.2337
26.814180891848974 39.9745
26.837248143099337 39.8187
26.860137673466657 39.8396
26.88302829566349 39.375
26.90592001075963 39.2307
26.92899167420566 39.169000000000004
26.951885586870763 38.7124
26.974780595655517 38.5201
26.99785558178161 38.3839
27.020752794605112 38.2028
27.043651106772522 38.2033
27.06655051935668 38.2234
27.089629948036183 38.0045
27.112531573292053 37.8933
27.135434302194138 38.0197
27.158338135817015 38.0649
27.181422024430987 38.0874
27.204328079372566 37.8987
27.22723524226965 37.9456
27.250143514198573 37.8826
27.273231880156334 37.9862
27.296142382065014 37.7164
27.319053996245536 37.6693
27.341966723775965 37.8184
27.365059584515222 37.8729
27.38797455070062 37.8326
27.410890633481237 37.7632
27.433807833936918 37.7314
27.456905206923906 37.9598
27.47982465472398 37.9713
27.502745223449743 37.9369
27.525666914182825 38.105
27.548768816912457 37.8695
27.571692763693633 37.8024
27.59461783573812 37.6799
27.617723149491244 37.4219
27.640650484125285 37.4835
27.66357894728264 37.4287
27.686508540048052 37.4588
27.709618414237887 37.3088
27.732550278321757 37.224000000000004
27.755483275279115 37.2542
27.778417406196485 37.1565
27.801531858397514 37.2255
27.824468269376716 37.2311
27.847405817586786 37.1237
27.870344504116094 37.41
27.893463551932008 37.4387
27.916404527281053 37.6786
27.93934664422563 37.8768
27.962289903855886 37.772
27.98541356491974 38.1107
28.00835912214229 38.251
28.03130582533231 38.5125
28.054253675581805 38.598
28.077381967556104 38.5484
28.100332124185126 38.4675
28.123283431160893 38.2409
28.146235889577238 38.0886
28.169368830154156 37.9817
28.192323603752033 37.8106
28.215279532083304 37.5128
28.238415973016764 37.3393
28.261374223145094 37.1831
28.284333631303806 36.9233
28.307294198589954 36.7911
28.330435319167677 36.5023
28.353398217078915 36.1425
28.376362277420153 36.03
28.39932750129032 35.8742
28.422473319286713 35.7536
28.44544088262495 35.8106
28.468409612800283 35.6354
28.491379510913497 35.4036
28.51453004413313 35.363
28.53750229057244 35.341
28.56047570826344 35.2601
28.583450298308804 35.2651
28.606605564586562 35.0742
28.629582511831156 35.1228
28.65256063474956 35.0938
28.675539934446338 35.1005
28.698699951647605 35.0158
28.72168161743193 34.8653
28.74466446331978 34.978
28.767648490417624 34.8211
28.790813276438353 34.8484
28.813799678527303 34.8946
28.836787265157085 34.9485
28.859955641890075 34.9171
28.882945610203045 34.8502
28.905936766392035 34.7353
28.928929111566863 34.8055
28.952102288520145 34.6622
28.975097024308607 34.5208
28.998092952423807 34.3503
29.021090073977508 34.3727
29.04426806913204 34.2153
29.067267590245258 34.0866
29.090268308143695 34.0897
29.11327022394099 34.0384
29.13645305530891 33.9872
29.159457379627167 34.0093
29.18246290519685 33.736
29.20546963313352 33.6659
29.22865731875826 33.6263
29.25166646419296 33.7449
29.27467681535305 33.6552
29.29768837335608 33.76
29.320880931312562 33.7643
29.34389491580634 33.689
29.366910110507334 33.6589
29.38992651653503 33.7496
29.41312396492981 33.5702
29.436142806456754 33.5577
29.45916286268059 33.4769
29.48236399319994 33.3908
29.50538649169417 33.2206
29.528410208259935 33.1572
29.55143514402014 32.8886
29.574641196749695 32.7818
29.597668583816574 32.6457
29.6206971934585 32.4804
29.64372702680042 32.5528
29.666938019934474 32.5486
29.689970313635285 32.33
29.713003834422636 32.3225
29.73603858342347 32.4221
29.759254535188578 32.3524
29.78229175361658 32.257
29.80533020365064 32.2775
29.82836988641968 32.3454
29.85159081507472 32.187
29.874632976355343 32.1495
29.89767637376955 32.2556
29.920721008448314 32.0913
29.9439469322847 31.9314
29.96699405457564 31.9416
29.9900424175358 32.0253
30.013092022298157 31.9159
30.03632295963995 31.8558
30.059375061131373 31.9703
30.08242840783577 31.9518
30.105483000888153 31.9685
30.128718970092244 31.8759
30.151776069006917 31.8484
30.17483441768648 31.989
30.198074175317235 31.8697
30.221135036724256 31.9161
30.24419715131772 31.8257
30.267260520236203 31.7764
30.290505341942243 31.6838
30.313571232750228 31.7842
30.336638381310948 31.7222
30.35970678876503 31.6015
30.38295669299435 31.6096
30.40602763151657 31.653000000000002
30.429099832366074 31.6288
30.452173296685572 31.4942
30.47542830191959 31.4951
30.498504306502497 31.3916
30.521581577995562 31.5739
30.544660117543582 31.6252
30.56792024229725 31.648000000000003
30.59100133132069 31.6389
30.614083691845494 31.5815
30.637167325018545 31.6625
30.660432587840603 31.7116
30.683518779717886 31.6781
30.70660624769615 31.7039
30.729694992924372 31.6883
30.75296541239743 31.7222
30.77605672557558 31.6278
30.799149319462742 31.5866
30.8224236211637 31.4232
30.845518789950724 31.34
30.868615242910597 31.3373
30.891712981195973 31.0689
30.91499247215866 30.927
30.938092794619365 31.1003
30.96119440587579 31.04
30.984297307082752 30.8252
31.00758200598383 30.7995
31.030687500658694 30.6949
31.053794288760695 30.6348
31.076902371446767 30.575
31.100192296997445 30.570999999999998
31.12330298246119 30.5943
31.14641496599209 30.4434
31.169528248749216 30.4501
31.19282341969534 30.4826
31.215939314557186 30.4511
31.239056512134788 30.484
31.262175013589378 30.3871
31.28547544871168 30.3477
31.30859657161541 30.3793
31.331719001892175 30.3635
31.35484274070538 30.4492
31.378148458819545 30.4281
31.401274828443725 30.3551
31.424402510106933 30.3544
31.447712205419993 30.4434
31.470842524931633 30.3501
31.493974159989783 30.3363
31.51710711176168 30.3409
31.54042212308802 30.2853
31.563557722100917 30.2598
31.586694641341655 30.1999
31.609832881979628 30.0766
31.63315322823208 29.8211
31.656294125521327 29.778000000000002
31.679436347728515 29.8138
31.70257989602529 29.6032
31.725905596152327 29.6278
31.74905181052835 29.6026
31.772199354521323 29.6485
31.79534822930507 29.7391
31.818679302290967 29.589000000000002
31.84183085259981 29.7075
31.864983737233473 29.6766
31.88813795736804 29.6919
31.911474422233013 29.5372
31.934631327356435 29.6405
31.9577895715215 29.6351
31.980949155906522 29.5523
32.004291031706956 29.557
32.027453310562606 29.3606
32.05061693318573 29.3207
32.07396288236386 29.3432
32.09712920658542 29.3449
32.12029687812702 29.0479
32.14346589817093 29.0471
32.166817291729984 29.0417
32.18998902288583 28.9595
32.21316210610336 28.7981
32.23633654256711 28.6459
32.259693399663725 28.7755
32.282870556771144 28.5623
32.30604907069099 28.7783
32.329228942610065 28.6435
32.35259128243769 28.4655
32.375773884550505 28.4027
32.398957848235646 28.4287
32.422143174682176 28.3249
32.445511016471215 28.2582
32.468699082679954 28.2598
32.49188851523011 28.2046
32.51507931531304 28.1552
32.538452678331 28.1727
32.56164622776311 28.0664
32.58484114831493 28.0145
32.60803744118015 28.0154
32.631416344731896 28.0386
32.654615396551876 27.9408
32.67781582427913 27.9186
32.701198898634416 27.7978
32.72440209253756 27.8378
32.747606665947124 27.8165
32.77081262006088 27.6611
32.79420126883317 27.7324
32.81740999876112 27.6974
32.840620112999424 27.549
32.86383161274818 27.5187
32.88722585534586 27.5058
32.91044014056596 27.6089
32.933655814909734 27.4676
32.95687287957963 27.4921
32.98027273544904 27.3637
33.00349259526636 27.2999
33.026713849030116 27.4457
33.04993649794511 27.386999999999997
33.073341986570746 27.3508
33.09656744032826 27.3611
33.11979429286444 27.3077
33.14302254538647 27.2922
33.166433686291185 27.1836
33.18966475336992 27.1701
33.212897224069096 27.238000000000003
33.23613109959831 27.2115
33.259547912343415 27.1456
33.2827846121627 27.1284
33.306022720453775 27.0082
33.32926223842861 26.8874
33.352684742614166 26.9467
33.37592709463173 26.9283
33.399170859982064 26.7723
33.422597648419426 26.8319
33.44584425514446 26.6197
33.46909227885668 26.6618
33.4923417207723 26.4848
33.51577423505344 26.5522
33.539026528130385 26.488000000000003
33.56228024307245 26.553
33.585535381098246 26.3114
33.60897364093058 26.2696
33.63223163992385 26.3334
33.6554910656699 26.2036
33.678751919389796 26.2047
33.702195944520106 26.1281
33.72545966903325 26.2105
33.74872482519663 26.1028
33.771991414233746 26.0696
33.79544122444841 26.1256
33.81871069412428 25.9896
33.84198160035767 26.0126
33.86525394437455 26.0046
33.88870955949969 25.8294
33.911984794020626 25.833000000000002
33.93526147001624 25.7768
33.958539588715006 25.761999999999997
33.98200102861669 25.6383
34.0052820477047 25.5639
34.02856451319451 25.6306
34.05203033759056 25.5426
34.07531571090147 25.5047
34.09860253431845 25.4868
34.121890809074316 25.3905
34.145362493118924 25.389
34.16865368561615 25.3204
34.191946333164054 25.3457
34.21524043699793 25.3119
34.23871800066799 25.3221
34.26201503218366 25.1694
34.28531352370466 25.1843
34.30861347646881 25.0908
34.33209693978188 25.0619
34.3553998301885 25.1278
34.378704185565205 25.0156
34.402010007152356 25.0266
34.42549939016683 24.9811
34.44880815937748 24.8526
34.472118398533134 24.7808
34.49543010887669 24.7639
34.51892543169198 24.6736
34.54224009966052 24.8159
34.56555624255917 24.8304
34.58887386163339 24.686
34.61237514439016 24.5517
34.6356957311114 24.583000000000002
34.65901779775809 24.5525
34.68252356662995 24.5139
34.705848608458616 24.5502
34.72917513396849 24.4833
34.75250314440949 24.4458
34.77601490857862 24.285
34.799345904259795 24.2217
34.82267838863559 24.2829
34.846012362958525 24.2446
34.869530142679984 24.2266
34.89286711232212 24.2087
34.91620557568269 24.1522
34.93954553401677 24.1405
34.9630693495876 24.1469
34.986412313340814 24.1459
35.00975677584668 24.1289
35.033102738362956 23.9916
35.05663261012228 23.9956
35.0799815881786 23.9886
35.10333207003229 23.8328
35.12668405694369 23.8679
35.150220005273056 23.8117
35.17357501786656 23.7768
35.19693153931268 23.7484
35.220289570874385 23.6712
35.24383161619786 23.7961
35.267192683604904 23.7874
35.290555264930376 23.712
35.314101899412165 23.6455
35.33746752422433 23.6924
35.36083466676374 23.7177
35.38420332829803 23.6027
35.407756095629054 23.5432
35.43112781085063 23.5188
35.45450104888391 23.4816
35.477875810999194 23.5296
35.50143473172161 23.4146
35.52481255774625 23.479
35.54819191167777 23.4561
35.57157279478914 23.4115
35.595137889488406 23.3709
35.61852184675279 23.3186
35.641907337029984 23.1536
35.665294361595684 23.1152
35.68886565090076 23.1881
35.7122557598848 23.1623
35.73564740699838 23.219
35.759040593519934 23.0911
35.78261809810353 23.0781
35.80601437933051 22.9632
35.829412203814705 22.9349
35.85281157283719 22.8435
35.876395313415884 22.941999999999997
35.8997977874528 22.8971
35.92320180988546 22.7885
35.946790244133936 22.7365
35.97019737933222 22.7086
35.993606066789866 22.6603
36.01701630779276 22.6409
36.04061101440684 22.6302
36.06402437852291 22.6324
36.08743930005611 22.6175
36.1108557802951 22.568
36.13445678011326 22.5138
36.15787639383515 22.4951
36.18129757014299 22.4028
36.20472031032821 22.334
36.22832762423364 22.2986
36.25175350829375 22.2891
36.275180960119776 22.3029
36.298609981005924 22.2597
36.32222362992669 22.2427
36.34565580510207 22.2274
36.36908955323448 22.2167
36.39252487562093 22.0819
36.416144880530226 22.1295
36.43958336764275 22.0568
36.463023432914625 22.0326
36.486465077645676 21.9065
36.51009145956204 22.0225
36.53353627947859 21.9657
36.55698268276811 21.9317
36.58043067073321 21.9164
36.60406345072071 21.8692
36.62751462435344 21.8013
36.65096738658405 21.8227
36.67460498210655 21.7475
36.69806093788647 21.7229
36.72151848619297 21.7091
36.744977628333636 21.6987
36.76862165890998 21.6712
36.79208400512205 21.6375
36.81554794910557 21.5815
36.83901349217101 21.4523
36.862663978991606 21.4997
36.88613273667352 21.4231
36.90960309738324 21.482
36.933075062434064 21.3822
36.95673202673572 21.3925
36.98020721697122 21.3013
37.003684015502365 21.2089
37.027162423645365 21.1802
37.050825886711465 21.1909
37.07430753063053 21.1458
37.09779078812467 21.1823
37.121275660513014 21.1194
37.144945643673694 21.0434
37.16843376245278 21.0688
37.19192350009803 21.031999999999996
37.215414857931435 21.01
37.239091382563885 20.8936
37.262585997426164 20.9327
37.28608223645736 20.9196
37.309763684451696 20.8727
37.33326318851098 20.8259
37.356764320726555 20.7878
37.380267082425526 20.7823
37.40395510942588 20.7474
37.42746114683234 20.6392
37.45096881771841 20.5875
37.474478123414166 20.5782
37.49817275092816 20.5595
37.52168534303452 20.5664
37.54519957395567 20.4321
37.568715445024665 20.4461
37.592416694607714 20.4909
37.61593586281424 20.4408
37.63945667518264 20.4243
37.66297913304891 20.3278
37.68668702630454 20.3973
37.710212792059274 20.2222
37.733740207334854 20.2529
37.757269273470364 20.1659
37.780983832050374 20.1493
37.80451621684926 20.1306
37.82805025654007 20.1143
37.851585952464795 20.0702
37.8753071980695 20.0118
37.89884622345676 20.0087
37.92238690911902 20.0395
37.94611318753442 19.9829
37.969657210779765 19.8941
37.99320289834801 19.9235
38.016750251586465 19.8527
38.04048325513017 19.778
38.06403395679343 19.8021
38.087586328183946 19.7755
38.11114037065203 19.7356
38.13488012115898 19.7776
38.1584375229181 19.7483
38.181996599821 19.6058
38.205557353221124 19.6146
38.229303872575656 19.6127
38.2528679961576 19.547
38.27643380031219 19.5696
38.30000128639589 19.524
38.32375459653193 19.544
38.34732546371299 19.484
38.37089801690786 19.3463
38.39447225747609 19.3019
38.418232380377425 19.3424
38.441810012983396 19.3925
38.46538933705673 19.3018
38.488970353960084 19.2667
38.51273731166058 19.2088
38.536321731567014 19.1775
38.55990784840681 19.1077
38.58367995004091 19.1418
38.60726947812959 19.0997
38.63086070726198 19.0563
38.654453638806274 19.11
38.678232613930824 19.0321
38.70182896773327 18.9419
38.72542702806741 18.8976
38.7490267963045 18.9259
38.77281266709232 18.8351
38.79641586862214 18.8375
38.8200207821842 18.7704
38.843627409152944 18.8028
38.86742019782782 18.7724
38.891030269149255 18.6782
38.914642058016156 18.6559
38.938255565806124 18.6768
38.96205529464307 18.6476
38.98567225787121 18.6521
39.00929094417078 18.5804
39.03291135492255 18.6236
39.05671804624804 18.5432
39.080341923549106 18.4765
39.103967529460334 18.4503
39.127594865365744 18.4262
39.15140854155791 18.3938
39.17503935514948 18.3703
39.19867190290282 18.3285
39.22249083587951 18.3632
39.24612686969409 18.3007
39.269764641845306 18.2754
39.293404153722804 18.2382
39.317230110864074 18.1079
39.34087311998506 18.0992
39.36451787301696 18.176
39.388164371352595 18.1394
39.41199737518003 18.0912
39.43564738196752 18.0679
39.45929913825317 17.9928
39.48295264543308 17.972
39.506792718520884 17.9471
39.530449745387216 17.9236
39.55410852735203 17.8903
39.57776906581474 17.9314
39.60161623079 17.8765
39.625280300200025 17.8124
39.64894613032202 17.8233
39.67261372255866 17.8177
39.6964680021016 17.7652
39.72013913657293 17.7092
39.74381203738292 17.6238
39.76748670593756 17.6635
39.79134812278169 17.6363
39.81502634488497 17.6312
39.83870633896685 17.5743
39.862388106436654 17.5339
39.88625668336918 17.4992
39.90994201572829 17.4472
39.933629125719285 17.4647
39.957503091207826 17.4063
39.9811937746168 17.4706
40.00488623990914 17.3857
40.02858048850006 17.3754
40.05246165409549 17.3177
40.076159487492085 17.2385
40.099859108448875 17.2668
40.123560518384345 17.255
40.1474489070226 17.2101
40.171153913178564 17.2271
40.194860712584955 17.1473
40.2185693066637 17.1501
40.242464941335314 17.1006
40.26617714307655 17.1057
40.289891143772046 17.0951
40.3136069448471 17.0927
40.33750984859743 17.083
40.3612292688043 16.9927
40.3849504936829 16.9327
40.40867352466194 16.922
40.43258372059144 16.8935
40.45631038219906 16.9056
40.48003885420956 16.8695
40.503769138055105 16.8457
40.52768664931955 16.8125
40.55142057531802 16.8239
40.57515631746428 16.7521
40.599079334038514 16.705
40.62281872700477 16.6205
40.64655994043941 16.6041
40.67030297578061 16.6328
40.69423334835778 16.6073
40.71798004609188 16.5688
40.74172857006355 16.5509
40.76547892171441 16.5485
40.7894166736039 16.5391
40.813170699248566 16.5159
40.83692655691388 16.4419
40.86068424804498 16.4745
40.884629402612525 16.3792
40.908390779366385 16.3937
40.932153993938 16.3632
40.95591904777605 16.2848
40.979871628443995 16.3173
41.003640379561936 16.308
41.02741097430883 16.2747
41.05118341413683 16.2026
41.075143444384416 16.1857
41.098919593177826 16.187
41.1226975914255 16.189
41.14647744058318 16.1266
41.170444943946755 16.0862
41.19422851378379 16.1164
41.218013938914645 16.055999999999997
41.24198706625173 15.9576
41.26577622087193 15.9711
41.289567235177785 15.9191
41.31336011063129 15.9434
41.337340752422875 15.877
41.361137369129835 15.9264
41.38493585138705 15.8316
41.40873620066004 15.7697
41.43272438060107 15.8242
41.45652848292052 15.7575
41.48033445666918 15.7246
41.50414230331616 15.6929
41.528138045159764 15.6874
41.551949656675205 15.6317
41.575763145513235 15.633
41.59957851314666 15.5897
41.62358184070442 15.5388
41.64740098505737 15.5607
41.6712220126409 15.5256
41.69504492493139 15.4642
41.71905586207357 15.5041
41.74288256296395 15.4296
41.766711153007456 15.4182
41.79054163368412 15.3716
41.814560204340054 15.3802
41.838394485526365 15.3561
41.86223066180303 15.2969
41.88625497706819 15.235
41.910094962812 15.2785
41.93393684811168 15.2491
41.95778063445365 15.2096
41.981812625263366 15.2032
42.00566023303407 15.1727
42.029509746323676 15.1101
42.05336116662236 15.1098
42.077400857069705 15.1165
42.10125611078846 15.0843
42.12511327600405 15.0123
42.14897235421036 15.0278
42.173019768448455 14.953
42.19688269209613 14.9318
42.22074753323349 14.9604
42.24461429335818 14.9007
42.268669455600495 14.8512
42.292540073217886 14.8662
42.31641261433284 14.8913
42.34028708044675 14.8753
42.36435001496739 14.8224
42.38822835065557 14.7842
42.41210861586426 14.7241
42.4359908120986 14.772
42.46006154323262 14.7153
42.48394762115317 14.6882
42.507835634632315 14.6628
42.531912233047436 14.6094
42.55580413732265 14.5929
42.579697981698 14.5482
42.60359376768525 14.4989
42.62767820545945 14.574000000000002
42.65157789440821 14.4979
42.67547952952185 14.434000000000001
42.699383112316 14.447000000000001
42.72347541395347 14.4005
42.74738291190531 14.3599
42.771292362102166 14.4011
42.795203766063516 14.3378
42.819303956130405 14.3434
42.843219287476536 14.3041
42.86713657716324 14.2401
42.89105582671383 14.2319
42.91516392983864 14.2905
42.939087119032166 14.2453
42.963012272677304 14.1543
42.98693939230129 14.1437
43.01105543317513 14.1249
43.034986504731386 14.1195
43.05891954686589 14.1187
43.08285456110972 14.0734
43.10697856448665 14.0122
43.130917542983475 13.9835
43.15485849820081 14.0214
43.17880143167367 13.9608
43.20293342237094 13.956
43.226880332449 13.9181
43.25082922540554 13.9514
43.27496722682525 13.8494
43.29892010567796 13.8637
43.32287497204102 13.8088
43.34683182745632 13.8303
43.370977859791836 13.7978
43.39493871351105 13.7507
43.41890156092628 13.7295
43.44286640358341 13.6896
43.46702049182749 13.6717
43.49098934522816 13.6649
43.51496019852649 13.6798
43.5389330532723 13.6455
43.56309522248204 13.6393
43.58707210044314 13.6138
43.61105098451946 13.5145
43.63503187626491 13.5038
43.659202151562134 13.4681
43.68318707902681 13.4329
43.70717401884041 13.4588
43.731162972560874 13.4396
43.75534137913236 13.3876
43.779334381108384 13.2881
43.803329401683186 13.3372
43.82732644241872 13.3405
43.8515130055166 13.2963
43.87551410707659 13.3098
43.89951723350145 13.309000000000001
43.923709934595614 13.218
43.94771713129917 13.2207
43.97172635758096 13.1871
43.99573761501002 13.1815
44.0199385169922 13.1529
44.04395385732619 13.1162
44.067971233533086 13.1205
44.09199064718605 13.0591
44.11619977548961 13.0588
44.14022328470671 13.0522
44.16424883610785 13.0337
44.18827643127035 13.0373
44.21249381139513 12.9968
44.236525514814076 12.8625
44.26055926674478 12.913
44.28459506876863 12.9601
44.3088207262813 12.8651
44.33286064928722 12.8638
44.35690262714919 12.8239
44.38094666145278 12.8001
44.4051806219871 12.8388
44.42922879003185 12.770999999999999
44.45327901929361 12.6925
44.477331311362136 12.7752
44.501573600619416 12.6782
44.525630039221795 12.6597
44.54968854541895 12.6807
44.573937102200176 12.6268
44.5979997645541 12.5946
44.622064499300315 12.5441
44.64613130803592 12.5809
44.67038823869318 12.6063
44.69445921643748 12.4909
44.718532272981385 12.4596
44.742607409926194 12.4785
44.76687274034801 12.439
44.79095205918753 12.4325
44.81503346325094 12.4397
44.839116954143876 12.4135
44.86339071028742 12.3889
44.88747839599524 12.3646
44.91156817336837 12.3
44.93566004401666 12.2751
44.959942251908146 12.3072
44.984038330325966 12.2904
45.00813650686762 12.2041
45.03223678314731 12.2092
45.05652746888232 12.1806
45.08063196592069 12.1798
45.104738567558705 12.1119
45.128847275414856 12.1435
45.15314646515866 12.0329
45.17725940679741 12.0632
45.20137445952892 12.0783
45.22568004865265 12.0166
45.24979934496396 11.9859
45.27392075725247 11.9786
45.29804428714431 11.9673
45.322358426247604 11.9234
45.346486212804315 11.9434
45.370616121861914 11.9307
45.39474815505086 11.8774
45.41907087049246 11.8641
45.4432071734666 11.8062
45.46734560548283 11.8447
45.49148616817604 11.8113
45.51581748638564 11.7728
45.5399623320197 11.7413
45.56410931325473 11.7274
45.58825843173002 11.7579
45.61259837920865 11.6892
45.636751793816 11.7114
45.66090735060093 11.6634
45.68506505120716 11.6458
45.7094136545275 11.5846
45.73357566449271 11.5741
45.75773982322992 11.5405
45.78190613238733 11.5704
45.806263418194064 11.4946
45.83043404997326 11.5143
45.85460683713677 11.4954
45.87897065658495 11.4504
45.90314777634752 11.4023
45.92732705646868 11.4394
45.9515084986045 11.421
45.97588104735473 11.3628
46.00006683541565 11.3819
46.02425479047904 11.3429
46.04844491420549 11.3442
46.0728262191024 11.3442
46.09702070211635 11.2988
46.12121735879483 11.2534
46.14541619080294 11.2749
46.169806278764455 11.2415
46.194009483459034 11.1895
46.21821486849841 11.2406
46.24242243555223 11.1653
46.266821333570014 11.1448
46.29103328674601 11.152999999999999
46.31524742696538 11.1206
46.33946375590237 11.0652
46.36387149104216 11.078
46.38809221957392 11.0586
46.41231514186606 11.050999999999998
46.436540259597464 11.0468
46.460956858999374 11.002
46.48518638983522 10.9701
46.509418121166966 10.9406
46.533652054678114 10.9095
46.55807754555709 10.8947
46.58231590571962 10.9202
46.60655647313217 10.8594
46.630988654873654 10.8561
46.655233659129024 10.8689
46.67948087571551 10.8423
46.70373030632484 10.8293
46.72817142736393 10.8075
46.752425308428684 10.7757
46.77668140861147 10.7525
46.80093972960865 10.7093
46.82538981736788 10.7094
46.849652602470904 10.6566
46.87391761349769 10.6397
46.8981848521493 10.6441
46.9226439341274 10.6414
46.946915650573224 10.618
46.97118959976749 10.6059
46.99546578341598 10.5607
47.019933887188216 10.5523
47.04421456235744 10.4855
47.06849747711879 10.4389
47.09278263318286 10.4752
47.11725978640143 10.4217
47.14154944775105 10.3935
47.165841355555656 10.3971
47.1901355115306 10.3802
47.214621741924994 10.4108
47.23892041698887 10.3657
47.26322134538975 10.3386
47.28771440635075 10.3248
47.31201986422527 10.3038
47.33632758061436 10.302999999999999
47.360637557241866 10.2647
47.38513974410611 10.2443
47.40945426407847 10.2073
47.43377104948137 10.1719
47.45809010204344 10.1858
47.48260144275502 10.1568
47.506925052572285 10.1229
47.53125093475548 10.1462
47.55557909103813 10.1099
47.58009961361992 10.072000000000001
47.60443234110732 10.0861
47.62876734791564 10.0763
47.65310463578333 10.05
47.6776343683373 10.0503
47.7019762413987 9.96991
47.72632040075572 9.95777
47.75066684815169 9.953619999999999
47.77520581885936 9.95272
47.799556865477655 9.95505
47.823910205386 9.942039999999999
47.84826584033272 9.872110000000001
47.87281407745551 9.825239999999999
47.89717432569297 9.84947
47.92153687423484 9.83303
47.94609208429692 9.81102
47.97045925671401 9.78329
47.99482873471275 9.74803
48.01920052005013 9.75964
48.04376504619224 9.73885
48.068141469543484 9.71791
48.09252020552573 9.72512
48.11690125590099 9.6888
48.1414751266064 9.67842
48.16586082917454 9.69432
48.19024885144316 9.65901
48.2146391951793 9.64829
48.239222439012764 9.685369999999999
48.26361744916137 9.61989
48.28801478610016 9.620510000000001
48.31241445160131 9.5866
48.337007097209366 9.51709
48.36141144338331 9.513539999999999
48.38581812345755 9.51244
48.41022713920929 9.48749
48.434829215320704 9.47891
48.45924292604658 9.48325
48.48365897780325 9.47194
48.50807737237308 9.415519999999999
48.532688907799276 9.385019999999999
48.55711201168574 9.39973
48.581537463754074 9.365
48.60615611725119 9.384730000000001
48.63058628942721 9.36421
48.65501881516546 9.32248
48.6794536962573 9.329989999999999
48.70408185970339 9.27467
48.72852147531801 9.2322
48.75296345168211 9.22712
48.77740779059232 9.2711
48.80204549302823 9.24329
48.82649458091802 9.22375
48.85094603676547 9.19722
48.87539986237231 9.18614
48.90004713292306 9.139660000000001
48.92450572200832 9.109
48.94896668628025 9.1171
48.97343002754588 9.08758
48.99808689542115 9.09297
49.02255501470614 9.10469
49.04702551642794 9.06595
49.0714984023988 9.038
49.096164896893235 9.02281
49.120642575466796 9.01625
49.145122643748394 8.99702
49.16960510355558 8.96448
49.19428125404938 8.94439
49.2187685210852 8.952580000000001
49.243258185121555 8.91581
49.26794160167084 8.89795
49.2924360839405 8.885580000000001
49.31693296869764 8.82465
49.34143225776915 8.82324
49.36612538195438 8.8576
49.39062950396021 8.8274
49.41513603578346 8.81156
49.4396449792564 8.796660000000001
49.46434784069503 8.763860000000001
49.488861631846454 8.71142
49.513377840166804 8.72747
49.537896467493745 8.6917
49.56260909589029 8.66057
49.587132585683285 8.68256
49.611658500018365 8.63308
49.636186840738596 8.64565
49.66090926588511 8.61913
49.685442483902584 8.59699
49.70997813385706 8.603439999999999
49.734516217597076 8.5832
49.75924846937352 8.5659
49.7837914452858 8.52849
49.80833686055187 8.52872
49.83288471702571 8.48299
49.85762682540054 8.5035
49.882179588965734 8.46405
49.9067347993235 8.47542
49.93129245833333 8.47052
49.95604445336378 8.430539999999999
49.98060703442832 8.40076
50.005172069746266 8.35936
50.02993150438364 8.369019999999999
50.05450147301533 8.34408
50.07907390151433 8.34195
50.10364879174981 8.32467
50.12841816587289 8.30158
50.1529980044635 8.326419999999999
50.17758031042124 8.27293
50.20216508562089 8.26713
50.22694442953363 8.26362
50.25153416817468 8.23762
50.27612638170508 8.2333
50.300721072005196 8.17114
50.325510416102105 8.18829
50.350110084975064 8.17952
50.37471223628208 8.14219
50.39931687190919 8.13697
50.424116246675766 8.09718
50.44872587605249 8.07881
50.47333799543065 8.0847
50.49795260670191 8.08055
50.52276204271512 8.048739999999999
50.54738166295838 8.04552
50.57200378079314 8.03055
50.596628398116835 7.97376
50.62144792604559 7.963760000000001
50.646077567609396 7.976889999999999
50.670709714377715 7.9693
50.69553683636198 7.938439999999999
50.72017401885922 7.95257
50.7448137122895 7.90902
50.76945591856022 7.8905199999999995
50.79429318636823 7.9118
50.818940443716784 7.903110000000001
50.84359021965163 7.8766300000000005
50.868242516085964 7.8445
50.893089960641895 7.82154
50.917747323549435 7.78729
50.94240721271973 7.801760000000001
50.96706963007175 7.7886
50.99192728239342 7.763999999999999
51.01659478166073 7.788119999999999
51.04126481489051 7.74167
51.06593738400761 7.706010000000001
51.090805275207074 7.7195100000000005
51.11548294172845 7.666989999999999
51.14016314993547 7.65175
51.164845901758845 7.658710000000001
51.18972406304274 7.63718
51.21441192780656 7.6518
51.23910234200271 7.604760000000001
51.2637953075678 7.557860000000001
51.288683770237945 7.574910000000001
51.31338186432707 7.5274
51.33808251561888 7.510739999999999
51.362978729967345 7.53333
51.387684521509755 7.5403899999999995
51.41239287610203 7.51308
51.437103795691165 7.470960000000001
51.46201036644977 7.46868
51.486726441956634 7.47955
51.51144508832545 7.43619
51.536166307509156 7.4003
51.56108326624387 7.4107
51.58580965706056 7.4038699999999995
51.61053862657523 7.36463
51.635270176746864 7.366630000000001
51.66019755512065 7.376580000000001
51.68493429268881 7.345210000000001
51.70967361681515 7.31533
51.73441552946465 7.30513
51.759353359237934 7.282710000000001
51.7841004750961 7.29628
51.80885018539685 7.2762199999999995
51.833602492111254 7.2835399999999995
51.8585508051424 7.23602
51.883308330926425 7.20062
51.90806845906181 7.17917
51.932831191525715 7.17747
51.95779001977161 7.1658
51.98255798721516 7.14924
52.00732856494335 7.1351
52.03229530577543 7.142189999999999
52.057071130455945 7.088210000000001
52.081849571391054 7.07879
52.106630630568695 7.07539
52.13160794279417 7.089860000000001
52.15639426492067 7.07285
52.18118321127822 7.065760000000001
52.205974783860896 7.020569999999999
52.23096269971011 7.00196
52.255759551287994 6.96583
52.280559035098186 6.94825
52.30536115314103 6.93962
52.33035970494467 6.95207
52.35516711807904 6.95102
52.37997717147198 6.941439999999999
52.40478986713005 6.91136
52.42979908731974 6.92732
52.454617094216 6.92886
52.47943774942214 6.865639999999999
52.50426105495102 6.830260000000001
52.529280976059844 6.81158
52.554109609024096 6.81645
52.57894089837482 6.805680000000001
52.60377484613117 6.80739
52.62880550079408 6.794630000000001
52.65364479223379 6.7396199999999995
52.67848674816189 6.76382
52.70352547971946 6.75605
52.72837279155837 6.75741
52.753222773982785 6.688060000000001
52.778075429022984 6.70305
52.80312495150885 6.70775
52.827982978797436 6.67024
52.85284368481815 6.65407
52.87770707160767 6.64014
52.90276741793998 6.6191
52.92763619336701 6.624639999999999
52.952507655698504 6.63143
52.977381806977576 6.5895600000000005
53.00245301017842 6.584060000000001
53.02733256653592 6.5769
53.052214817996074 6.5251
53.077099766608484 6.54211
53.102181859804446 6.51542
53.127072229988265 6.50254
53.15196530349892 6.48381
53.17686108239249 6.4933
53.20195409881522 6.46148
53.22685531582556 6.4635
53.25175924441303 6.43898
53.27666588664027 6.4241
53.30176985962693 6.40592
53.3266819565689 6.3933599999999995
53.35159677336455 6.375430000000001
53.376514312083096 6.37436
53.40162927507703 6.37804
53.42655228516116 6.4009
53.45147802340193 6.34007
53.47660125628886 6.3082
53.50153247842639 6.30057
53.52646643496923 6.3082199999999995
53.55140312799818 6.26739
53.576537409691696 6.26595
53.60147960336152 6.2392199999999995
53.626424539786164 6.21696
53.65137222105307 6.210780000000001
53.67651758529126 6.18773
53.70147078399681 6.15383
53.72642673383343 6.1631800000000005
53.75138543689533 6.18157
53.776541917524526 6.14887
53.801506154876755 6.11161
53.826473151763246 6.11676
53.851442910284916 6.10752
53.87661054126026 6.0778
53.9015858509782 6.08394
53.92656392866066 6.10229
53.95154477641532 6.09515
53.976723591801296 6.0209
54.00171000771266 6.00863
54.02669920004598 6.04686
54.051691170915745 6.0051
54.076881204886796 6.00939
54.101878760928514 6.003480000000001
54.12687910187696 6.00596
54.152077577768296 5.94569
54.1770835166946 5.88429
54.20209224691339 5.92168
54.22710377055121 5.92692
54.25231352511594 5.933680000000001
54.27733066384342 5.8932
54.30235060239643 5.89856
54.32737334290836 5.8786
54.35259441062629 5.80641
54.377622783395324 5.81628
54.40265396455061 5.80315
54.42768795623251 5.7613199999999996
54.45292037169559 5.7536
54.477960012857906 5.79296
54.50300247099511 5.75611
54.52804774825457 5.7172
54.55329154616743 5.677569999999999
54.57834249018678 5.65992
54.6033962597977 5.6474400000000005
54.6284528571545 5.66495
54.653708072335164 5.599480000000001
54.67877035378786 5.60966
54.70383546947698 5.59441
54.72890342156389 5.55186
54.7541700889442 5.51278
54.77924374251975 5.522
54.8043202390049 5.4526900000000005
54.82959552413022 5.4534
54.8546777351945 5.43675
54.87976279569621 5.41641
54.90485070780914 5.4603
54.930137506558005 5.3794900000000005
54.95523115074295 5.425590000000001
54.98032765308844 5.3497699999999995
55.005427015775496 5.3236300000000005
55.03072536339621 5.33697
55.05583047570572 5.3211
55.080938454927676 5.32019
55.10604930325027 5.210459999999999
55.131359235107396 5.2491900000000005
55.15647585066083 5.22052
55.181595341907496 5.21399
55.20671771104285 5.17698
55.232039262617704 5.13999
55.25716741665048 5.07085
55.28229845518636 5.11573
55.30743238042802 5.05007
55.33276558731939 5.05663
55.357905315183636 5.07534
55.383047936390035 5.01169
55.40819345314859 5.00357
55.433538351073295 5.0231699999999995
55.458689688238415 4.956180000000001
55.483843927614096 4.89593
55.509197623043605 4.93377
55.53435769621134 4.87472
55.55952067826466 4.84342
55.5846865714265 4.83741
55.61005202069737 4.82475
55.63522376553902 4.80422
55.66039842818645 4.7394
55.68557601087004 4.79674
55.7109532500271 4.71357
55.73613670233794 4.70811
