TT I
1.2716486653135266 6.803960000000001
1.2939594142134223 6.274369999999999
1.3162702121660406 6.19804
1.3385810600174564 5.73179
1.3608919586137629 6.13404
1.383202908801069 5.78466
1.405513911425503 6.25328
1.4278249673332093 6.16404
1.4501343378461518 5.11036
1.4724455028545926 5.77182
1.4947567236847858 6.35503
1.517068001182951 5.7727900000000005
1.5393793361953272 5.57496
1.5616907295681737 5.291930000000001
1.5840021821477681 5.499140000000001
1.60631369478041 4.87058
1.6286252683124185 4.88283
1.6509369035901333 4.93243
1.6732468618895553 4.8843
1.695558623192809 4.09997
1.7178704487808514 4.894080000000001
1.7401823395001077 4.44535
1.7625012545597203 4.67526
1.7848028405262486 4.6670300000000005
1.8071218901122095 4.31735
1.8294236121921872 3.7342400000000002
1.8517427996910911 4.07455
1.8740620574440425 4.571940000000001
1.8963639900671978 4.57581
1.9186833908139995 4.20475
1.9409854680117449 3.83472
1.9633050151394713 4.38929
1.9856246367570705 4.18533
2.0079269371922672 4.08652
2.03024671027244 4.01689
2.0525491637446027 4.266780000000001
2.074869091674931 4.08207
2.097171701569106 4.12948
2.1194917877373847 4.221509999999999
2.141811954326636 4.48447
2.164114805233074 4.25521
2.186435135143035 4.42486
2.208738150935709 5.176769999999999
2.231058647554722 6.44599
2.2533792288321184 5.92494
2.275682498336085 5.4172199999999995
2.298003251406138 4.73514
2.3203066942619714 5.15919
2.3426276225136022 5.05086
2.3649486396617507 5.22461
2.387252348930071 5.84282
2.4095735463442893 5.6111
2.4318774374315884 5.9410099999999995
2.4541988185014043 6.599530000000001
2.476502894794693 7.1308300000000004
2.498824462909887 7.2968399999999995
2.521146125856138 7.04588
2.5434504863470337 7.34083
2.5657723414244717 7.47307
2.588076895590662 8.18585
2.610398946189713 8.89591
2.6327210958598384 8.37805
2.6550259469304716 8.307269999999999
2.6773482972090137 8.48695
2.6996533504259 9.420810000000001
2.7219759047039602 8.242460000000001
2.744298562293959 8.33469
2.7666039251246595 8.098510000000001
2.7889267918020164 8.04161
2.8112323652516555 7.89417
2.833555444408179 8.31684
2.8558786311183852 7.9936
2.8781845268938557 9.06604
2.9005079311721484 9.22611
2.9228140460410397 8.81912
2.9451376712799635 9.316510000000001
2.967444008632326 9.84065
2.9897678582247247 10.0141
3.0120918213106695 10.3242
3.0343984987899373 10.3842
3.0567226913198637 10.5734
3.079029599759726 11.3634
3.101354025127254 11.9463
3.123678568232338 12.2665
3.145985829517914 12.5636
3.16831061055229 12.9263
3.1906181112775593 14.2212
3.212943133635653 14.745999999999999
3.2352682779763207 14.9264
3.2575761442691227 14.7875
3.2799015350264273 15.0584
3.302209649240067 15.4781
3.3245352898092655 15.6308
3.3468436553365257 16.5279
3.369169549113219 16.7479
3.3914955708171384 17.7215
3.413804319727358 17.9899
3.4361305997334863 18.2256
3.4584396084414553 18.7167
3.4807661501462652 19.1081
3.503092824025881 19.8617
3.5254022288463154 20.5331
3.5477291695206588 20.8447
3.5700388426251948 20.6461
3.5923660534916446 20.9076
3.6146934007816114 22.5404
3.637003482731501 27.4293
3.6593311053109985 29.7549
3.681641464033634 26.6447
3.7039693653009733 24.3489
3.726297407241705 24.5606
3.7486081875460804 23.7027
3.7709365132734978 24.6569
3.793247578841633 25.1849
3.8155761917550093 25.1133
3.8378875459837216 25.9518
3.8602164494827234 26.5037
3.882545499606844 26.7912
3.9048572932539183 27.3212
3.9271866390645718 27.7877
3.9494987298666713 28.7422
3.971828374764527 28.7792
3.9941581705403255 28.8093
4.016470713506008 29.3794
4.038800813471445 30.5177
4.061113662089144 30.7408
4.0834440696459176 31.0945
4.105774632334751 31.7257
4.128087945865126 32.3538
4.150418821249301 32.9986
4.172732448931298 33.5347
4.195063640413578 34.2024
4.2173775856475215 35.1867
4.239709096631102 38.0192
4.262040768704612 52.2757
4.284355196706267 63.5034
4.306687193387355 56.3491
4.329001947444346 43.9527
4.35133427213731 40.4979
4.373666762177566 40.3559
4.395982011761091 41.1342
4.418314834921175 42.0263
4.44063041906622 43.3469
4.4629635787515625 44.6262
4.4852969080429785 46.2096
4.5076130004776225 46.354
4.529946671403969 46.7404
4.552263106909177 47.3769
4.574597122877047 48.4257
4.596931312711224 49.692
4.619248269273446 50.6932
4.6415828092605835 51.6661
4.663900117405352 52.9047
4.686235010953232 54.2946
4.708552674085913 55.494
4.730887924602802 56.6966
4.753223354952695 58.5609
4.775541557023902 59.6624
4.797877349456786 61.0165
4.820195915032126 63.3532
4.842532072957498 64.271
4.864868414979744 65.9998
4.88718753227192 67.8739
4.909524244902505 70.0459
4.931843734218147 71.7522
4.954180820867835 74.3633
4.976518095879839 77.2417
4.998838149695359 79.9917
5.021175803844231 83.1797
5.043496238205739 86.06700000000001
5.065834274903528 89.3559
5.088172504230693 94.0302
5.1104935158799565 98.3119
5.132832132875765 105.18
5.155153533596801 117.7
5.1774925416746225 137.239
5.199814334878411 231.683
5.2221537374521505 815.346
5.244493338631803 2549.04
5.266815727034316 7302.74
5.289155727832427 13908.0
5.311478517248165 9901.67
5.333818921080011 3310.4
5.356159527788849 650.3009999999999
5.3784829252032536 199.25599999999997
5.400823940070432 142.07
5.423147747031976 123.26299999999999
5.445489173474152 113.95299999999999
5.467830807066149 108.484
5.490155234831516 104.70700000000001
5.512497285125229 101.229
5.534822130975162 99.8033
5.557164601388673 97.6385
5.579489868738879 95.0648
5.601832762690846 93.5105
5.6241758697774475 92.2686
5.646501775867269 91.5619
5.668845311622074 90.6583
5.691171647754637 90.2888
5.713515615597765 89.0635
5.735859800852677 88.3159
5.758186788542988 87.0754
5.780531411018185 87.3614
5.802858837297399 86.5865
5.825203900414495 87.0782
5.8475491852224 86.6828
5.869877275883075 87.2837
5.892223006467101 87.9199
5.914551544266608 88.5583
5.936897724049891 90.8737
5.959244129804903 94.82700000000001
5.981573344815301 106.32600000000001
6.0039202049061 164.495
6.026249875609095 394.629
6.04859719346037 891.965
6.070927323278297 2051.41
6.093275102315365 4503.8
6.115623113320588 5506.3
6.137953938319995 3565.18
6.160302415650845 1082.85
6.182633708324452 241.171
6.2049826554078376 109.09899999999999
6.227331838745022 87.051
6.249663839443684 79.9342
6.27201349767565 76.0367
6.294345974611799 74.2537
6.316696111167083 73.3838
6.339046488263839 71.64399999999999
6.361379686074702 68.6082
6.383730546639482 66.7123
6.406064229255215 64.7646
6.428415576718203 64.2881
6.450749747566656 63.4415
6.47310158535871 62.7052
6.495453669698332 61.9392
6.517788579421056 61.5731
6.540141159237969 60.2398
6.562476565766648 59.4953
6.5848296444934045 59.3353
6.607182974060425 58.6461
6.6295191323281015 58.1375
6.651872965955752 57.7796
6.6742096296068985 58.806000000000004
6.6965639707294615 63.0596
6.71891856698715 63.9657
6.741255995248479 59.8446
6.763611104154477 56.8511
6.785949046381137 55.5119
6.808304671371482 54.7168
6.8306605557940046 54.4869
6.852999275508618 54.067
6.875355681171544 53.913000000000004
6.897694923437771 53.8019
6.92005185377892 53.5243
6.9423916220322655 53.6578
6.964749080490181 52.7744
6.987106804399774 52.6977
7.009447368180821 52.3984
7.031805625367033 52.3918
7.054146723727803 52.6551
7.076505517631004 52.515
7.098864581288365 52.2683
7.121206488070854 51.7408
7.143566093607822 51.4312
7.165908543567245 51.6537
7.188268694426048 51.3124
7.2106291193438095 51.2042
7.232972390625943 51.2082
7.255333366030969 51.816
7.277677189091925 55.4065
7.300038718428332 61.8892
7.322400526130865 60.8912
7.344745183422596 55.621
7.367107550224791 52.4743
7.389452767901992 51.8029
7.411815697249891 51.5102
7.434161478756298 51.3157
7.456524974096713 51.1989
7.478888753837185 51.6592
7.501235387657368 52.8752
7.523599738562711 57.7344
7.545946944825532 65.7237
7.568311870344528 69.7241
7.5906770845765665 62.4142
7.613025156078678 55.9599
7.635390950099687 53.5833
7.657739602662809 52.7888
7.680105979923558 52.8477
7.702472650212829 53.0843
7.724822180948224 53.1397
7.747189439655568 53.2071
7.769539560075357 53.5129
7.791907410653562 54.1678
7.81425812420825 53.8681
7.836626570110925 54.0195
7.858995315087906 54.7843
7.881346924933401 55.1734
7.903716270417482 55.6021
7.926068482028405 55.8965
7.948438431475253 56.4821
7.9708086843180235 56.9128
7.993161805171116 57.3643
8.015532667162402 57.5685
8.037886398416653 58.9126
8.060257873014221 59.1202
8.082629655331942 60.0303
8.104984308787587 60.5961
8.127356708900503 61.2991
8.149711981398308 62.4935
8.172085002766314 63.7341
8.194458336181368 64.085
8.216814543847752 64.6804
8.23918850371002 65.9089
8.26154533906492 66.9576
8.283919928836452 68.5655
8.306277395339652 69.4419
8.328652618483376 70.6323
8.351028159736202 72.4805
8.373386579575245 74.5023
8.395762759396959 75.6306
8.418121819038275 78.1998
8.440498640894003 81.6354
8.462875785192262 86.6357
8.485235811156207 94.5761
8.507613602688501 129.279
8.529974277114228 233.488
8.552352719347912 383.56300000000005
8.574731488360351 626.569
8.59709314210385 1113.25
8.619472567021075 1873.61
8.64183487789147 2336.73
8.664214962183097 2027.3
8.686577933647762 1117.3
8.708958680784317 416.43300000000005
8.731339760774953 170.38299999999998
8.753703729764451 108.321
8.77608547780821 95.1492
8.798450116065078 91.3744
8.820832535634787 88.3316
8.843215292401656 87.4085
8.865580941199045 86.2443
8.887964374703538 84.7177
8.910330701447199 84.2428
8.932714815164482 83.2872
8.955099270424924 82.7568
8.977466620733543 82.0003
8.999851761421976 81.1727
9.022219798361645 80.2424
9.04460562795561 80.0133
9.066991803441677 80.0435
9.089360876979615 79.8523
9.111747746589993 79.5316
9.13411751544971 79.256
9.156505082664324 79.1992
9.178875550323522 79.242
9.20126381862328 81.6218
9.223652438908596 88.9504
9.246023961427412 102.167
9.26841328802173 106.381
9.290785518039224 97.9818
9.313175554425882 87.0557
9.335565947154315 81.0591
9.357939245086508 80.0524
9.380330352834827 79.8543
9.40270436697103 80.3154
9.425096193225055 80.017
9.447488380180165 80.793
9.469863475295412 80.5981
9.492256385987508 81.3318
9.514632206018318 81.8258
9.537025843935714 81.9809
9.559402392368193 82.6668
9.581796761000229 83.2827
9.604191496441521 83.7117
9.626569144158516 84.4437
9.648964615551032 85.9562
9.671343000390081 87.0575
9.693739211225699 87.39399999999999
9.716135793237463 87.8802
9.738515290448102 88.6671
9.760912617143402 90.2491
9.783292860202891 91.0642
9.805690935076182 92.0692
9.828089385495742 92.8387
9.850470754023561 94.40700000000001
9.872869957865444 96.40899999999999
9.89525208097539 99.59100000000001
9.917652041736662 103.01299999999999
9.940052382417589 106.339
9.962435644102392 115.419
9.984836746950979 147.649
10.007220771957746 228.842
10.029622640473708 352.457
10.052007432299963 525.643
10.074410069984072 781.3969999999999
10.096813093716005 1205.51
10.119199042482517 1765.4
10.141602840636468 2115.52
10.163989564971628 1726.72
10.186394141051062 1008.61
10.208799107559706 442.658
10.231187001965623 197.72
10.253592751657669 124.656
10.275981430388155 107.79700000000001
10.298387966769793 103.353
10.320794897965431 102.147
10.343184759907361 101.103
10.36559248305461 99.3535
10.387983138083852 98.2244
10.410391656691655 99.1379
10.432800574501677 108.306
10.455192425893369 130.488
10.47760214443012 163.534
10.499994797678786 206.095
10.522405320453982 276.534
10.54479877906917 390.906
10.567210109595656 512.9780000000001
10.5896218454736 595.309
10.612016518879773 573.25
10.634429067781074 402.676
10.656824555333241 237.89700000000002
10.679237920773568 143.297
10.701651695961992 103.68
10.724048411481384 92.1638
10.746463008485165 85.9041
10.768860546937125 82.3207
10.791275969274796 79.8247
10.81369180576079 78.7485
10.836090585366925 78.0085
10.858507252467449 76.8297
10.88090686379991 75.6944
10.903324365036394 74.9173
10.925724811614439 73.52600000000001
10.948143150509463 73.4123
10.970561909719066 72.5786
10.992963615930844 71.9906
11.015383218085756 71.2837
11.037785768347074 70.15
11.06020621697282 69.4502
11.082627090322113 69.1572
11.105030913430326 68.5408
11.12745263854165 67.9934
11.149857314510728 67.5317
11.172279894912576 67.7623
11.194702904450653 67.462
11.217108866490921 66.5426
11.239532736615194 65.9362
11.26193956033512 65.4797
11.284364294577085 64.89399999999999
11.306789462371718 64.2355
11.329197585398376 63.7573
11.351623622610898 63.8845
11.37403261614354 63.34
11.396459526308487 63.1924
11.418869393879497 62.7266
11.441297180532617 62.3097
11.463725406927658 61.9193
11.486136592353875 61.7781
11.508565700543707 61.2103
11.530977768845315 61.5945
11.553407762368774 61.5517
11.575838200059769 61.2812
11.598251599479612 61.2333
11.620682927815501 60.6435
11.64309721895548 60.8233
11.665529441478206 60.3989
11.687962112597958 60.1757
11.710377748130886 60.0687
11.732811318753434 60.3305
11.755227854859067 59.9995
11.777662328529495 60.0039
11.800079768750786 59.9006
11.822515149015453 59.8563
11.844950984084935 60.2125
11.867369787303163 59.942
11.889806534289491 60.3317
11.912226250487029 61.5996
11.934663912939751 64.2694
11.9571020346363 66.4511
11.979523127133968 66.9367
12.001962169624331 65.3554
12.024384183972964 63.1693
12.046824150809913 64.3764
12.069264581333726 69.832
12.091687985297767 77.6996
12.11412934550045 87.2439
12.136553680195208 100.723
12.158995973632788 122.005
12.181438735204349 147.92
12.20386447284199 180.63
12.226308172985636 200.827
12.24873485024193 208.94
12.271179492516982 177.32299999999998
12.293607112949127 133.278
12.316052700916226 96.3731
12.338498763250042 73.9257
12.360927805303868 64.751
12.383374818673879 62.2429
12.405804812803074 61.2721
12.428252780773262 61.4124
12.45070122756722 61.2626
12.473132656675375 61.276
12.49558206341869 61.527
12.518014453510101 61.4237
12.540464823770117 61.8473
12.562915677315177 61.8847
12.58534951575545 62.2918
12.607801338171472 62.1549
12.630236146511358 62.7621
12.652688941369085 63.934
12.675124723177234 64.4701
12.697578494048786 64.566
12.720032754458185 64.346
12.742470003354093 64.6146
12.764925245138771 64.7436
12.787363476431278 65.4313
12.809819703166806 65.7724
12.83227642391173 66.2695
12.854716135692716 66.7647
12.877173846755147 67.6204
12.899614549869717 68.14
12.9220732548287 68.9674
12.94453245827299 69.6278
12.966974655289818 70.6029
12.989434858002571 71.3835
13.011878055298721 71.9163
13.034339260862497 72.9369
13.056800969391883 74.5924
13.079245674017244 77.077
13.101708390774869 78.42699999999999
13.12415410463411 82.4952
13.146617833206086 93.0069
13.169064559883248 108.854
13.191529303857127 127.09700000000001
13.213994557076367 150.813
13.236442809902437 183.907
13.258909083908291 232.78400000000002
13.28135835851934 296.0
13.30382565690295 373.14300000000003
13.326293469022952 442.376
13.348744283242008 449.147
13.371213125129904 378.798
13.39366497011003 278.16
13.416134845360597 182.257
13.438605238843131 126.16
13.46105863690397 102.569
13.483530069144786 99.3751
13.505984506951902 107.985
13.528456981549432 121.48200000000001
13.550929978879088 137.457
13.573385983253365 159.297
13.595860028340867 192.028
13.618317081455832 238.983
13.64079217790333 301.728
13.663250283359057 360.806
13.685726434770173 389.14
13.708203115221277 362.776
13.730662806148091 287.041
13.75314054697177 203.525
13.775601299246777 136.88299999999998
13.798080104050406 99.5364
13.820559442405358 84.4043
13.843021793671388 79.7227
13.865502201420897 77.6275
13.887965623051947 77.16199999999999
13.910447103807167 76.188
13.932929122629764 74.9021
13.955394156785959 74.6524
13.977877254034569 73.6365
14.000343367582113 72.7155
14.022827546871707 72.0967
14.045294743423524 71.3235
14.06778000837062 71.0172
14.090265817715476 71.0621
14.112734645763819 71.5947
14.13522154619454 72.8134
14.157691466286913 74.4221
14.180179461423874 74.2702
14.202668005486178 72.6308
14.22513957064374 70.4592
14.247629214846473 69.0767
14.270101881097517 67.9439
14.29259262906496 67.6297
14.315083930490205 67.4985
14.337558255389705 67.3339
14.360050666019726 67.4223
14.382526101071944 67.2232
14.405019624534942 66.6916
14.427513705993134 66.5896
14.449990813291825 66.6125
14.47248601302899 66.4858
14.49496423954951 66.6133
14.517460561197822 66.6672
14.539939910570322 66.3963
14.562437357763558 66.4891
14.58493536931253 67.0175
14.607416409993311 67.0873
14.62991555254159 67.1291
14.652397725157423 67.4084
14.674898002342799 67.6597
14.697398848433282 67.7059
14.719882725991326 68.3768
14.74238471217934 68.6954
14.764869730765593 70.9155
14.787372860692983 74.9212
14.809876564079925 81.6666
14.83236330125751 89.6754
14.854868153850365 98.8462
14.877356041159485 111.366
14.899862046604186 127.471
14.922351087688757 150.642
14.944858249632887 180.511
14.967365991421232 210.62900000000002
14.989856770231246 229.857
15.012365673994204 227.929
15.03485761569738 199.46200000000002
15.05736768508665 157.87
15.07987833888692 120.384
15.102372032001655 93.281
15.124883856909658 77.1881
15.14737872204565 71.0935
15.169891721717274 68.8064
15.192405310371893 68.1125
15.214901940621196 67.7117
15.237416709527137 66.7615
15.259914520936249 66.6108
15.282430473753607 66.0188
15.304947020131227 65.4146
15.327446610371178 65.155
15.349964346154254 64.7037
15.372465126703139 64.5522
15.394984055556009 64.4014
15.417486030076159 64.3717
15.44000615566487 64.0765
15.462526881230803 63.7647
15.485030653812652 63.8164
15.507552581617434 63.8073
15.530057557334603 63.6615
15.55258069104857 63.6421
15.575104429329837 63.8615
15.597611216864632 63.5852
15.620136166564563 63.7383
15.6426441664095 64.2047
15.665170331202765 65.6198
15.687697105158826 69.0447
15.710206930593545 74.2384
15.732734925158933 80.2906
15.755245972089478 87.4476
15.77777519094324 96.2897
15.800287463046663 107.125
15.822817909869592 124.58200000000001
15.84534897229804 145.048
15.867863089299354 169.618
15.890395385222186 191.157
15.912910736597423 202.146
15.935444269699861 195.486
15.957978423016485 167.908
15.980495633101265 133.842
16.003031029129367 103.61399999999999
16.02554948280019 80.9378
16.048086125229432 69.0799
16.070623392487107 64.4673
16.09314371869582 62.5584
16.11568223789321 61.1746
16.13820381691126 59.6824
16.160743591742527 59.1426
16.183283996022084 58.5525
16.205807461423195 57.4562
16.228349126881973 57.1156
16.25087385432698 57.0197
16.27341678466365 56.3602
16.29594277784926 55.9652
16.31848697676433 55.8117
16.341031811604868 55.545
16.36355971058487 55.3319
16.3861058195587 55.2279
16.40863499352978 54.3798
16.431182380342005 54.4368
16.453730407713202 54.2405
16.476261501364792 54.0024
16.498810812136167 53.6771
16.52134319004079 53.6973
16.54389378792203 53.6615
16.566445031001553 53.6126
16.588979342490088 53.2741
16.61153187824822 53.0859
16.634067483263312 53.1949
16.656621315414416 53.0768
16.679175797408888 52.7292
16.701713349928728 52.7215
16.72426913389191 53.0617
16.74680798922351 52.8007
16.76936507887444 52.8322
16.791905240734874 52.9087
16.814463639794468 52.8169
16.837022695210294 52.8763
16.859564824093756 53.132
16.882125194503903 53.2215
16.904668639217885 53.7102
16.927230328348003 53.9198
16.949792678493612 54.358000000000004
16.972338104193863 54.3025
16.994901778652235 54.0306
17.017448529496576 53.8551
17.040013531998152 53.9338
17.06257920018044 54.2734
17.0851279459922 54.9623
17.107694947817667 56.2795
17.130245028099072 57.3631
17.15281336730298 58.8002
17.17536478578733 60.4688
17.19793446610687 62.666000000000004
17.220504818648422 65.3869
17.243058251703697 68.3341
17.265629950971032 72.9986
17.288184731571736 77.79899999999999
17.310757781306908 82.6012
17.33333150794385 83.7691
17.355888317140174 83.2026
17.37846339986244 79.084
17.401021565958885 72.2594
17.42359800851343 65.9119
17.44617513265564 61.5836
17.468735341390783 59.1806
17.491261035594565 57.7916
17.51396340099364 57.486999999999995
17.536490463869136 57.4519
17.559018209820174 57.44
17.58154663977963 57.3286
17.604251766089718 57.6396
17.626781572227713 57.9469
17.64931206518155 58.0767
17.671843245885103 58.4065
17.69455114821572 58.6833
17.717083712612634 59.0245
17.739616967569667 59.5479
17.762150914021706 60.0259
17.78486160749854 60.2557
17.807396945166804 60.9561
17.829932977143503 61.4069
17.85246970436452 62.0615
17.875183204129467 63.7834
17.897721330097664 66.7924
17.920260154126645 70.2106
17.942799677153296 74.0876
17.9655159983646 78.134
17.988056927677544 83.0607
18.010598558807683 89.4491
18.033140892692916 98.5295
18.05586005052525 109.59
18.07840379824407 121.831
18.10094825154059 133.364
18.12366954819864 142.67600000000002
18.146215420998306 144.373
18.16876200220057 137.99
18.191309292745153 123.837
18.214033452627167 108.7
18.236582170236648 96.0299
18.259131600016456 88.6376
18.281681742907335 86.404
18.304408781233683 89.5519
18.32696035875955 94.5529
18.349512652227624 99.7724
18.372065662579683 105.245
18.394795594587553 107.24799999999999
18.41735004715306 104.281
18.43990521943684 97.9994
18.46246111238171 88.279
18.485193953325208 78.42699999999999
18.507751296070428 70.5963
18.530309362314178 65.6544
18.552868153000343 63.1924
18.57560391815056 61.5039
18.59816416623245 60.847
18.620725141597372 60.2738
18.643286845190268 59.6083
18.666025549835414 59.0391
18.688588718427933 58.3032
18.711152618092243 58.3422
18.73389353884365 58.0758
18.75645890921984 57.7544
18.77902501351406 57.1558
18.801591852673102 57.1413
18.824335739722738 56.6198
18.846904057212626 56.6408
18.8694731124168 56.2462
18.89204290628315 56.1794
18.914789774966803 56.2109
18.937361054791623 55.8826
18.959933076131318 55.5462
18.982505839934877 55.3122
19.00525570560582 55.3277
19.027829963004184 55.2027
19.05040496572238 55.18899999999999
19.072980714710468 55.2497
19.095733592739563 55.0701
19.11831084296757 55.3828
19.140888842324735 56.1905
19.16346759176222 56.5329
19.18622349753803 57.1592
19.208803755869358 58.3975
19.231384767143577 59.6589
19.253966532312948 61.0628
19.276725481241822 62.994
19.29930876296784 65.7727
19.3218928014549 69.0739
19.34465404436217 72.0903
19.36723960516257 74.8978
19.389825925592426 76.1187
19.412413006605938 74.9582
19.43517731967805 72.1556
19.457765930683355 67.9187
19.48035530514408 63.157
19.50294544401556 59.1815
19.525712842708348 56.1805
19.54830451925909 54.6225
19.570896963095727 53.158
19.593490175174704 52.7413
19.616260674962184 52.7456
19.638855432416964 52.2103
19.661450960992624 52.5244
19.68404726164677 52.2984
19.706820878021247 52.0866
19.729418731756834 52.4429
19.752017360452857 52.1252
19.77461676506804 52.2085
19.797393513540218 52.1033
19.819994478951667 52.2852
19.84259622316767 52.9145
19.8651987471481 53.5091
19.887978643247177 53.8512
19.91058273574792 54.5524
19.933187610901943 55.1138
19.955969879466828 56.4309
19.97857632894404 57.887
20.00118356396599 59.2658
20.023791585494575 61.3596
20.046577028914875 64.2982
20.069186632506966 66.8058
20.091797025500632 69.0508
20.114408208858933 70.6528
20.137196842715273 70.7391
20.159809615886765 69.2393
20.18242318232135 66.8649
20.20503754298326 64.0546
20.227829382875154 62.5686
20.250445341109344 61.7919
20.27306209647285 62.3845
20.29567964993108 63.6029
20.31847471147704 64.6626
20.34109387027612 65.6123
20.363713830075454 65.3334
20.386334591841646 64.3628
20.409132890679302 61.5573
20.431755265564437 58.4038
20.454378445325528 55.391000000000005
20.477002430930366 52.8692
20.499803982716553 51.2294
20.522429589228004 50.1377
20.54505600449589 49.6048
20.567683229489194 49.3795
20.590488049900088 49.1892
20.61311690359731 49.0956
20.63574656993626 48.9562
20.658553853717297 48.5757
20.681185154618298 48.51
20.703817271080066 48.3714
20.72645020407368 47.9614
20.749260783967177 48.0702
20.771895359337133 48.1807
20.794530754161617 48.2148
20.817166969412938 48.0664
20.83998086114876 47.9052
20.86261872660049 47.7625
20.885257415405402 47.6746
20.90789692853701 47.6718
20.930714147864748 47.3531
20.953355319030678 47.4934
20.97599731745334 47.5796
20.99864014410749 47.4006
21.021460706796564 47.5258
21.044105199328826 47.816
21.06675052302631 48.0277
21.089396678865015 48.1867
21.112220600704806 48.4793
21.134868430275347 48.7114
21.15751709492456 49.0027
21.180166595629693 49.1789
21.202993892429635 49.9313
21.22564507473034 50.2402
21.24829709602816 50.5632
21.27112693608965 50.8439
21.293780644891275 50.7461
21.316435195634053 50.239
21.339090589297417 49.3957
21.361923832041875 48.7127
21.384580921090404 48.0384
21.407238856007325 47.387
21.429897637773326 47.4648
21.45273429906592 47.5769
21.475394784108598 47.4259
21.498056118951983 47.3834
21.520718304578022 47.4958
21.543558400304388 47.7085
21.566222297108816 47.7479
21.58888704765135 47.7248
21.61155265291521 47.9878
21.63439619898156 48.5954
21.657063523335786 49.1212
21.67973170537063 49.4971
21.7024007460706 50.355
21.72524775840385 51.0873
21.747918526116475 52.2495
21.770590155457388 53.1408
21.79326264741238 54.5989
21.816113141960237 56.3405
21.838787368860547 58.4506
21.861462461341976 60.6773
21.884315579735777 63.0388
21.90699241312273 64.6689
21.92967011506078 65.6833
21.95234868653799 65.5468
21.9752053151131 64.2616
21.997885635446785 62.1903
22.020566828293532 59.9484
22.04324889464272 57.8523
22.066109049404666 56.406000000000006
22.088792872571794 55.9621
22.111477572219204 55.9968
22.1341631493376 56.205
22.157026846313123 56.1277
22.179714188221507 55.4653
22.202402410582668 54.3393
22.22509151438863 52.7607
22.24795876962584 51.1801
22.270649646204486 49.9304
22.293341407213727 49.0412
22.316034053646906 48.6355
22.338904883215342 48.3566
22.36159931041458 48.0243
22.38429462602756 47.9346
22.40699083104897 47.6775
22.429865251039757 47.6545
22.452563244831367 47.6899
22.47526213102522 47.6217
22.49813925616515 47.6691
22.520839937143307 47.6694
22.543541513520587 47.7817
22.56624398629403 47.6325
22.589124730075895 47.5725
22.611829005656723 47.7416
22.63453418063466 47.78
22.657240256008077 47.9594
22.680124634582935 48.0261
22.70283252079775 48.6626
22.725541310413075 49.0495
22.74825100442868 49.278
22.771139033969575 49.8577
22.79385054687155 49.9795
22.81656296718292 50.6222
22.83927629590484 51.4567
22.862167992606945 52.3759
22.88488314827121 53.646
22.907599215359284 54.6108
22.93031619487366 56.038999999999994
22.953211574954405 56.9505
22.975930389478226 57.7987
22.998650119445763 58.2902
23.02137076586092 57.5394
23.044269845560063 56.4078
23.06699233506288 54.7495
23.089715744034912 52.8434
23.112617610931565 51.1382
23.135342869061212 49.7552
23.158069049684816 48.6627
23.1807961538087 48.193000000000005
23.20370174880544 48.1409
23.226430710184808 47.9466
23.249160598093425 47.9363
23.271891413539002 47.8075
23.294800752937697 48.0489
23.31753343374794 48.4551
23.340267045128353 48.6018
23.36300158808808 49.1498
23.38591468821339 49.6312
23.408651104658304 49.8976
23.431388455719986 50.6307
23.454126742409 51.2506
23.4770436196085 52.332
23.499783787914662 53.6392
23.522524894889884 54.7637
23.54526694154616 55.9351
23.56818761219047 57.221000000000004
23.59093154860734 58.0299
23.613676427751283 58.7796
23.636422250635754 57.9529
23.659346731118656 56.4533
23.68209445191868 54.5715
23.704843119509587 52.1897
23.72759273490623 50.0967
23.750521041644767 48.4511
23.77327256312355 46.9287
23.796025035462787 46.0509
23.818956224555475 45.5102
23.841710609113413 45.2132
23.86446594758979 45.0155
23.887222241002014 44.7173
23.910157285144578 44.3656
23.932915498962537 44.5681
23.955674670778713 44.3058
23.978434801611975 44.1864
24.001373717286125 43.9182
24.024135776723917 43.7929
24.046898798245582 43.7497
24.06966278287146 43.8301
24.092605586582614 43.4946
24.115371508023642 43.2616
24.1381383956401 43.1979
24.16090625045381 43.17
24.183852958731244 43.0926
24.206622758582608 42.8737
24.229393528706886 42.8067
24.252165270127392 42.9251
24.27511589952438 42.7823
24.297889594216997 42.6544
24.32066426328598 42.5397
24.34343990775613 42.5011
24.36639447485003 42.2908
24.38917208083877 42.2204
24.41195066531332 42.1327
24.43490819850244 42.2731
24.457688750692377 42.1733
24.48047028445616 42.1706
24.503252800821233 42.2985
24.526214300784112 42.283
24.548998793132213 42.2619
24.57178427117417 42.2622
24.59457073593893 42.2603
24.617536219319863 42.2463
24.64032466834748 42.2488
24.663114107195035 42.1537
24.685904536893013 41.8291
24.708874020360852 41.7755
24.731666442613744 41.6999
24.754459858818787 41.5447
24.777254270007962 41.5129
24.80022777025625 41.3836
24.82302418230472 41.5387
24.845821592443674 41.4919
24.86862000170663 41.456
24.891597535453727 41.246
24.914397953892728 41.4937
24.93719937456671 41.5669
24.96000179851076 41.6658
24.98298338249997 41.7632
25.00578782394922 41.9972
25.028593271784167 42.1035
25.05157790644186 42.6048
25.07438537804115 42.761
25.097193859145293 43.0161
25.120003350792075 43.4635
25.142992065061257 43.8529
25.165803588823465 44.1031
25.18861612625217 44.2437
25.211429678386736 44.3664
25.234422489079968 44.458
25.257238081693636 44.5285
25.280054692141732 44.7663
25.3028723214652 44.6562
25.325869245420463 44.7802
25.348688923599397 44.8447
25.371509623787006 44.7085
25.394331347025812 44.4992
25.41733240110666 44.0104
25.440156181590016 43.3495
25.46298098826268 42.7616
25.48580682216873 42.1706
25.50881202326435 41.5247
25.53163992281684 41.0082
25.55446885274561 40.8021
25.577298814096377 40.4345
25.600308179121807 40.2173
25.623140214533745 40.2323
25.64597328451537 40.0596
25.66898578564376 39.9174
25.691820936010206 39.8332
25.714657124097695 39.8297
25.737494350954734 39.8252
25.760511045684957 39.7561
25.783350361364224 39.8565
25.806190718969255 39.8925
25.82903211955018 39.9254
25.852053024868923 39.9017
25.874896522722523 39.9849
25.897741066713106 40.0764
25.920586657892454 40.0599
25.943611790812668 40.2064
25.966459487728237 40.4116
25.989308234998564 40.3245
26.01215803367705 40.7222
26.03518741123814 40.9051
26.05803932412957 41.1329
26.080892291600094 41.1934
26.10374631470478 41.4366
26.12677995397268 41.336999999999996
26.14963609978026 41.5715
26.172493304397875 41.125
26.19535156888223 40.9363
26.218389486949604 40.4424
26.241249882640123 40.0578
26.26411134137826 39.6845
26.28715248187403 39.729
26.31001607820869 39.5056
26.3328807407756 39.3997
26.35574647063438 39.5138
26.37879191991473 39.5028
26.401659795896734 39.638000000000005
26.424528742360263 39.7571
26.447398760366614 39.8471
26.470448535598294 40.0394
26.49332070826805 40.141999999999996
26.516193955675355 40.4276
26.53906827888316 40.7636
26.562122397260108 41.0699
26.584998883685063 41.4944
26.607876449110325 41.7209
26.63075509460056 41.7815
26.65381357334404 42.177
26.67669439061878 42.2563
26.699576291163382 42.051
26.722459276044212 41.9848
26.745522132402975 41.6751
26.768407297649354 41.3452
26.791293550442003 41.0424
26.814180891848974 40.717
26.837248143099337 40.2899
26.860137673466657 40.2076
26.88302829566349 39.9545
26.90592001075963 39.7768
26.92899167420566 39.6276
26.951885586870763 39.2226
26.974780595655517 39.0494
26.99785558178161 38.7831
27.020752794605112 38.6177
27.043651106772522 38.4526
27.06655051935668 38.3781
27.089629948036183 38.2724
27.112531573292053 38.1909
27.135434302194138 38.2461
27.158338135817015 37.9832
27.181422024430987 37.9333
27.204328079372566 37.8776
27.22723524226965 37.9972
27.250143514198573 38.0469
27.273231880156334 37.9791
27.296142382065014 37.8674
27.319053996245536 37.8414
27.341966723775965 37.993
27.365059584515222 37.9545
27.38797455070062 38.0589
27.410890633481237 37.8957
27.433807833936918 37.9466
27.456905206923906 38.0362
27.47982465472398 38.0799
27.502745223449743 38.0825
27.525666914182825 38.2533
27.548768816912457 38.2393
27.571692763693633 38.0646
27.59461783573812 38.0047
27.617723149491244 37.8787
27.640650484125285 37.7682
27.66357894728264 37.6956
27.686508540048052 37.6257
27.709618414237887 37.628
27.732550278321757 37.4276
27.755483275279115 37.5691
27.778417406196485 37.4778
27.801531858397514 37.536
27.824468269376716 37.4803
27.847405817586786 37.3218
27.870344504116094 37.6758
27.893463551932008 37.6656
27.916404527281053 37.936
27.93934664422563 37.994
27.962289903855886 38.097
27.98541356491974 38.4115
28.00835912214229 38.4999
28.03130582533231 38.8395
28.054253675581805 39.04
28.077381967556104 39.0098
28.100332124185126 38.8702
28.123283431160893 38.8506
28.146235889577238 38.8363
28.169368830154156 38.5835
28.192323603752033 38.4607
28.215279532083304 38.0618
28.238415973016764 37.8398
28.261374223145094 37.6895
28.284333631303806 37.4663
28.307294198589954 37.2424
28.330435319167677 36.9443
28.353398217078915 36.6939
28.376362277420153 36.4588
28.39932750129032 36.106
28.422473319286713 35.9626
28.44544088262495 35.8893
28.468409612800283 35.8816
28.491379510913497 35.6233
28.51453004413313 35.3277
28.53750229057244 35.4104
28.56047570826344 35.3697
28.583450298308804 35.4176
28.606605564586562 35.1941
28.629582511831156 35.266999999999996
28.65256063474956 35.2617
28.675539934446338 35.2362
28.698699951647605 35.1958
28.72168161743193 35.1512
28.74466446331978 35.0268
28.767648490417624 34.9313
28.790813276438353 34.8927
28.813799678527303 35.0224
28.836787265157085 35.056
28.859955641890075 35.016
28.882945610203045 34.8964
28.905936766392035 34.8975
28.928929111566863 34.9202
28.952102288520145 34.8142
28.975097024308607 34.6748
28.998092952423807 34.5253
29.021090073977508 34.513000000000005
29.04426806913204 34.4048
29.067267590245258 34.294000000000004
29.090268308143695 34.2317
29.11327022394099 34.2388
29.13645305530891 34.1037
29.159457379627167 34.0254
29.18246290519685 33.8985
29.20546963313352 33.9286
29.22865731875826 34.0067
29.25166646419296 33.8268
29.27467681535305 33.7616
29.29768837335608 33.7901
29.320880931312562 33.9425
29.34389491580634 33.9563
29.366910110507334 33.896
29.38992651653503 33.9589
29.41312396492981 33.9347
29.436142806456754 33.8805
29.45916286268059 33.7752
29.48236399319994 33.5947
29.50538649169417 33.3315
29.528410208259935 33.3247
29.55143514402014 33.1362
29.574641196749695 32.9277
29.597668583816574 32.8288
29.6206971934585 32.757
29.64372702680042 32.732
29.666938019934474 32.5872
29.689970313635285 32.5392
29.713003834422636 32.4336
29.73603858342347 32.4479
29.759254535188578 32.3335
29.78229175361658 32.2135
29.80533020365064 32.4294
29.82836988641968 32.4268
29.85159081507472 32.3479
29.874632976355343 32.2723
29.89767637376955 32.2979
29.920721008448314 32.1488
29.9439469322847 32.1943
29.96699405457564 32.05
29.9900424175358 32.0611
30.013092022298157 32.0459
30.03632295963995 31.9745
30.059375061131373 32.037
30.08242840783577 32.0216
30.105483000888153 32.056999999999995
30.128718970092244 31.9646
30.151776069006917 32.0237
30.17483441768648 31.9715
30.198074175317235 32.0684
30.221135036724256 32.058
30.24419715131772 31.840999999999998
30.267260520236203 31.909000000000002
30.290505341942243 31.9382
30.313571232750228 31.9596
30.336638381310948 31.8598
30.35970678876503 31.7959
30.38295669299435 31.8205
30.40602763151657 31.8542
30.429099832366074 31.7608
30.452173296685572 31.7782
30.47542830191959 31.674
30.498504306502497 31.6079
30.521581577995562 31.675
30.544660117543582 31.6985
30.56792024229725 31.7845
30.59100133132069 31.8535
30.614083691845494 31.8405
30.637167325018545 31.8307
30.660432587840603 31.8406
30.683518779717886 31.837
30.70660624769615 31.9812
30.729694992924372 31.9944
30.75296541239743 31.9304
30.77605672557558 31.9691
30.799149319462742 31.9034
30.8224236211637 31.8032
30.845518789950724 31.6259
30.868615242910597 31.6384
30.891712981195973 31.4387
30.91499247215866 31.3109
30.938092794619365 31.2591
30.96119440587579 31.149
30.984297307082752 31.0163
31.00758200598383 30.9633
31.030687500658694 30.8429
31.053794288760695 30.7136
31.076902371446767 30.6812
31.100192296997445 30.7146
31.12330298246119 30.7892
31.14641496599209 30.6816
31.169528248749216 30.6042
31.19282341969534 30.5361
31.215939314557186 30.484
31.239056512134788 30.5959
31.262175013589378 30.6557
31.28547544871168 30.5277
31.30859657161541 30.5045
31.331719001892175 30.5374
31.35484274070538 30.6645
31.378148458819545 30.5739
31.401274828443725 30.6411
31.424402510106933 30.5881
31.447712205419993 30.7273
31.470842524931633 30.5449
31.493974159989783 30.5772
31.51710711176168 30.4592
31.54042212308802 30.5711
31.563557722100917 30.552
31.586694641341655 30.4302
31.609832881979628 30.3059
31.63315322823208 30.1567
31.656294125521327 30.1096
31.679436347728515 30.028000000000002
31.70257989602529 29.9765
31.725905596152327 29.8738
31.74905181052835 29.7892
31.772199354521323 29.8047
31.79534822930507 29.8369
31.818679302290967 29.8285
31.84183085259981 29.7903
31.864983737233473 29.7878
31.88813795736804 29.863000000000003
31.911474422233013 29.804000000000002
31.934631327356435 29.8924
31.9577895715215 29.8228
31.980949155906522 29.8419
32.004291031706956 29.7082
32.027453310562606 29.6525
32.05061693318573 29.5488
32.07396288236386 29.6127
32.09712920658542 29.4608
32.12029687812702 29.3738
32.14346589817093 29.2734
32.166817291729984 29.233
32.18998902288583 29.1478
32.21316210610336 29.1483
32.23633654256711 28.9307
32.259693399663725 28.9513
32.282870556771144 28.9057
32.30604907069099 28.8565
32.329228942610065 28.7353
32.35259128243769 28.5754
32.375773884550505 28.578000000000003
32.398957848235646 28.6258
32.422143174682176 28.5031
32.445511016471215 28.5079
32.468699082679954 28.4004
32.49188851523011 28.3737
32.51507931531304 28.331
32.538452678331 28.2872
32.56164622776311 28.1516
32.58484114831493 28.0954
32.60803744118015 28.2381
32.631416344731896 28.1856
32.654615396551876 28.1201
32.67781582427913 28.055999999999997
32.701198898634416 27.9869
32.72440209253756 27.9928
32.747606665947124 27.9376
32.77081262006088 27.8383
32.79420126883317 27.7565
32.81740999876112 27.9106
32.840620112999424 27.7638
32.86383161274818 27.6643
32.88722585534586 27.7732
32.91044014056596 27.7021
32.933655814909734 27.6365
32.95687287957963 27.6936
32.98027273544904 27.6578
33.00349259526636 27.573
33.026713849030116 27.6095
33.04993649794511 27.5309
33.073341986570746 27.5247
33.09656744032826 27.5341
33.11979429286444 27.6068
33.14302254538647 27.5041
33.166433686291185 27.4432
33.18966475336992 27.3625
33.212897224069096 27.3651
33.23613109959831 27.3462
33.259547912343415 27.2563
33.2827846121627 27.3411
33.306022720453775 27.2193
33.32926223842861 27.1029
33.352684742614166 27.2536
33.37592709463173 27.1805
33.399170859982064 26.9411
33.422597648419426 26.8643
33.44584425514446 26.7751
33.46909227885668 26.8698
33.4923417207723 26.7199
33.51577423505344 26.7569
33.539026528130385 26.6892
33.56228024307245 26.6249
33.585535381098246 26.4828
33.60897364093058 26.4888
33.63223163992385 26.4416
33.6554910656699 26.3686
33.678751919389796 26.373
33.702195944520106 26.353
33.72545966903325 26.3602
33.74872482519663 26.226999999999997
33.771991414233746 26.2087
33.79544122444841 26.1559
33.81871069412428 26.0555
33.84198160035767 26.1209
33.86525394437455 26.1202
33.88870955949969 26.0564
33.911984794020626 26.0437
33.93526147001624 25.9865
33.958539588715006 25.9403
33.98200102861669 25.866
34.0052820477047 25.684
34.02856451319451 25.7794
34.05203033759056 25.8295
34.07531571090147 25.7459
34.09860253431845 25.7238
34.121890809074316 25.6088
34.145362493118924 25.5485
34.16865368561615 25.5737
34.191946333164054 25.4893
34.21524043699793 25.4933
34.23871800066799 25.4618
34.26201503218366 25.4026
34.28531352370466 25.3017
34.30861347646881 25.1913
34.33209693978188 25.2287
34.3553998301885 25.318
34.378704185565205 25.2049
34.402010007152356 25.1484
34.42549939016683 25.0121
34.44880815937748 24.9633
34.472118398533134 24.9538
34.49543010887669 24.9579
34.51892543169198 24.9391
34.54224009966052 24.8827
34.56555624255917 24.7697
34.58887386163339 24.7265
34.61237514439016 24.6829
34.6356957311114 24.688000000000002
34.65901779775809 24.6653
34.68252356662995 24.6439
34.705848608458616 24.5614
34.72917513396849 24.5576
34.75250314440949 24.5486
34.77601490857862 24.3887
34.799345904259795 24.3559
34.82267838863559 24.3946
34.846012362958525 24.3821
34.869530142679984 24.3344
34.89286711232212 24.2931
34.91620557568269 24.2785
34.93954553401677 24.2912
34.9630693495876 24.182
34.986412313340814 24.1635
35.00975677584668 24.1713
35.033102738362956 24.0947
35.05663261012228 24.0358
35.0799815881786 24.1003
35.10333207003229 24.0122
35.12668405694369 23.9799
35.150220005273056 23.9638
35.17357501786656 24.0403
35.19693153931268 23.9019
35.220289570874385 23.9153
35.24383161619786 23.9212
35.267192683604904 23.9276
35.290555264930376 23.8146
35.314101899412165 23.7321
35.33746752422433 23.725
35.36083466676374 23.7716
35.38420332829803 23.733
35.407756095629054 23.8409
35.43112781085063 23.7716
35.45450104888391 23.6986
35.477875810999194 23.7422
35.50143473172161 23.6681
35.52481255774625 23.6549
35.54819191167777 23.499000000000002
35.57157279478914 23.5116
35.595137889488406 23.6145
35.61852184675279 23.4985
35.641907337029984 23.4169
35.665294361595684 23.3228
35.68886565090076 23.2666
35.7122557598848 23.2995
35.73564740699838 23.2707
35.759040593519934 23.274
35.78261809810353 23.2632
35.80601437933051 23.1409
35.829412203814705 23.0029
35.85281157283719 22.9347
35.876395313415884 23.0219
35.8997977874528 22.974
35.92320180988546 22.986
35.946790244133936 22.8319
35.97019737933222 22.8921
35.993606066789866 22.8526
36.01701630779276 22.7952
36.04061101440684 22.7319
36.06402437852291 22.8145
36.08743930005611 22.7436
36.1108557802951 22.611
36.13445678011326 22.6685
36.15787639383515 22.6323
36.18129757014299 22.6018
36.20472031032821 22.4817
36.22832762423364 22.5019
36.25175350829375 22.4951
36.275180960119776 22.4505
36.298609981005924 22.4581
36.32222362992669 22.4226
36.34565580510207 22.3062
36.36908955323448 22.3316
36.39252487562093 22.2201
36.416144880530226 22.1991
36.43958336764275 22.2059
36.463023432914625 22.1713
36.486465077645676 22.1312
36.51009145956204 22.1854
36.53353627947859 22.1868
36.55698268276811 22.1231
36.58043067073321 22.0267
36.60406345072071 21.9559
36.62751462435344 21.951999999999998
36.65096738658405 22.0051
36.67460498210655 21.98
36.69806093788647 21.8395
36.72151848619297 21.8646
36.744977628333636 21.7843
36.76862165890998 21.7075
36.79208400512205 21.7849
36.81554794910557 21.7398
36.83901349217101 21.6449
36.862663978991606 21.581
36.88613273667352 21.5119
36.90960309738324 21.5659
36.933075062434064 21.4775
36.95673202673572 21.459
36.98020721697122 21.3763
37.003684015502365 21.3684
37.027162423645365 21.3376
37.050825886711465 21.3346
37.07430753063053 21.2661
37.09779078812467 21.2078
37.121275660513014 21.1349
37.144945643673694 21.2237
37.16843376245278 21.1832
37.19192350009803 21.1854
37.215414857931435 21.1282
37.239091382563885 21.0397
37.262585997426164 21.0275
37.28608223645736 21.0405
37.309763684451696 20.9778
37.33326318851098 20.9259
37.356764320726555 20.8729
37.380267082425526 20.9314
37.40395510942588 20.8495
37.42746114683234 20.7895
37.45096881771841 20.7407
37.474478123414166 20.7197
37.49817275092816 20.7612
37.52168534303452 20.7007
37.54519957395567 20.6955
37.568715445024665 20.5839
37.592416694607714 20.6149
37.61593586281424 20.5581
37.63945667518264 20.6241
37.66297913304891 20.5221
37.68668702630454 20.4913
37.710212792059274 20.4008
37.733740207334854 20.4023
37.757269273470364 20.3768
37.780983832050374 20.2728
37.80451621684926 20.3045
37.82805025654007 20.2745
37.851585952464795 20.241
37.8753071980695 20.1526
37.89884622345676 20.1311
37.92238690911902 20.1192
37.94611318753442 20.0547
37.969657210779765 20.0353
37.99320289834801 19.9936
38.016750251586465 19.9485
38.04048325513017 19.9709
38.06403395679343 19.8941
38.087586328183946 19.8509
38.11114037065203 19.8188
38.13488012115898 19.8161
38.1584375229181 19.7788
38.181996599821 19.6971
38.205557353221124 19.7634
38.229303872575656 19.7272
38.2528679961576 19.6696
38.27643380031219 19.6273
38.30000128639589 19.5235
38.32375459653193 19.5647
38.34732546371299 19.6143
38.37089801690786 19.4733
38.39447225747609 19.4495
38.418232380377425 19.4069
38.441810012983396 19.402
38.46538933705673 19.4048
38.488970353960084 19.3724
38.51273731166058 19.3342
38.536321731567014 19.3138
38.55990784840681 19.3007
38.58367995004091 19.2539
38.60726947812959 19.2055
38.63086070726198 19.2194
38.654453638806274 19.2026
38.678232613930824 19.0801
38.70182896773327 19.0681
38.72542702806741 19.0319
38.7490267963045 19.0559
38.77281266709232 19.0524
38.79641586862214 18.9907
38.8200207821842 18.9524
38.843627409152944 18.9617
38.86742019782782 18.9028
38.891030269149255 18.8187
38.914642058016156 18.8235
38.938255565806124 18.7521
38.96205529464307 18.7583
38.98567225787121 18.7005
39.00929094417078 18.6582
39.03291135492255 18.6792
39.05671804624804 18.6585
39.080341923549106 18.6535
39.103967529460334 18.6179
39.127594865365744 18.4798
39.15140854155791 18.4698
39.17503935514948 18.4656
39.19867190290282 18.4367
39.22249083587951 18.4446
39.24612686969409 18.4433
39.269764641845306 18.3399
39.293404153722804 18.3349
39.317230110864074 18.2802
39.34087311998506 18.2291
39.36451787301696 18.2452
39.388164371352595 18.2079
39.41199737518003 18.1701
39.43564738196752 18.1776
39.45929913825317 18.1511
39.48295264543308 18.0937
39.506792718520884 18.0701
39.530449745387216 18.0715
39.55410852735203 18.0599
39.57776906581474 17.9832
39.60161623079 17.9497
39.625280300200025 17.9962
39.64894613032202 17.8784
39.67261372255866 17.913
39.6964680021016 17.8765
39.72013913657293 17.8587
39.74381203738292 17.8069
39.76748670593756 17.7588
39.79134812278169 17.8139
39.81502634488497 17.7042
39.83870633896685 17.7074
39.862388106436654 17.6198
39.88625668336918 17.6407
39.90994201572829 17.6297
39.933629125719285 17.5472
39.957503091207826 17.5529
39.9811937746168 17.512999999999998
40.00488623990914 17.4757
40.02858048850006 17.4431
40.05246165409549 17.4057
40.076159487492085 17.2967
40.099859108448875 17.3787
40.123560518384345 17.3269
40.1474489070226 17.3186
40.171153913178564 17.296
40.194860712584955 17.2552
40.2185693066637 17.2849
40.242464941335314 17.2042
40.26617714307655 17.1992
40.289891143772046 17.2151
40.3136069448471 17.0881
40.33750984859743 17.1364
40.3612292688043 17.0979
40.3849504936829 17.0467
40.40867352466194 17.0405
40.43258372059144 17.0378
40.45631038219906 17.0446
40.48003885420956 16.9393
40.503769138055105 16.9015
40.52768664931955 16.8825
40.55142057531802 16.875
40.57515631746428 16.883
40.599079334038514 16.8275
40.62281872700477 16.7739
40.64655994043941 16.6934
40.67030297578061 16.7145
40.69423334835778 16.6836
40.71798004609188 16.7168
40.74172857006355 16.6897
40.76547892171441 16.6422
40.7894166736039 16.6199
40.813170699248566 16.6367
40.83692655691388 16.5391
40.86068424804498 16.5545
40.884629402612525 16.5288
40.908390779366385 16.5053
40.932153993938 16.4101
40.95591904777605 16.4268
40.979871628443995 16.3938
41.003640379561936 16.3601
41.02741097430883 16.3428
41.05118341413683 16.3408
41.075143444384416 16.277
41.098919593177826 16.2445
41.1226975914255 16.2266
41.14647744058318 16.2437
41.170444943946755 16.172
41.19422851378379 16.1592
41.218013938914645 16.1354
41.24198706625173 16.0827
41.26577622087193 15.9967
41.289567235177785 16.0111
41.31336011063129 16.0441
41.337340752422875 15.9947
41.361137369129835 15.9672
41.38493585138705 15.9585
41.40873620066004 15.8804
41.43272438060107 15.9242
41.45652848292052 15.886
41.48033445666918 15.7832
41.50414230331616 15.7519
41.528138045159764 15.7772
41.551949656675205 15.7379
41.575763145513235 15.6938
41.59957851314666 15.6902
41.62358184070442 15.7021
41.64740098505737 15.6457
41.6712220126409 15.581
41.69504492493139 15.6174
41.71905586207357 15.5567
41.74288256296395 15.537
41.766711153007456 15.505999999999998
41.79054163368412 15.474
41.814560204340054 15.4893
41.838394485526365 15.4754
41.86223066180303 15.4081
41.88625497706819 15.3347
41.910094962812 15.4067
41.93393684811168 15.3697
41.95778063445365 15.2905
41.981812625263366 15.304
42.00566023303407 15.257
42.029509746323676 15.2581
42.05336116662236 15.2049
42.077400857069705 15.1665
42.10125611078846 15.1779
42.12511327600405 15.0956
42.14897235421036 15.1212
42.173019768448455 15.0599
42.19688269209613 15.0774
42.22074753323349 14.9874
42.24461429335818 14.9734
42.268669455600495 14.9788
42.292540073217886 14.9686
42.31641261433284 14.9562
42.34028708044675 14.8722
42.36435001496739 14.8624
42.38822835065557 14.8698
42.41210861586426 14.8621
42.4359908120986 14.8765
42.46006154323262 14.8118
42.48394762115317 14.7995
42.507835634632315 14.7968
42.531912233047436 14.7133
42.55580413732265 14.6485
42.579697981698 14.6155
42.60359376768525 14.6207
42.62767820545945 14.5788
42.65157789440821 14.6067
42.67547952952185 14.5377
42.699383112316 14.5272
42.72347541395347 14.4692
42.74738291190531 14.4506
42.771292362102166 14.4471
42.795203766063516 14.4334
42.819303956130405 14.3555
42.843219287476536 14.3224
42.86713657716324 14.3071
42.89105582671383 14.2874
42.91516392983864 14.3317
42.939087119032166 14.2625
42.963012272677304 14.2272
42.98693939230129 14.2291
43.01105543317513 14.2267
43.034986504731386 14.2162
43.05891954686589 14.1372
43.08285456110972 14.1557
43.10697856448665 14.095
43.130917542983475 14.0473
43.15485849820081 14.0886
43.17880143167367 14.004000000000001
43.20293342237094 14.0263
43.226880332449 13.9759
43.25082922540554 13.9452
43.27496722682525 13.9329
43.29892010567796 13.8855
43.32287497204102 13.9051
43.34683182745632 13.8594
43.370977859791836 13.8046
43.39493871351105 13.8007
43.41890156092628 13.8117
43.44286640358341 13.7812
43.46702049182749 13.7541
43.49098934522816 13.7071
43.51496019852649 13.7112
43.5389330532723 13.6648
43.56309522248204 13.6898
43.58707210044314 13.6253
43.61105098451946 13.5492
43.63503187626491 13.5947
43.659202151562134 13.5651
43.68318707902681 13.5518
43.70717401884041 13.5114
43.731162972560874 13.4536
43.75534137913236 13.4549
43.779334381108384 13.4126
43.803329401683186 13.421
43.82732644241872 13.397
43.8515130055166 13.3716
43.87551410707659 13.3842
43.89951723350145 13.3327
43.923709934595614 13.2951
43.94771713129917 13.2519
43.97172635758096 13.2684
43.99573761501002 13.2195
44.0199385169922 13.2086
44.04395385732619 13.2074
44.067971233533086 13.2002
44.09199064718605 13.1099
44.11619977548961 13.0951
44.14022328470671 13.1012
44.16424883610785 13.1062
44.18827643127035 13.0469
44.21249381139513 13.0181
44.236525514814076 13.0243
44.26055926674478 12.9904
44.28459506876863 12.9453
44.3088207262813 12.9091
44.33286064928722 12.8681
44.35690262714919 12.8805
44.38094666145278 12.8636
44.4051806219871 12.8696
44.42922879003185 12.8227
44.45327901929361 12.7923
44.477331311362136 12.8048
44.501573600619416 12.7484
44.525630039221795 12.7414
44.54968854541895 12.7374
44.573937102200176 12.7218
44.5979997645541 12.6752
44.622064499300315 12.6482
44.64613130803592 12.6158
44.67038823869318 12.6544
44.69445921643748 12.5917
44.718532272981385 12.5462
44.742607409926194 12.5643
44.76687274034801 12.5282
44.79095205918753 12.4291
44.81503346325094 12.4404
44.839116954143876 12.4594
44.86339071028742 12.3953
44.88747839599524 12.3664
44.91156817336837 12.3386
44.93566004401666 12.3642
44.959942251908146 12.335
44.984038330325966 12.3147
45.00813650686762 12.2648
45.03223678314731 12.295
45.05652746888232 12.2268
45.08063196592069 12.1937
45.104738567558705 12.158
45.128847275414856 12.1911
45.15314646515866 12.125
45.17725940679741 12.1111
45.20137445952892 12.1044
45.22568004865265 12.0993
45.24979934496396 12.0535
45.27392075725247 12.0076
45.29804428714431 12.0431
45.322358426247604 12.0336
45.346486212804315 11.9713
45.370616121861914 11.937999999999999
45.39474815505086 11.9261
45.41907087049246 11.908
45.4432071734666 11.9123
45.46734560548283 11.8614
45.49148616817604 11.8427
45.51581748638564 11.8172
45.5399623320197 11.8
45.56410931325473 11.7938
45.58825843173002 11.8004
45.61259837920865 11.747
45.636751793816 11.7169
45.66090735060093 11.6917
45.68506505120716 11.6424
45.7094136545275 11.6895
45.73357566449271 11.651
45.75773982322992 11.6355
45.78190613238733 11.6113
45.806263418194064 11.5506
45.83043404997326 11.5854
45.85460683713677 11.5491
45.87897065658495 11.5609
45.90314777634752 11.5759
45.92732705646868 11.4987
45.9515084986045 11.489
45.97588104735473 11.4514
46.00006683541565 11.4065
46.02425479047904 11.3843
46.04844491420549 11.368
46.0728262191024 11.3916
46.09702070211635 11.3275
46.12121735879483 11.305
46.14541619080294 11.3074
46.169806278764455 11.263
46.194009483459034 11.2699
46.21821486849841 11.2485
46.24242243555223 11.2126
46.266821333570014 11.1614
46.29103328674601 11.1822
46.31524742696538 11.2146
46.33946375590237 11.1591
46.36387149104216 11.1272
46.38809221957392 11.0851
46.41231514186606 11.0941
46.436540259597464 11.0758
46.460956858999374 11.0492
46.48518638983522 11.027999999999999
46.509418121166966 10.9837
46.533652054678114 10.9673
46.55807754555709 10.974
46.58231590571962 10.9283
46.60655647313217 10.8919
46.630988654873654 10.8873
46.655233659129024 10.8517
46.67948087571551 10.8159
46.70373030632484 10.8486
46.72817142736393 10.8426
46.752425308428684 10.8051
46.77668140861147 10.7599
46.80093972960865 10.7582
46.82538981736788 10.7182
46.849652602470904 10.7255
46.87391761349769 10.7095
46.8981848521493 10.697000000000001
46.9226439341274 10.6775
46.946915650573224 10.6467
46.97118959976749 10.6168
46.99546578341598 10.5661
47.019933887188216 10.5405
47.04421456235744 10.559000000000001
47.06849747711879 10.5367
47.09278263318286 10.5361
47.11725978640143 10.524000000000001
47.14154944775105 10.4654
47.165841355555656 10.4793
47.1901355115306 10.4427
47.214621741924994 10.4496
47.23892041698887 10.4302
47.26322134538975 10.343
47.28771440635075 10.3517
47.31201986422527 10.357999999999999
47.33632758061436 10.3044
47.360637557241866 10.2958
47.38513974410611 10.2733
47.40945426407847 10.2568
47.43377104948137 10.2417
47.45809010204344 10.2283
47.48260144275502 10.2189
47.506925052572285 10.1822
47.53125093475548 10.1691
47.55557909103813 10.173
47.58009961361992 10.0791
47.60443234110732 10.1092
47.62876734791564 10.1164
47.65310463578333 10.0923
47.6776343683373 10.1099
47.7019762413987 10.0201
47.72632040075572 9.99194
47.75066684815169 10.0147
47.77520581885936 9.93562
47.799556865477655 9.92844
47.823910205386 9.950460000000001
47.84826584033272 9.90215
47.87281407745551 9.90288
47.89717432569297 9.91788
47.92153687423484 9.87582
47.94609208429692 9.86622
47.97045925671401 9.85047
47.99482873471275 9.8073
48.01920052005013 9.83437
48.04376504619224 9.77604
48.068141469543484 9.76102
48.09252020552573 9.76194
48.11690125590099 9.7506
48.1414751266064 9.72402
48.16586082917454 9.699489999999999
48.19024885144316 9.68269
48.2146391951793 9.66629
48.239222439012764 9.67142
48.26361744916137 9.63804
48.28801478610016 9.62857
48.31241445160131 9.60022
48.337007097209366 9.552610000000001
48.36141144338331 9.558530000000001
48.38581812345755 9.50629
48.41022713920929 9.48431
48.434829215320704 9.51993
48.45924292604658 9.49564
48.48365897780325 9.52656
48.50807737237308 9.494
48.532688907799276 9.470089999999999
48.55711201168574 9.44133
48.581537463754074 9.40076
48.60615611725119 9.39534
48.63058628942721 9.40451
48.65501881516546 9.39132
48.6794536962573 9.374410000000001
48.70408185970339 9.33567
48.72852147531801 9.296619999999999
48.75296345168211 9.29078
48.77740779059232 9.31887
48.80204549302823 9.28466
48.82649458091802 9.27437
48.85094603676547 9.24773
48.87539986237231 9.18545
48.90004713292306 9.17409
48.92450572200832 9.17586
48.94896668628025 9.17143
48.97343002754588 9.159460000000001
48.99808689542115 9.125919999999999
49.02255501470614 9.12139
49.04702551642794 9.04066
49.0714984023988 9.046330000000001
49.096164896893235 9.02215
49.120642575466796 9.02652
49.145122643748394 8.99659
49.16960510355558 8.98623
49.19428125404938 8.996089999999999
49.2187685210852 8.97219
49.243258185121555 8.98252
49.26794160167084 8.93374
49.2924360839405 8.87007
49.31693296869764 8.84918
49.34143225776915 8.83817
49.36612538195438 8.8133
49.39062950396021 8.834810000000001
49.41513603578346 8.8205
49.4396449792564 8.855310000000001
49.46434784069503 8.82183
49.488861631846454 8.781989999999999
49.513377840166804 8.80128
49.537896467493745 8.70776
49.56260909589029 8.701130000000001
49.587132585683285 8.71439
49.611658500018365 8.67712
49.636186840738596 8.64759
49.66090926588511 8.64603
49.685442483902584 8.6233
49.70997813385706 8.62157
49.734516217597076 8.61497
49.75924846937352 8.594389999999999
49.7837914452858 8.59377
49.80833686055187 8.581610000000001
49.83288471702571 8.52619
49.85762682540054 8.541210000000001
49.882179588965734 8.493910000000001
49.9067347993235 8.48165
49.93129245833333 8.477689999999999
49.95604445336378 8.45652
49.98060703442832 8.44159
50.005172069746266 8.42958
50.02993150438364 8.40345
50.05450147301533 8.40623
50.07907390151433 8.40334
50.10364879174981 8.374
50.12841816587289 8.37311
50.1529980044635 8.35035
50.17758031042124 8.33436
50.20216508562089 8.34123
50.22694442953363 8.30749
50.25153416817468 8.26682
50.27612638170508 8.22664
50.300721072005196 8.20594
50.325510416102105 8.22684
50.350110084975064 8.19404
50.37471223628208 8.16145
50.39931687190919 8.18924
50.424116246675766 8.15682
50.44872587605249 8.15577
50.47333799543065 8.15203
50.49795260670191 8.10008
50.52276204271512 8.06913
50.54738166295838 8.09929
50.57200378079314 8.05154
50.596628398116835 8.0511
50.62144792604559 8.03862
50.646077567609396 8.03665
50.670709714377715 8.02642
50.69553683636198 7.953939999999999
50.72017401885922 7.94787
50.7448137122895 7.94123
50.76945591856022 7.940189999999999
50.79429318636823 7.89757
50.818940443716784 7.931439999999999
50.84359021965163 7.89611
50.868242516085964 7.8862
50.893089960641895 7.8561
50.917747323549435 7.84592
50.94240721271973 7.83732
50.96706963007175 7.81597
50.99192728239342 7.78648
51.01659478166073 7.80247
51.04126481489051 7.791910000000001
51.06593738400761 7.753660000000001
51.090805275207074 7.74586
51.11548294172845 7.71185
51.14016314993547 7.700939999999999
51.164845901758845 7.683110000000001
51.18972406304274 7.64538
51.21441192780656 7.62051
51.23910234200271 7.63673
51.2637953075678 7.636419999999999
51.288683770237945 7.6562399999999995
51.31338186432707 7.606910000000001
51.33808251561888 7.58295
51.362978729967345 7.55938
51.387684521509755 7.56427
51.41239287610203 7.5237300000000005
51.437103795691165 7.51536
51.46201036644977 7.52124
51.486726441956634 7.4976199999999995
51.51144508832545 7.506939999999999
51.536166307509156 7.4586
51.56108326624387 7.46207
51.58580965706056 7.476560000000001
51.61053862657523 7.4444
51.635270176746864 7.376010000000001
51.66019755512065 7.37628
51.68493429268881 7.3827300000000005
51.70967361681515 7.34818
51.73441552946465 7.3278
51.759353359237934 7.28488
51.7841004750961 7.331410000000001
51.80885018539685 7.30587
51.833602492111254 7.269019999999999
51.8585508051424 7.268
51.883308330926425 7.26463
51.90806845906181 7.244
51.932831191525715 7.20105
51.95779001977161 7.2049
51.98255798721516 7.182760000000001
52.00732856494335 7.16047
52.03229530577543 7.11268
52.057071130455945 7.12918
52.081849571391054 7.12448
52.106630630568695 7.111210000000001
52.13160794279417 7.0684
52.15639426492067 7.1332699999999996
52.18118321127822 7.12542
52.205974783860896 7.079280000000001
52.23096269971011 7.06855
52.255759551287994 7.003539999999999
52.280559035098186 6.969639999999999
52.30536115314103 6.982660000000001
52.33035970494467 7.00471
52.35516711807904 6.968839999999999
52.37997717147198 6.991619999999999
52.40478986713005 6.9854199999999995
52.42979908731974 6.93858
52.454617094216 6.95118
52.47943774942214 6.9032800000000005
52.50426105495102 6.885860000000001
52.529280976059844 6.86481
52.554109609024096 6.88583
52.57894089837482 6.8542
52.60377484613117 6.826919999999999
52.62880550079408 6.823639999999999
52.65364479223379 6.78512
52.67848674816189 6.74388
52.70352547971946 6.7507600000000005
52.72837279155837 6.77716
52.753222773982785 6.772539999999999
52.778075429022984 6.7672300000000005
52.80312495150885 6.718539999999999
52.827982978797436 6.725219999999999
52.85284368481815 6.685410000000001
52.87770707160767 6.676360000000001
52.90276741793998 6.6381
52.92763619336701 6.66292
52.952507655698504 6.620360000000001
52.977381806977576 6.599639999999999
53.00245301017842 6.620430000000001
53.02733256653592 6.58938
53.052214817996074 6.566339999999999
53.077099766608484 6.521809999999999
53.102181859804446 6.4910000000000005
53.127072229988265 6.54042
53.15196530349892 6.51276
53.17686108239249 6.5049
53.20195409881522 6.50727
53.22685531582556 6.48268
53.25175924441303 6.48884
53.27666588664027 6.44079
53.30176985962693 6.43445
53.3266819565689 6.42565
53.35159677336455 6.401009999999999
53.376514312083096 6.39883
53.40162927507703 6.40292
53.42655228516116 6.38326
53.45147802340193 6.34987
53.47660125628886 6.321359999999999
53.50153247842639 6.32989
53.52646643496923 6.33249
53.55140312799818 6.30518
53.576537409691696 6.29168
53.60147960336152 6.27773
53.626424539786164 6.25758
53.65137222105307 6.2376
53.67651758529126 6.22331
53.70147078399681 6.21861
53.72642673383343 6.230630000000001
53.75138543689533 6.18907
53.776541917524526 6.18085
53.801506154876755 6.15378
53.826473151763246 6.13595
53.851442910284916 6.10824
53.87661054126026 6.105180000000001
53.9015858509782 6.1150199999999995
53.92656392866066 6.09037
53.95154477641532 6.05791
53.976723591801296 6.06311
54.00171000771266 6.03714
54.02669920004598 6.02681
54.051691170915745 6.02944
54.076881204886796 6.04155
54.101878760928514 5.983969999999999
54.12687910187696 5.96676
54.152077577768296 5.9709
54.1770835166946 5.91967
54.20209224691339 5.96063
54.22710377055121 5.9118900000000005
54.25231352511594 5.923080000000001
54.27733066384342 5.853
54.30235060239643 5.90752
54.32737334290836 5.89733
54.35259441062629 5.831519999999999
54.377622783395324 5.788209999999999
54.40265396455061 5.81715
54.42768795623251 5.77974
54.45292037169559 5.75015
54.477960012857906 5.78711
54.50300247099511 5.77834
54.52804774825457 5.7286
54.55329154616743 5.74755
54.57834249018678 5.7165
54.6033962597977 5.6935199999999995
54.6284528571545 5.7339
54.653708072335164 5.645569999999999
54.67877035378786 5.675330000000001
54.70383546947698 5.62904
54.72890342156389 5.62062
54.7541700889442 5.57794
54.77924374251975 5.5618099999999995
54.8043202390049 5.5343
54.82959552413022 5.48944
54.8546777351945 5.48485
54.87976279569621 5.47083
54.90485070780914 5.4495
54.930137506558005 5.45498
54.95523115074295 5.45196
54.98032765308844 5.38526
55.005427015775496 5.40299
55.03072536339621 5.420640000000001
55.05583047570572 5.34964
55.080938454927676 5.283980000000001
55.10604930325027 5.2709
55.131359235107396 5.27076
55.15647585066083 5.2386
55.181595341907496 5.23744
55.20671771104285 5.17508
55.232039262617704 5.17966
55.25716741665048 5.10787
55.28229845518636 5.13874
55.30743238042802 5.1037300000000005
55.33276558731939 5.12045
55.357905315183636 5.070209999999999
55.383047936390035 5.02952
55.40819345314859 5.04059
55.433538351073295 5.01269
55.458689688238415 4.99031
55.483843927614096 4.94399
55.509197623043605 4.946969999999999
55.53435769621134 4.90123
55.55952067826466 4.87306
55.5846865714265 4.83245
55.61005202069737 4.83015
55.63522376553902 4.82052
55.66039842818645 4.79464
55.68557601087004 4.79171
55.7109532500271 4.71903
55.73613670233794 4.79925
