TT I
1.2716486653135266 7.46449
1.2939594142134223 7.162389999999999
1.3162702121660406 6.372330000000001
1.3385810600174564 6.34258
1.3608919586137629 7.22098
1.383202908801069 6.2058
1.405513911425503 6.30886
1.4278249673332093 6.64262
1.4501343378461518 6.288130000000001
1.4724455028545926 6.186
1.4947567236847858 5.58216
1.517068001182951 5.47203
1.5393793361953272 5.50994
1.5616907295681737 5.962619999999999
1.5840021821477681 5.50402
1.60631369478041 5.31529
1.6286252683124185 4.93676
1.6509369035901333 4.90594
1.6732468618895553 4.86291
1.695558623192809 4.86991
1.7178704487808514 4.87922
1.7401823395001077 4.852040000000001
1.7625012545597203 5.12231
1.7848028405262486 5.03596
1.8071218901122095 4.95614
1.8294236121921872 4.8827300000000005
1.8517427996910911 4.41024
1.8740620574440425 4.75782
1.8963639900671978 4.4311300000000005
1.9186833908139995 4.44763
1.9409854680117449 4.56577
1.9633050151394713 5.378419999999999
1.9856246367570705 5.03846
2.0079269371922672 4.81599
2.03024671027244 4.616680000000001
2.0525491637446027 4.61946
2.074869091674931 4.07726
2.097171701569106 4.5357400000000005
2.1194917877373847 5.44046
2.141811954326636 4.74041
2.164114805233074 5.07719
2.186435135143035 5.9328
2.208738150935709 11.3736
2.231058647554722 21.8292
2.2533792288321184 17.1762
2.275682498336085 8.707239999999999
2.298003251406138 5.4134
2.3203066942619714 5.53943
2.3426276225136022 5.97089
2.3649486396617507 5.51741
2.387252348930071 5.38534
2.4095735463442893 5.67845
2.4318774374315884 5.61278
2.4541988185014043 6.29953
2.476502894794693 6.7622800000000005
2.498824462909887 7.021560000000001
2.521146125856138 6.4676599999999995
2.5434504863470337 6.72125
2.5657723414244717 8.000869999999999
2.588076895590662 7.911389999999999
2.610398946189713 7.64337
2.6327210958598384 7.5178
2.6550259469304716 7.7249
2.6773482972090137 7.60273
2.6996533504259 7.98578
2.7219759047039602 8.36855
2.744298562293959 8.18787
2.7666039251246595 7.6818800000000005
2.7889267918020164 8.520489999999999
2.8112323652516555 8.70427
2.833555444408179 8.5363
2.8558786311183852 8.16645
2.8781845268938557 9.05231
2.9005079311721484 9.175930000000001
2.9228140460410397 8.795739999999999
2.9451376712799635 9.51091
2.967444008632326 9.48581
2.9897678582247247 9.93741
3.0120918213106695 10.8209
3.0343984987899373 10.5199
3.0567226913198637 11.1002
3.079029599759726 11.7631
3.101354025127254 12.0539
3.123678568232338 12.8518
3.145985829517914 13.2427
3.16831061055229 13.5491
3.1906181112775593 14.2864
3.212943133635653 14.8254
3.2352682779763207 14.807
3.2575761442691227 15.3208
3.2799015350264273 15.7499
3.302209649240067 16.5107
3.3245352898092655 17.1129
3.3468436553365257 17.2324
3.369169549113219 17.6461
3.3914955708171384 18.4832
3.413804319727358 19.0511
3.4361305997334863 19.3116
3.4584396084414553 19.5376
3.4807661501462652 20.2556
3.503092824025881 20.6945
3.5254022288463154 21.2316
3.5477291695206588 21.5268
3.5700388426251948 22.0952
3.5923660534916446 23.3998
3.6146934007816114 35.003
3.637003482731501 70.8317
3.6593311053109985 79.2422
3.681641464033634 47.3656
3.7039693653009733 28.7792
3.726297407241705 25.8428
3.7486081875460804 25.5401
3.7709365132734978 26.0023
3.793247578841633 26.7056
3.8155761917550093 26.4721
3.8378875459837216 27.2931
3.8602164494827234 28.059
3.882545499606844 28.2567
3.9048572932539183 29.1174
3.9271866390645718 29.0344
3.9494987298666713 29.7774
3.971828374764527 30.5598
3.9941581705403255 30.4218
4.016470713506008 31.245
4.038800813471445 32.0232
4.061113662089144 32.4672
4.0834440696459176 33.2766
4.105774632334751 33.7722
4.128087945865126 34.5667
4.150418821249301 35.2159
4.172732448931298 36.5914
4.195063640413578 37.6258
4.2173775856475215 40.8503
4.239709096631102 64.5312
4.262040768704612 183.424
4.284355196706267 239.922
4.306687193387355 158.061
4.329001947444346 69.944
4.35133427213731 46.6217
4.373666762177566 44.0328
4.395982011761091 43.5485
4.418314834921175 45.126999999999995
4.44063041906622 51.3811
4.4629635787515625 59.3376
4.4852969080429785 59.5203
4.5076130004776225 52.4753
4.529946671403969 50.9017
4.552263106909177 51.022
4.574597122877047 52.2624
4.596931312711224 52.6329
4.619248269273446 53.2321
4.6415828092605835 54.242
4.663900117405352 55.2149
4.686235010953232 56.6911
4.708552674085913 58.0299
4.730887924602802 59.9109
4.753223354952695 60.9669
4.775541557023902 62.8879
4.797877349456786 64.217
4.820195915032126 66.4923
4.842532072957498 67.447
4.864868414979744 69.5186
4.88718753227192 71.86399999999999
4.909524244902505 74.0742
4.931843734218147 75.3027
4.954180820867835 77.5576
4.976518095879839 81.2372
4.998838149695359 84.2107
5.021175803844231 87.7133
5.043496238205739 90.9034
5.065834274903528 95.1607
5.088172504230693 100.291
5.1104935158799565 106.491
5.132832132875765 126.096
5.155153533596801 162.023
5.1774925416746225 199.424
5.199814334878411 389.584
5.2221537374521505 1085.03
5.244493338631803 2989.42
5.266815727034316 7817.42
5.289155727832427 12424.1
5.311478517248165 8629.21
5.333818921080011 2673.74
5.356159527788849 510.235
5.3784829252032536 182.27599999999998
5.400823940070432 143.976
5.423147747031976 127.887
5.445489173474152 118.029
5.467830807066149 113.538
5.490155234831516 110.264
5.512497285125229 106.285
5.534822130975162 103.964
5.557164601388673 102.194
5.579489868738879 99.2739
5.601832762690846 98.4611
5.6241758697774475 97.5595
5.646501775867269 96.5169
5.668845311622074 94.9072
5.691171647754637 94.0608
5.713515615597765 92.9575
5.735859800852677 92.6657
5.758186788542988 92.0821
5.780531411018185 92.537
5.802858837297399 92.0697
5.825203900414495 92.2333
5.8475491852224 92.7857
5.869877275883075 93.1956
5.892223006467101 93.9901
5.914551544266608 94.7859
5.936897724049891 97.7072
5.959244129804903 104.446
5.981573344815301 127.917
6.0039202049061 229.232
6.026249875609095 491.36199999999997
6.04859719346037 1005.94
6.070927323278297 2265.46
6.093275102315365 4558.91
6.115623113320588 5298.05
6.137953938319995 3222.43
6.160302415650845 956.285
6.182633708324452 224.95
6.2049826554078376 111.44
6.227331838745022 91.8464
6.249663839443684 84.6547
6.27201349767565 81.5233
6.294345974611799 85.6686
6.316696111167083 93.2034
6.339046488263839 88.5592
6.361379686074702 77.3377
6.383730546639482 71.4811
6.406064229255215 68.774
6.428415576718203 68.4758
6.450749747566656 67.2108
6.47310158535871 66.2416
6.495453669698332 65.315
6.517788579421056 64.4044
6.540141159237969 63.6435
6.562476565766648 63.3055
6.5848296444934045 62.4671
6.607182974060425 61.8403
6.6295191323281015 62.0761
6.651872965955752 64.6595
6.6742096296068985 83.5332
6.6965639707294615 116.27600000000001
6.71891856698715 117.18700000000001
6.741255995248479 84.712
6.763611104154477 65.4469
6.785949046381137 59.6504
6.808304671371482 58.2957
6.8306605557940046 58.0795
6.852999275508618 57.3753
6.875355681171544 56.6688
6.897694923437771 56.6517
6.92005185377892 56.3593
6.9423916220322655 56.2997
6.964749080490181 55.6786
6.987106804399774 55.4737
7.009447368180821 55.6791
7.031805625367033 55.2133
7.054146723727803 55.1081
7.076505517631004 55.0413
7.098864581288365 55.0772
7.121206488070854 54.9153
7.143566093607822 54.5848
7.165908543567245 54.8872
7.188268694426048 55.0577
7.2106291193438095 55.2745
7.232972390625943 56.1151
7.255333366030969 65.6283
7.277677189091925 104.801
7.300038718428332 139.518
7.322400526130865 118.821
7.344745183422596 79.3719
7.367107550224791 60.0064
7.389452767901992 55.8236
7.411815697249891 54.9459
7.434161478756298 54.1747
7.456524974096713 53.9644
7.478888753837185 54.3882
7.501235387657368 54.6169
7.523599738562711 54.6938
7.545946944825532 54.825
7.568311870344528 55.2849
7.5906770845765665 55.73
7.613025156078678 56.5063
7.635390950099687 56.9908
7.657739602662809 56.7287
7.680105979923558 55.8525
7.702472650212829 56.1503
7.724822180948224 56.1215
7.747189439655568 55.7714
7.769539560075357 55.7889
7.791907410653562 56.3771
7.81425812420825 56.6932
7.836626570110925 57.0276
7.858995315087906 57.766999999999996
7.881346924933401 57.8039
7.903716270417482 58.3048
7.926068482028405 58.7654
7.948438431475253 59.3496
7.9708086843180235 59.9757
7.993161805171116 60.5108
8.015532667162402 61.0638
8.037886398416653 62.0221
8.060257873014221 62.7111
8.082629655331942 63.2118
8.104984308787587 63.7297
8.127356708900503 66.4625
8.149711981398308 70.8873
8.172085002766314 72.7496
8.194458336181368 70.8568
8.216814543847752 69.113
8.23918850371002 69.267
8.26154533906492 70.2017
8.283919928836452 71.987
8.306277395339652 72.5507
8.328652618483376 74.0774
8.351028159736202 76.2371
8.373386579575245 78.6948
8.395762759396959 80.3728
8.418121819038275 85.2474
8.440498640894003 95.9197
8.462875785192262 108.656
8.485235811156207 126.53399999999999
8.507613602688501 177.827
8.529974277114228 270.595
8.552352719347912 408.715
8.574731488360351 678.7189999999999
8.59709314210385 1227.87
8.619472567021075 1926.94
8.64183487789147 2212.45
8.664214962183097 1768.29
8.686577933647762 909.1260000000001
8.708958680784317 353.541
8.731339760774953 153.455
8.753703729764451 108.057
8.77608547780821 98.3335
8.798450116065078 94.8681
8.820832535634787 92.5235
8.843215292401656 91.2871
8.865580941199045 89.969
8.887964374703538 88.6799
8.910330701447199 89.4412
8.932714815164482 90.5689
8.955099270424924 89.2262
8.977466620733543 87.2083
8.999851761421976 85.2437
9.022219798361645 83.6543
9.04460562795561 83.5279
9.066991803441677 83.05
9.089360876979615 83.2051
9.111747746589993 82.8257
9.13411751544971 82.1363
9.156505082664324 81.9963
9.178875550323522 81.9822
9.20126381862328 82.0177
9.223652438908596 82.4091
9.246023961427412 82.5103
9.26841328802173 81.8976
9.290785518039224 81.9865
9.313175554425882 82.6521
9.335565947154315 83.0133
9.357939245086508 82.8703
9.380330352834827 83.3864
9.40270436697103 83.3
9.425096193225055 83.3421
9.447488380180165 84.6338
9.469863475295412 84.3891
9.492256385987508 84.8034
9.514632206018318 85.1255
9.537025843935714 85.6328
9.559402392368193 86.6102
9.581796761000229 87.8108
9.604191496441521 88.6053
9.626569144158516 91.3986
9.648964615551032 94.5568
9.671343000390081 96.0322
9.693739211225699 94.7186
9.716135793237463 93.2164
9.738515290448102 93.0995
9.760912617143402 94.4221
9.783292860202891 95.5817
9.805690935076182 96.6912
9.828089385495742 97.8624
9.850470754023561 99.6318
9.872869957865444 106.42200000000001
9.89525208097539 117.811
9.917652041736662 128.145
9.940052382417589 131.995
9.962435644102392 147.064
9.984836746950979 189.733
10.007220771957746 256.091
10.029622640473708 362.68
10.052007432299963 541.325
10.074410069984072 843.163
10.096813093716005 1297.09
10.119199042482517 1789.27
10.141602840636468 2014.04
10.163989564971628 1569.86
10.186394141051062 860.314
10.208799107559706 374.588
10.231187001965623 179.595
10.253592751657669 123.975
10.275981430388155 112.47
10.298387966769793 110.806
10.320794897965431 112.27
10.343184759907361 111.695
10.36559248305461 107.223
10.387983138083852 104.652
10.410391656691655 109.444
10.432800574501677 122.148
10.455192425893369 139.914
10.47760214443012 164.833
10.499994797678786 210.52200000000002
10.522405320453982 289.944
10.54479877906917 408.42800000000005
10.567210109595656 513.565
10.5896218454736 563.659
10.612016518879773 495.82800000000003
10.634429067781074 336.259
10.656824555333241 189.285
10.679237920773568 119.428
10.701651695961992 94.9145
10.724048411481384 88.9863
10.746463008485165 86.3827
10.768860546937125 84.6324
10.791275969274796 82.6802
10.81369180576079 81.93799999999999
10.836090585366925 81.1361
10.858507252467449 79.4866
10.88090686379991 78.514
10.903324365036394 78.2286
10.925724811614439 77.7279
10.948143150509463 78.7622
10.970561909719066 77.9767
10.992963615930844 76.2269
11.015383218085756 74.5233
11.037785768347074 73.1851
11.06020621697282 72.7694
11.082627090322113 72.0971
11.105030913430326 71.4486
11.12745263854165 71.8863
11.149857314510728 74.2514
11.172279894912576 78.3551
11.194702904450653 78.366
11.217108866490921 75.5171
11.239532736615194 72.4703
11.26193956033512 70.5935
11.284364294577085 69.1477
11.306789462371718 67.7922
11.329197585398376 66.9545
11.351623622610898 66.771
11.37403261614354 65.9127
11.396459526308487 65.7987
11.418869393879497 65.5278
11.441297180532617 65.3442
11.463725406927658 64.3642
11.486136592353875 64.426
11.508565700543707 64.8486
11.530977768845315 66.2636
11.553407762368774 66.5792
11.575838200059769 66.08800000000001
11.598251599479612 64.8061
11.620682927815501 63.9072
11.64309721895548 63.4484
11.665529441478206 62.9346
11.687962112597958 62.8457
11.710377748130886 62.6955
11.732811318753434 62.9273
11.755227854859067 62.8487
11.777662328529495 62.7509
11.800079768750786 62.6594
11.822515149015453 62.3462
11.844950984084935 62.5165
11.867369787303163 62.5071
11.889806534289491 62.5088
11.912226250487029 62.6658
11.934663912939751 63.1962
11.9571020346363 63.1659
11.979523127133968 63.0385
12.001962169624331 64.1028
12.024384183972964 65.4208
12.046824150809913 68.7281
12.069264581333726 73.6407
12.091687985297767 79.8106
12.11412934550045 89.0019
12.136553680195208 104.325
12.158995973632788 126.334
12.181438735204349 154.13
12.20386447284199 183.013
12.226308172985636 204.532
12.24873485024193 198.457
12.271179492516982 159.123
12.293607112949127 120.514
12.316052700916226 90.2614
12.338498763250042 74.8683
12.360927805303868 68.4555
12.383374818673879 65.8697
12.405804812803074 64.3744
12.428252780773262 63.9848
12.45070122756722 63.82
12.473132656675375 63.9245
12.49558206341869 64.041
12.518014453510101 64.0607
12.540464823770117 64.3959
12.562915677315177 64.4699
12.58534951575545 65.2313
12.607801338171472 66.611
12.630236146511358 70.664
12.652688941369085 74.0027
12.675124723177234 74.439
12.697578494048786 72.0501
12.720032754458185 68.7723
12.742470003354093 67.59
12.764925245138771 67.71
12.787363476431278 68.3409
12.809819703166806 68.5249
12.83227642391173 69.0773
12.854716135692716 69.6761
12.877173846755147 70.7952
12.899614549869717 70.9114
12.9220732548287 71.8612
12.94453245827299 72.3224
12.966974655289818 73.3821
12.989434858002571 74.1634
13.011878055298721 74.5712
13.034339260862497 76.0274
13.056800969391883 77.6864
13.079245674017244 79.7393
13.101708390774869 82.40100000000001
13.12415410463411 90.505
13.146617833206086 102.494
13.169064559883248 114.10600000000001
13.191529303857127 129.02700000000002
13.213994557076367 152.582
13.236442809902437 190.51
13.258909083908291 247.30700000000002
13.28135835851934 315.745
13.30382565690295 378.99699999999996
13.326293469022952 432.994
13.348744283242008 420.35699999999997
13.371213125129904 348.06800000000004
13.39366497011003 251.175
13.416134845360597 164.96400000000003
13.438605238843131 119.911
13.46105863690397 105.58200000000001
13.483530069144786 107.39299999999999
13.505984506951902 113.141
13.528456981549432 122.822
13.550929978879088 138.024
13.573385983253365 162.63
13.595860028340867 202.537
13.618317081455832 254.66099999999997
13.64079217790333 313.14799999999997
13.663250283359057 356.58099999999996
13.685726434770173 372.292
13.708203115221277 328.027
13.730662806148091 248.43900000000002
13.75314054697177 171.225
13.775601299246777 120.064
13.798080104050406 93.6117
13.820559442405358 84.0565
13.843021793671388 81.1968
13.865502201420897 79.6676
13.887965623051947 79.4222
13.910447103807167 78.2076
13.932929122629764 76.7268
13.955394156785959 76.4663
13.977877254034569 75.5892
14.000343367582113 74.7958
14.022827546871707 74.2981
14.045294743423524 73.6058
14.06778000837062 72.8083
14.090265817715476 72.6096
14.112734645763819 72.193
14.13522154619454 71.9234
14.157691466286913 71.9689
14.180179461423874 71.6654
14.202668005486178 71.3019
14.22513957064374 70.8092
14.247629214846473 70.0983
14.270101881097517 69.8813
14.29259262906496 70.2534
14.315083930490205 71.0572
14.337558255389705 71.0787
14.360050666019726 70.5052
14.382526101071944 69.8783
14.405019624534942 69.1347
14.427513705993134 68.9632
14.449990813291825 68.7121
14.47248601302899 68.661
14.49496423954951 68.8252
14.517460561197822 69.0439
14.539939910570322 68.5842
14.562437357763558 68.985
14.58493536931253 69.8999
14.607416409993311 70.3551
14.62991555254159 71.1248
14.652397725157423 71.1379
14.674898002342799 70.8215
14.697398848433282 70.4147
14.719882725991326 71.387
14.74238471217934 72.7856
14.764869730765593 76.5385
14.787372860692983 80.1961
14.809876564079925 84.4345
14.83236330125751 90.3217
14.854868153850365 99.2485
14.877356041159485 113.01700000000001
14.899862046604186 132.24200000000002
14.922351087688757 158.179
14.944858249632887 188.69299999999998
14.967365991421232 213.019
14.989856770231246 227.43
15.012365673994204 216.65900000000002
15.03485761569738 183.199
15.05736768508665 141.341
15.07987833888692 108.125
15.102372032001655 86.7933
15.124883856909658 75.5503
15.14737872204565 71.7972
15.169891721717274 70.2397
15.192405310371893 70.0709
15.214901940621196 70.2278
15.237416709527137 69.857
15.259914520936249 70.25
15.282430473753607 69.3259
15.304947020131227 68.2535
15.327446610371178 67.7956
15.349964346154254 67.0177
15.372465126703139 66.5531
15.394984055556009 66.3052
15.417486030076159 66.0406
15.44000615566487 66.0469
15.462526881230803 65.9676
15.485030653812652 66.1096
15.507552581617434 65.8068
15.530057557334603 65.7346
15.55258069104857 66.0002
15.575104429329837 66.2213
15.597611216864632 65.8702
15.620136166564563 66.1987
15.6426441664095 67.5978
15.665170331202765 69.9891
15.687697105158826 73.0457
15.710206930593545 76.5343
15.732734925158933 80.6181
15.755245972089478 87.2441
15.77777519094324 96.425
15.800287463046663 109.682
15.822817909869592 129.505
15.84534897229804 150.489
15.867863089299354 175.595
15.890395385222186 190.524
15.912910736597423 194.56599999999997
15.935444269699861 178.34099999999998
15.957978423016485 152.08
15.980495633101265 117.415
16.003031029129367 92.3442
16.02554948280019 74.5028
16.048086125229432 66.6143
16.070623392487107 64.436
16.09314371869582 63.6171
16.11568223789321 62.8718
16.13820381691126 61.8927
16.160743591742527 61.0604
16.183283996022084 60.1974
16.205807461423195 59.3542
16.228349126881973 58.797
16.25087385432698 58.7955
16.27341678466365 58.2216
16.29594277784926 58.1273
16.31848697676433 58.0435
16.341031811604868 58.0962
16.36355971058487 58.3965
16.3861058195587 58.1746
16.40863499352978 57.0616
16.431182380342005 56.5343
16.453730407713202 56.1395
16.476261501364792 55.8949
16.498810812136167 55.4071
16.52134319004079 55.4749
16.54389378792203 55.2609
16.566445031001553 54.9838
16.588979342490088 54.8969
16.61153187824822 54.7304
16.634067483263312 54.5826
16.656621315414416 54.8132
16.679175797408888 54.4889
16.701713349928728 54.4082
16.72426913389191 54.8155
16.74680798922351 54.7261
16.76936507887444 54.8369
16.791905240734874 54.828
16.814463639794468 54.5522
16.837022695210294 54.6587
16.859564824093756 54.8508
16.882125194503903 55.5681
16.904668639217885 56.0935
16.927230328348003 56.2316
16.949792678493612 56.3759
16.972338104193863 55.775
16.994901778652235 55.5312
17.017448529496576 55.5111
17.040013531998152 55.9131
17.06257920018044 56.5172
17.0851279459922 57.3014
17.107694947817667 58.0417
17.130245028099072 58.5942
17.15281336730298 60.0113
17.17536478578733 61.8999
17.19793446610687 64.1484
17.220504818648422 67.196
17.243058251703697 70.4238
17.265629950971032 75.0054
17.288184731571736 79.4456
17.310757781306908 83.5191
17.33333150794385 83.7741
17.355888317140174 81.8427
17.37846339986244 75.6187
17.401021565958885 69.8721
17.42359800851343 64.5349
17.44617513265564 61.5144
17.468735341390783 59.6432
17.491261035594565 58.9399
17.51396340099364 58.7257
17.536490463869136 58.9101
17.559018209820174 59.0492
17.58154663977963 59.1364
17.604251766089718 59.4317
17.626781572227713 59.5332
17.64931206518155 59.706
17.671843245885103 60.339
17.69455114821572 60.4812
17.717083712612634 60.7111
17.739616967569667 60.9637
17.762150914021706 61.2659
17.78486160749854 61.5697
17.807396945166804 62.2515
17.829932977143503 63.1973
17.85246970436452 64.8328
17.875183204129467 66.7069
17.897721330097664 68.9598
17.920260154126645 71.0933
17.942799677153296 74.3671
17.9655159983646 78.0726
17.988056927677544 83.4812
18.010598558807683 91.6585
18.033140892692916 101.719
18.05586005052525 112.806
18.07840379824407 124.523
18.10094825154059 135.166
18.12366954819864 142.798
18.146215420998306 140.29
18.16876200220057 130.738
18.191309292745153 115.71600000000001
18.214033452627167 101.001
18.236582170236648 90.3485
18.259131600016456 86.1234
18.281681742907335 86.7874
18.304408781233683 91.1707
18.32696035875955 96.3707
18.349512652227624 100.806
18.372065662579683 104.99
18.394795594587553 105.74600000000001
18.41735004715306 101.758
18.43990521943684 94.3372
18.46246111238171 84.7051
18.485193953325208 75.4761
18.507751296070428 68.8334
18.530309362314178 65.2157
18.552868153000343 63.2766
18.57560391815056 61.9299
18.59816416623245 61.6432
18.620725141597372 61.1818
18.643286845190268 60.6323
18.666025549835414 60.3393
18.688588718427933 59.5442
18.711152618092243 59.3658
18.73389353884365 59.2573
18.75645890921984 58.94
18.77902501351406 58.6277
18.801591852673102 58.5165
18.824335739722738 58.0229
18.846904057212626 57.9896
18.8694731124168 57.5829
18.89204290628315 57.6559
18.914789774966803 57.4588
18.937361054791623 57.012
18.959933076131318 56.8951
18.982505839934877 56.9905
19.00525570560582 56.93
19.027829963004184 56.6072
19.05040496572238 56.7788
19.072980714710468 56.8633
19.095733592739563 57.0536
19.11831084296757 57.4317
19.140888842324735 57.7449
19.16346759176222 58.0832
19.18622349753803 58.5251
19.208803755869358 59.4786
19.231384767143577 60.8242
19.253966532312948 62.6252
19.276725481241822 64.5863
19.29930876296784 67.3385
19.3218928014549 70.5896
19.34465404436217 73.325
19.36723960516257 75.8028
19.389825925592426 76.4363
19.412413006605938 75.0976
19.43517731967805 71.5799
19.457765930683355 67.1642
19.48035530514408 62.3318
19.50294544401556 58.8889
19.525712842708348 56.3619
19.54830451925909 54.8559
19.570896963095727 54.0412
19.593490175174704 53.7136
19.616260674962184 53.6392
19.638855432416964 53.6393
19.661450960992624 53.7334
19.68404726164677 53.4978
19.706820878021247 53.2754
19.729418731756834 53.5704
19.752017360452857 53.3724
19.77461676506804 53.5885
19.797393513540218 53.6993
19.819994478951667 53.88
19.84259622316767 54.365
19.8651987471481 54.7136
19.887978643247177 55.0059
19.91058273574792 55.6561
19.933187610901943 56.3911
19.955969879466828 57.6383
19.97857632894404 59.0437
20.00118356396599 60.6584
20.023791585494575 62.729
20.046577028914875 65.5287
20.069186632506966 67.7121
20.091797025500632 69.3371
20.114408208858933 69.7943
20.137196842715273 69.3132
20.159809615886765 67.6223
20.18242318232135 65.0209
20.20503754298326 63.0
20.227829382875154 62.1021
20.250445341109344 62.0361
20.27306209647285 62.7675
20.29567964993108 64.1521
20.31847471147704 64.9781
20.34109387027612 65.5069
20.363713830075454 64.9087
20.386334591841646 63.3221
20.409132890679302 60.6005
20.431755265564437 57.6072
20.454378445325528 54.8685
20.477002430930366 52.8475
20.499803982716553 51.8299
20.522429589228004 51.1828
20.54505600449589 50.9227
20.567683229489194 50.8229
20.590488049900088 50.3835
20.61311690359731 50.0265
20.63574656993626 49.9431
20.658553853717297 49.5086
20.681185154618298 49.4933
20.703817271080066 49.3461
20.72645020407368 48.9897
20.749260783967177 49.0402
20.771895359337133 49.0564
20.794530754161617 48.8858
20.817166969412938 48.7222
20.83998086114876 48.798
20.86261872660049 48.5969
20.885257415405402 48.7767
20.90789692853701 48.5797
20.930714147864748 48.4455
20.953355319030678 48.6642
20.97599731745334 48.6863
20.99864014410749 48.4189
21.021460706796564 48.5536
21.044105199328826 48.7834
21.06675052302631 48.9969
21.089396678865015 49.1476
21.112220600704806 49.5081
21.134868430275347 49.8243
21.15751709492456 49.905
21.180166595629693 50.415
21.202993892429635 50.9521
21.22564507473034 51.2577
21.24829709602816 51.293
21.27112693608965 51.3475
21.293780644891275 51.2045
21.316435195634053 50.5305
21.339090589297417 49.8225
21.361923832041875 49.2846
21.384580921090404 48.6467
21.407238856007325 48.3543
21.429897637773326 48.2612
21.45273429906592 48.3327
21.475394784108598 48.3019
21.498056118951983 48.2706
21.520718304578022 48.5798
21.543558400304388 48.6537
21.566222297108816 48.8687
21.58888704765135 49.0819
21.61155265291521 49.3744
21.63439619898156 49.7626
21.657063523335786 50.0061
21.67973170537063 50.4683
21.7024007460706 50.9955
21.72524775840385 51.7552
21.747918526116475 52.7246
21.770590155457388 53.9698
21.79326264741238 55.6239
21.816113141960237 57.4603
21.838787368860547 59.4215
21.861462461341976 61.3473
21.884315579735777 63.2213
21.90699241312273 64.1405
21.92967011506078 64.8942
21.95234868653799 64.3938
21.9752053151131 62.8327
21.997885635446785 60.7116
22.020566828293532 58.9541
22.04324889464272 57.6344
22.066109049404666 56.3433
22.088792872571794 55.9912
22.111477572219204 55.9852
22.1341631493376 56.1808
22.157026846313123 55.8192
22.179714188221507 54.7914
22.202402410582668 53.95399999999999
22.22509151438863 52.3245
22.24795876962584 51.0134
22.270649646204486 50.2159
22.293341407213727 49.7427
22.316034053646906 49.1768
22.338904883215342 48.9165
22.36159931041458 49.0235
22.38429462602756 48.8055
22.40699083104897 48.4509
22.429865251039757 48.6399
22.452563244831367 48.6421
22.47526213102522 48.5628
22.49813925616515 48.5203
22.520839937143307 48.4809
22.543541513520587 48.3961
22.56624398629403 48.4093
22.589124730075895 48.4782
22.611829005656723 48.7759
22.63453418063466 48.7291
22.657240256008077 48.9704
22.680124634582935 48.9829
22.70283252079775 49.2455
22.725541310413075 49.523999999999994
22.74825100442868 49.696999999999996
22.771139033969575 50.3216
22.79385054687155 50.5994
22.81656296718292 51.2679
22.83927629590484 52.1292
22.862167992606945 53.1235
22.88488314827121 54.3046
22.907599215359284 55.185
22.93031619487366 56.3709
22.953211574954405 57.1808
22.975930389478226 58.0906
22.998650119445763 58.1601
23.02137076586092 57.1885
23.044269845560063 55.693000000000005
23.06699233506288 53.8313
23.089715744034912 52.5042
23.112617610931565 50.8672
23.135342869061212 49.6948
23.158069049684816 49.0565
23.1807961538087 48.5128
23.20370174880544 48.5279
23.226430710184808 48.7659
23.249160598093425 48.9005
23.271891413539002 48.6953
23.294800752937697 48.9656
23.31753343374794 48.9947
23.340267045128353 49.1964
23.36300158808808 49.3806
23.38591468821339 49.6642
23.408651104658304 50.1265
23.431388455719986 51.0245
23.454126742409 51.7665
23.4770436196085 52.9681
23.499783787914662 54.0198
23.522524894889884 55.0719
23.54526694154616 56.0451
23.56818761219047 57.427
23.59093154860734 57.6843
23.613676427751283 57.821999999999996
23.636422250635754 56.5185
23.659346731118656 54.9382
23.68209445191868 53.0921
23.704843119509587 51.0121
23.72759273490623 49.172
23.750521041644767 47.8567
23.77327256312355 46.8989
23.796025035462787 46.4542
23.818956224555475 45.8715
23.841710609113413 45.9152
23.86446594758979 45.7602
23.887222241002014 45.4736
23.910157285144578 45.0192
23.932915498962537 45.1147
23.955674670778713 44.8583
23.978434801611975 44.744
24.001373717286125 44.6018
24.024135776723917 44.4697
24.046898798245582 44.4201
24.06966278287146 44.3929
24.092605586582614 44.1443
24.115371508023642 44.0008
24.1381383956401 43.8655
24.16090625045381 43.9208
24.183852958731244 43.7944
24.206622758582608 43.9251
24.229393528706886 43.5451
24.252165270127392 43.5979
24.27511589952438 43.5703
24.297889594216997 43.2556
24.32066426328598 43.1899
24.34343990775613 43.2121
24.36639447485003 43.1251
24.38917208083877 42.9767
24.41195066531332 42.9529
24.43490819850244 43.0004
24.457688750692377 42.9914
24.48047028445616 43.0771
24.503252800821233 43.0831
24.526214300784112 42.9465
24.548998793132213 42.872
24.57178427117417 42.9244
24.59457073593893 43.0337
24.617536219319863 42.8321
24.64032466834748 42.6902
24.663114107195035 42.753
24.685904536893013 42.4387
24.708874020360852 42.2192
24.731666442613744 42.3539
24.754459858818787 42.3774
24.777254270007962 42.233999999999995
24.80022777025625 42.1195
24.82302418230472 42.2379
24.845821592443674 42.1255
24.86862000170663 42.0512
24.891597535453727 42.0199
24.914397953892728 42.3147
24.93719937456671 42.2186
24.96000179851076 42.361999999999995
24.98298338249997 42.5735
25.00578782394922 42.7635
25.028593271784167 42.8523
25.05157790644186 43.1157
25.07438537804115 43.2585
25.097193859145293 43.6603
25.120003350792075 43.8215
25.142992065061257 44.1929
25.165803588823465 44.3438
25.18861612625217 44.5465
25.211429678386736 44.6966
25.234422489079968 44.8446
25.257238081693636 44.8059
25.280054692141732 44.7566
25.3028723214652 44.641999999999996
25.325869245420463 44.9045
25.348688923599397 44.9143
25.371509623787006 44.9712
25.394331347025812 44.4882
25.41733240110666 44.0571
25.440156181590016 43.3495
25.46298098826268 42.7378
25.48580682216873 42.2049
25.50881202326435 41.7747
25.53163992281684 41.3879
25.55446885274561 41.0717
25.577298814096377 40.8183
25.600308179121807 40.8102
25.623140214533745 40.7664
25.64597328451537 40.6411
25.66898578564376 40.5155
25.691820936010206 40.4985
25.714657124097695 40.6165
25.737494350954734 40.4778
25.760511045684957 40.4293
25.783350361364224 40.5441
25.806190718969255 40.5144
25.82903211955018 40.5434
25.852053024868923 40.7376
25.874896522722523 40.6281
25.897741066713106 40.5887
25.920586657892454 40.7616
25.943611790812668 40.9068
25.966459487728237 40.9626
25.989308234998564 40.9795
26.01215803367705 41.28
26.03518741123814 41.4192
26.05803932412957 41.4615
26.080892291600094 41.5889
26.10374631470478 41.59
26.12677995397268 41.5756
26.14963609978026 41.6366
26.172493304397875 41.2126
26.19535156888223 41.0486
26.218389486949604 40.7698
26.241249882640123 40.5205
26.26411134137826 40.1933
26.28715248187403 40.249
26.31001607820869 40.098
26.3328807407756 40.0391
26.35574647063438 40.0065
26.37879191991473 40.0368
26.401659795896734 40.1329
26.424528742360263 40.1914
26.447398760366614 40.4784
26.470448535598294 40.5432
26.49332070826805 40.7825
26.516193955675355 41.0539
26.53906827888316 41.2273
26.562122397260108 41.3864
26.584998883685063 41.6705
26.607876449110325 41.99
26.63075509460056 42.1857
26.65381357334404 42.2754
26.67669439061878 42.1543
26.699576291163382 41.9025
26.722459276044212 41.8277
26.745522132402975 41.5762
26.768407297649354 41.1918
26.791293550442003 40.9016
26.814180891848974 40.7863
26.837248143099337 40.505
26.860137673466657 40.3326
26.88302829566349 40.0114
26.90592001075963 39.8659
26.92899167420566 39.6757
26.951885586870763 39.2132
26.974780595655517 39.1573
26.99785558178161 39.0653
27.020752794605112 38.9503
27.043651106772522 38.7584
27.06655051935668 38.8949
27.089629948036183 38.8326
27.112531573292053 38.6489
27.135434302194138 38.7534
27.158338135817015 38.4982
27.181422024430987 38.5627
27.204328079372566 38.5515
27.22723524226965 38.5845
27.250143514198573 38.59
27.273231880156334 38.5399
27.296142382065014 38.3769
27.319053996245536 38.2495
27.341966723775965 38.3428
27.365059584515222 38.4086
27.38797455070062 38.4465
27.410890633481237 38.4446
27.433807833936918 38.3729
27.456905206923906 38.5061
27.47982465472398 38.4796
27.502745223449743 38.5034
27.525666914182825 38.4954
27.548768816912457 38.5032
27.571692763693633 38.5108
27.59461783573812 38.4289
27.617723149491244 38.0817
27.640650484125285 38.0232
27.66357894728264 38.0965
27.686508540048052 37.955999999999996
27.709618414237887 37.9067
27.732550278321757 37.7072
27.755483275279115 37.7144
27.778417406196485 37.8174
27.801531858397514 37.9331
27.824468269376716 37.8624
27.847405817586786 37.723
27.870344504116094 37.9585
27.893463551932008 38.0444
27.916404527281053 38.2694
27.93934664422563 38.3654
27.962289903855886 38.4643
27.98541356491974 38.7515
28.00835912214229 38.7366
28.03130582533231 38.9595
28.054253675581805 39.1528
28.077381967556104 39.1811
28.100332124185126 38.9745
28.123283431160893 38.6993
28.146235889577238 38.6502
28.169368830154156 38.6254
28.192323603752033 38.3317
28.215279532083304 38.0443
28.238415973016764 37.8964
28.261374223145094 37.7572
28.284333631303806 37.5549
28.307294198589954 37.4031
28.330435319167677 36.9592
28.353398217078915 36.7795
28.376362277420153 36.6709
28.39932750129032 36.4821
28.422473319286713 36.4066
28.44544088262495 36.2753
28.468409612800283 36.2785
28.491379510913497 35.9329
28.51453004413313 35.8275
28.53750229057244 35.8663
28.56047570826344 35.8302
28.583450298308804 35.8194
28.606605564586562 35.5157
28.629582511831156 35.6849
28.65256063474956 35.5065
28.675539934446338 35.6683
28.698699951647605 35.6095
28.72168161743193 35.3947
28.74466446331978 35.3819
28.767648490417624 35.3836
28.790813276438353 35.373000000000005
28.813799678527303 35.4235
28.836787265157085 35.3371
28.859955641890075 35.4446
28.882945610203045 35.4028
28.905936766392035 35.2331
28.928929111566863 35.2856
28.952102288520145 35.175
28.975097024308607 35.0892
28.998092952423807 34.8156
29.021090073977508 34.823
29.04426806913204 34.7857
29.067267590245258 34.5764
29.090268308143695 34.4829
29.11327022394099 34.4732
29.13645305530891 34.4594
29.159457379627167 34.4834
29.18246290519685 34.338
29.20546963313352 34.3533
29.22865731875826 34.2346
29.25166646419296 34.24
29.27467681535305 34.1103
29.29768837335608 34.2544
29.320880931312562 34.2754
29.34389491580634 34.2088
29.366910110507334 34.1213
29.38992651653503 34.266999999999996
29.41312396492981 34.1737
29.436142806456754 34.0601
29.45916286268059 34.0152
29.48236399319994 33.9586
29.50538649169417 33.695
29.528410208259935 33.6338
29.55143514402014 33.4614
29.574641196749695 33.3863
29.597668583816574 33.2285
29.6206971934585 33.0053
29.64372702680042 33.1726
29.666938019934474 33.0279
29.689970313635285 33.0188
29.713003834422636 33.0081
29.73603858342347 32.8797
29.759254535188578 32.7225
29.78229175361658 32.6956
29.80533020365064 32.8182
29.82836988641968 32.8346
29.85159081507472 32.6585
29.874632976355343 32.5628
29.89767637376955 32.6592
29.920721008448314 32.4682
29.9439469322847 32.6134
29.96699405457564 32.5416
29.9900424175358 32.4774
30.013092022298157 32.3855
30.03632295963995 32.3754
30.059375061131373 32.5812
30.08242840783577 32.5848
30.105483000888153 32.5367
30.128718970092244 32.3968
30.151776069006917 32.4042
30.17483441768648 32.4218
30.198074175317235 32.434
30.221135036724256 32.3971
30.24419715131772 32.2645
30.267260520236203 32.2099
30.290505341942243 32.3452
30.313571232750228 32.3333
30.336638381310948 32.2812
30.35970678876503 32.2529
30.38295669299435 32.1587
30.40602763151657 32.0844
30.429099832366074 32.0916
30.452173296685572 32.0669
30.47542830191959 32.0558
30.498504306502497 32.016999999999996
30.521581577995562 32.033
30.544660117543582 32.0604
30.56792024229725 32.1041
30.59100133132069 32.1202
30.614083691845494 32.1933
30.637167325018545 32.1136
30.660432587840603 32.1968
30.683518779717886 32.1358
30.70660624769615 32.1191
30.729694992924372 32.1576
30.75296541239743 32.2563
30.77605672557558 32.0839
30.799149319462742 32.1499
30.8224236211637 31.8792
30.845518789950724 31.77
30.868615242910597 31.7735
30.891712981195973 31.5585
30.91499247215866 31.4802
30.938092794619365 31.6269
30.96119440587579 31.4429
30.984297307082752 31.331
31.00758200598383 31.2445
31.030687500658694 31.1433
31.053794288760695 31.0754
31.076902371446767 31.0341
31.100192296997445 31.0903
31.12330298246119 30.9814
31.14641496599209 30.9642
31.169528248749216 31.0429
31.19282341969534 30.8784
31.215939314557186 30.9008
31.239056512134788 30.903000000000002
31.262175013589378 30.8991
31.28547544871168 30.8199
31.30859657161541 30.7529
31.331719001892175 30.7985
31.35484274070538 30.8987
31.378148458819545 30.8658
31.401274828443725 30.9171
31.424402510106933 31.0073
31.447712205419993 30.9806
31.470842524931633 30.7973
31.493974159989783 30.8319
31.51710711176168 30.7439
31.54042212308802 30.6773
31.563557722100917 30.6065
31.586694641341655 30.5265
31.609832881979628 30.4358
31.63315322823208 30.3444
31.656294125521327 30.3672
31.679436347728515 30.2984
31.70257989602529 30.1964
31.725905596152327 30.1605
31.74905181052835 30.1163
31.772199354521323 30.2574
31.79534822930507 30.1314
31.818679302290967 30.1353
31.84183085259981 30.0821
31.864983737233473 30.0351
31.88813795736804 30.0877
31.911474422233013 29.9402
31.934631327356435 30.1204
31.9577895715215 30.0859
31.980949155906522 30.0315
32.004291031706956 29.9977
32.027453310562606 29.798000000000002
32.05061693318573 29.714000000000002
32.07396288236386 29.7496
32.09712920658542 29.7937
32.12029687812702 29.6156
32.14346589817093 29.4311
32.166817291729984 29.4792
32.18998902288583 29.3983
32.21316210610336 29.4426
32.23633654256711 29.2482
32.259693399663725 29.1155
32.282870556771144 29.1009
32.30604907069099 29.1119
32.329228942610065 29.1782
32.35259128243769 28.9889
32.375773884550505 28.9234
32.398957848235646 28.8954
32.422143174682176 28.9142
32.445511016471215 28.7767
32.468699082679954 28.8518
32.49188851523011 28.6982
32.51507931531304 28.5988
32.538452678331 28.6275
32.56164622776311 28.5342
32.58484114831493 28.4058
32.60803744118015 28.3564
32.631416344731896 28.3884
32.654615396551876 28.4604
32.67781582427913 28.3239
32.701198898634416 28.33
32.72440209253756 28.2308
32.747606665947124 28.2382
32.77081262006088 28.0191
32.79420126883317 28.0965
32.81740999876112 28.1607
32.840620112999424 28.0796
32.86383161274818 28.0051
32.88722585534586 27.9646
32.91044014056596 28.0373
32.933655814909734 28.003
32.95687287957963 28.0986
32.98027273544904 27.7994
33.00349259526636 27.8334
33.026713849030116 27.8326
33.04993649794511 27.7915
33.073341986570746 27.8196
33.09656744032826 27.7924
33.11979429286444 27.7766
33.14302254538647 27.784000000000002
33.166433686291185 27.7054
33.18966475336992 27.6846
33.212897224069096 27.5856
33.23613109959831 27.6076
33.259547912343415 27.5526
33.2827846121627 27.5589
33.306022720453775 27.4976
33.32926223842861 27.3622
33.352684742614166 27.4271
33.37592709463173 27.3309
33.399170859982064 27.3147
33.422597648419426 27.1511
33.44584425514446 27.0508
33.46909227885668 27.1134
33.4923417207723 26.9601
33.51577423505344 27.011999999999997
33.539026528130385 26.8869
33.56228024307245 26.8795
33.585535381098246 26.7454
33.60897364093058 26.7219
33.63223163992385 26.6857
33.6554910656699 26.57
33.678751919389796 26.671999999999997
33.702195944520106 26.4525
33.72545966903325 26.555
33.74872482519663 26.5027
33.771991414233746 26.4981
33.79544122444841 26.4909
33.81871069412428 26.4465
33.84198160035767 26.3515
33.86525394437455 26.3966
33.88870955949969 26.316999999999997
33.911984794020626 26.248
33.93526147001624 26.2135
33.958539588715006 26.2209
33.98200102861669 26.1191
34.0052820477047 26.0572
34.02856451319451 26.0006
34.05203033759056 26.0274
34.07531571090147 25.976999999999997
34.09860253431845 25.9308
34.121890809074316 25.8666
34.145362493118924 25.7674
34.16865368561615 25.7604
34.191946333164054 25.8013
34.21524043699793 25.7749
34.23871800066799 25.8259
34.26201503218366 25.5295
34.28531352370466 25.5382
34.30861347646881 25.456
34.33209693978188 25.5078
34.3553998301885 25.4689
34.378704185565205 25.3714
34.402010007152356 25.3662
34.42549939016683 25.396
34.44880815937748 25.2913
34.472118398533134 25.2513
34.49543010887669 25.2809
34.51892543169198 25.1765
34.54224009966052 25.2026
34.56555624255917 25.0617
34.58887386163339 25.0081
34.61237514439016 24.9872
34.6356957311114 24.8901
34.65901779775809 24.8748
34.68252356662995 24.8842
34.705848608458616 24.826
34.72917513396849 24.8051
34.75250314440949 24.815
34.77601490857862 24.6849
34.799345904259795 24.6372
34.82267838863559 24.6577
34.846012362958525 24.7064
34.869530142679984 24.6767
34.89286711232212 24.5978
34.91620557568269 24.5285
34.93954553401677 24.4803
34.9630693495876 24.4072
34.986412313340814 24.4567
35.00975677584668 24.4474
35.033102738362956 24.4161
35.05663261012228 24.3362
35.0799815881786 24.2822
35.10333207003229 24.2619
35.12668405694369 24.2272
35.150220005273056 24.2357
35.17357501786656 24.1962
35.19693153931268 24.0914
35.220289570874385 24.1244
35.24383161619786 24.0985
35.267192683604904 24.0935
35.290555264930376 24.0005
35.314101899412165 24.0346
35.33746752422433 23.9938
35.36083466676374 24.0596
35.38420332829803 24.014
35.407756095629054 24.0328
35.43112781085063 23.9848
35.45450104888391 24.0256
35.477875810999194 23.9389
35.50143473172161 23.8171
35.52481255774625 23.898000000000003
35.54819191167777 23.7552
35.57157279478914 23.6932
35.595137889488406 23.6464
35.61852184675279 23.5755
35.641907337029984 23.5597
35.665294361595684 23.5662
35.68886565090076 23.5475
35.7122557598848 23.4706
35.73564740699838 23.4889
35.759040593519934 23.381
35.78261809810353 23.3612
35.80601437933051 23.3268
35.829412203814705 23.2378
35.85281157283719 23.2618
35.876395313415884 23.2132
35.8997977874528 23.2084
35.92320180988546 23.2239
35.946790244133936 23.1496
35.97019737933222 23.151
35.993606066789866 23.0618
36.01701630779276 23.0519
36.04061101440684 23.0577
36.06402437852291 23.0038
36.08743930005611 22.9989
36.1108557802951 22.8694
36.13445678011326 22.9063
36.15787639383515 22.8673
36.18129757014299 22.8717
36.20472031032821 22.7819
36.22832762423364 22.748
36.25175350829375 22.7085
36.275180960119776 22.6123
36.298609981005924 22.6983
36.32222362992669 22.5923
36.34565580510207 22.5978
36.36908955323448 22.5096
36.39252487562093 22.4001
36.416144880530226 22.3648
36.43958336764275 22.4395
36.463023432914625 22.4262
36.486465077645676 22.3458
36.51009145956204 22.3803
36.53353627947859 22.4041
36.55698268276811 22.2944
36.58043067073321 22.2293
36.60406345072071 22.1827
36.62751462435344 22.1547
36.65096738658405 22.1451
36.67460498210655 22.1832
36.69806093788647 22.087
36.72151848619297 22.0786
36.744977628333636 22.0437
36.76862165890998 21.9552
36.79208400512205 21.9081
36.81554794910557 21.9707
36.83901349217101 21.8391
36.862663978991606 21.8456
36.88613273667352 21.759
36.90960309738324 21.7052
36.933075062434064 21.701
36.95673202673572 21.6761
36.98020721697122 21.5728
37.003684015502365 21.633000000000003
37.027162423645365 21.506999999999998
37.050825886711465 21.5021
37.07430753063053 21.4887
37.09779078812467 21.4496
37.121275660513014 21.394000000000002
37.144945643673694 21.3832
37.16843376245278 21.3496
37.19192350009803 21.298000000000002
37.215414857931435 21.2415
37.239091382563885 21.1739
37.262585997426164 21.2182
37.28608223645736 21.221
37.309763684451696 21.1301
37.33326318851098 21.1307
37.356764320726555 21.0954
37.380267082425526 21.1225
37.40395510942588 21.1258
37.42746114683234 21.0697
37.45096881771841 20.9987
37.474478123414166 20.9928
37.49817275092816 20.9476
37.52168534303452 20.9681
37.54519957395567 20.7935
37.568715445024665 20.7493
37.592416694607714 20.7883
37.61593586281424 20.8241
37.63945667518264 20.8532
37.66297913304891 20.7871
37.68668702630454 20.6809
37.710212792059274 20.6062
37.733740207334854 20.5433
37.757269273470364 20.517
37.780983832050374 20.5245
37.80451621684926 20.4486
37.82805025654007 20.4736
37.851585952464795 20.4475
37.8753071980695 20.3509
37.89884622345676 20.2629
37.92238690911902 20.284000000000002
37.94611318753442 20.2351
37.969657210779765 20.2551
37.99320289834801 20.2335
38.016750251586465 20.1494
38.04048325513017 20.1184
38.06403395679343 20.133
38.087586328183946 20.0707
38.11114037065203 20.0391
38.13488012115898 20.0737
38.1584375229181 20.0031
38.181996599821 19.9421
38.205557353221124 19.9184
38.229303872575656 19.864
38.2528679961576 19.906
38.27643380031219 19.8463
38.30000128639589 19.8067
38.32375459653193 19.7617
38.34732546371299 19.6995
38.37089801690786 19.660999999999998
38.39447225747609 19.6441
38.418232380377425 19.6272
38.441810012983396 19.6302
38.46538933705673 19.5743
38.488970353960084 19.5892
38.51273731166058 19.5468
38.536321731567014 19.4917
38.55990784840681 19.4721
38.58367995004091 19.4523
38.60726947812959 19.4048
38.63086070726198 19.3576
38.654453638806274 19.3867
38.678232613930824 19.31
38.70182896773327 19.2673
38.72542702806741 19.1874
38.7490267963045 19.1661
38.77281266709232 19.1429
38.79641586862214 19.0974
38.8200207821842 19.1564
38.843627409152944 19.1458
38.86742019782782 19.0303
38.891030269149255 19.0121
38.914642058016156 18.977
38.938255565806124 19.0006
38.96205529464307 18.924
38.98567225787121 18.8877
39.00929094417078 18.933
39.03291135492255 18.9149
39.05671804624804 18.8432
39.080341923549106 18.8053
39.103967529460334 18.7962
39.127594865365744 18.7178
39.15140854155791 18.7347
39.17503935514948 18.7607
39.19867190290282 18.6337
39.22249083587951 18.6079
39.24612686969409 18.6304
39.269764641845306 18.5821
39.293404153722804 18.5103
39.317230110864074 18.4718
39.34087311998506 18.4517
39.36451787301696 18.4717
39.388164371352595 18.3375
39.41199737518003 18.3221
39.43564738196752 18.3296
39.45929913825317 18.2683
39.48295264543308 18.1976
39.506792718520884 18.3079
39.530449745387216 18.2937
39.55410852735203 18.2216
39.57776906581474 18.2155
39.60161623079 18.1377
39.625280300200025 18.0907
39.64894613032202 18.0252
39.67261372255866 18.0284
39.6964680021016 18.0618
39.72013913657293 18.0568
39.74381203738292 17.9632
39.76748670593756 17.9617
39.79134812278169 17.9101
39.81502634488497 17.8847
39.83870633896685 17.8924
39.862388106436654 17.7786
39.88625668336918 17.7824
39.90994201572829 17.8205
39.933629125719285 17.7573
39.957503091207826 17.7367
39.9811937746168 17.7553
40.00488623990914 17.7285
40.02858048850006 17.6683
40.05246165409549 17.5962
40.076159487492085 17.5622
40.099859108448875 17.5662
40.123560518384345 17.4481
40.1474489070226 17.4882
40.171153913178564 17.5206
40.194860712584955 17.4372
40.2185693066637 17.4265
40.242464941335314 17.3029
40.26617714307655 17.3736
40.289891143772046 17.337
40.3136069448471 17.3131
40.33750984859743 17.2783
40.3612292688043 17.2994
40.3849504936829 17.2147
40.40867352466194 17.2054
40.43258372059144 17.1938
40.45631038219906 17.1875
40.48003885420956 17.0616
40.503769138055105 17.0622
40.52768664931955 17.0755
40.55142057531802 17.0545
40.57515631746428 16.9796
40.599079334038514 16.964000000000002
40.62281872700477 16.9149
40.64655994043941 16.8965
40.67030297578061 16.9098
40.69423334835778 16.8757
40.71798004609188 16.8343
40.74172857006355 16.8195
40.76547892171441 16.8096
40.7894166736039 16.8097
40.813170699248566 16.7091
40.83692655691388 16.6817
40.86068424804498 16.7037
40.884629402612525 16.6435
40.908390779366385 16.6834
40.932153993938 16.6475
40.95591904777605 16.5879
40.979871628443995 16.5523
41.003640379561936 16.5485
41.02741097430883 16.5638
41.05118341413683 16.5137
41.075143444384416 16.4266
41.098919593177826 16.4351
41.1226975914255 16.3992
41.14647744058318 16.3158
41.170444943946755 16.3525
41.19422851378379 16.3437
41.218013938914645 16.2663
41.24198706625173 16.21
41.26577622087193 16.1895
41.289567235177785 16.2282
41.31336011063129 16.1466
41.337340752422875 16.2011
41.361137369129835 16.1616
41.38493585138705 16.1027
41.40873620066004 16.0753
41.43272438060107 16.0446
41.45652848292052 15.9814
41.48033445666918 15.9089
41.50414230331616 15.9139
41.528138045159764 15.912
41.551949656675205 15.8956
41.575763145513235 15.8823
41.59957851314666 15.8602
41.62358184070442 15.8104
41.64740098505737 15.789000000000001
41.6712220126409 15.76
41.69504492493139 15.7053
41.71905586207357 15.707
41.74288256296395 15.6769
41.766711153007456 15.6625
41.79054163368412 15.6524
41.814560204340054 15.6739
41.838394485526365 15.5865
41.86223066180303 15.5842
41.88625497706819 15.6028
41.910094962812 15.5179
41.93393684811168 15.4761
41.95778063445365 15.4674
41.981812625263366 15.3953
42.00566023303407 15.37
42.029509746323676 15.433
42.05336116662236 15.3555
42.077400857069705 15.3563
42.10125611078846 15.3106
42.12511327600405 15.2858
42.14897235421036 15.2417
42.173019768448455 15.2384
42.19688269209613 15.2336
42.22074753323349 15.2017
42.24461429335818 15.14
42.268669455600495 15.1319
42.292540073217886 15.0822
42.31641261433284 15.0739
42.34028708044675 15.0406
42.36435001496739 15.0195
42.38822835065557 14.9931
42.41210861586426 14.9151
42.4359908120986 14.9396
42.46006154323262 14.9468
42.48394762115317 14.9057
42.507835634632315 14.9351
42.531912233047436 14.8769
42.55580413732265 14.7645
42.579697981698 14.7638
42.60359376768525 14.8027
42.62767820545945 14.7975
42.65157789440821 14.7663
42.67547952952185 14.669
42.699383112316 14.7236
42.72347541395347 14.6474
42.74738291190531 14.5806
42.771292362102166 14.6299
42.795203766063516 14.6138
42.819303956130405 14.5122
42.843219287476536 14.5266
42.86713657716324 14.4411
42.89105582671383 14.4735
42.91516392983864 14.4466
42.939087119032166 14.408
42.963012272677304 14.3358
42.98693939230129 14.3616
43.01105543317513 14.3406
43.034986504731386 14.3287
43.05891954686589 14.3419
43.08285456110972 14.2265
43.10697856448665 14.208
43.130917542983475 14.1618
43.15485849820081 14.1994
43.17880143167367 14.1722
43.20293342237094 14.0956
43.226880332449 14.0791
43.25082922540554 14.1084
43.27496722682525 14.0856
43.29892010567796 14.0678
43.32287497204102 14.007
43.34683182745632 14.0231
43.370977859791836 13.969000000000001
43.39493871351105 14.0002
43.41890156092628 13.9866
43.44286640358341 13.9614
43.46702049182749 13.895
43.49098934522816 13.8624
43.51496019852649 13.8031
43.5389330532723 13.824000000000002
43.56309522248204 13.8044
43.58707210044314 13.7548
43.61105098451946 13.7364
43.63503187626491 13.7493
43.659202151562134 13.714
43.68318707902681 13.6577
43.70717401884041 13.6777
43.731162972560874 13.6318
43.75534137913236 13.6199
43.779334381108384 13.5502
43.803329401683186 13.5782
43.82732644241872 13.5259
43.8515130055166 13.5249
43.87551410707659 13.4709
43.89951723350145 13.4714
43.923709934595614 13.432
43.94771713129917 13.4149
43.97172635758096 13.3652
43.99573761501002 13.4
44.0199385169922 13.3444
44.04395385732619 13.3379
44.067971233533086 13.3138
44.09199064718605 13.245
44.11619977548961 13.2286
44.14022328470671 13.1786
44.16424883610785 13.2082
44.18827643127035 13.2027
44.21249381139513 13.1383
44.236525514814076 13.124
44.26055926674478 13.1185
44.28459506876863 13.1246
44.3088207262813 13.0353
44.33286064928722 13.0942
44.35690262714919 13.0208
44.38094666145278 12.946
44.4051806219871 13.0261
44.42922879003185 12.9616
44.45327901929361 12.9519
44.477331311362136 12.9214
44.501573600619416 12.8865
44.525630039221795 12.901
44.54968854541895 12.8435
44.573937102200176 12.8055
44.5979997645541 12.7695
44.622064499300315 12.7952
44.64613130803592 12.7623
44.67038823869318 12.759
44.69445921643748 12.7184
44.718532272981385 12.6767
44.742607409926194 12.6705
44.76687274034801 12.6141
44.79095205918753 12.5962
44.81503346325094 12.6183
44.839116954143876 12.5967
44.86339071028742 12.5168
44.88747839599524 12.56
44.91156817336837 12.5435
44.93566004401666 12.5143
44.959942251908146 12.4806
44.984038330325966 12.4813
45.00813650686762 12.4102
45.03223678314731 12.3903
45.05652746888232 12.3811
45.08063196592069 12.3717
45.104738567558705 12.347000000000001
45.128847275414856 12.3364
45.15314646515866 12.2826
45.17725940679741 12.2697
45.20137445952892 12.215
45.22568004865265 12.2203
45.24979934496396 12.2264
45.27392075725247 12.2326
45.29804428714431 12.1366
45.322358426247604 12.1044
45.346486212804315 12.100999999999999
45.370616121861914 12.0776
45.39474815505086 12.0576
45.41907087049246 12.0404
45.4432071734666 12.0504
45.46734560548283 12.0507
45.49148616817604 12.0365
45.51581748638564 12.0038
45.5399623320197 11.9163
45.56410931325473 11.8865
45.58825843173002 11.9137
45.61259837920865 11.9102
45.636751793816 11.870999999999999
45.66090735060093 11.7984
45.68506505120716 11.8086
45.7094136545275 11.8407
45.73357566449271 11.8073
45.75773982322992 11.7238
45.78190613238733 11.7268
45.806263418194064 11.6564
45.83043404997326 11.6464
45.85460683713677 11.6871
45.87897065658495 11.6625
45.90314777634752 11.6314
45.92732705646868 11.6428
45.9515084986045 11.6119
45.97588104735473 11.5596
46.00006683541565 11.5559
46.02425479047904 11.5163
46.04844491420549 11.4851
46.0728262191024 11.4924
46.09702070211635 11.4804
46.12121735879483 11.4729
46.14541619080294 11.4308
46.169806278764455 11.3953
46.194009483459034 11.3764
46.21821486849841 11.3635
46.24242243555223 11.3599
46.266821333570014 11.3075
46.29103328674601 11.2809
46.31524742696538 11.312999999999999
46.33946375590237 11.2977
46.36387149104216 11.2281
46.38809221957392 11.1889
46.41231514186606 11.1796
46.436540259597464 11.1705
46.460956858999374 11.1421
46.48518638983522 11.1633
46.509418121166966 11.149000000000001
46.533652054678114 11.0967
46.55807754555709 11.0712
46.58231590571962 11.0992
46.60655647313217 11.0601
46.630988654873654 11.0155
46.655233659129024 10.977
46.67948087571551 10.9934
46.70373030632484 10.9799
46.72817142736393 10.9377
46.752425308428684 10.9017
46.77668140861147 10.9062
46.80093972960865 10.8442
46.82538981736788 10.8408
46.849652602470904 10.8011
46.87391761349769 10.7555
46.8981848521493 10.7894
46.9226439341274 10.7738
46.946915650573224 10.749
46.97118959976749 10.731
46.99546578341598 10.7109
47.019933887188216 10.7186
47.04421456235744 10.674000000000001
47.06849747711879 10.6811
47.09278263318286 10.6467
47.11725978640143 10.6203
47.14154944775105 10.5879
47.165841355555656 10.5607
47.1901355115306 10.5425
47.214621741924994 10.5597
47.23892041698887 10.5181
47.26322134538975 10.4687
47.28771440635075 10.4706
47.31201986422527 10.4637
47.33632758061436 10.436
47.360637557241866 10.4279
47.38513974410611 10.4297
47.40945426407847 10.3747
47.43377104948137 10.3522
47.45809010204344 10.3733
47.48260144275502 10.3449
47.506925052572285 10.3018
47.53125093475548 10.2765
47.55557909103813 10.2255
47.58009961361992 10.2285
47.60443234110732 10.2424
47.62876734791564 10.2177
47.65310463578333 10.2189
47.6776343683373 10.1536
47.7019762413987 10.1514
47.72632040075572 10.1129
47.75066684815169 10.0998
47.77520581885936 10.0861
47.799556865477655 10.0708
47.823910205386 10.0747
47.84826584033272 10.0281
47.87281407745551 9.96374
47.89717432569297 9.97531
47.92153687423484 9.98986
47.94609208429692 9.97555
47.97045925671401 9.98059
47.99482873471275 9.92177
48.01920052005013 9.91789
48.04376504619224 9.881039999999999
48.068141469543484 9.90305
48.09252020552573 9.88477
48.11690125590099 9.86276
48.1414751266064 9.811739999999999
48.16586082917454 9.852960000000001
48.19024885144316 9.81983
48.2146391951793 9.7924
48.239222439012764 9.79377
48.26361744916137 9.76239
48.28801478610016 9.760819999999999
48.31241445160131 9.72682
48.337007097209366 9.66417
48.36141144338331 9.65558
48.38581812345755 9.64962
48.41022713920929 9.6442
48.434829215320704 9.61144
48.45924292604658 9.59907
48.48365897780325 9.63215
48.50807737237308 9.56599
48.532688907799276 9.58023
48.55711201168574 9.55452
48.581537463754074 9.48957
48.60615611725119 9.49956
48.63058628942721 9.49785
48.65501881516546 9.48054
48.6794536962573 9.45016
48.70408185970339 9.448369999999999
48.72852147531801 9.421339999999999
48.75296345168211 9.3523
48.77740779059232 9.39232
48.80204549302823 9.349089999999999
48.82649458091802 9.34982
48.85094603676547 9.290939999999999
48.87539986237231 9.28013
48.90004713292306 9.25849
48.92450572200832 9.250919999999999
48.94896668628025 9.240160000000001
48.97343002754588 9.222669999999999
48.99808689542115 9.193060000000001
49.02255501470614 9.19939
49.04702551642794 9.136280000000001
49.0714984023988 9.15095
49.096164896893235 9.138010000000001
49.120642575466796 9.11974
49.145122643748394 9.132660000000001
49.16960510355558 9.10058
49.19428125404938 9.06477
49.2187685210852 9.065539999999999
49.243258185121555 9.06775
49.26794160167084 9.022039999999999
49.2924360839405 9.00131
49.31693296869764 8.95509
49.34143225776915 8.95495
49.36612538195438 8.91955
49.39062950396021 8.943010000000001
49.41513603578346 8.91902
49.4396449792564 8.90958
49.46434784069503 8.88647
49.488861631846454 8.84276
49.513377840166804 8.87759
49.537896467493745 8.83959
49.56260909589029 8.800089999999999
49.587132585683285 8.800989999999999
49.611658500018365 8.75896
49.636186840738596 8.77785
49.66090926588511 8.753630000000001
49.685442483902584 8.73915
49.70997813385706 8.69309
49.734516217597076 8.688880000000001
49.75924846937352 8.69321
49.7837914452858 8.69411
49.80833686055187 8.65195
49.83288471702571 8.607489999999999
49.85762682540054 8.611939999999999
49.882179588965734 8.610489999999999
49.9067347993235 8.56423
49.93129245833333 8.569239999999999
49.95604445336378 8.55225
49.98060703442832 8.51675
50.005172069746266 8.50893
50.02993150438364 8.49221
50.05450147301533 8.47137
50.07907390151433 8.45828
50.10364879174981 8.456719999999999
50.12841816587289 8.39783
50.1529980044635 8.40815
50.17758031042124 8.38926
50.20216508562089 8.365639999999999
50.22694442953363 8.33709
50.25153416817468 8.37395
50.27612638170508 8.357439999999999
50.300721072005196 8.32878
50.325510416102105 8.301910000000001
50.350110084975064 8.264380000000001
50.37471223628208 8.29326
50.39931687190919 8.263910000000001
50.424116246675766 8.23589
50.44872587605249 8.25537
50.47333799543065 8.226980000000001
50.49795260670191 8.17442
50.52276204271512 8.172789999999999
50.54738166295838 8.180710000000001
50.57200378079314 8.1208
50.596628398116835 8.0943
50.62144792604559 8.11115
50.646077567609396 8.11464
50.670709714377715 8.09805
50.69553683636198 8.05563
50.72017401885922 8.07012
50.7448137122895 8.034939999999999
50.76945591856022 8.0425
50.79429318636823 8.02026
50.818940443716784 7.99712
50.84359021965163 7.9766
50.868242516085964 7.93038
50.893089960641895 7.90175
50.917747323549435 7.92753
50.94240721271973 7.91823
50.96706963007175 7.88097
50.99192728239342 7.905289999999999
51.01659478166073 7.87122
51.04126481489051 7.8475399999999995
51.06593738400761 7.78689
51.090805275207074 7.802630000000001
51.11548294172845 7.79634
51.14016314993547 7.77137
51.164845901758845 7.768619999999999
51.18972406304274 7.76308
51.21441192780656 7.75922
51.23910234200271 7.7328399999999995
51.2637953075678 7.6826
51.288683770237945 7.66485
51.31338186432707 7.6460300000000005
51.33808251561888 7.642710000000001
51.362978729967345 7.65735
51.387684521509755 7.6435699999999995
51.41239287610203 7.61189
51.437103795691165 7.58188
51.46201036644977 7.57666
51.486726441956634 7.540430000000001
51.51144508832545 7.57303
51.536166307509156 7.53299
51.56108326624387 7.54263
51.58580965706056 7.509189999999999
51.61053862657523 7.50414
51.635270176746864 7.47377
51.66019755512065 7.47598
51.68493429268881 7.431369999999999
51.70967361681515 7.45056
51.73441552946465 7.40265
51.759353359237934 7.39421
51.7841004750961 7.38408
51.80885018539685 7.3727
51.833602492111254 7.39314
51.8585508051424 7.367380000000001
51.883308330926425 7.37472
51.90806845906181 7.31415
51.932831191525715 7.2740800000000005
51.95779001977161 7.25655
51.98255798721516 7.283289999999999
52.00732856494335 7.25368
52.03229530577543 7.2241800000000005
52.057071130455945 7.192889999999999
52.081849571391054 7.23187
52.106630630568695 7.2103600000000005
52.13160794279417 7.14152
52.15639426492067 7.13615
52.18118321127822 7.15142
52.205974783860896 7.13466
52.23096269971011 7.139410000000001
52.255759551287994 7.100410000000001
52.280559035098186 7.093139999999999
52.30536115314103 7.09698
52.33035970494467 7.09198
52.35516711807904 7.0525199999999995
52.37997717147198 7.02615
52.40478986713005 7.03852
52.42979908731974 6.9833300000000005
52.454617094216 6.973910000000001
52.47943774942214 6.97197
52.50426105495102 6.92625
52.529280976059844 6.91743
52.554109609024096 6.935989999999999
52.57894089837482 6.95091
52.60377484613117 6.900510000000001
52.62880550079408 6.870139999999999
52.65364479223379 6.8422
52.67848674816189 6.812939999999999
52.70352547971946 6.81457
52.72837279155837 6.83657
52.753222773982785 6.79432
52.778075429022984 6.84818
52.80312495150885 6.80766
52.827982978797436 6.796289999999999
52.85284368481815 6.75347
52.87770707160767 6.7297899999999995
52.90276741793998 6.667160000000001
52.92763619336701 6.66144
52.952507655698504 6.69084
52.977381806977576 6.67374
53.00245301017842 6.6889899999999995
53.02733256653592 6.63593
53.052214817996074 6.62487
53.077099766608484 6.592280000000001
53.102181859804446 6.636760000000001
53.127072229988265 6.6067100000000005
53.15196530349892 6.58755
53.17686108239249 6.576969999999999
53.20195409881522 6.54366
53.22685531582556 6.5419
53.25175924441303 6.51922
53.27666588664027 6.48268
53.30176985962693 6.46675
53.3266819565689 6.4945
53.35159677336455 6.479480000000001
53.376514312083096 6.48337
53.40162927507703 6.46129
53.42655228516116 6.416519999999999
53.45147802340193 6.419919999999999
53.47660125628886 6.410069999999999
53.50153247842639 6.38448
53.52646643496923 6.3791400000000005
53.55140312799818 6.3821699999999995
53.576537409691696 6.361219999999999
53.60147960336152 6.34635
53.626424539786164 6.3168
53.65137222105307 6.31754
53.67651758529126 6.3122300000000005
53.70147078399681 6.26811
53.72642673383343 6.27966
53.75138543689533 6.24712
53.776541917524526 6.2926400000000005
53.801506154876755 6.23206
53.826473151763246 6.19035
53.851442910284916 6.18008
53.87661054126026 6.224469999999999
53.9015858509782 6.1708300000000005
53.92656392866066 6.17684
53.95154477641532 6.16761
53.976723591801296 6.14286
54.00171000771266 6.10378
54.02669920004598 6.10696
54.051691170915745 6.07824
54.076881204886796 6.06335
54.101878760928514 6.03826
54.12687910187696 6.0743
54.152077577768296 6.07667
54.1770835166946 6.0445400000000005
54.20209224691339 6.0723199999999995
54.22710377055121 5.9516599999999995
54.25231352511594 5.93944
54.27733066384342 5.9214199999999995
54.30235060239643 5.9360800000000005
54.32737334290836 5.92888
54.35259441062629 5.89533
54.377622783395324 5.94187
54.40265396455061 5.89375
54.42768795623251 5.86148
54.45292037169559 5.82479
54.477960012857906 5.85585
54.50300247099511 5.79475
54.52804774825457 5.756419999999999
54.55329154616743 5.72724
54.57834249018678 5.76687
54.6033962597977 5.73307
54.6284528571545 5.712999999999999
54.653708072335164 5.6917
54.67877035378786 5.69116
54.70383546947698 5.61037
54.72890342156389 5.59012
54.7541700889442 5.61562
54.77924374251975 5.604419999999999
54.8043202390049 5.557519999999999
54.82959552413022 5.50033
54.8546777351945 5.5179800000000006
54.87976279569621 5.4756
54.90485070780914 5.52077
54.930137506558005 5.45575
54.95523115074295 5.46554
54.98032765308844 5.44345
55.005427015775496 5.45361
55.03072536339621 5.440930000000001
55.05583047570572 5.35085
55.080938454927676 5.31634
55.10604930325027 5.37186
55.131359235107396 5.32952
55.15647585066083 5.27951
55.181595341907496 5.27085
55.20671771104285 5.24405
55.232039262617704 5.28011
55.25716741665048 5.23835
55.28229845518636 5.15583
55.30743238042802 5.15079
55.33276558731939 5.14814
55.357905315183636 5.15445
55.383047936390035 5.1294900000000005
55.40819345314859 5.0648
55.433538351073295 5.0859
55.458689688238415 5.03238
55.483843927614096 4.976
55.509197623043605 5.01644
55.53435769621134 4.94025
55.55952067826466 4.93064
55.5846865714265 4.8817900000000005
55.61005202069737 4.87487
55.63522376553902 4.8958
55.66039842818645 4.8593
55.68557601087004 4.83341
55.7109532500271 4.76091
55.73613670233794 4.81544
