TT I
1.2716486653135266 7.355980000000001
1.2939594142134223 7.351210000000001
1.3162702121660406 6.849889999999999
1.3385810600174564 6.951739999999999
1.3608919586137629 6.89973
1.383202908801069 6.48608
1.405513911425503 5.62533
1.4278249673332093 6.188680000000001
1.4501343378461518 6.30513
1.4724455028545926 6.58955
1.4947567236847858 5.86105
1.517068001182951 6.335369999999999
1.5393793361953272 6.27795
1.5616907295681737 5.99112
1.5840021821477681 5.5900300000000005
1.60631369478041 5.45395
1.6286252683124185 5.49481
1.6509369035901333 4.78063
1.6732468618895553 5.1807
1.695558623192809 4.9239
1.7178704487808514 5.20003
1.7401823395001077 5.53684
1.7625012545597203 5.4009
1.7848028405262486 5.0582400000000005
1.8071218901122095 4.73453
1.8294236121921872 4.78978
1.8517427996910911 4.640630000000001
1.8740620574440425 4.92239
1.8963639900671978 4.9507
1.9186833908139995 5.2922199999999995
1.9409854680117449 4.92504
1.9633050151394713 5.04129
1.9856246367570705 4.217980000000001
2.0079269371922672 4.94497
2.03024671027244 4.8653900000000005
2.0525491637446027 4.93998
2.074869091674931 4.82967
2.097171701569106 3.8244599999999997
2.1194917877373847 4.8040199999999995
2.141811954326636 4.55235
2.164114805233074 5.16374
2.186435135143035 5.7636400000000005
2.208738150935709 13.2643
2.231058647554722 26.7646
2.2533792288321184 21.0186
2.275682498336085 10.0628
2.298003251406138 5.94453
2.3203066942619714 4.94995
2.3426276225136022 5.33705
2.3649486396617507 5.39751
2.387252348930071 5.72496
2.4095735463442893 5.19298
2.4318774374315884 5.41081
2.4541988185014043 5.40113
2.476502894794693 6.26739
2.498824462909887 5.903519999999999
2.521146125856138 5.85206
2.5434504863470337 6.4159
2.5657723414244717 6.930739999999999
2.588076895590662 7.0392
2.610398946189713 7.3935699999999995
2.6327210958598384 7.03839
2.6550259469304716 6.7115800000000005
2.6773482972090137 7.028560000000001
2.6996533504259 7.190339999999999
2.7219759047039602 7.527589999999999
2.744298562293959 7.14235
2.7666039251246595 8.47281
2.7889267918020164 7.53897
2.8112323652516555 8.14402
2.833555444408179 8.17642
2.8558786311183852 7.78683
2.8781845268938557 8.577060000000001
2.9005079311721484 8.9393
2.9228140460410397 9.01993
2.9451376712799635 9.56972
2.967444008632326 9.097489999999999
2.9897678582247247 9.4912
3.0120918213106695 10.3564
3.0343984987899373 10.8843
3.0567226913198637 11.1137
3.079029599759726 11.3886
3.101354025127254 12.2318
3.123678568232338 12.8865
3.145985829517914 12.7004
3.16831061055229 13.7822
3.1906181112775593 13.7789
3.212943133635653 14.7527
3.2352682779763207 14.9637
3.2575761442691227 15.1006
3.2799015350264273 15.7529
3.302209649240067 16.1961
3.3245352898092655 17.0909
3.3468436553365257 18.0323
3.369169549113219 18.2369
3.3914955708171384 18.723
3.413804319727358 18.7298
3.4361305997334863 19.1419
3.4584396084414553 20.0331
3.4807661501462652 20.6608
3.503092824025881 21.0408
3.5254022288463154 21.5484
3.5477291695206588 22.0723
3.5700388426251948 22.691
3.5923660534916446 24.344
3.6146934007816114 37.9818
3.637003482731501 85.3729
3.6593311053109985 94.2908
3.681641464033634 54.946000000000005
3.7039693653009733 30.9419
3.726297407241705 26.6364
3.7486081875460804 26.1793
3.7709365132734978 26.643
3.793247578841633 27.0741
3.8155761917550093 27.3057
3.8378875459837216 27.6491
3.8602164494827234 27.891
3.882545499606844 28.9422
3.9048572932539183 29.2534
3.9271866390645718 29.5994
3.9494987298666713 30.2231
3.971828374764527 30.9639
3.9941581705403255 31.3169
4.016470713506008 32.1582
4.038800813471445 32.7277
4.061113662089144 33.3098
4.0834440696459176 33.6723
4.105774632334751 34.6706
4.128087945865126 35.508
4.150418821249301 36.1244
4.172732448931298 37.8128
4.195063640413578 39.647
4.2173775856475215 44.1835
4.239709096631102 74.0712
4.262040768704612 226.63099999999997
4.284355196706267 301.272
4.306687193387355 197.672
4.329001947444346 79.817
4.35133427213731 48.6286
4.373666762177566 45.3215
4.395982011761091 45.5651
4.418314834921175 46.5671
4.44063041906622 53.5036
4.4629635787515625 64.2239
4.4852969080429785 64.1035
4.5076130004776225 55.3343
4.529946671403969 52.4135
4.552263106909177 52.6192
4.574597122877047 52.9539
4.596931312711224 53.5348
4.619248269273446 54.4346
4.6415828092605835 55.5626
4.663900117405352 57.0989
4.686235010953232 58.2365
4.708552674085913 59.5077
4.730887924602802 61.0215
4.753223354952695 62.3818
4.775541557023902 63.6981
4.797877349456786 65.5587
4.820195915032126 67.6151
4.842532072957498 69.0708
4.864868414979744 71.5571
4.88718753227192 73.9275
4.909524244902505 75.6472
4.931843734218147 77.214
4.954180820867835 80.2023
4.976518095879839 83.6289
4.998838149695359 86.4006
5.021175803844231 90.1059
5.043496238205739 94.2047
5.065834274903528 98.9854
5.088172504230693 104.613
5.1104935158799565 112.116
5.132832132875765 137.213
5.155153533596801 182.78400000000002
5.1774925416746225 231.463
5.199814334878411 470.605
5.2221537374521505 1327.29
5.244493338631803 3275.4
5.266815727034316 7172.33
5.289155727832427 11287.6
5.311478517248165 8754.74
5.333818921080011 3543.35
5.356159527788849 782.566
5.3784829252032536 226.55
5.400823940070432 161.72299999999998
5.423147747031976 139.22799999999998
5.445489173474152 127.243
5.467830807066149 120.28399999999999
5.490155234831516 116.331
5.512497285125229 111.141
5.534822130975162 108.68700000000001
5.557164601388673 106.01
5.579489868738879 103.19200000000001
5.601832762690846 102.07600000000001
5.6241758697774475 100.727
5.646501775867269 99.8978
5.668845311622074 98.8844
5.691171647754637 97.5635
5.713515615597765 96.6834
5.735859800852677 95.3462
5.758186788542988 95.3636
5.780531411018185 95.8309
5.802858837297399 95.0592
5.825203900414495 95.5971
5.8475491852224 96.3697
5.869877275883075 96.2074
5.892223006467101 97.1112
5.914551544266608 99.164
5.936897724049891 102.676
5.959244129804903 110.01799999999999
5.981573344815301 136.32299999999998
6.0039202049061 257.171
6.026249875609095 568.566
6.04859719346037 1143.47
6.070927323278297 2237.18
6.093275102315365 3984.55
6.115623113320588 5058.84
6.137953938319995 3533.75
6.160302415650845 1241.66
6.182633708324452 308.461
6.2049826554078376 131.84799999999998
6.227331838745022 101.056
6.249663839443684 90.5003
6.27201349767565 86.7321
6.294345974611799 91.6911
6.316696111167083 101.73299999999999
6.339046488263839 96.1689
6.361379686074702 82.1567
6.383730546639482 74.4269
6.406064229255215 71.2675
6.428415576718203 70.1211
6.450749747566656 69.1063
6.47310158535871 68.0651
6.495453669698332 66.9458
6.517788579421056 66.4042
6.540141159237969 65.5518
6.562476565766648 64.914
6.5848296444934045 63.9802
6.607182974060425 63.9965
6.6295191323281015 64.3404
6.651872965955752 67.4263
6.6742096296068985 91.4045
6.6965639707294615 134.247
6.71891856698715 135.121
6.741255995248479 93.4769
6.763611104154477 69.0872
6.785949046381137 61.8264
6.808304671371482 60.2547
6.8306605557940046 60.0846
6.852999275508618 58.6283
6.875355681171544 58.2367
6.897694923437771 58.3459
6.92005185377892 57.8651
6.9423916220322655 57.7387
6.964749080490181 57.21
6.987106804399774 57.163000000000004
7.009447368180821 57.1792
7.031805625367033 57.0139
7.054146723727803 56.9875
7.076505517631004 56.7036
7.098864581288365 56.5263
7.121206488070854 56.5713
7.143566093607822 56.5605
7.165908543567245 56.8732
7.188268694426048 56.9493
7.2106291193438095 56.7847
7.232972390625943 58.0516
7.255333366030969 69.9777
7.277677189091925 120.04700000000001
7.300038718428332 165.47
7.322400526130865 139.929
7.344745183422596 88.9005
7.367107550224791 63.4438
7.389452767901992 57.9432
7.411815697249891 56.7427
7.434161478756298 55.7853
7.456524974096713 55.4633
7.478888753837185 55.3747
7.501235387657368 56.0312
7.523599738562711 56.1823
7.545946944825532 56.078
7.568311870344528 56.7815
7.5906770845765665 57.0138
7.613025156078678 57.8468
7.635390950099687 59.4141
7.657739602662809 58.3889
7.680105979923558 57.185
7.702472650212829 57.6815
7.724822180948224 57.5097
7.747189439655568 57.4004
7.769539560075357 57.3898
7.791907410653562 57.906000000000006
7.81425812420825 57.8945
7.836626570110925 58.2042
7.858995315087906 58.8686
7.881346924933401 59.0798
7.903716270417482 59.7216
7.926068482028405 60.2094
7.948438431475253 60.575
7.9708086843180235 61.2522
7.993161805171116 61.7545
8.015532667162402 62.5244
8.037886398416653 63.2469
8.060257873014221 63.7562
8.082629655331942 64.4514
8.104984308787587 65.6023
8.127356708900503 68.8659
8.149711981398308 74.7447
8.172085002766314 76.9103
8.194458336181368 73.4938
8.216814543847752 71.1272
8.23918850371002 71.5733
8.26154533906492 71.9426
8.283919928836452 73.8581
8.306277395339652 74.915
8.328652618483376 75.9871
8.351028159736202 78.267
8.373386579575245 80.6844
8.395762759396959 82.54700000000001
8.418121819038275 88.0032
8.440498640894003 101.18700000000001
8.462875785192262 116.366
8.485235811156207 133.475
8.507613602688501 187.237
8.529974277114228 296.415
8.552352719347912 448.968
8.574731488360351 704.961
8.59709314210385 1167.34
8.619472567021075 1682.32
8.64183487789147 2065.37
8.664214962183097 1839.77
8.686577933647762 1169.86
8.708958680784317 473.07199999999995
8.731339760774953 197.08599999999998
8.753703729764451 122.445
8.77608547780821 104.85
8.798450116065078 99.9493
8.820832535634787 96.5919
8.843215292401656 94.2899
8.865580941199045 93.045
8.887964374703538 91.5612
8.910330701447199 92.5417
8.932714815164482 93.8983
8.955099270424924 93.5753
8.977466620733543 90.0764
8.999851761421976 87.5596
9.022219798361645 86.3052
9.04460562795561 85.7857
9.066991803441677 85.3317
9.089360876979615 85.3356
9.111747746589993 85.1025
9.13411751544971 84.4086
9.156505082664324 83.9875
9.178875550323522 84.2048
9.20126381862328 84.5855
9.223652438908596 84.5904
9.246023961427412 84.6331
9.26841328802173 84.0247
9.290785518039224 84.542
9.313175554425882 85.3353
9.335565947154315 85.2917
9.357939245086508 85.2199
9.380330352834827 85.1404
9.40270436697103 85.8459
9.425096193225055 85.4601
9.447488380180165 86.2771
9.469863475295412 86.331
9.492256385987508 86.6838
9.514632206018318 87.4615
9.537025843935714 87.8953
9.559402392368193 88.6987
9.581796761000229 90.0564
9.604191496441521 91.24
9.626569144158516 94.4359
9.648964615551032 98.4622
9.671343000390081 100.473
9.693739211225699 98.3331
9.716135793237463 95.7176
9.738515290448102 95.7013
9.760912617143402 96.977
9.783292860202891 97.7214
9.805690935076182 99.609
9.828089385495742 100.552
9.850470754023561 102.679
9.872869957865444 110.564
9.89525208097539 125.15
9.917652041736662 137.803
9.940052382417589 139.113
9.962435644102392 152.503
9.984836746950979 198.764
10.007220771957746 279.578
10.029622640473708 396.478
10.052007432299963 573.82
10.074410069984072 827.836
10.096813093716005 1207.79
10.119199042482517 1609.96
10.141602840636468 1849.62
10.163989564971628 1717.16
10.186394141051062 1098.72
10.208799107559706 511.486
10.231187001965623 239.071
10.253592751657669 142.54
10.275981430388155 119.875
10.298387966769793 116.94200000000001
10.320794897965431 118.976
10.343184759907361 116.99
10.36559248305461 111.90100000000001
10.387983138083852 108.479
10.410391656691655 112.845
10.432800574501677 126.728
10.455192425893369 146.412
10.47760214443012 175.638
10.499994797678786 217.19099999999997
10.522405320453982 288.745
10.54479877906917 381.959
10.567210109595656 479.851
10.5896218454736 540.39
10.612016518879773 518.5980000000001
10.634429067781074 388.215
10.656824555333241 231.745
10.679237920773568 139.18200000000002
10.701651695961992 102.175
10.724048411481384 93.0194
10.746463008485165 89.2285
10.768860546937125 87.61200000000001
10.791275969274796 85.7764
10.81369180576079 84.5824
10.836090585366925 83.4411
10.858507252467449 82.0478
10.88090686379991 81.1569
10.903324365036394 80.5185
10.925724811614439 80.47399999999999
10.948143150509463 81.762
10.970561909719066 80.9994
10.992963615930844 78.8638
11.015383218085756 77.0779
11.037785768347074 75.4374
11.06020621697282 74.7831
11.082627090322113 74.2782
11.105030913430326 73.7972
11.12745263854165 74.0417
11.149857314510728 77.1671
11.172279894912576 82.8826
11.194702904450653 83.7289
11.217108866490921 79.8716
11.239532736615194 75.7527
11.26193956033512 73.5285
11.284364294577085 71.8205
11.306789462371718 69.9966
11.329197585398376 68.7857
11.351623622610898 68.5418
11.37403261614354 67.6426
11.396459526308487 67.51
11.418869393879497 67.3498
11.441297180532617 67.194
11.463725406927658 66.7378
11.486136592353875 66.4691
11.508565700543707 67.0032
11.530977768845315 68.9624
11.553407762368774 69.5472
11.575838200059769 68.7272
11.598251599479612 66.9033
11.620682927815501 65.743
11.64309721895548 65.0046
11.665529441478206 64.8225
11.687962112597958 64.5681
11.710377748130886 64.6319
11.732811318753434 64.6788
11.755227854859067 64.6957
11.777662328529495 64.4535
11.800079768750786 64.3976
11.822515149015453 64.19
11.844950984084935 64.3309
11.867369787303163 63.9056
11.889806534289491 63.9291
11.912226250487029 64.6241
11.934663912939751 64.5757
11.9571020346363 64.9719
11.979523127133968 64.8448
12.001962169624331 65.3672
12.024384183972964 66.6335
12.046824150809913 70.6074
12.069264581333726 76.8802
12.091687985297767 83.6947
12.11412934550045 92.79
12.136553680195208 106.43700000000001
12.158995973632788 125.43700000000001
12.181438735204349 149.877
12.20386447284199 174.21400000000003
12.226308172985636 197.885
12.24873485024193 201.764
12.271179492516982 178.233
12.293607112949127 143.351
12.316052700916226 106.426
12.338498763250042 83.1199
12.360927805303868 72.8233
12.383374818673879 68.4559
12.405804812803074 66.4161
12.428252780773262 66.1555
12.45070122756722 66.1008
12.473132656675375 65.9233
12.49558206341869 65.9521
12.518014453510101 66.0586
12.540464823770117 66.3625
12.562915677315177 66.5118
12.58534951575545 67.5294
12.607801338171472 69.3979
12.630236146511358 74.0218
12.652688941369085 78.8647
12.675124723177234 79.2308
12.697578494048786 75.5659
12.720032754458185 71.3711
12.742470003354093 69.7622
12.764925245138771 69.51
12.787363476431278 70.0268
12.809819703166806 70.244
12.83227642391173 70.94800000000001
12.854716135692716 71.4895
12.877173846755147 72.7588
12.899614549869717 73.1575
12.9220732548287 73.6948
12.94453245827299 74.2192
12.966974655289818 75.2906
12.989434858002571 75.9579
13.011878055298721 76.7907
13.034339260862497 77.9671
13.056800969391883 79.1496
13.079245674017244 81.6523
13.101708390774869 84.1768
13.12415410463411 92.6025
13.146617833206086 106.324
13.169064559883248 120.449
13.191529303857127 137.085
13.213994557076367 159.632
13.236442809902437 192.88299999999998
13.258909083908291 240.05900000000003
13.28135835851934 293.778
13.30382565690295 350.724
13.326293469022952 399.733
13.348744283242008 421.73800000000006
13.371213125129904 381.689
13.39366497011003 296.48400000000004
13.416134845360597 204.032
13.438605238843131 141.737
13.46105863690397 115.169
13.483530069144786 112.68299999999999
13.505984506951902 119.125
13.528456981549432 129.961
13.550929978879088 144.089
13.573385983253365 165.683
13.595860028340867 198.17700000000002
13.618317081455832 241.30599999999998
13.64079217790333 286.074
13.663250283359057 327.749
13.685726434770173 355.282
13.708203115221277 346.77099999999996
13.730662806148091 286.931
13.75314054697177 212.37900000000002
13.775601299246777 146.412
13.798080104050406 107.195
13.820559442405358 90.2251
13.843021793671388 84.8314
13.865502201420897 82.7861
13.887965623051947 81.778
13.910447103807167 80.8071
13.932929122629764 79.4377
13.955394156785959 79.092
13.977877254034569 77.97
14.000343367582113 76.809
14.022827546871707 76.2358
14.045294743423524 75.4659
14.06778000837062 75.0696
14.090265817715476 74.7676
14.112734645763819 74.4995
14.13522154619454 74.3533
14.157691466286913 74.2108
14.180179461423874 73.8565
14.202668005486178 73.4678
14.22513957064374 72.922
14.247629214846473 72.4197
14.270101881097517 72.0285
14.29259262906496 72.4783
14.315083930490205 73.1327
14.337558255389705 73.2166
14.360050666019726 72.9749
14.382526101071944 72.1925
14.405019624534942 71.3518
14.427513705993134 70.6706
14.449990813291825 70.5072
14.47248601302899 70.3284
14.49496423954951 70.5717
14.517460561197822 70.5207
14.539939910570322 70.4889
14.562437357763558 70.8892
14.58493536931253 72.2172
14.607416409993311 73.1016
14.62991555254159 73.6163
14.652397725157423 73.2654
14.674898002342799 72.9396
14.697398848433282 72.5334
14.719882725991326 72.9338
14.74238471217934 74.3794
14.764869730765593 78.3639
14.787372860692983 82.5938
14.809876564079925 88.1181
14.83236330125751 94.6222
14.854868153850365 103.33
14.877356041159485 115.4
14.899862046604186 131.5
14.922351087688757 152.35399999999998
14.944858249632887 176.05599999999998
14.967365991421232 197.324
14.989856770231246 214.38
15.012365673994204 216.97400000000002
15.03485761569738 198.463
15.05736768508665 163.634
15.07987833888692 128.661
15.102372032001655 99.1455
15.124883856909658 82.2649
15.14737872204565 75.5659
15.169891721717274 73.0823
15.192405310371893 72.5026
15.214901940621196 72.8372
15.237416709527137 72.6892
15.259914520936249 72.9606
15.282430473753607 71.8091
15.304947020131227 70.6288
15.327446610371178 69.8941
15.349964346154254 69.0364
15.372465126703139 68.6217
15.394984055556009 68.5206
15.417486030076159 68.0354
15.44000615566487 67.5932
15.462526881230803 67.594
15.485030653812652 68.187
15.507552581617434 67.9616
15.530057557334603 67.8806
15.55258069104857 67.917
15.575104429329837 68.0782
15.597611216864632 67.67399999999999
15.620136166564563 67.9675
15.6426441664095 69.0631
15.665170331202765 71.7468
15.687697105158826 75.7271
15.710206930593545 79.9282
15.732734925158933 84.7106
15.755245972089478 90.7734
15.77777519094324 99.1389
15.800287463046663 110.78299999999999
15.822817909869592 126.305
15.84534897229804 143.762
15.867863089299354 163.90400000000002
15.890395385222186 177.5
15.912910736597423 188.877
15.935444269699861 185.95
15.957978423016485 167.021
15.980495633101265 136.379
16.003031029129367 106.95100000000001
16.02554948280019 84.2503
16.048086125229432 72.1362
16.070623392487107 67.8635
16.09314371869582 66.5386
16.11568223789321 65.5087
16.13820381691126 64.4911
16.160743591742527 63.2026
16.183283996022084 62.2268
16.205807461423195 61.1932
16.228349126881973 60.5578
16.25087385432698 60.6014
16.27341678466365 60.012
16.29594277784926 59.9089
16.31848697676433 60.1499
16.341031811604868 60.3547
16.36355971058487 60.5346
16.3861058195587 60.3148
16.40863499352978 59.1839
16.431182380342005 58.3579
16.453730407713202 57.7439
16.476261501364792 57.391999999999996
16.498810812136167 56.9966
16.52134319004079 57.2325
16.54389378792203 56.9636
16.566445031001553 56.7286
16.588979342490088 56.5043
16.61153187824822 56.5347
16.634067483263312 56.2241
16.656621315414416 56.4084
16.679175797408888 55.9353
16.701713349928728 56.107
16.72426913389191 56.3606
16.74680798922351 56.2587
16.76936507887444 56.4798
16.791905240734874 56.7449
16.814463639794468 56.2469
16.837022695210294 56.1193
16.859564824093756 56.6429
16.882125194503903 57.4181
16.904668639217885 58.0178
16.927230328348003 58.1211
16.949792678493612 58.4581
16.972338104193863 57.6974
16.994901778652235 57.3753
17.017448529496576 56.9567
17.040013531998152 57.4203
17.06257920018044 58.1272
17.0851279459922 58.7879
17.107694947817667 59.8534
17.130245028099072 60.693999999999996
17.15281336730298 62.068999999999996
17.17536478578733 63.6005
17.19793446610687 65.6699
17.220504818648422 68.2837
17.243058251703697 71.2075
17.265629950971032 74.5713
17.288184731571736 78.1742
17.310757781306908 81.744
17.33333150794385 83.3733
17.355888317140174 83.5351
17.37846339986244 79.9919
17.401021565958885 74.334
17.42359800851343 68.9421
17.44617513265564 64.8191
17.468735341390783 62.0501
17.491261035594565 61.0483
17.51396340099364 60.5572
17.536490463869136 60.9111
17.559018209820174 60.70399999999999
17.58154663977963 60.7359
17.604251766089718 60.833
17.626781572227713 61.178000000000004
17.64931206518155 61.547
17.671843245885103 61.9723
17.69455114821572 62.09
17.717083712612634 62.3745
17.739616967569667 62.6127
17.762150914021706 62.92100000000001
17.78486160749854 63.0996
17.807396945166804 63.8331
17.829932977143503 64.732
17.85246970436452 66.4206
17.875183204129467 68.7728
17.897721330097664 71.1731
17.920260154126645 73.9945
17.942799677153296 77.1457
17.9655159983646 80.7842
17.988056927677544 85.5278
18.010598558807683 92.4876
18.033140892692916 100.882
18.05586005052525 109.539
18.07840379824407 118.819
18.10094825154059 128.055
18.12366954819864 136.159
18.146215420998306 139.954
18.16876200220057 136.109
18.191309292745153 125.464
18.214033452627167 112.427
18.236582170236648 99.5345
18.259131600016456 91.2181
18.281681742907335 89.6259
18.304408781233683 91.7275
18.32696035875955 95.0189
18.349512652227624 99.0572
18.372065662579683 103.03
18.394795594587553 105.478
18.41735004715306 104.573
18.43990521943684 99.6418
18.46246111238171 92.0596
18.485193953325208 82.5729
18.507751296070428 73.8873
18.530309362314178 69.0466
18.552868153000343 65.8735
18.57560391815056 64.2493
18.59816416623245 63.5413
18.620725141597372 63.0168
18.643286845190268 62.543
18.666025549835414 62.1829
18.688588718427933 61.431999999999995
18.711152618092243 61.3125
18.73389353884365 60.9595
18.75645890921984 60.7171
18.77902501351406 60.2986
18.801591852673102 60.4232
18.824335739722738 59.7209
18.846904057212626 59.6619
18.8694731124168 59.4296
18.89204290628315 59.3888
18.914789774966803 59.115
18.937361054791623 58.8563
18.959933076131318 58.6596
18.982505839934877 58.5691
19.00525570560582 58.7532
19.027829963004184 58.5319
19.05040496572238 58.4794
19.072980714710468 58.6452
19.095733592739563 58.8309
19.11831084296757 59.3723
19.140888842324735 59.8891
19.16346759176222 60.1362
19.18622349753803 60.6202
19.208803755869358 61.4434
19.231384767143577 62.4774
19.253966532312948 63.6607
19.276725481241822 65.5101
19.29930876296784 67.5509
19.3218928014549 69.7031
19.34465404436217 72.5214
19.36723960516257 75.0907
19.389825925592426 76.5802
19.412413006605938 76.8957
19.43517731967805 74.8628
19.457765930683355 71.1513
19.48035530514408 66.5489
19.50294544401556 62.4515
19.525712842708348 59.2776
19.54830451925909 57.2423
19.570896963095727 55.7897
19.593490175174704 55.4505
19.616260674962184 55.457
19.638855432416964 55.0717
19.661450960992624 55.1082
19.68404726164677 54.9034
19.706820878021247 54.7048
19.729418731756834 54.9897
19.752017360452857 54.7652
19.77461676506804 55.0737
19.797393513540218 55.0276
19.819994478951667 55.3572
19.84259622316767 55.883
19.8651987471481 56.6239
19.887978643247177 56.972
19.91058273574792 57.3295
19.933187610901943 57.9361
19.955969879466828 59.0111
19.97857632894404 60.467
20.00118356396599 61.7657
20.023791585494575 63.5977
20.046577028914875 65.7258
20.069186632506966 67.5968
20.091797025500632 69.5469
20.114408208858933 70.4762
20.137196842715273 71.2501
20.159809615886765 70.7177
20.18242318232135 68.6966
20.20503754298326 66.5395
20.227829382875154 64.858
20.250445341109344 64.0355
20.27306209647285 63.9789
20.29567964993108 64.464
20.31847471147704 65.307
20.34109387027612 66.2289
20.363713830075454 66.5883
20.386334591841646 65.8692
20.409132890679302 63.8165
20.431755265564437 60.937
20.454378445325528 58.0959
20.477002430930366 55.8056
20.499803982716553 54.2452
20.522429589228004 53.077
20.54505600449589 52.5747
20.567683229489194 52.5227
20.590488049900088 52.0645
20.61311690359731 51.6264
20.63574656993626 51.3792
20.658553853717297 51.0515
20.681185154618298 51.0729
20.703817271080066 50.9095
20.72645020407368 50.6226
20.749260783967177 50.4372
20.771895359337133 50.6148
20.794530754161617 50.5026
20.817166969412938 50.1971
20.83998086114876 50.1884
20.86261872660049 50.0587
20.885257415405402 49.9709
20.90789692853701 50.0983
20.930714147864748 50.0054
20.953355319030678 50.0308
20.97599731745334 50.155
20.99864014410749 50.1099
21.021460706796564 50.0218
21.044105199328826 50.3088
21.06675052302631 50.4156
21.089396678865015 50.5666
21.112220600704806 50.9802
21.134868430275347 51.1579
21.15751709492456 51.4659
21.180166595629693 51.5079
21.202993892429635 51.8667
21.22564507473034 52.3186
21.24829709602816 52.3439
21.27112693608965 52.6063
21.293780644891275 52.8513
21.316435195634053 52.2412
21.339090589297417 51.6052
21.361923832041875 51.2295
21.384580921090404 50.4782
21.407238856007325 50.0078
21.429897637773326 50.0304
21.45273429906592 49.9257
21.475394784108598 49.6467
21.498056118951983 49.7122
21.520718304578022 49.8604
21.543558400304388 50.0478
21.566222297108816 50.215
21.58888704765135 50.3393
21.61155265291521 50.6398
21.63439619898156 51.2213
21.657063523335786 51.6281
21.67973170537063 51.9085
21.7024007460706 52.5262
21.72524775840385 53.2536
21.747918526116475 54.1975
21.770590155457388 55.4009
21.79326264741238 56.7384
21.816113141960237 58.0597
21.838787368860547 59.8385
21.861462461341976 61.4654
21.884315579735777 63.266999999999996
21.90699241312273 64.2863
21.92967011506078 65.2615
21.95234868653799 66.1657
21.9752053151131 65.4154
21.997885635446785 63.813
22.020566828293532 62.1324
22.04324889464272 60.1505
22.066109049404666 58.4939
22.088792872571794 57.4082
22.111477572219204 57.1956
22.1341631493376 57.2807
22.157026846313123 57.3107
22.179714188221507 56.9293
22.202402410582668 56.3369
22.22509151438863 55.0253
22.24795876962584 53.4056
22.270649646204486 52.62
22.293341407213727 51.6047
22.316034053646906 50.9361
22.338904883215342 50.5203
22.36159931041458 50.3645
22.38429462602756 50.4439
22.40699083104897 50.2166
22.429865251039757 50.3743
22.452563244831367 50.3139
22.47526213102522 50.1416
22.49813925616515 50.1994
22.520839937143307 50.0953
22.543541513520587 49.942
22.56624398629403 49.8007
22.589124730075895 49.7937
22.611829005656723 50.0979
22.63453418063466 50.0285
22.657240256008077 50.2905
22.680124634582935 50.5323
22.70283252079775 50.8554
22.725541310413075 51.1592
22.74825100442868 51.2915
22.771139033969575 51.7357
22.79385054687155 51.9975
22.81656296718292 52.6116
22.83927629590484 53.3142
22.862167992606945 54.3626
22.88488314827121 55.2933
22.907599215359284 55.8665
22.93031619487366 56.8895
22.953211574954405 57.533
22.975930389478226 58.501000000000005
22.998650119445763 59.1638
23.02137076586092 58.6597
23.044269845560063 57.9481
23.06699233506288 56.4651
23.089715744034912 54.8299
23.112617610931565 53.1033
23.135342869061212 51.8274
23.158069049684816 50.9906
23.1807961538087 50.3047
23.20370174880544 50.1859
23.226430710184808 50.2428
23.249160598093425 50.2999
23.271891413539002 50.2968
23.294800752937697 50.3504
23.31753343374794 50.6454
23.340267045128353 50.6288
23.36300158808808 51.0008
23.38591468821339 51.3669
23.408651104658304 51.6046
23.431388455719986 52.1492
23.454126742409 52.9163
23.4770436196085 53.7883
23.499783787914662 54.9646
23.522524894889884 55.7201
23.54526694154616 56.2867
23.56818761219047 57.5294
23.59093154860734 58.0351
23.613676427751283 58.718999999999994
23.636422250635754 58.358000000000004
23.659346731118656 57.2612
23.68209445191868 55.8125
23.704843119509587 53.7741
23.72759273490623 51.8625
23.750521041644767 50.1987
23.77327256312355 48.9451
23.796025035462787 48.2166
23.818956224555475 47.5202
23.841710609113413 47.3783
23.86446594758979 47.0832
23.887222241002014 46.7877
23.910157285144578 46.495
23.932915498962537 46.4254
23.955674670778713 46.3062
23.978434801611975 46.1799
24.001373717286125 45.9978
24.024135776723917 45.9841
24.046898798245582 45.6932
24.06966278287146 45.7834
24.092605586582614 45.5311
24.115371508023642 45.3234
24.1381383956401 45.1118
24.16090625045381 45.1412
24.183852958731244 45.1363
24.206622758582608 44.9596
24.229393528706886 44.8385
24.252165270127392 44.9909
24.27511589952438 44.8721
24.297889594216997 44.7645
24.32066426328598 44.6537
24.34343990775613 44.6198
24.36639447485003 44.4121
24.38917208083877 44.3971
24.41195066531332 44.2391
24.43490819850244 44.1808
24.457688750692377 44.1192
24.48047028445616 44.0876
24.503252800821233 44.1687
24.526214300784112 44.338
24.548998793132213 44.2845
24.57178427117417 44.0654
24.59457073593893 44.0596
24.617536219319863 44.1
24.64032466834748 44.1138
24.663114107195035 44.0033
24.685904536893013 43.7307
24.708874020360852 43.8954
24.731666442613744 43.6047
24.754459858818787 43.6821
24.777254270007962 43.65
24.80022777025625 43.3191
24.82302418230472 43.3784
24.845821592443674 43.464
24.86862000170663 43.4405
24.891597535453727 43.2663
24.914397953892728 43.5239
24.93719937456671 43.378
24.96000179851076 43.4373
24.98298338249997 43.8107
25.00578782394922 43.9964
25.028593271784167 44.0432
25.05157790644186 44.3521
25.07438537804115 44.4527
25.097193859145293 44.603
25.120003350792075 44.8987
25.142992065061257 45.1731
25.165803588823465 45.316
25.18861612625217 45.6747
25.211429678386736 45.9349
25.234422489079968 45.9953
25.257238081693636 46.0541
25.280054692141732 46.0089
25.3028723214652 45.7914
25.325869245420463 45.7895
25.348688923599397 45.8317
25.371509623787006 45.9994
25.394331347025812 45.7064
25.41733240110666 45.5122
25.440156181590016 44.9119
25.46298098826268 44.3669
25.48580682216873 43.9618
25.50881202326435 43.3194
25.53163992281684 42.7323
25.55446885274561 42.4547
25.577298814096377 42.0391
25.600308179121807 41.872
25.623140214533745 42.0157
25.64597328451537 41.8665
25.66898578564376 41.5372
25.691820936010206 41.7559
25.714657124097695 41.7093
25.737494350954734 41.5752
25.760511045684957 41.5776
25.783350361364224 41.5473
25.806190718969255 41.562
25.82903211955018 41.7401
25.852053024868923 41.7364
25.874896522722523 41.9171
25.897741066713106 41.7186
25.920586657892454 41.9934
25.943611790812668 41.993
25.966459487728237 41.8986
25.989308234998564 41.9634
26.01215803367705 42.3712
26.03518741123814 42.534
26.05803932412957 42.5357
26.080892291600094 42.5688
26.10374631470478 42.6498
26.12677995397268 42.7647
26.14963609978026 42.8899
26.172493304397875 42.701
26.19535156888223 42.5412
26.218389486949604 42.0162
26.241249882640123 41.8399
26.26411134137826 41.6648
26.28715248187403 41.6279
26.31001607820869 41.4179
26.3328807407756 41.1557
26.35574647063438 41.3286
26.37879191991473 41.32
26.401659795896734 41.2419
26.424528742360263 41.3072
26.447398760366614 41.5756
26.470448535598294 41.6589
26.49332070826805 41.7178
26.516193955675355 42.0743
26.53906827888316 42.1367
26.562122397260108 42.3158
26.584998883685063 42.6483
26.607876449110325 42.9292
26.63075509460056 43.0393
26.65381357334404 43.1588
26.67669439061878 43.1895
26.699576291163382 43.0837
26.722459276044212 43.2293
26.745522132402975 42.8775
26.768407297649354 42.6515
26.791293550442003 42.2613
26.814180891848974 41.9439
26.837248143099337 41.6432
26.860137673466657 41.5815
26.88302829566349 41.1891
26.90592001075963 41.2275
26.92899167420566 40.9478
26.951885586870763 40.6028
26.974780595655517 40.5301
26.99785558178161 40.413000000000004
27.020752794605112 40.0809
27.043651106772522 39.8706
27.06655051935668 39.8269
27.089629948036183 39.8333
27.112531573292053 39.7717
27.135434302194138 39.8113
27.158338135817015 39.6066
27.181422024430987 39.6241
27.204328079372566 39.5436
27.22723524226965 39.6098
27.250143514198573 39.5813
27.273231880156334 39.5907
27.296142382065014 39.4954
27.319053996245536 39.4693
27.341966723775965 39.5754
27.365059584515222 39.5236
27.38797455070062 39.5253
27.410890633481237 39.4857
27.433807833936918 39.3449
27.456905206923906 39.5388
27.47982465472398 39.4631
27.502745223449743 39.5104
27.525666914182825 39.5355
27.548768816912457 39.6501
27.571692763693633 39.5587
27.59461783573812 39.4432
27.617723149491244 39.3814
27.640650484125285 39.3206
27.66357894728264 39.2928
27.686508540048052 39.1906
27.709618414237887 39.2136
27.732550278321757 38.9391
27.755483275279115 39.0174
27.778417406196485 39.0471
27.801531858397514 38.9898
27.824468269376716 38.9277
27.847405817586786 38.9153
27.870344504116094 39.0346
27.893463551932008 39.1266
27.916404527281053 39.2186
27.93934664422563 39.2475
27.962289903855886 39.5379
27.98541356491974 39.5615
28.00835912214229 39.6599
28.03130582533231 39.796
28.054253675581805 39.9662
28.077381967556104 40.0252
28.100332124185126 40.0283
28.123283431160893 40.0593
28.146235889577238 39.9074
28.169368830154156 39.7612
28.192323603752033 39.4467
28.215279532083304 39.2784
28.238415973016764 38.9442
28.261374223145094 38.9049
28.284333631303806 38.6361
28.307294198589954 38.6132
28.330435319167677 38.3184
28.353398217078915 38.0892
28.376362277420153 37.8461
28.39932750129032 37.7548
28.422473319286713 37.5048
28.44544088262495 37.4251
28.468409612800283 37.3257
28.491379510913497 37.0907
28.51453004413313 37.0519
28.53750229057244 36.915
28.56047570826344 36.9006
28.583450298308804 36.895
28.606605564586562 36.6941
28.629582511831156 36.7856
28.65256063474956 36.6057
28.675539934446338 36.5922
28.698699951647605 36.6294
28.72168161743193 36.5015
28.74466446331978 36.3464
28.767648490417624 36.4143
28.790813276438353 36.492
28.813799678527303 36.5554
28.836787265157085 36.4218
28.859955641890075 36.3633
28.882945610203045 36.3198
28.905936766392035 36.2868
28.928929111566863 36.3035
28.952102288520145 36.2604
28.975097024308607 36.2501
28.998092952423807 35.9663
29.021090073977508 35.9391
29.04426806913204 35.9418
29.067267590245258 35.7681
29.090268308143695 35.6013
29.11327022394099 35.615
29.13645305530891 35.4064
29.159457379627167 35.3644
29.18246290519685 35.3281
29.20546963313352 35.3336
29.22865731875826 35.3909
29.25166646419296 35.3488
29.27467681535305 35.1762
29.29768837335608 35.2025
29.320880931312562 35.2186
29.34389491580634 35.0886
29.366910110507334 35.0555
29.38992651653503 35.1551
29.41312396492981 35.1539
29.436142806456754 35.2088
29.45916286268059 34.9954
29.48236399319994 34.8363
29.50538649169417 34.6707
29.528410208259935 34.742
29.55143514402014 34.58
29.574641196749695 34.4765
29.597668583816574 34.3087
29.6206971934585 34.0513
29.64372702680042 34.1259
29.666938019934474 33.926
29.689970313635285 33.9239
29.713003834422636 33.9279
29.73603858342347 33.8206
29.759254535188578 33.7419
29.78229175361658 33.672
29.80533020365064 33.7818
29.82836988641968 33.8442
29.85159081507472 33.7351
29.874632976355343 33.6748
29.89767637376955 33.7811
29.920721008448314 33.5694
29.9439469322847 33.5301
29.96699405457564 33.3826
29.9900424175358 33.5316
30.013092022298157 33.4713
30.03632295963995 33.2813
30.059375061131373 33.3643
30.08242840783577 33.4771
30.105483000888153 33.4697
30.128718970092244 33.363
30.151776069006917 33.285
30.17483441768648 33.3675
30.198074175317235 33.3473
30.221135036724256 33.268
30.24419715131772 33.1911
30.267260520236203 33.1133
30.290505341942243 33.2964
30.313571232750228 33.4104
30.336638381310948 33.1907
30.35970678876503 33.1577
30.38295669299435 33.1035
30.40602763151657 33.0716
30.429099832366074 33.0791
30.452173296685572 33.0145
30.47542830191959 32.9683
30.498504306502497 32.9585
30.521581577995562 33.0138
30.544660117543582 33.0716
30.56792024229725 33.0485
30.59100133132069 33.0873
30.614083691845494 33.0647
30.637167325018545 33.0231
30.660432587840603 33.144
30.683518779717886 33.0393
30.70660624769615 33.0525
30.729694992924372 33.1314
30.75296541239743 33.0822
30.77605672557558 33.0174
30.799149319462742 33.0039
30.8224236211637 32.9025
30.845518789950724 32.8656
30.868615242910597 32.7621
30.891712981195973 32.5632
30.91499247215866 32.4513
30.938092794619365 32.4765
30.96119440587579 32.3481
30.984297307082752 32.3061
31.00758200598383 32.1862
31.030687500658694 32.1269
31.053794288760695 32.0327
31.076902371446767 31.9484
31.100192296997445 31.9938
31.12330298246119 31.9339
31.14641496599209 31.7439
31.169528248749216 31.8047
31.19282341969534 31.7787
31.215939314557186 31.7219
31.239056512134788 31.7841
31.262175013589378 31.7642
31.28547544871168 31.7537
31.30859657161541 31.5889
31.331719001892175 31.7605
31.35484274070538 31.788
31.378148458819545 31.686
31.401274828443725 31.6386
31.424402510106933 31.7746
31.447712205419993 31.7521
31.470842524931633 31.7213
31.493974159989783 31.6818
31.51710711176168 31.7218
31.54042212308802 31.6996
31.563557722100917 31.6482
31.586694641341655 31.5202
31.609832881979628 31.3763
31.63315322823208 31.2618
31.656294125521327 31.1599
31.679436347728515 31.1946
31.70257989602529 31.0702
31.725905596152327 30.9438
31.74905181052835 30.967
31.772199354521323 31.0332
31.79534822930507 31.0016
31.818679302290967 31.0115
31.84183085259981 30.9319
31.864983737233473 30.9109
31.88813795736804 30.8905
31.911474422233013 30.7112
31.934631327356435 30.9435
31.9577895715215 31.017
31.980949155906522 30.8949
32.004291031706956 30.9101
32.027453310562606 30.7826
32.05061693318573 30.6273
32.07396288236386 30.7191
32.09712920658542 30.5988
32.12029687812702 30.4569
32.14346589817093 30.4028
32.166817291729984 30.4571
32.18998902288583 30.3071
32.21316210610336 30.2447
32.23633654256711 30.1304
32.259693399663725 30.1425
32.282870556771144 30.1709
32.30604907069099 30.1031
32.329228942610065 29.859
32.35259128243769 29.7616
32.375773884550505 29.8068
32.398957848235646 29.8016
32.422143174682176 29.6455
32.445511016471215 29.5696
32.468699082679954 29.5082
32.49188851523011 29.5129
32.51507931531304 29.3884
32.538452678331 29.4344
32.56164622776311 29.3041
32.58484114831493 29.2605
32.60803744118015 29.3177
32.631416344731896 29.3529
32.654615396551876 29.2995
32.67781582427913 29.2003
32.701198898634416 29.0604
32.72440209253756 29.0625
32.747606665947124 29.0663
32.77081262006088 28.9295
32.79420126883317 29.0524
32.81740999876112 28.964000000000002
32.840620112999424 28.735
32.86383161274818 28.7328
32.88722585534586 28.6973
32.91044014056596 28.8053
32.933655814909734 28.7566
32.95687287957963 28.95
32.98027273544904 28.7598
33.00349259526636 28.6113
33.026713849030116 28.7005
33.04993649794511 28.6744
33.073341986570746 28.5332
33.09656744032826 28.5962
33.11979429286444 28.4926
33.14302254538647 28.5841
33.166433686291185 28.5257
33.18966475336992 28.451999999999998
33.212897224069096 28.301
33.23613109959831 28.3281
33.259547912343415 28.3183
33.2827846121627 28.4398
33.306022720453775 28.3128
33.32926223842861 28.1637
33.352684742614166 28.1624
33.37592709463173 28.1131
33.399170859982064 28.061
33.422597648419426 27.9639
33.44584425514446 27.8488
33.46909227885668 27.8052
33.4923417207723 27.6914
33.51577423505344 27.8042
33.539026528130385 27.7111
33.56228024307245 27.6465
33.585535381098246 27.5494
33.60897364093058 27.4776
33.63223163992385 27.4962
33.6554910656699 27.5067
33.678751919389796 27.4129
33.702195944520106 27.3401
33.72545966903325 27.2732
33.74872482519663 27.2185
33.771991414233746 27.2053
33.79544122444841 27.2786
33.81871069412428 27.1298
33.84198160035767 27.1192
33.86525394437455 27.075
33.88870955949969 26.9423
33.911984794020626 27.0105
33.93526147001624 27.0326
33.958539588715006 26.9221
33.98200102861669 26.8613
34.0052820477047 26.7998
34.02856451319451 26.7165
34.05203033759056 26.7024
34.07531571090147 26.7805
34.09860253431845 26.6604
34.121890809074316 26.5243
34.145362493118924 26.5821
34.16865368561615 26.5446
34.191946333164054 26.4663
34.21524043699793 26.5419
34.23871800066799 26.4763
34.26201503218366 26.2864
34.28531352370466 26.3532
34.30861347646881 26.271
34.33209693978188 26.1917
34.3553998301885 26.168000000000003
34.378704185565205 26.156999999999996
34.402010007152356 26.1216
34.42549939016683 26.1234
34.44880815937748 25.9977
34.472118398533134 25.9229
34.49543010887669 25.8887
34.51892543169198 25.7937
34.54224009966052 25.8564
34.56555624255917 25.8859
34.58887386163339 25.7787
34.61237514439016 25.6476
34.6356957311114 25.6781
34.65901779775809 25.6412
34.68252356662995 25.5719
34.705848608458616 25.5891
34.72917513396849 25.5178
34.75250314440949 25.4244
34.77601490857862 25.4284
34.799345904259795 25.346999999999998
34.82267838863559 25.3757
34.846012362958525 25.3713
34.869530142679984 25.2865
34.89286711232212 25.3097
34.91620557568269 25.2162
34.93954553401677 25.1331
34.9630693495876 25.1516
34.986412313340814 25.1394
35.00975677584668 25.1204
35.033102738362956 25.0819
35.05663261012228 24.9819
35.0799815881786 25.0597
35.10333207003229 24.9672
35.12668405694369 24.967
35.150220005273056 25.0064
35.17357501786656 24.8567
35.19693153931268 24.8178
35.220289570874385 24.801
35.24383161619786 24.7643
35.267192683604904 24.7874
35.290555264930376 24.7649
35.314101899412165 24.7616
35.33746752422433 24.7441
35.36083466676374 24.711
35.38420332829803 24.623
35.407756095629054 24.6614
35.43112781085063 24.6048
35.45450104888391 24.5224
35.477875810999194 24.4965
35.50143473172161 24.4411
35.52481255774625 24.5686
35.54819191167777 24.3669
35.57157279478914 24.3974
35.595137889488406 24.408
35.61852184675279 24.3058
35.641907337029984 24.2723
35.665294361595684 24.3093
35.68886565090076 24.2376
35.7122557598848 24.2032
35.73564740699838 24.198
35.759040593519934 24.1623
35.78261809810353 24.0536
35.80601437933051 24.0768
35.829412203814705 23.9067
35.85281157283719 23.885
35.876395313415884 23.9743
35.8997977874528 23.8494
35.92320180988546 23.7861
35.946790244133936 23.7119
35.97019737933222 23.8013
35.993606066789866 23.7546
36.01701630779276 23.7191
36.04061101440684 23.6813
36.06402437852291 23.6392
36.08743930005611 23.616
36.1108557802951 23.5195
36.13445678011326 23.516
36.15787639383515 23.4867
36.18129757014299 23.4603
36.20472031032821 23.3633
36.22832762423364 23.3313
36.25175350829375 23.3024
36.275180960119776 23.2425
36.298609981005924 23.2851
36.32222362992669 23.2609
36.34565580510207 23.2964
36.36908955323448 23.1899
36.39252487562093 23.0275
36.416144880530226 23.0219
36.43958336764275 23.0413
36.463023432914625 23.0567
36.486465077645676 23.0091
36.51009145956204 23.0382
36.53353627947859 22.9738
36.55698268276811 22.9177
36.58043067073321 22.8334
36.60406345072071 22.7246
36.62751462435344 22.7877
36.65096738658405 22.7419
36.67460498210655 22.7118
36.69806093788647 22.6947
36.72151848619297 22.6421
36.744977628333636 22.6981
36.76862165890998 22.6063
36.79208400512205 22.559
36.81554794910557 22.4865
36.83901349217101 22.5306
36.862663978991606 22.3939
36.88613273667352 22.3749
36.90960309738324 22.4053
36.933075062434064 22.3033
36.95673202673572 22.2876
36.98020721697122 22.2274
37.003684015502365 22.2377
37.027162423645365 22.1656
37.050825886711465 22.1836
37.07430753063053 22.0296
37.09779078812467 22.0739
37.121275660513014 22.022
37.144945643673694 22.0151
37.16843376245278 22.0543
37.19192350009803 21.9909
37.215414857931435 21.8103
37.239091382563885 21.8329
37.262585997426164 21.8625
37.28608223645736 21.854
37.309763684451696 21.6908
37.33326318851098 21.7401
37.356764320726555 21.668000000000003
37.380267082425526 21.6905
37.40395510942588 21.7419
37.42746114683234 21.5704
37.45096881771841 21.5107
37.474478123414166 21.5834
37.49817275092816 21.5251
37.52168534303452 21.4506
37.54519957395567 21.364
37.568715445024665 21.3884
37.592416694607714 21.307
37.61593586281424 21.3718
37.63945667518264 21.4145
37.66297913304891 21.2974
37.68668702630454 21.2616
37.710212792059274 21.1721
37.733740207334854 21.1641
37.757269273470364 21.1043
37.780983832050374 21.0434
37.80451621684926 21.0314
37.82805025654007 21.041
37.851585952464795 20.9353
37.8753071980695 20.9672
37.89884622345676 20.9131
37.92238690911902 20.8931
37.94611318753442 20.8346
37.969657210779765 20.8479
37.99320289834801 20.8108
38.016750251586465 20.6956
38.04048325513017 20.7378
38.06403395679343 20.7196
38.087586328183946 20.6266
38.11114037065203 20.6121
38.13488012115898 20.703000000000003
38.1584375229181 20.5567
38.181996599821 20.4868
38.205557353221124 20.5098
38.229303872575656 20.4573
38.2528679961576 20.4279
38.27643380031219 20.3529
38.30000128639589 20.3723
38.32375459653193 20.4293
38.34732546371299 20.4007
38.37089801690786 20.2246
38.39447225747609 20.264
38.418232380377425 20.2318
38.441810012983396 20.1376
38.46538933705673 20.1275
38.488970353960084 20.1246
38.51273731166058 20.0965
38.536321731567014 20.0417
38.55990784840681 20.0636
38.58367995004091 19.9729
38.60726947812959 19.918
38.63086070726198 19.8962
38.654453638806274 19.9187
38.678232613930824 19.8754
38.70182896773327 19.7748
38.72542702806741 19.8067
38.7490267963045 19.7624
38.77281266709232 19.6892
38.79641586862214 19.692
38.8200207821842 19.6351
38.843627409152944 19.5893
38.86742019782782 19.5745
38.891030269149255 19.59
38.914642058016156 19.5753
38.938255565806124 19.5018
38.96205529464307 19.4546
38.98567225787121 19.5104
39.00929094417078 19.5268
39.03291135492255 19.4398
39.05671804624804 19.3796
39.080341923549106 19.3135
39.103967529460334 19.3123
39.127594865365744 19.262
39.15140854155791 19.139
39.17503935514948 19.1546
39.19867190290282 19.176
39.22249083587951 19.1689
39.24612686969409 19.1329
39.269764641845306 19.1882
39.293404153722804 19.0707
39.317230110864074 19.0114
39.34087311998506 18.9944
39.36451787301696 18.9838
39.388164371352595 18.8894
39.41199737518003 18.8385
39.43564738196752 18.8523
39.45929913825317 18.802
39.48295264543308 18.7766
39.506792718520884 18.7557
39.530449745387216 18.7722
39.55410852735203 18.7738
39.57776906581474 18.7279
39.60161623079 18.7118
39.625280300200025 18.6394
39.64894613032202 18.4992
39.67261372255866 18.5763
39.6964680021016 18.5376
39.72013913657293 18.5445
39.74381203738292 18.531
39.76748670593756 18.4583
39.79134812278169 18.44
39.81502634488497 18.4101
39.83870633896685 18.3798
39.862388106436654 18.2584
39.88625668336918 18.2739
39.90994201572829 18.316
39.933629125719285 18.2531
39.957503091207826 18.1784
39.9811937746168 18.272000000000002
40.00488623990914 18.2247
40.02858048850006 18.122
40.05246165409549 18.1505
40.076159487492085 18.0141
40.099859108448875 18.0822
40.123560518384345 18.0318
40.1474489070226 18.0372
40.171153913178564 17.9194
40.194860712584955 17.9043
40.2185693066637 17.9069
40.242464941335314 17.9138
40.26617714307655 17.8442
40.289891143772046 17.7691
40.3136069448471 17.8257
40.33750984859743 17.7698
40.3612292688043 17.7465
40.3849504936829 17.6807
40.40867352466194 17.7155
40.43258372059144 17.6628
40.45631038219906 17.6773
40.48003885420956 17.6069
40.503769138055105 17.5474
40.52768664931955 17.564
40.55142057531802 17.6076
40.57515631746428 17.4854
40.599079334038514 17.4129
40.62281872700477 17.419
40.64655994043941 17.4416
40.67030297578061 17.3472
40.69423334835778 17.3386
40.71798004609188 17.3151
40.74172857006355 17.326
40.76547892171441 17.273
40.7894166736039 17.1778
40.813170699248566 17.1794
40.83692655691388 17.1468
40.86068424804498 17.2192
40.884629402612525 17.1556
40.908390779366385 17.089000000000002
40.932153993938 17.0469
40.95591904777605 17.0372
40.979871628443995 17.0644
41.003640379561936 16.9919
41.02741097430883 16.9627
41.05118341413683 16.9411
41.075143444384416 16.8949
41.098919593177826 16.9016
41.1226975914255 16.8389
41.14647744058318 16.8387
41.170444943946755 16.7488
41.19422851378379 16.7715
41.218013938914645 16.7352
41.24198706625173 16.6939
41.26577622087193 16.6874
41.289567235177785 16.6365
41.31336011063129 16.6262
41.337340752422875 16.5683
41.361137369129835 16.5946
41.38493585138705 16.5389
41.40873620066004 16.5442
41.43272438060107 16.4587
41.45652848292052 16.4085
41.48033445666918 16.427
41.50414230331616 16.4135
41.528138045159764 16.3652
41.551949656675205 16.3511
41.575763145513235 16.32
41.59957851314666 16.2835
41.62358184070442 16.2488
41.64740098505737 16.24
41.6712220126409 16.1927
41.69504492493139 16.1585
41.71905586207357 16.2013
41.74288256296395 16.0897
41.766711153007456 16.0861
41.79054163368412 16.0403
41.814560204340054 16.07
41.838394485526365 16.1081
41.86223066180303 15.9408
41.88625497706819 15.9257
41.910094962812 15.940999999999999
41.93393684811168 15.8978
41.95778063445365 15.8205
41.981812625263366 15.8848
42.00566023303407 15.8573
42.029509746323676 15.8247
42.05336116662236 15.793
42.077400857069705 15.7934
42.10125611078846 15.7254
42.12511327600405 15.7511
42.14897235421036 15.6766
42.173019768448455 15.6745
42.19688269209613 15.6154
42.22074753323349 15.5955
42.24461429335818 15.5766
42.268669455600495 15.5695
42.292540073217886 15.5599
42.31641261433284 15.5131
42.34028708044675 15.460999999999999
42.36435001496739 15.4307
42.38822835065557 15.4392
42.41210861586426 15.3675
42.4359908120986 15.4052
42.46006154323262 15.3369
42.48394762115317 15.2864
42.507835634632315 15.2611
42.531912233047436 15.2533
42.55580413732265 15.2236
42.579697981698 15.2232
42.60359376768525 15.1771
42.62767820545945 15.1564
42.65157789440821 15.1403
42.67547952952185 15.1366
42.699383112316 15.0794
42.72347541395347 15.0257
42.74738291190531 14.9803
42.771292362102166 15.0403
42.795203766063516 14.9468
42.819303956130405 14.915999999999999
42.843219287476536 14.9058
42.86713657716324 14.8692
42.89105582671383 14.8356
42.91516392983864 14.8339
42.939087119032166 14.8286
42.963012272677304 14.8084
42.98693939230129 14.7978
43.01105543317513 14.7406
43.034986504731386 14.7078
43.05891954686589 14.7317
43.08285456110972 14.6801
43.10697856448665 14.6652
43.130917542983475 14.5958
43.15485849820081 14.585999999999999
43.17880143167367 14.5599
43.20293342237094 14.5454
43.226880332449 14.4882
43.25082922540554 14.555
43.27496722682525 14.4563
43.29892010567796 14.4782
43.32287497204102 14.4019
43.34683182745632 14.3791
43.370977859791836 14.3559
43.39493871351105 14.3721
43.41890156092628 14.3377
43.44286640358341 14.3198
43.46702049182749 14.2378
43.49098934522816 14.2721
43.51496019852649 14.2707
43.5389330532723 14.2189
43.56309522248204 14.1739
43.58707210044314 14.189
43.61105098451946 14.1111
43.63503187626491 14.1168
43.659202151562134 14.0766
43.68318707902681 14.1068
43.70717401884041 14.0421
43.731162972560874 14.0211
43.75534137913236 14.0394
43.779334381108384 13.9225
43.803329401683186 13.97
43.82732644241872 13.9476
43.8515130055166 13.8918
43.87551410707659 13.8805
43.89951723350145 13.860999999999999
43.923709934595614 13.8046
43.94771713129917 13.7792
43.97172635758096 13.7812
43.99573761501002 13.7351
44.0199385169922 13.7137
44.04395385732619 13.674000000000001
44.067971233533086 13.6629
44.09199064718605 13.6658
44.11619977548961 13.5965
44.14022328470671 13.5542
44.16424883610785 13.5984
44.18827643127035 13.5696
44.21249381139513 13.5335
44.236525514814076 13.5113
44.26055926674478 13.4995
44.28459506876863 13.4833
44.3088207262813 13.4469
44.33286064928722 13.3855
44.35690262714919 13.3586
44.38094666145278 13.3632
44.4051806219871 13.3605
44.42922879003185 13.2915
44.45327901929361 13.2977
44.477331311362136 13.252
44.501573600619416 13.2201
44.525630039221795 13.1926
44.54968854541895 13.2082
44.573937102200176 13.1775
44.5979997645541 13.1507
44.622064499300315 13.1055
44.64613130803592 13.117
44.67038823869318 13.1155
44.69445921643748 13.0511
44.718532272981385 13.0031
44.742607409926194 13.0022
44.76687274034801 13.0197
44.79095205918753 12.9369
44.81503346325094 12.9186
44.839116954143876 12.9309
44.86339071028742 12.8973
44.88747839599524 12.8437
44.91156817336837 12.8556
44.93566004401666 12.8929
44.959942251908146 12.8494
44.984038330325966 12.7957
45.00813650686762 12.7379
45.03223678314731 12.7266
45.05652746888232 12.720999999999998
45.08063196592069 12.6558
45.104738567558705 12.6599
45.128847275414856 12.6644
45.15314646515866 12.6282
45.17725940679741 12.6103
45.20137445952892 12.5838
45.22568004865265 12.5756
45.24979934496396 12.5919
45.27392075725247 12.5383
45.29804428714431 12.4687
45.322358426247604 12.4625
45.346486212804315 12.4619
45.370616121861914 12.3926
45.39474815505086 12.436
45.41907087049246 12.4136
45.4432071734666 12.3495
45.46734560548283 12.3679
45.49148616817604 12.3209
45.51581748638564 12.3625
45.5399623320197 12.3141
45.56410931325473 12.2644
45.58825843173002 12.2542
45.61259837920865 12.1835
45.636751793816 12.1867
45.66090735060093 12.1743
45.68506505120716 12.1439
45.7094136545275 12.152999999999999
45.73357566449271 12.1194
45.75773982322992 12.1087
45.78190613238733 12.0806
45.806263418194064 12.0115
45.83043404997326 12.037
45.85460683713677 12.0098
45.87897065658495 12.0063
45.90314777634752 11.9501
45.92732705646868 11.9288
45.9515084986045 11.895
45.97588104735473 11.8714
46.00006683541565 11.8741
46.02425479047904 11.8146
46.04844491420549 11.822000000000001
46.0728262191024 11.78
46.09702070211635 11.7942
46.12121735879483 11.7526
46.14541619080294 11.7415
46.169806278764455 11.720999999999998
46.194009483459034 11.6751
46.21821486849841 11.6772
46.24242243555223 11.6408
46.266821333570014 11.619000000000002
46.29103328674601 11.6252
46.31524742696538 11.6048
46.33946375590237 11.5591
46.36387149104216 11.5501
46.38809221957392 11.5195
46.41231514186606 11.5303
46.436540259597464 11.5163
46.460956858999374 11.482999999999999
46.48518638983522 11.5124
46.509418121166966 11.4161
46.533652054678114 11.3941
46.55807754555709 11.3579
46.58231590571962 11.3747
46.60655647313217 11.325
46.630988654873654 11.2721
46.655233659129024 11.2692
46.67948087571551 11.3174
46.70373030632484 11.2426
46.72817142736393 11.2178
46.752425308428684 11.1956
46.77668140861147 11.1723
46.80093972960865 11.14
46.82538981736788 11.140999999999998
46.849652602470904 11.1296
46.87391761349769 11.1266
46.8981848521493 11.0755
46.9226439341274 11.0902
46.946915650573224 11.0228
46.97118959976749 11.0092
46.99546578341598 10.9684
47.019933887188216 11.004000000000001
47.04421456235744 10.9573
47.06849747711879 10.9106
47.09278263318286 10.9317
47.11725978640143 10.9085
47.14154944775105 10.91
47.165841355555656 10.8923
47.1901355115306 10.8211
47.214621741924994 10.8295
47.23892041698887 10.8622
47.26322134538975 10.7847
47.28771440635075 10.7871
47.31201986422527 10.764000000000001
47.33632758061436 10.709000000000001
47.360637557241866 10.6939
47.38513974410611 10.7347
47.40945426407847 10.6729
47.43377104948137 10.6366
47.45809010204344 10.6325
47.48260144275502 10.6031
47.506925052572285 10.6039
47.53125093475548 10.5615
47.55557909103813 10.5284
47.58009961361992 10.4938
47.60443234110732 10.5121
47.62876734791564 10.4752
47.65310463578333 10.4463
47.6776343683373 10.4617
47.7019762413987 10.4268
47.72632040075572 10.4001
47.75066684815169 10.4088
47.77520581885936 10.3789
47.799556865477655 10.3736
47.823910205386 10.3397
47.84826584033272 10.3187
47.87281407745551 10.2858
47.89717432569297 10.2712
47.92153687423484 10.2734
47.94609208429692 10.2257
47.97045925671401 10.2065
47.99482873471275 10.162
48.01920052005013 10.1972
48.04376504619224 10.1627
48.068141469543484 10.1525
48.09252020552573 10.13
48.11690125590099 10.1154
48.1414751266064 10.1184
48.16586082917454 10.1013
48.19024885144316 10.0453
48.2146391951793 10.0592
48.239222439012764 10.0626
48.26361744916137 9.99526
48.28801478610016 10.0049
48.31241445160131 9.9871
48.337007097209366 9.97471
48.36141144338331 9.92005
48.38581812345755 9.91478
48.41022713920929 9.93181
48.434829215320704 9.94201
48.45924292604658 9.88924
48.48365897780325 9.86112
48.50807737237308 9.80388
48.532688907799276 9.80279
48.55711201168574 9.79664
48.581537463754074 9.77985
48.60615611725119 9.78838
48.63058628942721 9.76707
48.65501881516546 9.696819999999999
48.6794536962573 9.678339999999999
48.70408185970339 9.67723
48.72852147531801 9.6651
48.75296345168211 9.621960000000001
48.77740779059232 9.63038
48.80204549302823 9.66082
48.82649458091802 9.63833
48.85094603676547 9.5858
48.87539986237231 9.54946
48.90004713292306 9.51939
48.92450572200832 9.54299
48.94896668628025 9.51896
48.97343002754588 9.464939999999999
48.99808689542115 9.4561
49.02255501470614 9.47753
49.04702551642794 9.46395
49.0714984023988 9.39873
49.096164896893235 9.4019
49.120642575466796 9.392339999999999
49.145122643748394 9.379
49.16960510355558 9.33575
49.19428125404938 9.31564
49.2187685210852 9.33713
49.243258185121555 9.303289999999999
49.26794160167084 9.2354
49.2924360839405 9.24414
49.31693296869764 9.2006
49.34143225776915 9.202869999999999
49.36612538195438 9.171289999999999
49.39062950396021 9.19776
49.41513603578346 9.15447
49.4396449792564 9.131789999999999
49.46434784069503 9.138760000000001
49.488861631846454 9.10554
49.513377840166804 9.09644
49.537896467493745 9.04572
49.56260909589029 9.08798
49.587132585683285 9.007760000000001
49.611658500018365 9.05284
49.636186840738596 9.03882
49.66090926588511 9.01716
49.685442483902584 9.00179
49.70997813385706 8.96616
49.734516217597076 8.957989999999999
49.75924846937352 8.93972
49.7837914452858 8.89976
49.80833686055187 8.896889999999999
49.83288471702571 8.84038
49.85762682540054 8.86562
49.882179588965734 8.84728
49.9067347993235 8.79745
49.93129245833333 8.78382
49.95604445336378 8.81833
49.98060703442832 8.78938
50.005172069746266 8.762780000000001
50.02993150438364 8.782589999999999
50.05450147301533 8.72058
50.07907390151433 8.675
50.10364879174981 8.695960000000001
50.12841816587289 8.66426
50.1529980044635 8.674660000000001
50.17758031042124 8.63466
50.20216508562089 8.64637
50.22694442953363 8.58942
50.25153416817468 8.601560000000001
50.27612638170508 8.59041
50.300721072005196 8.516
50.325510416102105 8.56517
50.350110084975064 8.55644
50.37471223628208 8.5373
50.39931687190919 8.52115
50.424116246675766 8.51705
50.44872587605249 8.454360000000001
50.47333799543065 8.4598
50.49795260670191 8.438410000000001
50.52276204271512 8.39207
50.54738166295838 8.39529
50.57200378079314 8.37077
50.596628398116835 8.35677
50.62144792604559 8.3147
50.646077567609396 8.362210000000001
50.670709714377715 8.333730000000001
50.69553683636198 8.313189999999999
50.72017401885922 8.29475
50.7448137122895 8.28162
50.76945591856022 8.25308
50.79429318636823 8.241589999999999
50.818940443716784 8.2357
50.84359021965163 8.218860000000001
50.868242516085964 8.22834
50.893089960641895 8.21362
50.917747323549435 8.15747
50.94240721271973 8.12791
50.96706963007175 8.125589999999999
50.99192728239342 8.10856
51.01659478166073 8.09404
51.04126481489051 8.08735
51.06593738400761 8.081710000000001
51.090805275207074 8.05182
51.11548294172845 8.02519
51.14016314993547 8.06437
51.164845901758845 8.02501
51.18972406304274 7.96088
51.21441192780656 7.95452
51.23910234200271 7.9283600000000005
51.2637953075678 7.92047
51.288683770237945 7.89629
51.31338186432707 7.891839999999999
51.33808251561888 7.870019999999999
51.362978729967345 7.86407
51.387684521509755 7.84197
51.41239287610203 7.85843
51.437103795691165 7.81349
51.46201036644977 7.81565
51.486726441956634 7.79414
51.51144508832545 7.78113
51.536166307509156 7.7316199999999995
51.56108326624387 7.700660000000001
51.58580965706056 7.7012100000000006
51.61053862657523 7.72014
51.635270176746864 7.6878
51.66019755512065 7.685389999999999
51.68493429268881 7.66065
51.70967361681515 7.6212100000000005
51.73441552946465 7.637010000000001
51.759353359237934 7.605860000000001
51.7841004750961 7.61838
51.80885018539685 7.5751100000000005
51.833602492111254 7.5272
51.8585508051424 7.570869999999999
51.883308330926425 7.52146
51.90806845906181 7.5037199999999995
51.932831191525715 7.50863
51.95779001977161 7.490469999999999
51.98255798721516 7.442139999999999
52.00732856494335 7.427860000000001
52.03229530577543 7.438439999999999
52.057071130455945 7.428730000000001
52.081849571391054 7.41133
52.106630630568695 7.40665
52.13160794279417 7.3587
52.15639426492067 7.340389999999999
52.18118321127822 7.36715
52.205974783860896 7.328539999999999
52.23096269971011 7.31747
52.255759551287994 7.31992
52.280559035098186 7.26858
52.30536115314103 7.25915
52.33035970494467 7.2874300000000005
52.35516711807904 7.254160000000001
52.37997717147198 7.236000000000001
52.40478986713005 7.209110000000001
52.42979908731974 7.1621
52.454617094216 7.16868
52.47943774942214 7.156560000000001
52.50426105495102 7.1132800000000005
52.529280976059844 7.1495
52.554109609024096 7.11791
52.57894089837482 7.083939999999999
52.60377484613117 7.0746
52.62880550079408 7.06929
52.65364479223379 7.024939999999999
52.67848674816189 7.0108
52.70352547971946 7.01238
52.72837279155837 6.98882
52.753222773982785 7.00475
52.778075429022984 7.00033
52.80312495150885 6.97705
52.827982978797436 6.9608300000000005
52.85284368481815 6.91931
52.87770707160767 6.90539
52.90276741793998 6.913410000000001
52.92763619336701 6.89805
52.952507655698504 6.895
52.977381806977576 6.86665
53.00245301017842 6.87502
53.02733256653592 6.81066
53.052214817996074 6.8178399999999995
53.077099766608484 6.79905
53.102181859804446 6.805289999999999
53.127072229988265 6.799360000000001
53.15196530349892 6.77658
53.17686108239249 6.762460000000001
53.20195409881522 6.785010000000001
53.22685531582556 6.748469999999999
53.25175924441303 6.686310000000001
53.27666588664027 6.69712
53.30176985962693 6.651160000000001
53.3266819565689 6.684819999999999
53.35159677336455 6.67667
53.376514312083096 6.6618699999999995
53.40162927507703 6.6712
53.42655228516116 6.6593
53.45147802340193 6.5760000000000005
53.47660125628886 6.57084
53.50153247842639 6.55166
53.52646643496923 6.5302
53.55140312799818 6.5176300000000005
53.576537409691696 6.5171
53.60147960336152 6.5476
53.626424539786164 6.50932
53.65137222105307 6.46849
53.67651758529126 6.47248
53.70147078399681 6.47394
53.72642673383343 6.45011
53.75138543689533 6.44169
53.776541917524526 6.42084
53.801506154876755 6.379580000000001
53.826473151763246 6.346480000000001
53.851442910284916 6.3573900000000005
53.87661054126026 6.38724
53.9015858509782 6.33448
53.92656392866066 6.33146
53.95154477641532 6.330509999999999
53.976723591801296 6.3320300000000005
54.00171000771266 6.28263
54.02669920004598 6.28541
54.051691170915745 6.2805800000000005
54.076881204886796 6.248819999999999
54.101878760928514 6.241140000000001
54.12687910187696 6.24656
54.152077577768296 6.18985
54.1770835166946 6.15259
54.20209224691339 6.18855
54.22710377055121 6.1250599999999995
54.25231352511594 6.1134
54.27733066384342 6.10865
54.30235060239643 6.10882
54.32737334290836 6.05919
54.35259441062629 6.08496
54.377622783395324 6.05417
54.40265396455061 6.031000000000001
54.42768795623251 6.01639
54.45292037169559 5.97596
54.477960012857906 5.98982
54.50300247099511 5.9842
54.52804774825457 5.96214
54.55329154616743 5.92186
54.57834249018678 5.88592
54.6033962597977 5.8672699999999995
54.6284528571545 5.88368
54.653708072335164 5.82138
54.67877035378786 5.78495
54.70383546947698 5.78788
54.72890342156389 5.8006400000000005
54.7541700889442 5.78939
54.77924374251975 5.7392
54.8043202390049 5.67704
54.82959552413022 5.63044
54.8546777351945 5.646319999999999
54.87976279569621 5.65394
54.90485070780914 5.71305
54.930137506558005 5.66369
54.95523115074295 5.65412
54.98032765308844 5.6002
55.005427015775496 5.61271
55.03072536339621 5.58113
55.05583047570572 5.52228
55.080938454927676 5.56583
55.10604930325027 5.49142
55.131359235107396 5.54725
55.15647585066083 5.4869900000000005
55.181595341907496 5.39478
55.20671771104285 5.376519999999999
55.232039262617704 5.3711400000000005
55.25716741665048 5.3358
55.28229845518636 5.3310699999999995
55.30743238042802 5.2792900000000005
55.33276558731939 5.2674900000000004
55.357905315183636 5.28557
55.383047936390035 5.25088
55.40819345314859 5.21895
55.433538351073295 5.1765300000000005
55.458689688238415 5.22583
55.483843927614096 5.1061
55.509197623043605 5.07869
55.53435769621134 5.08901
55.55952067826466 5.07683
55.5846865714265 5.03875
55.61005202069737 5.01192
55.63522376553902 4.98568
55.66039842818645 4.99633
55.68557601087004 4.9713
55.7109532500271 4.87731
55.73613670233794 4.9515199999999995
