TT I
1.2716486653135266 6.98895
1.2939594142134223 7.35071
1.3162702121660406 7.057939999999999
1.3385810600174564 6.63793
1.3608919586137629 6.16673
1.383202908801069 6.007619999999999
1.405513911425503 5.689769999999999
1.4278249673332093 5.68593
1.4501343378461518 6.1005
1.4724455028545926 5.825130000000001
1.4947567236847858 6.1390400000000005
1.517068001182951 6.22892
1.5393793361953272 5.58389
1.5616907295681737 5.17706
1.5840021821477681 5.23003
1.60631369478041 5.34503
1.6286252683124185 5.45296
1.6509369035901333 4.8579300000000005
1.6732468618895553 4.98769
1.695558623192809 5.38689
1.7178704487808514 4.9313400000000005
1.7401823395001077 5.5035300000000005
1.7625012545597203 4.71022
1.7848028405262486 5.1830300000000005
1.8071218901122095 5.0995099999999995
1.8294236121921872 4.439780000000001
1.8517427996910911 4.63026
1.8740620574440425 4.25615
1.8963639900671978 4.47636
1.9186833908139995 4.49621
1.9409854680117449 4.3459699999999994
1.9633050151394713 4.8821900000000005
1.9856246367570705 5.00493
2.0079269371922672 4.70567
2.03024671027244 4.01869
2.0525491637446027 3.9313599999999997
2.074869091674931 4.42547
2.097171701569106 4.70055
2.1194917877373847 4.801740000000001
2.141811954326636 4.81769
2.164114805233074 4.7773699999999995
2.186435135143035 5.38015
2.208738150935709 10.0501
2.231058647554722 16.9782
2.2533792288321184 13.07
2.275682498336085 7.17857
2.298003251406138 5.3791199999999995
2.3203066942619714 5.41432
2.3426276225136022 6.07222
2.3649486396617507 6.062
2.387252348930071 6.26842
2.4095735463442893 6.3429400000000005
2.4318774374315884 6.0841
2.4541988185014043 6.2923800000000005
2.476502894794693 7.13513
2.498824462909887 6.642180000000001
2.521146125856138 6.8472800000000005
2.5434504863470337 7.35734
2.5657723414244717 7.385689999999999
2.588076895590662 7.91712
2.610398946189713 8.35476
2.6327210958598384 7.81257
2.6550259469304716 7.90435
2.6773482972090137 7.92767
2.6996533504259 8.3242
2.7219759047039602 8.24423
2.744298562293959 7.90727
2.7666039251246595 8.29751
2.7889267918020164 8.31707
2.8112323652516555 8.43709
2.833555444408179 8.105089999999999
2.8558786311183852 8.71322
2.8781845268938557 9.15434
2.9005079311721484 8.82065
2.9228140460410397 8.951139999999999
2.9451376712799635 8.88007
2.967444008632326 9.00937
2.9897678582247247 9.492469999999999
3.0120918213106695 10.3292
3.0343984987899373 10.5677
3.0567226913198637 10.7531
3.079029599759726 11.672
3.101354025127254 11.9787
3.123678568232338 12.7362
3.145985829517914 12.7508
3.16831061055229 13.5286
3.1906181112775593 13.8242
3.212943133635653 14.4738
3.2352682779763207 14.9253
3.2575761442691227 15.0829
3.2799015350264273 15.7012
3.302209649240067 16.3607
3.3245352898092655 16.6658
3.3468436553365257 17.273
3.369169549113219 17.3678
3.3914955708171384 18.3877
3.413804319727358 18.8629
3.4361305997334863 18.9444
3.4584396084414553 19.2844
3.4807661501462652 19.8944
3.503092824025881 20.4132
3.5254022288463154 20.8597
3.5477291695206588 21.2257
3.5700388426251948 21.6684
3.5923660534916446 22.9128
3.6146934007816114 31.3093
3.637003482731501 57.0176
3.6593311053109985 63.435
3.681641464033634 41.8485
3.7039693653009733 27.239
3.726297407241705 25.318
3.7486081875460804 25.2153
3.7709365132734978 25.8696
3.793247578841633 26.4413
3.8155761917550093 26.6496
3.8378875459837216 26.5717
3.8602164494827234 26.839000000000002
3.882545499606844 27.8023
3.9048572932539183 28.1828
3.9271866390645718 28.8885
3.9494987298666713 29.1972
3.971828374764527 29.5058
3.9941581705403255 30.0698
4.016470713506008 31.0178
4.038800813471445 31.5846
4.061113662089144 32.1545
4.0834440696459176 33.141999999999996
4.105774632334751 33.4521
4.128087945865126 34.2469
4.150418821249301 34.7685
4.172732448931298 35.6935
4.195063640413578 36.8855
4.2173775856475215 39.6636
4.239709096631102 58.2091
4.262040768704612 146.04
4.284355196706267 188.47400000000002
4.306687193387355 125.869
4.329001947444346 61.3043
4.35133427213731 44.8645
4.373666762177566 43.2443
4.395982011761091 42.9339
4.418314834921175 44.4257
4.44063041906622 49.4013
4.4629635787515625 55.9426
4.4852969080429785 56.3788
4.5076130004776225 52.6027
4.529946671403969 53.6468
4.552263106909177 55.9195
4.574597122877047 54.5567
4.596931312711224 52.8453
4.619248269273446 53.0272
4.6415828092605835 53.935
4.663900117405352 54.9579
4.686235010953232 56.2959
4.708552674085913 57.6791
4.730887924602802 59.1361
4.753223354952695 60.6566
4.775541557023902 63.7651
4.797877349456786 66.2819
4.820195915032126 67.7571
4.842532072957498 67.8841
4.864868414979744 69.876
4.88718753227192 72.686
4.909524244902505 74.6159
4.931843734218147 75.4283
4.954180820867835 77.505
4.976518095879839 80.7669
4.998838149695359 83.3578
5.021175803844231 86.5883
5.043496238205739 89.4442
5.065834274903528 93.8783
5.088172504230693 98.7624
5.1104935158799565 104.86399999999999
5.132832132875765 124.76700000000001
5.155153533596801 157.026
5.1774925416746225 193.952
5.199814334878411 382.265
5.2221537374521505 1012.83
5.244493338631803 2809.34
5.266815727034316 7934.32
5.289155727832427 12334.1
5.311478517248165 8249.76
5.333818921080011 2525.32
5.356159527788849 482.23900000000003
5.3784829252032536 183.604
5.400823940070432 146.041
5.423147747031976 127.0
5.445489173474152 117.51899999999999
5.467830807066149 115.48
5.490155234831516 113.932
5.512497285125229 108.48299999999999
5.534822130975162 103.93700000000001
5.557164601388673 101.277
5.579489868738879 98.3844
5.601832762690846 96.6649
5.6241758697774475 95.6013
5.646501775867269 94.8278
5.668845311622074 93.9619
5.691171647754637 93.5528
5.713515615597765 92.5328
5.735859800852677 91.9459
5.758186788542988 92.3494
5.780531411018185 94.698
5.802858837297399 94.8403
5.825203900414495 94.5791
5.8475491852224 96.5596
5.869877275883075 96.6326
5.892223006467101 95.1559
5.914551544266608 93.9956
5.936897724049891 96.5271
5.959244129804903 103.662
5.981573344815301 128.36
6.0039202049061 232.74099999999999
6.026249875609095 473.46
6.04859719346037 960.2180000000001
6.070927323278297 2238.53
6.093275102315365 4545.75
6.115623113320588 5166.76
6.137953938319995 3042.62
6.160302415650845 865.955
6.182633708324452 204.859
6.2049826554078376 106.72
6.227331838745022 89.3175
6.249663839443684 82.4707
6.27201349767565 79.405
6.294345974611799 82.1915
6.316696111167083 87.5708
6.339046488263839 83.4779
6.361379686074702 74.4269
6.383730546639482 70.0768
6.406064229255215 68.5767
6.428415576718203 69.4937
6.450749747566656 68.0038
6.47310158535871 65.7899
6.495453669698332 64.219
6.517788579421056 63.8623
6.540141159237969 62.825
6.562476565766648 62.3467
6.5848296444934045 61.9277
6.607182974060425 62.3036
6.6295191323281015 61.9051
6.651872965955752 63.6034
6.6742096296068985 76.9175
6.6965639707294615 100.764
6.71891856698715 99.9923
6.741255995248479 77.6896
6.763611104154477 62.9141
6.785949046381137 58.7839
6.808304671371482 58.3964
6.8306605557940046 58.9646
6.852999275508618 58.1753
6.875355681171544 57.1016
6.897694923437771 56.1319
6.92005185377892 55.99100000000001
6.9423916220322655 55.8184
6.964749080490181 54.9803
6.987106804399774 54.863
7.009447368180821 55.1786
7.031805625367033 55.0355
7.054146723727803 54.6985
7.076505517631004 54.3702
7.098864581288365 54.3757
7.121206488070854 54.3865
7.143566093607822 54.6569
7.165908543567245 55.2593
7.188268694426048 55.785
7.2106291193438095 55.0206
7.232972390625943 55.2305
7.255333366030969 62.2107
7.277677189091925 89.2207
7.300038718428332 115.54700000000001
7.322400526130865 102.68
7.344745183422596 72.0259
7.367107550224791 57.3569
7.389452767901992 54.6633
7.411815697249891 54.0708
7.434161478756298 53.1273
7.456524974096713 53.5073
7.478888753837185 53.261
7.501235387657368 53.8647
7.523599738562711 53.8061
7.545946944825532 54.0999
7.568311870344528 54.4283
7.5906770845765665 54.7486
7.613025156078678 54.9753
7.635390950099687 55.9889
7.657739602662809 55.8331
7.680105979923558 55.4962
7.702472650212829 55.7607
7.724822180948224 55.6797
7.747189439655568 55.6354
7.769539560075357 55.3433
7.791907410653562 56.0346
7.81425812420825 55.9186
7.836626570110925 55.9916
7.858995315087906 56.7405
7.881346924933401 57.1965
7.903716270417482 57.3673
7.926068482028405 58.0603
7.948438431475253 58.1637
7.9708086843180235 58.9647
7.993161805171116 59.9095
8.015532667162402 60.1236
8.037886398416653 61.226000000000006
8.060257873014221 61.7241
8.082629655331942 62.4142
8.104984308787587 63.5209
8.127356708900503 65.9258
8.149711981398308 70.2002
8.172085002766314 71.9435
8.194458336181368 70.1769
8.216814543847752 68.3507
8.23918850371002 68.7748
8.26154533906492 69.4023
8.283919928836452 71.1618
8.306277395339652 71.9193
8.328652618483376 73.2947
8.351028159736202 75.5131
8.373386579575245 78.0952
8.395762759396959 79.5521
8.418121819038275 83.8225
8.440498640894003 92.2553
8.462875785192262 104.15899999999999
8.485235811156207 125.663
8.507613602688501 174.89700000000002
8.529974277114228 259.276
8.552352719347912 383.273
8.574731488360351 659.09
8.59709314210385 1215.21
8.619472567021075 1952.41
8.64183487789147 2186.81
8.664214962183097 1729.54
8.686577933647762 844.692
8.708958680784317 313.103
8.731339760774953 146.79
8.753703729764451 106.30799999999999
8.77608547780821 96.5679
8.798450116065078 93.7972
8.820832535634787 91.1709
8.843215292401656 90.789
8.865580941199045 90.6644
8.887964374703538 90.00399999999999
8.910330701447199 89.8862
8.932714815164482 90.1982
8.955099270424924 88.4451
8.977466620733543 86.0742
8.999851761421976 84.3108
9.022219798361645 83.14200000000001
9.04460562795561 83.2046
9.066991803441677 82.2678
9.089360876979615 82.7786
9.111747746589993 82.6306
9.13411751544971 81.4589
9.156505082664324 81.0735
9.178875550323522 81.5607
9.20126381862328 81.2247
9.223652438908596 81.572
9.246023961427412 81.5498
9.26841328802173 81.4338
9.290785518039224 81.6232
9.313175554425882 83.3597
9.335565947154315 84.1175
9.357939245086508 84.1884
9.380330352834827 84.1304
9.40270436697103 84.116
9.425096193225055 83.4951
9.447488380180165 83.9047
9.469863475295412 83.3565
9.492256385987508 83.7829
9.514632206018318 84.3162
9.537025843935714 84.8489
9.559402392368193 85.7904
9.581796761000229 87.6459
9.604191496441521 89.70200000000001
9.626569144158516 92.3913
9.648964615551032 94.4397
9.671343000390081 94.7882
9.693739211225699 93.4756
9.716135793237463 92.2581
9.738515290448102 92.5075
9.760912617143402 93.4768
9.783292860202891 95.3661
9.805690935076182 97.4206
9.828089385495742 98.3049
9.850470754023561 99.8252
9.872869957865444 104.581
9.89525208097539 113.43700000000001
9.917652041736662 121.56200000000001
9.940052382417589 127.25
9.962435644102392 147.531
9.984836746950979 187.382
10.007220771957746 245.683
10.029622640473708 343.785
10.052007432299963 516.882
10.074410069984072 825.563
10.096813093716005 1293.53
10.119199042482517 1788.32
10.141602840636468 1971.69
10.163989564971628 1505.02
10.186394141051062 806.182
10.208799107559706 342.125
10.231187001965623 167.084
10.253592751657669 119.531
10.275981430388155 110.059
10.298387966769793 109.057
10.320794897965431 109.572
10.343184759907361 108.455
10.36559248305461 104.863
10.387983138083852 103.617
10.410391656691655 109.42
10.432800574501677 120.689
10.455192425893369 135.862
10.47760214443012 161.47799999999998
10.499994797678786 206.545
10.522405320453982 290.823
10.54479877906917 421.944
10.567210109595656 535.173
10.5896218454736 581.95
10.612016518879773 485.72
10.634429067781074 323.10200000000003
10.656824555333241 186.03400000000002
10.679237920773568 116.89
10.701651695961992 93.786
10.724048411481384 87.5782
10.746463008485165 85.0881
10.768860546937125 83.4705
10.791275969274796 82.0956
10.81369180576079 81.2186
10.836090585366925 80.0324
10.858507252467449 78.8532
10.88090686379991 77.9318
10.903324365036394 77.5077
10.925724811614439 77.0709
10.948143150509463 77.8352
10.970561909719066 77.256
10.992963615930844 75.8593
11.015383218085756 74.2099
11.037785768347074 72.6541
11.06020621697282 71.9629
11.082627090322113 71.1781
11.105030913430326 70.5637
11.12745263854165 70.9043
11.149857314510728 72.3642
11.172279894912576 75.4694
11.194702904450653 75.2938
11.217108866490921 73.193
11.239532736615194 70.4033
11.26193956033512 69.0236
11.284364294577085 67.9873
11.306789462371718 66.6268
11.329197585398376 66.0556
11.351623622610898 65.9208
11.37403261614354 65.0973
11.396459526308487 65.2927
11.418869393879497 64.6841
11.441297180532617 64.2247
11.463725406927658 64.0262
11.486136592353875 63.8695
11.508565700543707 64.1232
11.530977768845315 65.0236
11.553407762368774 65.2275
11.575838200059769 65.0169
11.598251599479612 63.9665
11.620682927815501 63.2362
11.64309721895548 63.062
11.665529441478206 62.3685
11.687962112597958 62.0836
11.710377748130886 62.4069
11.732811318753434 61.8951
11.755227854859067 61.7979
11.777662328529495 61.9398
11.800079768750786 62.1151
11.822515149015453 61.8785
11.844950984084935 61.9942
11.867369787303163 61.6211
11.889806534289491 61.6028
11.912226250487029 61.8318
11.934663912939751 62.092
11.9571020346363 62.1591
11.979523127133968 62.6315
12.001962169624331 63.5678
12.024384183972964 64.7004
12.046824150809913 67.9474
12.069264581333726 72.3118
12.091687985297767 77.8615
12.11412934550045 86.5502
12.136553680195208 102.07600000000001
12.158995973632788 126.868
12.181438735204349 157.537
12.20386447284199 190.918
12.226308172985636 213.62099999999998
12.24873485024193 201.833
12.271179492516982 166.267
12.293607112949127 117.38
12.316052700916226 88.1871
12.338498763250042 72.8564
12.360927805303868 66.6905
12.383374818673879 64.5796
12.405804812803074 63.4475
12.428252780773262 63.2463
12.45070122756722 63.46
12.473132656675375 63.5322
12.49558206341869 63.7667
12.518014453510101 63.6924
12.540464823770117 63.9158
12.562915677315177 64.0392
12.58534951575545 64.5966
12.607801338171472 65.4312
12.630236146511358 68.39399999999999
12.652688941369085 71.1339
12.675124723177234 71.4557
12.697578494048786 69.8168
12.720032754458185 67.7015
12.742470003354093 66.9287
12.764925245138771 67.0171
12.787363476431278 67.2089
12.809819703166806 67.5743
12.83227642391173 68.3189
12.854716135692716 69.0051
12.877173846755147 70.2151
12.899614549869717 70.6592
12.9220732548287 71.4787
12.94453245827299 72.0473
12.966974655289818 72.9871
12.989434858002571 73.6985
13.011878055298721 74.3481
13.034339260862497 75.0833
13.056800969391883 76.5075
13.079245674017244 79.1031
13.101708390774869 82.7172
13.12415410463411 90.7958
13.146617833206086 101.023
13.169064559883248 111.21
13.191529303857127 125.56700000000001
13.213994557076367 148.141
13.236442809902437 187.71900000000002
13.258909083908291 247.80200000000002
13.28135835851934 315.103
13.30382565690295 388.327
13.326293469022952 433.24699999999996
13.348744283242008 417.19300000000004
13.371213125129904 339.83
13.39366497011003 240.38299999999998
13.416134845360597 157.768
13.438605238843131 117.12799999999999
13.46105863690397 104.429
13.483530069144786 105.40799999999999
13.505984506951902 109.758
13.528456981549432 119.59899999999999
13.550929978879088 134.279
13.573385983253365 159.237
13.595860028340867 199.78900000000002
13.618317081455832 256.598
13.64079217790333 315.478
13.663250283359057 364.219
13.685726434770173 376.63199999999995
13.708203115221277 327.066
13.730662806148091 243.449
13.75314054697177 167.57299999999998
13.775601299246777 117.132
13.798080104050406 92.3414
13.820559442405358 83.3013
13.843021793671388 80.3471
13.865502201420897 79.1529
13.887965623051947 78.3674
13.910447103807167 77.4428
13.932929122629764 76.1056
13.955394156785959 76.1602
13.977877254034569 74.9892
14.000343367582113 74.045
14.022827546871707 73.2099
14.045294743423524 72.8186
14.06778000837062 72.3887
14.090265817715476 72.2565
14.112734645763819 71.7686
14.13522154619454 71.3644
14.157691466286913 71.0933
14.180179461423874 70.9899
14.202668005486178 70.5042
14.22513957064374 69.8957
14.247629214846473 69.6978
14.270101881097517 69.3457
14.29259262906496 69.4727
14.315083930490205 69.7979
14.337558255389705 69.6278
14.360050666019726 69.6292
14.382526101071944 68.9182
14.405019624534942 68.5669
14.427513705993134 68.2155
14.449990813291825 68.0436
14.47248601302899 68.0691
14.49496423954951 68.0899
14.517460561197822 68.0676
14.539939910570322 67.8246
14.562437357763558 68.1925
14.58493536931253 68.9174
14.607416409993311 69.4014
14.62991555254159 69.73100000000001
14.652397725157423 69.7243
14.674898002342799 69.7148
14.697398848433282 69.7837
14.719882725991326 70.7329
14.74238471217934 72.5018
14.764869730765593 75.9911
14.787372860692983 79.0256
14.809876564079925 82.605
14.83236330125751 88.4933
14.854868153850365 97.0906
14.877356041159485 111.383
14.899862046604186 131.06
14.922351087688757 158.578
14.944858249632887 187.862
14.967365991421232 216.604
14.989856770231246 226.613
15.012365673994204 219.30900000000003
15.03485761569738 186.03900000000002
15.05736768508665 141.45600000000002
15.07987833888692 107.251
15.102372032001655 86.3693
15.124883856909658 74.8191
15.14737872204565 71.2803
15.169891721717274 69.6365
15.192405310371893 69.3399
15.214901940621196 69.3309
15.237416709527137 69.1417
15.259914520936249 69.0889
15.282430473753607 68.3859
15.304947020131227 67.4143
15.327446610371178 66.9691
15.349964346154254 66.5093
15.372465126703139 65.9445
15.394984055556009 65.8176
15.417486030076159 65.5088
15.44000615566487 65.2085
15.462526881230803 65.4094
15.485030653812652 65.5106
15.507552581617434 65.3458
15.530057557334603 65.3668
15.55258069104857 65.2649
15.575104429329837 65.3912
15.597611216864632 65.3115
15.620136166564563 65.625
15.6426441664095 67.2013
15.665170331202765 69.6303
15.687697105158826 72.4667
15.710206930593545 75.3226
15.732734925158933 79.02
15.755245972089478 85.4785
15.77777519094324 94.689
15.800287463046663 108.837
15.822817909869592 129.219
15.84534897229804 152.196
15.867863089299354 178.391
15.890395385222186 195.571
15.912910736597423 197.394
15.935444269699861 179.28400000000002
15.957978423016485 145.814
15.980495633101265 113.675
16.003031029129367 88.3852
16.02554948280019 72.3715
16.048086125229432 65.5108
16.070623392487107 63.2937
16.09314371869582 62.4607
16.11568223789321 61.6425
16.13820381691126 60.8587
16.160743591742527 60.3676
16.183283996022084 59.7268
16.205807461423195 58.6564
16.228349126881973 58.2515
16.25087385432698 58.0448
16.27341678466365 57.5004
16.29594277784926 57.3359
16.31848697676433 57.33
16.341031811604868 57.2832
16.36355971058487 57.5129
16.3861058195587 57.2098
16.40863499352978 56.3971
16.431182380342005 55.8867
16.453730407713202 55.2245
16.476261501364792 54.9841
16.498810812136167 54.8244
16.52134319004079 54.901
16.54389378792203 54.6432
16.566445031001553 54.493
16.588979342490088 54.4155
16.61153187824822 54.2202
16.634067483263312 54.076
16.656621315414416 54.1637
16.679175797408888 53.8071
16.701713349928728 53.9213
16.72426913389191 54.0785
16.74680798922351 54.2493
16.76936507887444 54.0095
16.791905240734874 54.102
16.814463639794468 53.9659
16.837022695210294 53.9271
16.859564824093756 54.2135
16.882125194503903 54.7612
16.904668639217885 55.1394
16.927230328348003 55.1396
16.949792678493612 55.3634
16.972338104193863 55.0735
16.994901778652235 54.9763
17.017448529496576 55.1331
17.040013531998152 55.431000000000004
17.06257920018044 55.8347
17.0851279459922 56.4151
17.107694947817667 57.0762
17.130245028099072 58.0085
17.15281336730298 59.4848
17.17536478578733 61.1754
17.19793446610687 63.5693
17.220504818648422 66.8661
17.243058251703697 70.2494
17.265629950971032 75.2184
17.288184731571736 79.7432
17.310757781306908 83.1578
17.33333150794385 83.7313
17.355888317140174 81.0118
17.37846339986244 75.0794
17.401021565958885 68.6527
17.42359800851343 63.6109
17.44617513265564 60.5903
17.468735341390783 59.1974
17.491261035594565 58.5607
17.51396340099364 58.2708
17.536490463869136 58.473
17.559018209820174 58.2864
17.58154663977963 58.5552
17.604251766089718 58.8381
17.626781572227713 58.9961
17.64931206518155 58.978
17.671843245885103 59.5797
17.69455114821572 59.7562
17.717083712612634 60.1938
17.739616967569667 60.435
17.762150914021706 60.6457
17.78486160749854 60.7626
17.807396945166804 61.662
17.829932977143503 62.8461
17.85246970436452 64.4971
17.875183204129467 66.1598
17.897721330097664 67.795
17.920260154126645 70.1177
17.942799677153296 73.1337
17.9655159983646 76.99600000000001
17.988056927677544 82.3561
18.010598558807683 90.7121
18.033140892692916 101.08200000000001
18.05586005052525 113.165
18.07840379824407 125.06
18.10094825154059 135.333
18.12366954819864 141.474
18.146215420998306 137.779
18.16876200220057 126.795
18.191309292745153 112.441
18.214033452627167 98.9502
18.236582170236648 88.5007
18.259131600016456 84.6467
18.281681742907335 85.8332
18.304408781233683 90.9313
18.32696035875955 96.9357
18.349512652227624 101.882
18.372065662579683 105.49700000000001
18.394795594587553 105.29700000000001
18.41735004715306 100.02600000000001
18.43990521943684 92.2647
18.46246111238171 82.4705
18.485193953325208 73.9483
18.507751296070428 67.6805
18.530309362314178 64.4541
18.552868153000343 62.4102
18.57560391815056 61.1534
18.59816416623245 60.832
18.620725141597372 60.3173
18.643286845190268 59.8703
18.666025549835414 59.4715
18.688588718427933 59.0369
18.711152618092243 59.0355
18.73389353884365 58.8422
18.75645890921984 58.3558
18.77902501351406 57.9612
18.801591852673102 57.9477
18.824335739722738 57.3583
18.846904057212626 57.2337
18.8694731124168 56.9663
18.89204290628315 57.0962
18.914789774966803 57.1491
18.937361054791623 56.5779
18.959933076131318 56.3352
18.982505839934877 56.448
19.00525570560582 56.6062
19.027829963004184 56.3666
19.05040496572238 56.2603
19.072980714710468 56.2344
19.095733592739563 56.5762
19.11831084296757 56.7824
19.140888842324735 56.9586
19.16346759176222 57.229
19.18622349753803 57.8767
19.208803755869358 58.7122
19.231384767143577 59.784
19.253966532312948 61.5819
19.276725481241822 63.8448
19.29930876296784 66.5224
19.3218928014549 69.4135
19.34465404436217 72.4851
19.36723960516257 75.035
19.389825925592426 75.829
19.412413006605938 74.1427
19.43517731967805 70.2651
19.457765930683355 65.6459
19.48035530514408 61.1403
19.50294544401556 57.6918
19.525712842708348 55.3293
19.54830451925909 54.2538
19.570896963095727 53.4547
19.593490175174704 53.1585
19.616260674962184 53.0506
19.638855432416964 52.7404
19.661450960992624 52.9558
19.68404726164677 52.997
19.706820878021247 52.6717
19.729418731756834 53.0526
19.752017360452857 52.6417
19.77461676506804 53.027
19.797393513540218 53.0871
19.819994478951667 53.4026
19.84259622316767 53.8488
19.8651987471481 54.0912
19.887978643247177 54.3636
19.91058273574792 54.6602
19.933187610901943 55.4585
19.955969879466828 57.0129
19.97857632894404 58.5646
20.00118356396599 60.3834
20.023791585494575 62.6913
20.046577028914875 65.558
20.069186632506966 67.5976
20.091797025500632 69.3042
20.114408208858933 69.6561
20.137196842715273 68.9824
20.159809615886765 66.8812
20.18242318232135 64.377
20.20503754298326 62.265
20.227829382875154 61.4134
20.250445341109344 61.6352
20.27306209647285 62.5794
20.29567964993108 63.7747
20.31847471147704 65.0222
20.34109387027612 65.3992
20.363713830075454 64.4946
20.386334591841646 62.8639
20.409132890679302 59.9713
20.431755265564437 56.6933
20.454378445325528 54.1972
20.477002430930366 52.5606
20.499803982716553 51.2784
20.522429589228004 50.6256
20.54505600449589 50.3187
20.567683229489194 50.097
20.590488049900088 49.7722
20.61311690359731 49.7004
20.63574656993626 49.3553
20.658553853717297 49.0692
20.681185154618298 49.0521
20.703817271080066 48.9394
20.72645020407368 48.638999999999996
20.749260783967177 48.5102
20.771895359337133 48.3273
20.794530754161617 48.1565
20.817166969412938 48.256
20.83998086114876 48.2829
20.86261872660049 48.2844
20.885257415405402 48.4539
20.90789692853701 47.9891
20.930714147864748 48.0524
20.953355319030678 48.1488
20.97599731745334 48.2189
20.99864014410749 47.88
21.021460706796564 48.0257
21.044105199328826 48.1998
21.06675052302631 48.4446
21.089396678865015 48.5453
21.112220600704806 49.0502
21.134868430275347 49.3258
21.15751709492456 49.8549
21.180166595629693 49.8364
21.202993892429635 50.4473
21.22564507473034 50.7109
21.24829709602816 50.9623
21.27112693608965 50.9299
21.293780644891275 50.7161
21.316435195634053 50.0133
21.339090589297417 49.3032
21.361923832041875 48.8877
21.384580921090404 48.2147
21.407238856007325 47.9127
21.429897637773326 47.72
21.45273429906592 47.9106
21.475394784108598 47.8323
21.498056118951983 47.773999999999994
21.520718304578022 48.1224
21.543558400304388 48.1766
21.566222297108816 48.2559
21.58888704765135 48.5481
21.61155265291521 48.8327
21.63439619898156 49.1485
21.657063523335786 49.3655
21.67973170537063 49.8364
21.7024007460706 50.3151
21.72524775840385 50.9643
21.747918526116475 52.3819
21.770590155457388 53.6013
21.79326264741238 55.2112
21.816113141960237 57.0769
21.838787368860547 59.1912
21.861462461341976 61.0362
21.884315579735777 62.8424
21.90699241312273 63.8232
21.92967011506078 64.2462
21.95234868653799 63.4632
21.9752053151131 61.9815
21.997885635446785 59.6132
22.020566828293532 58.2306
22.04324889464272 56.747
22.066109049404666 55.8487
22.088792872571794 55.5272
22.111477572219204 55.8189
22.1341631493376 55.6917
22.157026846313123 55.6239
22.179714188221507 54.5735
22.202402410582668 53.1784
22.22509151438863 51.7784
22.24795876962584 50.6119
22.270649646204486 49.8794
22.293341407213727 49.2693
22.316034053646906 48.7015
22.338904883215342 48.3926
22.36159931041458 48.3535
22.38429462602756 48.2299
22.40699083104897 48.226000000000006
22.429865251039757 48.1494
22.452563244831367 48.2045
22.47526213102522 48.1488
22.49813925616515 48.0529
22.520839937143307 48.0522
22.543541513520587 48.2152
22.56624398629403 47.9567
22.589124730075895 47.942
22.611829005656723 48.0589
22.63453418063466 48.2174
22.657240256008077 48.4123
22.680124634582935 48.5861
22.70283252079775 48.7112
22.725541310413075 48.9575
22.74825100442868 49.076
22.771139033969575 49.5947
22.79385054687155 49.9442
22.81656296718292 50.7478
22.83927629590484 51.4524
22.862167992606945 52.7653
22.88488314827121 53.7506
22.907599215359284 54.9884
22.93031619487366 56.1001
22.953211574954405 56.8511
22.975930389478226 57.463
22.998650119445763 57.5364
23.02137076586092 56.5485
23.044269845560063 54.8484
23.06699233506288 53.4298
23.089715744034912 51.6752
23.112617610931565 50.2282
23.135342869061212 49.093999999999994
23.158069049684816 48.5205
23.1807961538087 48.1998
23.20370174880544 48.1513
23.226430710184808 48.3834
23.249160598093425 48.4291
23.271891413539002 48.3451
23.294800752937697 48.2783
23.31753343374794 48.6112
23.340267045128353 48.6067
23.36300158808808 48.9793
23.38591468821339 49.3129
23.408651104658304 49.6913
23.431388455719986 50.5074
23.454126742409 51.4504
23.4770436196085 52.5676
23.499783787914662 53.7557
23.522524894889884 54.8489
23.54526694154616 55.9609
23.56818761219047 56.8621
23.59093154860734 57.4908
23.613676427751283 57.32899999999999
23.636422250635754 56.1873
23.659346731118656 54.446999999999996
23.68209445191868 52.4653
23.704843119509587 50.2849
23.72759273490623 48.548
23.750521041644767 47.3791
23.77327256312355 46.4771
23.796025035462787 45.9447
23.818956224555475 45.5832
23.841710609113413 45.5035
23.86446594758979 45.1765
23.887222241002014 44.9773
23.910157285144578 44.8567
23.932915498962537 44.72
23.955674670778713 44.5063
23.978434801611975 44.3728
24.001373717286125 44.178999999999995
24.024135776723917 44.162
24.046898798245582 44.0186
24.06966278287146 43.8861
24.092605586582614 43.7874
24.115371508023642 43.7059
24.1381383956401 43.4176
24.16090625045381 43.438
24.183852958731244 43.4386
24.206622758582608 43.2538
24.229393528706886 43.2255
24.252165270127392 43.3728
24.27511589952438 43.1526
24.297889594216997 42.9048
24.32066426328598 42.8176
24.34343990775613 42.8032
24.36639447485003 42.7021
24.38917208083877 42.6011
24.41195066531332 42.507
24.43490819850244 42.5653
24.457688750692377 42.4192
24.48047028445616 42.4261
24.503252800821233 42.6133
24.526214300784112 42.6289
24.548998793132213 42.5489
24.57178427117417 42.4317
24.59457073593893 42.4492
24.617536219319863 42.5049
24.64032466834748 42.3289
24.663114107195035 42.2195
24.685904536893013 42.0388
24.708874020360852 42.0425
24.731666442613744 41.8731
24.754459858818787 41.8247
24.777254270007962 41.84
24.80022777025625 41.8098
24.82302418230472 41.7626
24.845821592443674 41.826
24.86862000170663 41.8281
24.891597535453727 41.4892
24.914397953892728 41.818999999999996
24.93719937456671 41.718
24.96000179851076 41.7968
24.98298338249997 42.0478
25.00578782394922 42.3234
25.028593271784167 42.5163
25.05157790644186 42.8114
25.07438537804115 42.9307
25.097193859145293 43.1938
25.120003350792075 43.2405
25.142992065061257 43.7221
25.165803588823465 43.908
25.18861612625217 44.2689
25.211429678386736 44.2308
25.234422489079968 44.3071
25.257238081693636 44.2641
25.280054692141732 44.4192
25.3028723214652 44.4406
25.325869245420463 44.4884
25.348688923599397 44.5459
25.371509623787006 44.5222
25.394331347025812 44.1842
25.41733240110666 43.6147
25.440156181590016 42.8619
25.46298098826268 42.263999999999996
25.48580682216873 41.6834
25.50881202326435 41.3057
25.53163992281684 40.9526
25.55446885274561 40.7012
25.577298814096377 40.4519
25.600308179121807 40.345
25.623140214533745 40.4632
25.64597328451537 40.2457
25.66898578564376 40.097
25.691820936010206 40.0324
25.714657124097695 40.1347
25.737494350954734 40.1264
25.760511045684957 39.9805
25.783350361364224 40.1055
25.806190718969255 40.0859
25.82903211955018 40.0574
25.852053024868923 40.1519
25.874896522722523 40.1406
25.897741066713106 39.9804
25.920586657892454 40.1816
25.943611790812668 40.4159
25.966459487728237 40.5214
25.989308234998564 40.6084
26.01215803367705 40.9608
26.03518741123814 41.0947
26.05803932412957 41.2304
26.080892291600094 41.1243
26.10374631470478 41.2922
26.12677995397268 41.2713
26.14963609978026 41.253
26.172493304397875 40.8296
26.19535156888223 40.721
26.218389486949604 40.3155
26.241249882640123 40.1282
26.26411134137826 39.7452
26.28715248187403 39.8436
26.31001607820869 39.647
26.3328807407756 39.5089
26.35574647063438 39.7166
26.37879191991473 39.6394
26.401659795896734 39.6679
26.424528742360263 39.8132
26.447398760366614 39.984
26.470448535598294 40.2042
26.49332070826805 40.3981
26.516193955675355 40.7471
26.53906827888316 40.9457
26.562122397260108 41.0719
26.584998883685063 41.2947
26.607876449110325 41.6912
26.63075509460056 41.7817
26.65381357334404 41.8687
26.67669439061878 41.7687
26.699576291163382 41.711999999999996
26.722459276044212 41.4504
26.745522132402975 41.1954
26.768407297649354 40.9786
26.791293550442003 40.5415
26.814180891848974 40.3605
26.837248143099337 40.0838
26.860137673466657 39.9319
26.88302829566349 39.5955
26.90592001075963 39.5832
26.92899167420566 39.2763
26.951885586870763 38.9911
26.974780595655517 38.8348
26.99785558178161 38.6527
27.020752794605112 38.5323
27.043651106772522 38.5019
27.06655051935668 38.4225
27.089629948036183 38.2532
27.112531573292053 38.2988
27.135434302194138 38.2559
27.158338135817015 38.071999999999996
27.181422024430987 38.2668
27.204328079372566 38.1141
27.22723524226965 38.1628
27.250143514198573 38.2103
27.273231880156334 38.1273
27.296142382065014 37.9144
27.319053996245536 37.8219
27.341966723775965 38.0126
27.365059584515222 38.1318
27.38797455070062 38.1651
27.410890633481237 38.0576
27.433807833936918 38.0497
27.456905206923906 38.0739
27.47982465472398 38.041
27.502745223449743 38.1897
27.525666914182825 38.2392
27.548768816912457 38.2565
27.571692763693633 38.1053
27.59461783573812 37.9778
27.617723149491244 37.7938
27.640650484125285 37.7652
27.66357894728264 37.8507
27.686508540048052 37.6707
27.709618414237887 37.536
27.732550278321757 37.446
27.755483275279115 37.481
27.778417406196485 37.4693
27.801531858397514 37.4366
27.824468269376716 37.3907
27.847405817586786 37.427
27.870344504116094 37.6252
27.893463551932008 37.7393
27.916404527281053 37.9797
27.93934664422563 38.0327
27.962289903855886 38.0577
27.98541356491974 38.2854
28.00835912214229 38.5166
28.03130582533231 38.6868
28.054253675581805 38.7437
28.077381967556104 38.7025
28.100332124185126 38.6517
28.123283431160893 38.4947
28.146235889577238 38.5142
28.169368830154156 38.2829
28.192323603752033 38.079
28.215279532083304 37.7345
28.238415973016764 37.5987
28.261374223145094 37.4656
28.284333631303806 37.1006
28.307294198589954 36.9434
28.330435319167677 36.6691
28.353398217078915 36.4655
28.376362277420153 36.2572
28.39932750129032 36.0605
28.422473319286713 36.0071
28.44544088262495 36.0776
28.468409612800283 35.829
28.491379510913497 35.6778
28.51453004413313 35.5935
28.53750229057244 35.6003
28.56047570826344 35.3869
28.583450298308804 35.3489
28.606605564586562 35.3149
28.629582511831156 35.3595
28.65256063474956 35.1693
28.675539934446338 35.2334
28.698699951647605 35.1929
28.72168161743193 35.076
28.74466446331978 35.0473
28.767648490417624 35.0472
28.790813276438353 35.0491
28.813799678527303 35.0477
28.836787265157085 35.077
28.859955641890075 35.0938
28.882945610203045 35.0994
28.905936766392035 34.9218
28.928929111566863 34.8645
28.952102288520145 34.909
28.975097024308607 34.7105
28.998092952423807 34.6821
29.021090073977508 34.5121
29.04426806913204 34.3507
29.067267590245258 34.1898
29.090268308143695 34.1708
29.11327022394099 34.2004
29.13645305530891 34.1435
29.159457379627167 34.0762
29.18246290519685 33.9151
29.20546963313352 33.935
29.22865731875826 33.9779
29.25166646419296 34.0181
29.27467681535305 33.8161
29.29768837335608 33.8567
29.320880931312562 33.8655
29.34389491580634 33.9946
29.366910110507334 33.8035
29.38992651653503 33.936
29.41312396492981 33.9309
29.436142806456754 33.8656
29.45916286268059 33.7049
29.48236399319994 33.5111
29.50538649169417 33.4112
29.528410208259935 33.275999999999996
29.55143514402014 33.1404
29.574641196749695 32.9422
29.597668583816574 32.8292
29.6206971934585 32.7068
29.64372702680042 32.7835
29.666938019934474 32.6781
29.689970313635285 32.7312
29.713003834422636 32.5846
29.73603858342347 32.5386
29.759254535188578 32.506
29.78229175361658 32.516
29.80533020365064 32.5476
29.82836988641968 32.4932
29.85159081507472 32.4598
29.874632976355343 32.2329
29.89767637376955 32.3422
29.920721008448314 32.133
29.9439469322847 32.2243
29.96699405457564 32.1775
29.9900424175358 32.2104
30.013092022298157 32.0966
30.03632295963995 32.0495
30.059375061131373 32.1924
30.08242840783577 32.2016
30.105483000888153 32.1837
30.128718970092244 32.0698
30.151776069006917 31.9729
30.17483441768648 32.1273
30.198074175317235 32.0501
30.221135036724256 32.0267
30.24419715131772 31.9997
30.267260520236203 31.9327
30.290505341942243 31.969
30.313571232750228 32.0107
30.336638381310948 31.868000000000002
30.35970678876503 31.92
30.38295669299435 31.8237
30.40602763151657 31.7695
30.429099832366074 31.6917
30.452173296685572 31.7309
30.47542830191959 31.6818
30.498504306502497 31.6832
30.521581577995562 31.7647
30.544660117543582 31.7388
30.56792024229725 31.9119
30.59100133132069 31.8281
30.614083691845494 31.7396
30.637167325018545 31.8497
30.660432587840603 31.9333
30.683518779717886 31.8395
30.70660624769615 31.9036
30.729694992924372 31.7744
30.75296541239743 31.9531
30.77605672557558 31.826
30.799149319462742 31.7267
30.8224236211637 31.5577
30.845518789950724 31.4558
30.868615242910597 31.4563
30.891712981195973 31.2765
30.91499247215866 31.1625
30.938092794619365 31.1611
30.96119440587579 31.098000000000003
30.984297307082752 31.0626
31.00758200598383 30.9815
31.030687500658694 30.9131
31.053794288760695 30.9163
31.076902371446767 30.7559
31.100192296997445 30.7662
31.12330298246119 30.7814
31.14641496599209 30.5975
31.169528248749216 30.6951
31.19282341969534 30.6421
31.215939314557186 30.6409
31.239056512134788 30.6224
31.262175013589378 30.7229
31.28547544871168 30.6064
31.30859657161541 30.5458
31.331719001892175 30.5313
31.35484274070538 30.561999999999998
31.378148458819545 30.6422
31.401274828443725 30.5535
31.424402510106933 30.5784
31.447712205419993 30.659000000000002
31.470842524931633 30.5996
31.493974159989783 30.5101
31.51710711176168 30.4873
31.54042212308802 30.3454
31.563557722100917 30.3222
31.586694641341655 30.3424
31.609832881979628 30.0777
31.63315322823208 30.1021
31.656294125521327 29.94
31.679436347728515 29.8815
31.70257989602529 29.8922
31.725905596152327 29.8305
31.74905181052835 29.8096
31.772199354521323 29.8467
31.79534822930507 29.8594
31.818679302290967 29.787
31.84183085259981 29.8051
31.864983737233473 29.7731
31.88813795736804 29.8438
31.911474422233013 29.6844
31.934631327356435 29.8733
31.9577895715215 29.8201
31.980949155906522 29.7527
32.004291031706956 29.7144
32.027453310562606 29.4802
32.05061693318573 29.4281
32.07396288236386 29.3322
32.09712920658542 29.4016
32.12029687812702 29.3529
32.14346589817093 29.1277
32.166817291729984 29.1838
32.18998902288583 29.1195
32.21316210610336 29.0326
32.23633654256711 28.94
32.259693399663725 28.9882
32.282870556771144 28.805999999999997
32.30604907069099 28.8408
32.329228942610065 28.8398
32.35259128243769 28.6523
32.375773884550505 28.5745
32.398957848235646 28.6148
32.422143174682176 28.5424
32.445511016471215 28.5523
32.468699082679954 28.4538
32.49188851523011 28.2832
32.51507931531304 28.2932
32.538452678331 28.3099
32.56164622776311 28.1859
32.58484114831493 28.1289
32.60803744118015 28.1766
32.631416344731896 28.2659
32.654615396551876 28.1739
32.67781582427913 28.0772
32.701198898634416 28.0018
32.72440209253756 27.9873
32.747606665947124 28.0664
32.77081262006088 27.816999999999997
32.79420126883317 27.8741
32.81740999876112 27.8364
32.840620112999424 27.7652
32.86383161274818 27.7761
32.88722585534586 27.7355
32.91044014056596 27.741999999999997
32.933655814909734 27.7378
32.95687287957963 27.6704
32.98027273544904 27.5963
33.00349259526636 27.5237
33.026713849030116 27.5907
33.04993649794511 27.5465
33.073341986570746 27.555999999999997
33.09656744032826 27.5044
33.11979429286444 27.5976
33.14302254538647 27.5017
33.166433686291185 27.4124
33.18966475336992 27.4321
33.212897224069096 27.3855
33.23613109959831 27.3572
33.259547912343415 27.2786
33.2827846121627 27.3073
33.306022720453775 27.1651
33.32926223842861 27.0984
33.352684742614166 27.0884
33.37592709463173 27.1074
33.399170859982064 27.0364
33.422597648419426 27.0124
33.44584425514446 26.8495
33.46909227885668 26.729
33.4923417207723 26.6341
33.51577423505344 26.6403
33.539026528130385 26.6419
33.56228024307245 26.5199
33.585535381098246 26.4938
33.60897364093058 26.4748
33.63223163992385 26.4899
33.6554910656699 26.3763
33.678751919389796 26.3891
33.702195944520106 26.3006
33.72545966903325 26.3375
33.74872482519663 26.2236
33.771991414233746 26.2057
33.79544122444841 26.1454
33.81871069412428 26.1115
33.84198160035767 26.1324
33.86525394437455 26.0862
33.88870955949969 25.9828
33.911984794020626 25.9736
33.93526147001624 25.9757
33.958539588715006 25.9426
33.98200102861669 25.8406
34.0052820477047 25.7316
34.02856451319451 25.77
34.05203033759056 25.6511
34.07531571090147 25.6426
34.09860253431845 25.6901
34.121890809074316 25.6185
34.145362493118924 25.5465
34.16865368561615 25.5327
34.191946333164054 25.5959
34.21524043699793 25.529
34.23871800066799 25.4974
34.26201503218366 25.4695
34.28531352370466 25.4491
34.30861347646881 25.3084
34.33209693978188 25.2202
34.3553998301885 25.2529
34.378704185565205 25.2484
34.402010007152356 25.1231
34.42549939016683 25.1086
34.44880815937748 24.998
34.472118398533134 24.9098
34.49543010887669 24.9033
34.51892543169198 24.8198
34.54224009966052 24.8806
34.56555624255917 24.9044
34.58887386163339 24.813000000000002
34.61237514439016 24.7406
34.6356957311114 24.6883
34.65901779775809 24.6525
34.68252356662995 24.6138
34.705848608458616 24.6092
34.72917513396849 24.6177
34.75250314440949 24.568
34.77601490857862 24.4961
34.799345904259795 24.3593
34.82267838863559 24.447
34.846012362958525 24.4437
34.869530142679984 24.3672
34.89286711232212 24.3784
34.91620557568269 24.3331
34.93954553401677 24.2934
34.9630693495876 24.238000000000003
34.986412313340814 24.2283
35.00975677584668 24.2627
35.033102738362956 24.1401
35.05663261012228 24.1214
35.0799815881786 24.0767
35.10333207003229 23.975
35.12668405694369 24.0125
35.150220005273056 23.9694
35.17357501786656 23.994
35.19693153931268 24.0102
35.220289570874385 23.9181
35.24383161619786 23.8799
35.267192683604904 23.9134
35.290555264930376 23.7976
35.314101899412165 23.7984
35.33746752422433 23.8306
35.36083466676374 23.7764
35.38420332829803 23.6973
35.407756095629054 23.7554
35.43112781085063 23.7104
35.45450104888391 23.6796
35.477875810999194 23.7123
35.50143473172161 23.6125
35.52481255774625 23.5967
35.54819191167777 23.6022
35.57157279478914 23.6201
35.595137889488406 23.573
35.61852184675279 23.4931
35.641907337029984 23.3373
35.665294361595684 23.2815
35.68886565090076 23.2185
35.7122557598848 23.2545
35.73564740699838 23.2371
35.759040593519934 23.1885
35.78261809810353 23.1789
35.80601437933051 23.1142
35.829412203814705 23.0256
35.85281157283719 22.9794
35.876395313415884 23.0314
35.8997977874528 22.9523
35.92320180988546 22.8648
35.946790244133936 22.8102
35.97019737933222 22.8697
35.993606066789866 22.8837
36.01701630779276 22.8146
36.04061101440684 22.7776
36.06402437852291 22.7702
36.08743930005611 22.7333
36.1108557802951 22.6741
36.13445678011326 22.6989
36.15787639383515 22.625
36.18129757014299 22.6115
36.20472031032821 22.5134
36.22832762423364 22.5002
36.25175350829375 22.4904
36.275180960119776 22.3782
36.298609981005924 22.4563
36.32222362992669 22.4063
36.34565580510207 22.375
36.36908955323448 22.3466
36.39252487562093 22.2419
36.416144880530226 22.2156
36.43958336764275 22.166999999999998
36.463023432914625 22.2365
36.486465077645676 22.1486
36.51009145956204 22.1909
36.53353627947859 22.1263
36.55698268276811 22.0755
36.58043067073321 21.976999999999997
36.60406345072071 21.9317
36.62751462435344 21.8712
36.65096738658405 21.8956
36.67460498210655 21.9162
36.69806093788647 21.8623
36.72151848619297 21.8023
36.744977628333636 21.8349
36.76862165890998 21.6559
36.79208400512205 21.7339
36.81554794910557 21.6995
36.83901349217101 21.6212
36.862663978991606 21.6217
36.88613273667352 21.5366
36.90960309738324 21.5758
36.933075062434064 21.5419
36.95673202673572 21.4568
36.98020721697122 21.4382
37.003684015502365 21.4019
37.027162423645365 21.4033
37.050825886711465 21.3441
37.07430753063053 21.3196
37.09779078812467 21.2886
37.121275660513014 21.3019
37.144945643673694 21.2359
37.16843376245278 21.1979
37.19192350009803 21.2214
37.215414857931435 21.1498
37.239091382563885 21.05
37.262585997426164 21.0344
37.28608223645736 21.0794
37.309763684451696 21.0274
37.33326318851098 20.9182
37.356764320726555 20.8715
37.380267082425526 20.8673
37.40395510942588 20.8566
37.42746114683234 20.7517
37.45096881771841 20.7148
37.474478123414166 20.7973
37.49817275092816 20.7396
37.52168534303452 20.7516
37.54519957395567 20.5738
37.568715445024665 20.5844
37.592416694607714 20.5779
37.61593586281424 20.6155
37.63945667518264 20.5393
37.66297913304891 20.5227
37.68668702630454 20.5115
37.710212792059274 20.4621
37.733740207334854 20.3715
37.757269273470364 20.3175
37.780983832050374 20.3644
37.80451621684926 20.2946
37.82805025654007 20.2627
37.851585952464795 20.2581
37.8753071980695 20.147000000000002
37.89884622345676 20.1418
37.92238690911902 20.0654
37.94611318753442 20.0227
37.969657210779765 19.9863
37.99320289834801 20.0102
38.016750251586465 20.0276
38.04048325513017 19.9732
38.06403395679343 19.9402
38.087586328183946 19.8571
38.11114037065203 19.833
38.13488012115898 19.8738
38.1584375229181 19.7849
38.181996599821 19.783
38.205557353221124 19.7622
38.229303872575656 19.6705
38.2528679961576 19.737000000000002
38.27643380031219 19.6473
38.30000128639589 19.5605
38.32375459653193 19.5607
38.34732546371299 19.5716
38.37089801690786 19.4674
38.39447225747609 19.455
38.418232380377425 19.4304
38.441810012983396 19.4344
38.46538933705673 19.4262
38.488970353960084 19.3884
38.51273731166058 19.3484
38.536321731567014 19.3324
38.55990784840681 19.2512
38.58367995004091 19.1691
38.60726947812959 19.2013
38.63086070726198 19.186
38.654453638806274 19.1582
38.678232613930824 19.1458
38.70182896773327 19.0769
38.72542702806741 19.0664
38.7490267963045 19.0517
38.77281266709232 18.9874
38.79641586862214 18.9575
38.8200207821842 18.8822
38.843627409152944 18.9125
38.86742019782782 18.8554
38.891030269149255 18.8215
38.914642058016156 18.8363
38.938255565806124 18.7616
38.96205529464307 18.6941
38.98567225787121 18.6782
39.00929094417078 18.758
39.03291135492255 18.7016
39.05671804624804 18.6104
39.080341923549106 18.5641
39.103967529460334 18.5194
39.127594865365744 18.5281
39.15140854155791 18.4689
39.17503935514948 18.4781
39.19867190290282 18.5
39.22249083587951 18.4285
39.24612686969409 18.387999999999998
39.269764641845306 18.3953
39.293404153722804 18.3398
39.317230110864074 18.257
39.34087311998506 18.1977
39.36451787301696 18.2352
39.388164371352595 18.1367
39.41199737518003 18.2333
39.43564738196752 18.1973
39.45929913825317 18.104
39.48295264543308 18.1529
39.506792718520884 18.0688
39.530449745387216 18.0603
39.55410852735203 18.0698
39.57776906581474 18.0147
39.60161623079 17.9512
39.625280300200025 17.999000000000002
39.64894613032202 17.84
39.67261372255866 17.8665
39.6964680021016 17.807000000000002
39.72013913657293 17.8478
39.74381203738292 17.7769
39.76748670593756 17.757
39.79134812278169 17.7739
39.81502634488497 17.7127
39.83870633896685 17.6974
39.862388106436654 17.6134
39.88625668336918 17.5883
39.90994201572829 17.6069
39.933629125719285 17.5271
39.957503091207826 17.4919
39.9811937746168 17.5899
40.00488623990914 17.4821
40.02858048850006 17.4689
40.05246165409549 17.4292
40.076159487492085 17.4208
40.099859108448875 17.3302
40.123560518384345 17.3224
40.1474489070226 17.3872
40.171153913178564 17.2433
40.194860712584955 17.2622
40.2185693066637 17.1919
40.242464941335314 17.175
40.26617714307655 17.1741
40.289891143772046 17.1799
40.3136069448471 17.0788
40.33750984859743 17.0821
40.3612292688043 17.0404
40.3849504936829 17.0028
40.40867352466194 17.0578
40.43258372059144 16.9822
40.45631038219906 16.9892
40.48003885420956 16.9309
40.503769138055105 16.9743
40.52768664931955 16.9718
40.55142057531802 16.9268
40.57515631746428 16.8039
40.599079334038514 16.7595
40.62281872700477 16.713
40.64655994043941 16.6711
40.67030297578061 16.6806
40.69423334835778 16.7265
40.71798004609188 16.6804
40.74172857006355 16.6071
40.76547892171441 16.6312
40.7894166736039 16.6041
40.813170699248566 16.476
40.83692655691388 16.5372
40.86068424804498 16.5677
40.884629402612525 16.5093
40.908390779366385 16.5346
40.932153993938 16.5262
40.95591904777605 16.4317
40.979871628443995 16.4555
41.003640379561936 16.3585
41.02741097430883 16.3494
41.05118341413683 16.3507
41.075143444384416 16.2886
41.098919593177826 16.244
41.1226975914255 16.2549
41.14647744058318 16.2262
41.170444943946755 16.1626
41.19422851378379 16.1489
41.218013938914645 16.1501
41.24198706625173 16.0944
41.26577622087193 16.0815
41.289567235177785 16.0465
41.31336011063129 16.0262
41.337340752422875 15.9555
41.361137369129835 15.964
41.38493585138705 15.9399
41.40873620066004 15.9377
41.43272438060107 15.8423
41.45652848292052 15.8324
41.48033445666918 15.7891
41.50414230331616 15.7808
41.528138045159764 15.7866
41.551949656675205 15.7008
41.575763145513235 15.7185
41.59957851314666 15.6394
41.62358184070442 15.6429
41.64740098505737 15.6306
41.6712220126409 15.5795
41.69504492493139 15.6125
41.71905586207357 15.5901
41.74288256296395 15.4827
41.766711153007456 15.4973
41.79054163368412 15.5422
41.814560204340054 15.4651
41.838394485526365 15.4776
41.86223066180303 15.3813
41.88625497706819 15.3823
41.910094962812 15.3882
41.93393684811168 15.3123
41.95778063445365 15.2193
41.981812625263366 15.1999
42.00566023303407 15.2102
42.029509746323676 15.1899
42.05336116662236 15.2139
42.077400857069705 15.2319
42.10125611078846 15.1584
42.12511327600405 15.1208
42.14897235421036 15.0714
42.173019768448455 15.0893
42.19688269209613 15.0888
42.22074753323349 15.0683
42.24461429335818 15.0294
42.268669455600495 15.0416
42.292540073217886 14.9291
42.31641261433284 14.9258
42.34028708044675 14.8617
42.36435001496739 14.8989
42.38822835065557 14.9067
42.41210861586426 14.8657
42.4359908120986 14.8008
42.46006154323262 14.8115
42.48394762115317 14.7207
42.507835634632315 14.6984
42.531912233047436 14.72
42.55580413732265 14.6739
42.579697981698 14.6638
42.60359376768525 14.6388
42.62767820545945 14.5443
42.65157789440821 14.5688
42.67547952952185 14.565
42.699383112316 14.5302
42.72347541395347 14.4689
42.74738291190531 14.4764
42.771292362102166 14.5195
42.795203766063516 14.4517
42.819303956130405 14.3548
42.843219287476536 14.3384
42.86713657716324 14.3836
42.89105582671383 14.3366
42.91516392983864 14.3221
42.939087119032166 14.3001
42.963012272677304 14.292
42.98693939230129 14.2362
43.01105543317513 14.1977
43.034986504731386 14.1423
43.05891954686589 14.1168
43.08285456110972 14.1745
43.10697856448665 14.117
43.130917542983475 14.0458
43.15485849820081 14.0202
43.17880143167367 14.0664
43.20293342237094 14.0468
43.226880332449 13.9979
43.25082922540554 13.9889
43.27496722682525 13.9678
43.29892010567796 13.9116
43.32287497204102 13.8914
43.34683182745632 13.8337
43.370977859791836 13.8203
43.39493871351105 13.8612
43.41890156092628 13.83
43.44286640358341 13.8269
43.46702049182749 13.805
43.49098934522816 13.74
43.51496019852649 13.6886
43.5389330532723 13.6751
43.56309522248204 13.6595
43.58707210044314 13.6444
43.61105098451946 13.6189
43.63503187626491 13.5775
43.659202151562134 13.573
43.68318707902681 13.5745
43.70717401884041 13.4823
43.731162972560874 13.4508
43.75534137913236 13.4563
43.779334381108384 13.4481
43.803329401683186 13.4365
43.82732644241872 13.4147
43.8515130055166 13.3764
43.87551410707659 13.3572
43.89951723350145 13.3436
43.923709934595614 13.3472
43.94771713129917 13.2846
43.97172635758096 13.2524
43.99573761501002 13.2221
44.0199385169922 13.2216
44.04395385732619 13.1985
44.067971233533086 13.2154
44.09199064718605 13.1369
44.11619977548961 13.0996
44.14022328470671 13.0264
44.16424883610785 13.0614
44.18827643127035 13.0642
44.21249381139513 13.0032
44.236525514814076 12.9525
44.26055926674478 12.994000000000002
44.28459506876863 13.0031
44.3088207262813 12.9725
44.33286064928722 12.9503
44.35690262714919 12.9083
44.38094666145278 12.9324
44.4051806219871 12.8893
44.42922879003185 12.8435
44.45327901929361 12.7536
44.477331311362136 12.7932
44.501573600619416 12.7689
44.525630039221795 12.7029
44.54968854541895 12.7222
44.573937102200176 12.6869
44.5979997645541 12.7117
44.622064499300315 12.7035
44.64613130803592 12.6354
44.67038823869318 12.6305
44.69445921643748 12.564
44.718532272981385 12.5258
44.742607409926194 12.5508
44.76687274034801 12.4994
44.79095205918753 12.4725
44.81503346325094 12.4535
44.839116954143876 12.4529
44.86339071028742 12.4378
44.88747839599524 12.4083
44.91156817336837 12.3789
44.93566004401666 12.3549
44.959942251908146 12.3124
44.984038330325966 12.2752
45.00813650686762 12.2616
45.03223678314731 12.2854
45.05652746888232 12.265
45.08063196592069 12.2439
45.104738567558705 12.2261
45.128847275414856 12.1766
45.15314646515866 12.110999999999999
45.17725940679741 12.1609
45.20137445952892 12.1427
45.22568004865265 12.106
45.24979934496396 12.0875
45.27392075725247 12.0461
45.29804428714431 12.039000000000001
45.322358426247604 12.0316
45.346486212804315 12.0063
45.370616121861914 11.9734
45.39474815505086 11.9099
45.41907087049246 11.956
45.4432071734666 11.9284
45.46734560548283 11.9407
45.49148616817604 11.9302
45.51581748638564 11.8604
45.5399623320197 11.8481
45.56410931325473 11.8094
45.58825843173002 11.8499
45.61259837920865 11.8097
45.636751793816 11.7925
45.66090735060093 11.7454
45.68506505120716 11.7136
45.7094136545275 11.6763
45.73357566449271 11.6418
45.75773982322992 11.6256
45.78190613238733 11.6097
45.806263418194064 11.5741
45.83043404997326 11.5808
45.85460683713677 11.5717
45.87897065658495 11.5087
45.90314777634752 11.5011
45.92732705646868 11.485999999999999
45.9515084986045 11.4524
45.97588104735473 11.4524
46.00006683541565 11.4344
46.02425479047904 11.4134
46.04844491420549 11.3785
46.0728262191024 11.3524
46.09702070211635 11.3401
46.12121735879483 11.3592
46.14541619080294 11.3425
46.169806278764455 11.3156
46.194009483459034 11.285
46.21821486849841 11.2435
46.24242243555223 11.2214
46.266821333570014 11.1996
46.29103328674601 11.1529
46.31524742696538 11.208
46.33946375590237 11.173
46.36387149104216 11.1326
46.38809221957392 11.0627
46.41231514186606 11.0707
46.436540259597464 11.104000000000001
46.460956858999374 11.0867
46.48518638983522 11.017999999999999
46.509418121166966 11.0392
46.533652054678114 10.9967
46.55807754555709 10.9612
46.58231590571962 11.0183
46.60655647313217 10.934000000000001
46.630988654873654 10.890999999999998
46.655233659129024 10.8997
46.67948087571551 10.8798
46.70373030632484 10.8228
46.72817142736393 10.8342
46.752425308428684 10.8475
46.77668140861147 10.7881
46.80093972960865 10.7289
46.82538981736788 10.7403
46.849652602470904 10.7504
46.87391761349769 10.6985
46.8981848521493 10.6643
46.9226439341274 10.6731
46.946915650573224 10.5988
46.97118959976749 10.5792
46.99546578341598 10.5802
47.019933887188216 10.5721
47.04421456235744 10.5885
47.06849747711879 10.5559
47.09278263318286 10.5449
47.11725978640143 10.5407
47.14154944775105 10.4804
47.165841355555656 10.4748
47.1901355115306 10.4241
47.214621741924994 10.4636
47.23892041698887 10.4329
47.26322134538975 10.3777
47.28771440635075 10.3694
47.31201986422527 10.3563
47.33632758061436 10.3579
47.360637557241866 10.3116
47.38513974410611 10.2913
47.40945426407847 10.2913
47.43377104948137 10.2861
47.45809010204344 10.2781
47.48260144275502 10.2395
47.506925052572285 10.2214
47.53125093475548 10.1779
47.55557909103813 10.1671
47.58009961361992 10.1287
47.60443234110732 10.149
47.62876734791564 10.0975
47.65310463578333 10.0828
47.6776343683373 10.087
47.7019762413987 10.0219
47.72632040075572 10.0169
47.75066684815169 10.0213
47.77520581885936 9.933639999999999
47.799556865477655 9.92803
47.823910205386 9.97081
47.84826584033272 9.91014
47.87281407745551 9.91638
47.89717432569297 9.89354
47.92153687423484 9.92432
47.94609208429692 9.87567
47.97045925671401 9.887839999999999
47.99482873471275 9.788039999999999
48.01920052005013 9.81364
48.04376504619224 9.80723
48.068141469543484 9.8107
48.09252020552573 9.753910000000001
48.11690125590099 9.7357
48.1414751266064 9.717030000000001
48.16586082917454 9.70306
48.19024885144316 9.66199
48.2146391951793 9.66162
48.239222439012764 9.67019
48.26361744916137 9.65805
48.28801478610016 9.62677
48.31241445160131 9.615269999999999
48.337007097209366 9.59601
48.36141144338331 9.56884
48.38581812345755 9.552480000000001
48.41022713920929 9.56054
48.434829215320704 9.49248
48.45924292604658 9.475539999999999
48.48365897780325 9.51683
48.50807737237308 9.4635
48.532688907799276 9.44489
48.55711201168574 9.42867
48.581537463754074 9.438369999999999
48.60615611725119 9.46626
48.63058628942721 9.377839999999999
48.65501881516546 9.383189999999999
48.6794536962573 9.3617
48.70408185970339 9.35185
48.72852147531801 9.29953
48.75296345168211 9.244580000000001
48.77740779059232 9.276
48.80204549302823 9.316510000000001
48.82649458091802 9.27006
48.85094603676547 9.22141
48.87539986237231 9.20238
48.90004713292306 9.20166
48.92450572200832 9.187389999999999
48.94896668628025 9.16007
48.97343002754588 9.15297
48.99808689542115 9.1136
49.02255501470614 9.106539999999999
49.04702551642794 9.11686
49.0714984023988 9.08164
49.096164896893235 9.0595
49.120642575466796 9.039010000000001
49.145122643748394 9.061010000000001
49.16960510355558 9.003260000000001
49.19428125404938 8.97983
49.2187685210852 8.99549
49.243258185121555 8.98878
49.26794160167084 8.941289999999999
49.2924360839405 8.91975
49.31693296869764 8.90536
49.34143225776915 8.85925
49.36612538195438 8.852910000000001
49.39062950396021 8.856910000000001
49.41513603578346 8.83767
49.4396449792564 8.791210000000001
49.46434784069503 8.77646
49.488861631846454 8.75774
49.513377840166804 8.77923
49.537896467493745 8.747810000000001
49.56260909589029 8.71217
49.587132585683285 8.72724
49.611658500018365 8.70196
49.636186840738596 8.65825
49.66090926588511 8.66506
49.685442483902584 8.609919999999999
49.70997813385706 8.58682
49.734516217597076 8.58052
49.75924846937352 8.61106
49.7837914452858 8.5719
49.80833686055187 8.55079
49.83288471702571 8.541830000000001
49.85762682540054 8.56476
49.882179588965734 8.48558
49.9067347993235 8.48285
49.93129245833333 8.475589999999999
49.95604445336378 8.43547
49.98060703442832 8.41263
50.005172069746266 8.40098
50.02993150438364 8.42595
50.05450147301533 8.397089999999999
50.07907390151433 8.36941
50.10364879174981 8.37659
50.12841816587289 8.32731
50.1529980044635 8.3562
50.17758031042124 8.32885
50.20216508562089 8.28149
50.22694442953363 8.22874
50.25153416817468 8.27625
50.27612638170508 8.27305
50.300721072005196 8.21272
50.325510416102105 8.197410000000001
50.350110084975064 8.182269999999999
50.37471223628208 8.19478
50.39931687190919 8.18099
50.424116246675766 8.1395
50.44872587605249 8.126330000000001
50.47333799543065 8.10577
50.49795260670191 8.08587
50.52276204271512 8.11239
50.54738166295838 8.06431
50.57200378079314 8.054780000000001
50.596628398116835 8.06017
50.62144792604559 8.00528
50.646077567609396 8.02571
50.670709714377715 8.02774
50.69553683636198 7.98447
50.72017401885922 7.95563
50.7448137122895 7.98796
50.76945591856022 7.97617
50.79429318636823 7.976319999999999
50.818940443716784 7.92594
50.84359021965163 7.9477
50.868242516085964 7.91962
50.893089960641895 7.8747300000000005
50.917747323549435 7.834160000000001
50.94240721271973 7.8212399999999995
50.96706963007175 7.823410000000001
50.99192728239342 7.79965
51.01659478166073 7.79787
51.04126481489051 7.7687800000000005
51.06593738400761 7.7724
51.090805275207074 7.772
51.11548294172845 7.74455
51.14016314993547 7.734839999999999
51.164845901758845 7.692239999999999
51.18972406304274 7.689760000000001
51.21441192780656 7.69677
51.23910234200271 7.69407
51.2637953075678 7.65642
51.288683770237945 7.616280000000001
51.31338186432707 7.60827
51.33808251561888 7.5705
51.362978729967345 7.561719999999999
51.387684521509755 7.56355
51.41239287610203 7.542510000000001
51.437103795691165 7.5223
51.46201036644977 7.4992600000000005
51.486726441956634 7.491789999999999
51.51144508832545 7.5057
51.536166307509156 7.48164
51.56108326624387 7.43232
51.58580965706056 7.445130000000001
51.61053862657523 7.434
51.635270176746864 7.402080000000001
51.66019755512065 7.3839
51.68493429268881 7.34295
51.70967361681515 7.36022
51.73441552946465 7.33805
51.759353359237934 7.342219999999999
51.7841004750961 7.33557
51.80885018539685 7.32153
51.833602492111254 7.269710000000001
51.8585508051424 7.28487
51.883308330926425 7.24507
51.90806845906181 7.24298
51.932831191525715 7.222230000000001
51.95779001977161 7.19712
51.98255798721516 7.14042
52.00732856494335 7.16776
52.03229530577543 7.182239999999999
52.057071130455945 7.1359699999999995
52.081849571391054 7.13848
52.106630630568695 7.10227
52.13160794279417 7.094810000000001
52.15639426492067 7.10272
52.18118321127822 7.091189999999999
52.205974783860896 7.047219999999999
52.23096269971011 7.03609
52.255759551287994 7.04208
52.280559035098186 7.018260000000001
52.30536115314103 7.01784
52.33035970494467 7.0087399999999995
52.35516711807904 6.96656
52.37997717147198 6.97266
52.40478986713005 6.972519999999999
52.42979908731974 6.92116
52.454617094216 6.88932
52.47943774942214 6.87293
52.50426105495102 6.890439999999999
52.529280976059844 6.8997
52.554109609024096 6.882289999999999
52.57894089837482 6.81951
52.60377484613117 6.8183300000000004
52.62880550079408 6.8383199999999995
52.65364479223379 6.7914699999999995
52.67848674816189 6.78218
52.70352547971946 6.75442
52.72837279155837 6.74264
52.753222773982785 6.7091
52.778075429022984 6.73035
52.80312495150885 6.72687
52.827982978797436 6.7175899999999995
52.85284368481815 6.6966
52.87770707160767 6.658760000000001
52.90276741793998 6.652889999999999
52.92763619336701 6.66485
52.952507655698504 6.65508
52.977381806977576 6.60263
53.00245301017842 6.6134
53.02733256653592 6.612010000000001
53.052214817996074 6.60928
53.077099766608484 6.57043
53.102181859804446 6.568160000000001
53.127072229988265 6.54589
53.15196530349892 6.53008
53.17686108239249 6.52635
53.20195409881522 6.52686
53.22685531582556 6.530469999999999
53.25175924441303 6.45489
53.27666588664027 6.44716
53.30176985962693 6.43454
53.3266819565689 6.45552
53.35159677336455 6.4385
53.376514312083096 6.4141699999999995
53.40162927507703 6.38603
53.42655228516116 6.38481
53.45147802340193 6.37876
53.47660125628886 6.3416
53.50153247842639 6.30285
53.52646643496923 6.31159
53.55140312799818 6.29346
53.576537409691696 6.2872
53.60147960336152 6.28841
53.626424539786164 6.279669999999999
53.65137222105307 6.23874
53.67651758529126 6.24686
53.70147078399681 6.22284
53.72642673383343 6.19382
53.75138543689533 6.1831
53.776541917524526 6.1820699999999995
53.801506154876755 6.172680000000001
53.826473151763246 6.18387
53.851442910284916 6.10988
53.87661054126026 6.09491
53.9015858509782 6.0948
53.92656392866066 6.11561
53.95154477641532 6.08988
53.976723591801296 6.08906
54.00171000771266 6.05583
54.02669920004598 6.0348
54.051691170915745 6.011830000000001
54.076881204886796 6.05915
54.101878760928514 6.0282
54.12687910187696 6.02306
54.152077577768296 5.97923
54.1770835166946 5.97015
54.20209224691339 5.96854
54.22710377055121 5.91975
54.25231352511594 5.89684
54.27733066384342 5.88362
54.30235060239643 5.8559
54.32737334290836 5.854769999999999
54.35259441062629 5.81416
54.377622783395324 5.772930000000001
54.40265396455061 5.8162400000000005
54.42768795623251 5.83387
54.45292037169559 5.77155
54.477960012857906 5.78707
54.50300247099511 5.758030000000001
54.52804774825457 5.74127
54.55329154616743 5.69791
54.57834249018678 5.653630000000001
54.6033962597977 5.65144
54.6284528571545 5.65439
54.653708072335164 5.65143
54.67877035378786 5.57905
54.70383546947698 5.546069999999999
54.72890342156389 5.56104
54.7541700889442 5.5509699999999995
54.77924374251975 5.52985
54.8043202390049 5.50575
54.82959552413022 5.44797
54.8546777351945 5.49714
54.87976279569621 5.44413
54.90485070780914 5.46809
54.930137506558005 5.36701
54.95523115074295 5.42068
54.98032765308844 5.4313199999999995
55.005427015775496 5.400930000000001
55.03072536339621 5.3901900000000005
55.05583047570572 5.33204
55.080938454927676 5.3113
55.10604930325027 5.2621400000000005
55.131359235107396 5.2691099999999995
55.15647585066083 5.21964
55.181595341907496 5.22884
55.20671771104285 5.1675699999999996
55.232039262617704 5.200740000000001
55.25716741665048 5.15629
55.28229845518636 5.1423
55.30743238042802 5.06489
55.33276558731939 5.10804
55.357905315183636 5.0929400000000005
55.383047936390035 5.0579
55.40819345314859 5.032
55.433538351073295 4.98249
55.458689688238415 4.9740400000000005
55.483843927614096 4.950130000000001
55.509197623043605 4.94811
55.53435769621134 4.95522
55.55952067826466 4.9172400000000005
55.5846865714265 4.85069
55.61005202069737 4.85579
55.63522376553902 4.87058
55.66039842818645 4.79955
55.68557601087004 4.81072
55.7109532500271 4.77475
55.73613670233794 4.7681
