TT I
1.2716486653135266 7.17099
1.2939594142134223 7.12102
1.3162702121660406 6.558560000000001
1.3385810600174564 7.04197
1.3608919586137629 6.6254800000000005
1.383202908801069 6.05582
1.405513911425503 6.068980000000001
1.4278249673332093 6.109380000000001
1.4501343378461518 6.2451
1.4724455028545926 6.10349
1.4947567236847858 6.21716
1.517068001182951 6.19399
1.5393793361953272 6.22219
1.5616907295681737 5.722919999999999
1.5840021821477681 4.95872
1.60631369478041 5.34898
1.6286252683124185 4.56698
1.6509369035901333 4.99517
1.6732468618895553 4.66133
1.695558623192809 4.98848
1.7178704487808514 5.06124
1.7401823395001077 4.54619
1.7625012545597203 4.577780000000001
1.7848028405262486 4.84253
1.8071218901122095 4.68935
1.8294236121921872 4.57869
1.8517427996910911 4.7592
1.8740620574440425 4.70598
1.8963639900671978 4.415369999999999
1.9186833908139995 4.60743
1.9409854680117449 4.4374
1.9633050151394713 5.21963
1.9856246367570705 4.79455
2.0079269371922672 4.95605
2.03024671027244 4.93959
2.0525491637446027 4.70672
2.074869091674931 5.335719999999999
2.097171701569106 5.55635
2.1194917877373847 5.4410099999999995
2.141811954326636 5.51941
2.164114805233074 5.11445
2.186435135143035 6.47842
2.208738150935709 14.3035
2.231058647554722 30.3469
2.2533792288321184 22.8672
2.275682498336085 10.9636
2.298003251406138 6.64917
2.3203066942619714 5.66838
2.3426276225136022 5.6862
2.3649486396617507 5.60712
2.387252348930071 6.04474
2.4095735463442893 6.05337
2.4318774374315884 6.26875
2.4541988185014043 6.737
2.476502894794693 7.064369999999999
2.498824462909887 6.626639999999999
2.521146125856138 7.148860000000001
2.5434504863470337 7.826289999999999
2.5657723414244717 7.8864399999999995
2.588076895590662 8.71218
2.610398946189713 8.89989
2.6327210958598384 8.17077
2.6550259469304716 8.3294
2.6773482972090137 8.72621
2.6996533504259 8.73364
2.7219759047039602 8.72645
2.744298562293959 8.32808
2.7666039251246595 8.4941
2.7889267918020164 8.623380000000001
2.8112323652516555 8.57954
2.833555444408179 8.28577
2.8558786311183852 8.94177
2.8781845268938557 9.52725
2.9005079311721484 9.638
2.9228140460410397 9.19275
2.9451376712799635 9.40356
2.967444008632326 9.71747
2.9897678582247247 10.4222
3.0120918213106695 10.1295
3.0343984987899373 10.9703
3.0567226913198637 11.207
3.079029599759726 11.7842
3.101354025127254 12.450999999999999
3.123678568232338 12.7737
3.145985829517914 13.6581
3.16831061055229 14.0737
3.1906181112775593 14.5114
3.212943133635653 15.4972
3.2352682779763207 14.8807
3.2575761442691227 15.3622
3.2799015350264273 15.9741
3.302209649240067 16.7527
3.3245352898092655 16.7925
3.3468436553365257 17.3669
3.369169549113219 17.7815
3.3914955708171384 18.4681
3.413804319727358 18.927
3.4361305997334863 19.0614
3.4584396084414553 19.2982
3.4807661501462652 19.8924
3.503092824025881 20.6688
3.5254022288463154 21.3675
3.5477291695206588 21.9351
3.5700388426251948 22.2787
3.5923660534916446 23.9742
3.6146934007816114 39.6846
3.637003482731501 92.9369
3.6593311053109985 104.37299999999999
3.681641464033634 59.331
3.7039693653009733 31.3632
3.726297407241705 26.4671
3.7486081875460804 26.0229
3.7709365132734978 26.1206
3.793247578841633 26.5917
3.8155761917550093 27.1569
3.8378875459837216 27.0319
3.8602164494827234 27.648000000000003
3.882545499606844 28.3067
3.9048572932539183 28.5733
3.9271866390645718 29.0995
3.9494987298666713 29.5512
3.971828374764527 30.205
3.9941581705403255 30.9855
4.016470713506008 30.9296
4.038800813471445 31.8688
4.061113662089144 32.5956
4.0834440696459176 33.7404
4.105774632334751 33.7695
4.128087945865126 35.2143
4.150418821249301 36.2847
4.172732448931298 36.909
4.195063640413578 38.5493
4.2173775856475215 42.4865
4.239709096631102 76.0802
4.262040768704612 249.929
4.284355196706267 342.724
4.306687193387355 219.949
4.329001947444346 84.2794
4.35133427213731 48.3964
4.373666762177566 44.2564
4.395982011761091 44.1876
4.418314834921175 45.2818
4.44063041906622 53.2805
4.4629635787515625 65.7133
4.4852969080429785 65.9595
4.5076130004776225 53.9702
4.529946671403969 49.8924
4.552263106909177 49.5889
4.574597122877047 50.4983
4.596931312711224 51.3993
4.619248269273446 52.6444
4.6415828092605835 53.4969
4.663900117405352 54.3323
4.686235010953232 56.0692
4.708552674085913 57.6882
4.730887924602802 58.9672
4.753223354952695 60.5022
4.775541557023902 61.5193
4.797877349456786 62.938
4.820195915032126 64.7031
4.842532072957498 66.0453
4.864868414979744 68.3917
4.88718753227192 70.4026
4.909524244902505 72.4936
4.931843734218147 73.735
4.954180820867835 75.8912
4.976518095879839 79.1153
4.998838149695359 81.8366
5.021175803844231 85.1138
5.043496238205739 87.8324
5.065834274903528 92.0504
5.088172504230693 96.541
5.1104935158799565 101.897
5.132832132875765 122.975
5.155153533596801 165.938
5.1774925416746225 197.81799999999998
5.199814334878411 296.008
5.2221537374521505 782.841
5.244493338631803 2487.23
5.266815727034316 7377.74
5.289155727832427 12359.4
5.311478517248165 8979.18
5.333818921080011 2722.6
5.356159527788849 503.915
5.3784829252032536 177.515
5.400823940070432 139.517
5.423147747031976 125.01799999999999
5.445489173474152 116.554
5.467830807066149 111.00200000000001
5.490155234831516 107.234
5.512497285125229 104.007
5.534822130975162 102.04899999999999
5.557164601388673 100.43
5.579489868738879 97.9
5.601832762690846 96.844
5.6241758697774475 95.6491
5.646501775867269 95.1252
5.668845311622074 93.8117
5.691171647754637 92.7637
5.713515615597765 91.1953
5.735859800852677 90.361
5.758186788542988 89.7977
5.780531411018185 90.1474
5.802858837297399 89.4433
5.825203900414495 88.9445
5.8475491852224 89.3273
5.869877275883075 89.5608
5.892223006467101 90.7907
5.914551544266608 91.1569
5.936897724049891 93.0273
5.959244129804903 96.9997
5.981573344815301 110.485
6.0039202049061 174.658
6.026249875609095 381.168
6.04859719346037 838.1519999999999
6.070927323278297 2077.14
6.093275102315365 4405.99
6.115623113320588 5329.24
6.137953938319995 3247.94
6.160302415650845 938.6510000000001
6.182633708324452 222.50599999999997
6.2049826554078376 110.87899999999999
6.227331838745022 90.459
6.249663839443684 83.8494
6.27201349767565 81.4402
6.294345974611799 88.3728
6.316696111167083 101.191
6.339046488263839 95.3757
6.361379686074702 79.3806
6.383730546639482 71.5188
6.406064229255215 68.3949
6.428415576718203 67.5016
6.450749747566656 66.4089
6.47310158535871 65.7012
6.495453669698332 64.72
6.517788579421056 63.7959
6.540141159237969 63.1997
6.562476565766648 62.5244
6.5848296444934045 62.3631
6.607182974060425 61.9146
6.6295191323281015 62.4806
6.651872965955752 66.0327
6.6742096296068985 93.0676
6.6965639707294615 142.619
6.71891856698715 142.389
6.741255995248479 96.4579
6.763611104154477 68.5232
6.785949046381137 60.4569
6.808304671371482 58.2805
6.8306605557940046 58.0513
6.852999275508618 57.1394
6.875355681171544 56.4099
6.897694923437771 56.1497
6.92005185377892 56.2854
6.9423916220322655 56.2087
6.964749080490181 55.373999999999995
6.987106804399774 55.2712
7.009447368180821 55.4559
7.031805625367033 55.3617
7.054146723727803 55.1125
7.076505517631004 54.6969
7.098864581288365 54.9172
7.121206488070854 54.8185
7.143566093607822 54.7248
7.165908543567245 54.3899
7.188268694426048 54.7757
7.2106291193438095 55.0249
7.232972390625943 56.7088
7.255333366030969 70.5388
7.277677189091925 127.396
7.300038718428332 177.667
7.322400526130865 150.351
7.344745183422596 91.4927
7.367107550224791 62.2786
7.389452767901992 56.3144
7.411815697249891 55.2045
7.434161478756298 53.9632
7.456524974096713 54.021
7.478888753837185 53.693999999999996
7.501235387657368 54.3936
7.523599738562711 54.1249
7.545946944825532 54.427
7.568311870344528 54.5588
7.5906770845765665 55.3647
7.613025156078678 56.7424
7.635390950099687 57.6741
7.657739602662809 56.9545
7.680105979923558 55.7571
7.702472650212829 55.5833
7.724822180948224 55.6084
7.747189439655568 55.7655
7.769539560075357 55.5544
7.791907410653562 56.1471
7.81425812420825 56.3502
7.836626570110925 56.115
7.858995315087906 57.1934
7.881346924933401 56.8333
7.903716270417482 57.9248
7.926068482028405 57.9917
7.948438431475253 58.6212
7.9708086843180235 58.9637
7.993161805171116 59.7764
8.015532667162402 60.0224
8.037886398416653 60.9619
8.060257873014221 61.479
8.082629655331942 62.049
8.104984308787587 63.1043
8.127356708900503 66.6646
8.149711981398308 72.5332
8.172085002766314 75.1012
8.194458336181368 71.6626
8.216814543847752 68.7677
8.23918850371002 68.3546
8.26154533906492 69.1879
8.283919928836452 70.5418
8.306277395339652 71.5901
8.328652618483376 72.6182
8.351028159736202 74.8412
8.373386579575245 77.365
8.395762759396959 78.6345
8.418121819038275 83.9711
8.440498640894003 97.2135
8.462875785192262 111.344
8.485235811156207 119.493
8.507613602688501 146.314
8.529974277114228 218.46900000000002
8.552352719347912 340.901
8.574731488360351 606.4490000000001
8.59709314210385 1137.37
8.619472567021075 1869.56
8.64183487789147 2221.54
8.664214962183097 1812.42
8.686577933647762 934.956
8.708958680784317 358.702
8.731339760774953 164.204
8.753703729764451 110.055
8.77608547780821 97.2283
8.798450116065078 94.0454
8.820832535634787 90.9202
8.843215292401656 89.6619
8.865580941199045 88.2439
8.887964374703538 87.391
8.910330701447199 88.4184
8.932714815164482 91.3306
8.955099270424924 90.6472
8.977466620733543 86.8882
8.999851761421976 84.2789
9.022219798361645 82.4952
9.04460562795561 82.0773
9.066991803441677 81.7177
9.089360876979615 81.7529
9.111747746589993 81.5424
9.13411751544971 80.9605
9.156505082664324 80.6123
9.178875550323522 80.7873
9.20126381862328 81.3936
9.223652438908596 81.7275
9.246023961427412 81.2763
9.26841328802173 80.9292
9.290785518039224 80.5472
9.313175554425882 81.4675
9.335565947154315 81.4493
9.357939245086508 81.9786
9.380330352834827 81.4678
9.40270436697103 81.5778
9.425096193225055 81.5878
9.447488380180165 83.1481
9.469863475295412 83.3261
9.492256385987508 83.6571
9.514632206018318 83.8348
9.537025843935714 83.9249
9.559402392368193 84.354
9.581796761000229 85.9529
9.604191496441521 86.7382
9.626569144158516 90.7518
9.648964615551032 95.4098
9.671343000390081 97.0423
9.693739211225699 95.2168
9.716135793237463 92.51799999999999
9.738515290448102 92.2659
9.760912617143402 92.8746
9.783292860202891 93.7096
9.805690935076182 94.7148
9.828089385495742 95.4855
9.850470754023561 98.0938
9.872869957865444 106.34899999999999
9.89525208097539 122.181
9.917652041736662 134.99
9.940052382417589 132.915
9.962435644102392 133.295
9.984836746950979 158.233
10.007220771957746 213.373
10.029622640473708 305.276
10.052007432299963 472.994
10.074410069984072 771.441
10.096813093716005 1254.27
10.119199042482517 1778.36
10.141602840636468 1960.67
10.163989564971628 1566.93
10.186394141051062 898.1389999999999
10.208799107559706 397.05400000000003
10.231187001965623 184.53900000000002
10.253592751657669 124.152
10.275981430388155 111.603
10.298387966769793 111.26799999999999
10.320794897965431 114.008
10.343184759907361 112.92299999999999
10.36559248305461 107.303
10.387983138083852 102.662
10.410391656691655 103.542
10.432800574501677 112.464
10.455192425893369 126.411
10.47760214443012 149.024
10.499994797678786 192.56400000000002
10.522405320453982 272.617
10.54479877906917 393.68199999999996
10.567210109595656 525.128
10.5896218454736 572.22
10.612016518879773 502.76800000000003
10.634429067781074 348.978
10.656824555333241 201.578
10.679237920773568 122.27799999999999
10.701651695961992 95.5859
10.724048411481384 88.1969
10.746463008485165 85.3239
10.768860546937125 83.5281
10.791275969274796 82.0401
10.81369180576079 81.1656
10.836090585366925 79.9946
10.858507252467449 78.8963
10.88090686379991 77.7449
10.903324365036394 77.4723
10.925724811614439 77.3072
10.948143150509463 78.6257
10.970561909719066 78.1983
10.992963615930844 76.3578
11.015383218085756 74.1538
11.037785768347074 72.6176
11.06020621697282 71.8401
11.082627090322113 71.3835
11.105030913430326 71.0374
11.12745263854165 71.9262
11.149857314510728 75.5815
11.172279894912576 81.9959
11.194702904450653 82.5458
11.217108866490921 78.1368
11.239532736615194 73.9514
11.26193956033512 71.5962
11.284364294577085 69.5133
11.306789462371718 67.5465
11.329197585398376 66.501
11.351623622610898 66.2535
11.37403261614354 65.2976
11.396459526308487 65.0185
11.418869393879497 64.7427
11.441297180532617 64.3847
11.463725406927658 64.0053
11.486136592353875 63.986000000000004
11.508565700543707 64.811
11.530977768845315 66.8779
11.553407762368774 67.6678
11.575838200059769 66.9366
11.598251599479612 64.8917
11.620682927815501 63.388000000000005
11.64309721895548 62.7608
11.665529441478206 62.4866
11.687962112597958 62.2017
11.710377748130886 62.4371
11.732811318753434 62.1256
11.755227854859067 62.2124
11.777662328529495 61.8885
11.800079768750786 61.8455
11.822515149015453 61.7177
11.844950984084935 61.7795
11.867369787303163 61.4185
11.889806534289491 61.8086
11.912226250487029 62.108999999999995
11.934663912939751 61.9653
11.9571020346363 62.013000000000005
11.979523127133968 61.5534
12.001962169624331 62.3904
12.024384183972964 63.0058
12.046824150809913 65.8603
12.069264581333726 70.3486
12.091687985297767 75.7618
12.11412934550045 83.9429
12.136553680195208 98.8334
12.158995973632788 122.51
12.181438735204349 153.622
12.20386447284199 189.055
12.226308172985636 208.304
12.24873485024193 199.79
12.271179492516982 167.821
12.293607112949127 124.70100000000001
12.316052700916226 95.3219
12.338498763250042 77.9847
12.360927805303868 69.7107
12.383374818673879 65.7658
12.405804812803074 63.805
12.428252780773262 63.4476
12.45070122756722 63.3371
12.473132656675375 63.1976
12.49558206341869 63.6503
12.518014453510101 63.5232
12.540464823770117 63.5533
12.562915677315177 63.6698
12.58534951575545 64.5733
12.607801338171472 66.7437
12.630236146511358 72.2424
12.652688941369085 77.6024
12.675124723177234 78.0618
12.697578494048786 73.9163
12.720032754458185 69.1055
12.742470003354093 67.1616
12.764925245138771 67.0858
12.787363476431278 67.2265
12.809819703166806 67.571
12.83227642391173 68.0937
12.854716135692716 68.65899999999999
12.877173846755147 69.60300000000001
12.899614549869717 69.7702
12.9220732548287 70.7444
12.94453245827299 70.9571
12.966974655289818 71.9633
12.989434858002571 72.68
13.011878055298721 73.3706
13.034339260862497 74.3192
13.056800969391883 75.6799
13.079245674017244 77.3712
13.101708390774869 78.6936
13.12415410463411 84.4941
13.146617833206086 94.2304
13.169064559883248 105.211
13.191529303857127 118.507
13.213994557076367 139.71
13.236442809902437 176.12
13.258909083908291 232.572
13.28135835851934 300.785
13.30382565690295 375.284
13.326293469022952 425.418
13.348744283242008 421.465
13.371213125129904 351.00699999999995
13.39366497011003 257.428
13.416134845360597 169.22799999999998
13.438605238843131 121.10600000000001
13.46105863690397 102.352
13.483530069144786 100.86
13.505984506951902 105.40799999999999
13.528456981549432 114.17200000000001
13.550929978879088 127.59899999999999
13.573385983253365 151.736
13.595860028340867 191.275
13.618317081455832 247.798
13.64079217790333 308.565
13.663250283359057 359.195
13.685726434770173 380.38
13.708203115221277 336.825
13.730662806148091 260.098
13.75314054697177 181.34900000000002
13.775601299246777 125.375
13.798080104050406 95.5684
13.820559442405358 83.9593
13.843021793671388 80.3208
13.865502201420897 79.0529
13.887965623051947 78.3191
13.910447103807167 77.2885
13.932929122629764 75.7205
13.955394156785959 75.6974
13.977877254034569 74.5972
14.000343367582113 73.8163
14.022827546871707 73.2393
14.045294743423524 72.4983
14.06778000837062 71.9657
14.090265817715476 71.9112
14.112734645763819 71.6183
14.13522154619454 71.1639
14.157691466286913 71.4217
14.180179461423874 71.1977
14.202668005486178 70.5964
14.22513957064374 69.6993
14.247629214846473 69.3596
14.270101881097517 69.3603
14.29259262906496 69.6319
14.315083930490205 70.37100000000001
14.337558255389705 70.788
14.360050666019726 70.563
14.382526101071944 69.5597
14.405019624534942 68.4782
14.427513705993134 68.0532
14.449990813291825 67.9684
14.47248601302899 67.8877
14.49496423954951 67.8195
14.517460561197822 67.827
14.539939910570322 67.5775
14.562437357763558 68.113
14.58493536931253 69.2539
14.607416409993311 70.2928
14.62991555254159 70.9568
14.652397725157423 70.8447
14.674898002342799 69.8882
14.697398848433282 69.1538
14.719882725991326 69.7885
14.74238471217934 70.2355
14.764869730765593 72.8918
14.787372860692983 75.6426
14.809876564079925 79.6618
14.83236330125751 84.8471
14.854868153850365 92.9543
14.877356041159485 106.169
14.899862046604186 124.93299999999999
14.922351087688757 151.877
14.944858249632887 183.551
14.967365991421232 211.59
14.989856770231246 226.408
15.012365673994204 218.31400000000002
15.03485761569738 188.578
15.05736768508665 147.703
15.07987833888692 112.829
15.102372032001655 89.7648
15.124883856909658 76.3823
15.14737872204565 71.3669
15.169891721717274 69.4383
15.192405310371893 69.1868
15.214901940621196 70.1987
15.237416709527137 70.1351
15.259914520936249 70.3108
15.282430473753607 69.3651
15.304947020131227 68.2471
15.327446610371178 66.9802
15.349964346154254 66.1464
15.372465126703139 65.9186
15.394984055556009 65.7065
15.417486030076159 65.6891
15.44000615566487 65.1655
15.462526881230803 65.1258
15.485030653812652 65.4697
15.507552581617434 65.4583
15.530057557334603 65.6432
15.55258069104857 65.2377
15.575104429329837 65.0247
15.597611216864632 64.7047
15.620136166564563 64.7186
15.6426441664095 65.3128
15.665170331202765 67.0
15.687697105158826 69.4658
15.710206930593545 72.5121
15.732734925158933 76.3363
15.755245972089478 82.2774
15.77777519094324 91.0568
15.800287463046663 104.234
15.822817909869592 123.994
15.84534897229804 147.171
15.867863089299354 170.94099999999997
15.890395385222186 191.82299999999998
15.912910736597423 194.546
15.935444269699861 181.329
15.957978423016485 153.355
15.980495633101265 120.589
16.003031029129367 93.1608
16.02554948280019 75.4497
16.048086125229432 67.028
16.070623392487107 64.5198
16.09314371869582 63.9323
16.11568223789321 62.9556
16.13820381691126 61.8332
16.160743591742527 60.901
16.183283996022084 59.9099
16.205807461423195 58.7044
16.228349126881973 58.0066
16.25087385432698 58.1809
16.27341678466365 57.5962
16.29594277784926 57.6455
16.31848697676433 58.005
16.341031811604868 58.306000000000004
16.36355971058487 58.4797
16.3861058195587 58.1341
16.40863499352978 56.9119
16.431182380342005 55.9085
16.453730407713202 55.3863
16.476261501364792 54.8886
16.498810812136167 54.8447
16.52134319004079 54.9695
16.54389378792203 54.7866
16.566445031001553 54.3759
16.588979342490088 54.1897
16.61153187824822 54.1879
16.634067483263312 54.0808
16.656621315414416 54.102
16.679175797408888 53.6811
16.701713349928728 53.8499
16.72426913389191 54.1601
16.74680798922351 54.0668
16.76936507887444 54.3243
16.791905240734874 54.1962
16.814463639794468 54.1192
16.837022695210294 54.0321
16.859564824093756 54.315
16.882125194503903 55.0349
16.904668639217885 55.9098
16.927230328348003 56.2738
16.949792678493612 56.0848
16.972338104193863 55.4292
16.994901778652235 54.9485
17.017448529496576 54.7888
17.040013531998152 54.8757
17.06257920018044 55.1705
17.0851279459922 55.7628
17.107694947817667 56.6541
17.130245028099072 57.3433
17.15281336730298 58.6751
17.17536478578733 60.4544
17.19793446610687 62.6666
17.220504818648422 65.4633
17.243058251703697 69.1856
17.265629950971032 73.6752
17.288184731571736 79.6245
17.310757781306908 84.1752
17.33333150794385 84.2612
17.355888317140174 81.8861
17.37846339986244 77.0319
17.401021565958885 70.708
17.42359800851343 64.5942
17.44617513265564 61.1604
17.468735341390783 59.2234
17.491261035594565 58.0861
17.51396340099364 58.2313
17.536490463869136 58.3598
17.559018209820174 58.1485
17.58154663977963 58.1645
17.604251766089718 58.3777
17.626781572227713 58.6008
17.64931206518155 58.8424
17.671843245885103 59.4816
17.69455114821572 59.6557
17.717083712612634 59.9963
17.739616967569667 60.016000000000005
17.762150914021706 60.2256
17.78486160749854 60.2843
17.807396945166804 60.7462
17.829932977143503 61.3911
17.85246970436452 62.4699
17.875183204129467 64.2722
17.897721330097664 66.3901
17.920260154126645 68.5207
17.942799677153296 71.2206
17.9655159983646 74.8876
17.988056927677544 80.1863
18.010598558807683 87.6355
18.033140892692916 98.0455
18.05586005052525 109.67299999999999
18.07840379824407 121.271
18.10094825154059 130.939
18.12366954819864 137.964
18.146215420998306 135.938
18.16876200220057 127.61399999999999
18.191309292745153 113.63799999999999
18.214033452627167 100.68
18.236582170236648 89.7548
18.259131600016456 84.4067
18.281681742907335 84.8501
18.304408781233683 89.4429
18.32696035875955 95.3745
18.349512652227624 100.508
18.372065662579683 104.193
18.394795594587553 104.49700000000001
18.41735004715306 100.805
18.43990521943684 93.7639
18.46246111238171 84.8924
18.485193953325208 76.0902
18.507751296070428 68.934
18.530309362314178 64.8187
18.552868153000343 62.5523
18.57560391815056 61.4857
18.59816416623245 61.023999999999994
18.620725141597372 60.3841
18.643286845190268 59.9758
18.666025549835414 59.5735
18.688588718427933 59.1064
18.711152618092243 58.8564
18.73389353884365 58.6395
18.75645890921984 58.1387
18.77902501351406 57.7047
18.801591852673102 57.7325
18.824335739722738 57.243
18.846904057212626 57.1451
18.8694731124168 57.0098
18.89204290628315 56.8379
18.914789774966803 56.6904
18.937361054791623 56.3037
18.959933076131318 56.3007
18.982505839934877 56.2157
19.00525570560582 56.1499
19.027829963004184 56.2522
19.05040496572238 56.1006
19.072980714710468 56.132
19.095733592739563 56.1447
19.11831084296757 56.4076
19.140888842324735 56.9315
19.16346759176222 57.1782
19.18622349753803 57.5885
19.208803755869358 58.4725
19.231384767143577 59.3844
19.253966532312948 61.0109
19.276725481241822 62.9111
19.29930876296784 65.64399999999999
19.3218928014549 68.7836
19.34465404436217 72.2865
19.36723960516257 75.3173
19.389825925592426 76.0435
19.412413006605938 74.8607
19.43517731967805 71.05
19.457765930683355 66.5262
19.48035530514408 62.2198
19.50294544401556 58.5485
19.525712842708348 55.9583
19.54830451925909 54.5995
19.570896963095727 53.5407
19.593490175174704 53.2048
19.616260674962184 53.2373
19.638855432416964 52.6958
19.661450960992624 52.8334
19.68404726164677 52.7174
19.706820878021247 52.5468
19.729418731756834 52.793
19.752017360452857 52.6772
19.77461676506804 52.7667
19.797393513540218 52.6729
19.819994478951667 52.9829
19.84259622316767 53.6092
19.8651987471481 54.0263
19.887978643247177 54.1287
19.91058273574792 54.4925
19.933187610901943 55.1205
19.955969879466828 56.1364
19.97857632894404 57.44
20.00118356396599 59.2339
20.023791585494575 61.445
20.046577028914875 64.5464
20.069186632506966 66.6955
20.091797025500632 68.2705
20.114408208858933 68.953
20.137196842715273 68.5689
20.159809615886765 67.0293
20.18242318232135 64.4586
20.20503754298326 62.2709
20.227829382875154 61.3548
20.250445341109344 61.4862
20.27306209647285 62.3964
20.29567964993108 63.6042
20.31847471147704 64.8206
20.34109387027612 65.2447
20.363713830075454 65.0073
20.386334591841646 63.275
20.409132890679302 60.6259
20.431755265564437 57.4694
20.454378445325528 54.9726
20.477002430930366 53.0648
20.499803982716553 51.7353
20.522429589228004 50.8605
20.54505600449589 50.5593
20.567683229489194 50.3322
20.590488049900088 49.8099
20.61311690359731 49.4558
20.63574656993626 49.3235
20.658553853717297 49.0742
20.681185154618298 49.0587
20.703817271080066 49.0056
20.72645020407368 48.6218
20.749260783967177 48.4894
20.771895359337133 48.3184
20.794530754161617 48.341
20.817166969412938 48.3252
20.83998086114876 48.1641
20.86261872660049 48.0368
20.885257415405402 47.9465
20.90789692853701 48.0159
20.930714147864748 47.8105
20.953355319030678 47.961999999999996
20.97599731745334 48.1256
20.99864014410749 47.9034
21.021460706796564 47.8934
21.044105199328826 48.1076
21.06675052302631 48.2501
21.089396678865015 48.4169
21.112220600704806 48.6626
21.134868430275347 49.2361
21.15751709492456 49.3802
21.180166595629693 49.6782
21.202993892429635 50.1329
21.22564507473034 50.7243
21.24829709602816 50.7779
21.27112693608965 50.8208
21.293780644891275 50.658
21.316435195634053 50.0531
21.339090589297417 49.3082
21.361923832041875 48.7718
21.384580921090404 48.3428
21.407238856007325 47.8317
21.429897637773326 47.7696
21.45273429906592 47.6259
21.475394784108598 47.7099
21.498056118951983 47.6169
21.520718304578022 47.8067
21.543558400304388 47.8106
21.566222297108816 48.0634
21.58888704765135 48.1675
21.61155265291521 48.4394
21.63439619898156 48.8689
21.657063523335786 49.0731
21.67973170537063 49.5298
21.7024007460706 50.0353
21.72524775840385 50.8102
21.747918526116475 51.5465
21.770590155457388 52.7743
21.79326264741238 54.3466
21.816113141960237 56.3773
21.838787368860547 58.3247
21.861462461341976 60.417
21.884315579735777 62.3404
21.90699241312273 63.4585
21.92967011506078 63.7359
21.95234868653799 63.4976
21.9752053151131 62.2563
21.997885635446785 60.2811
22.020566828293532 58.5238
22.04324889464272 57.1593
22.066109049404666 55.9144
22.088792872571794 55.3619
22.111477572219204 55.5511
22.1341631493376 55.4661
22.157026846313123 55.0784
22.179714188221507 54.2935
22.202402410582668 53.3388
22.22509151438863 51.9396
22.24795876962584 50.7528
22.270649646204486 49.9159
22.293341407213727 49.4435
22.316034053646906 48.7481
22.338904883215342 48.3735
22.36159931041458 48.3738
22.38429462602756 48.2816
22.40699083104897 48.2594
22.429865251039757 48.2345
22.452563244831367 48.2787
22.47526213102522 48.589
22.49813925616515 48.1736
22.520839937143307 47.9172
22.543541513520587 47.9346
22.56624398629403 47.7266
22.589124730075895 47.7394
22.611829005656723 47.9927
22.63453418063466 47.8184
22.657240256008077 48.0026
22.680124634582935 48.1238
22.70283252079775 48.4439
22.725541310413075 48.7177
22.74825100442868 48.8627
22.771139033969575 49.2961
22.79385054687155 49.6373
22.81656296718292 50.2761
22.83927629590484 51.1791
22.862167992606945 52.2582
22.88488314827121 53.3734
22.907599215359284 54.5468
22.93031619487366 55.6486
22.953211574954405 56.7741
22.975930389478226 57.2911
22.998650119445763 57.5564
23.02137076586092 56.6418
23.044269845560063 55.3692
23.06699233506288 53.8896
23.089715744034912 52.284
23.112617610931565 50.4609
23.135342869061212 49.2333
23.158069049684816 48.5405
23.1807961538087 48.2241
23.20370174880544 48.1705
23.226430710184808 48.1066
23.249160598093425 48.1092
23.271891413539002 48.132
23.294800752937697 48.0552
23.31753343374794 48.3205
23.340267045128353 48.2663
23.36300158808808 48.6832
23.38591468821339 48.9866
23.408651104658304 49.4764
23.431388455719986 50.0521
23.454126742409 50.7767
23.4770436196085 52.0588
23.499783787914662 53.1754
23.522524894889884 54.3064
23.54526694154616 55.4785
23.56818761219047 56.541000000000004
23.59093154860734 57.1927
23.613676427751283 57.227
23.636422250635754 56.3284
23.659346731118656 54.7196
23.68209445191868 52.9298
23.704843119509587 50.8272
23.72759273490623 48.9935
23.750521041644767 47.7003
23.77327256312355 46.5709
23.796025035462787 46.0409
23.818956224555475 45.5554
23.841710609113413 45.4122
23.86446594758979 45.173
23.887222241002014 44.9498
23.910157285144578 44.6221
23.932915498962537 44.7499
23.955674670778713 44.5483
23.978434801611975 44.3099
24.001373717286125 44.0892
24.024135776723917 44.1595
24.046898798245582 43.9725
24.06966278287146 44.0235
24.092605586582614 43.8046
24.115371508023642 43.6194
24.1381383956401 43.3711
24.16090625045381 43.4614
24.183852958731244 43.3604
24.206622758582608 43.1794
24.229393528706886 43.0707
24.252165270127392 43.253
24.27511589952438 43.2142
24.297889594216997 42.8218
24.32066426328598 42.8144
24.34343990775613 42.8205
24.36639447485003 42.5755
24.38917208083877 42.5871
24.41195066531332 42.5341
24.43490819850244 42.522
24.457688750692377 42.3261
24.48047028445616 42.3869
24.503252800821233 42.5723
24.526214300784112 42.6998
24.548998793132213 42.5755
24.57178427117417 42.3696
24.59457073593893 42.4254
24.617536219319863 42.4068
24.64032466834748 42.387
24.663114107195035 42.3018
24.685904536893013 41.9982
24.708874020360852 42.0108
24.731666442613744 42.012
24.754459858818787 41.8565
24.777254270007962 41.7742
24.80022777025625 41.5597
24.82302418230472 41.6203
24.845821592443674 41.6918
24.86862000170663 41.6519
24.891597535453727 41.4856
24.914397953892728 41.5806
24.93719937456671 41.71
24.96000179851076 41.7134
24.98298338249997 41.9333
25.00578782394922 42.1723
25.028593271784167 42.2248
25.05157790644186 42.4327
25.07438537804115 42.8184
25.097193859145293 42.9144
25.120003350792075 43.0343
25.142992065061257 43.5851
25.165803588823465 43.7906
25.18861612625217 44.0002
25.211429678386736 44.0456
25.234422489079968 44.1662
25.257238081693636 44.2332
25.280054692141732 44.2831
25.3028723214652 44.3315
25.325869245420463 44.4945
25.348688923599397 44.4336
25.371509623787006 44.373000000000005
25.394331347025812 44.1604
25.41733240110666 43.6762
25.440156181590016 42.9557
25.46298098826268 42.5455
25.48580682216873 41.9164
25.50881202326435 41.2453
25.53163992281684 40.9213
25.55446885274561 40.7525
25.577298814096377 40.3638
25.600308179121807 40.3132
25.623140214533745 40.383
25.64597328451537 40.2085
25.66898578564376 40.05
25.691820936010206 40.117
25.714657124097695 40.0975
25.737494350954734 40.1506
25.760511045684957 39.9175
25.783350361364224 39.9336
25.806190718969255 39.8866
25.82903211955018 40.007
25.852053024868923 40.0892
25.874896522722523 40.1502
25.897741066713106 39.982
25.920586657892454 40.2165
25.943611790812668 40.2744
25.966459487728237 40.4146
25.989308234998564 40.5143
26.01215803367705 40.8183
26.03518741123814 41.0311
26.05803932412957 41.0801
26.080892291600094 41.1765
26.10374631470478 41.0416
26.12677995397268 41.1136
26.14963609978026 41.1075
26.172493304397875 40.8161
26.19535156888223 40.6601
26.218389486949604 40.2518
26.241249882640123 39.9876
26.26411134137826 39.8341
26.28715248187403 39.7516
26.31001607820869 39.5738
26.3328807407756 39.372
26.35574647063438 39.5063
26.37879191991473 39.3804
26.401659795896734 39.564
26.424528742360263 39.7973
26.447398760366614 39.9231
26.470448535598294 39.9003
26.49332070826805 40.2678
26.516193955675355 40.5541
26.53906827888316 40.6846
26.562122397260108 40.7829
26.584998883685063 41.2122
26.607876449110325 41.4132
26.63075509460056 41.513999999999996
26.65381357334404 41.6232
26.67669439061878 41.5691
26.699576291163382 41.5767
26.722459276044212 41.4872
26.745522132402975 41.1238
26.768407297649354 40.9065
26.791293550442003 40.5528
26.814180891848974 40.3095
26.837248143099337 39.9425
26.860137673466657 39.843
26.88302829566349 39.7621
26.90592001075963 39.5482
26.92899167420566 39.3872
26.951885586870763 38.8903
26.974780595655517 38.6592
26.99785558178161 38.6938
27.020752794605112 38.5096
27.043651106772522 38.294000000000004
27.06655051935668 38.325
27.089629948036183 38.2402
27.112531573292053 38.2073
27.135434302194138 38.2949
27.158338135817015 38.0253
27.181422024430987 37.9343
27.204328079372566 37.9847
27.22723524226965 37.9734
27.250143514198573 38.034
27.273231880156334 37.9726
27.296142382065014 37.8866
27.319053996245536 37.7733
27.341966723775965 37.9496
27.365059584515222 37.942
27.38797455070062 38.1395
27.410890633481237 37.8728
27.433807833936918 37.9148
27.456905206923906 38.0182
27.47982465472398 37.9315
27.502745223449743 38.0701
27.525666914182825 38.1049
27.548768816912457 38.0949
27.571692763693633 37.9281
27.59461783573812 37.8895
27.617723149491244 37.7868
27.640650484125285 37.67
27.66357894728264 37.6492
27.686508540048052 37.5688
27.709618414237887 37.5349
27.732550278321757 37.3411
27.755483275279115 37.3828
27.778417406196485 37.2418
27.801531858397514 37.3667
27.824468269376716 37.3023
27.847405817586786 37.296
27.870344504116094 37.5314
27.893463551932008 37.6789
27.916404527281053 37.8757
27.93934664422563 37.9266
27.962289903855886 37.9595
27.98541356491974 38.2338
28.00835912214229 38.3877
28.03130582533231 38.7638
28.054253675581805 38.7709
28.077381967556104 38.5925
28.100332124185126 38.5489
28.123283431160893 38.4942
28.146235889577238 38.3622
28.169368830154156 38.3331
28.192323603752033 38.1072
28.215279532083304 37.6616
28.238415973016764 37.3597
28.261374223145094 37.325
28.284333631303806 37.0937
28.307294198589954 36.975
28.330435319167677 36.7715
28.353398217078915 36.5384
28.376362277420153 36.186
28.39932750129032 36.0355
28.422473319286713 35.9954
28.44544088262495 36.0607
28.468409612800283 35.8199
28.491379510913497 35.6477
28.51453004413313 35.5072
28.53750229057244 35.4308
28.56047570826344 35.3805
28.583450298308804 35.3867
28.606605564586562 35.2
28.629582511831156 35.3431
28.65256063474956 35.0158
28.675539934446338 35.2793
28.698699951647605 35.2612
28.72168161743193 34.9679
28.74466446331978 34.9543
28.767648490417624 34.989000000000004
28.790813276438353 34.9483
28.813799678527303 34.9712
28.836787265157085 35.0284
28.859955641890075 34.9584
28.882945610203045 34.8949
28.905936766392035 34.9361
28.928929111566863 34.8935
28.952102288520145 34.8517
28.975097024308607 34.7338
28.998092952423807 34.3936
29.021090073977508 34.3708
29.04426806913204 34.4263
29.067267590245258 34.3162
29.090268308143695 34.1446
29.11327022394099 34.1713
29.13645305530891 34.0053
29.159457379627167 34.0028
29.18246290519685 33.9847
29.20546963313352 33.8741
29.22865731875826 33.8937
29.25166646419296 33.92
29.27467681535305 33.7766
29.29768837335608 33.8354
29.320880931312562 33.8555
29.34389491580634 33.867
29.366910110507334 33.8406
29.38992651653503 33.8217
29.41312396492981 33.8494
29.436142806456754 33.769
29.45916286268059 33.5784
29.48236399319994 33.5186
29.50538649169417 33.384
29.528410208259935 33.2424
29.55143514402014 33.1769
29.574641196749695 32.9843
29.597668583816574 32.8498
29.6206971934585 32.7058
29.64372702680042 32.8098
29.666938019934474 32.5977
29.689970313635285 32.5525
29.713003834422636 32.4446
29.73603858342347 32.497
29.759254535188578 32.4055
29.78229175361658 32.4128
29.80533020365064 32.4133
29.82836988641968 32.4132
29.85159081507472 32.3211
29.874632976355343 32.3343
29.89767637376955 32.4064
29.920721008448314 32.175
29.9439469322847 32.1654
29.96699405457564 32.1146
29.9900424175358 32.1787
30.013092022298157 32.1116
30.03632295963995 32.0507
30.059375061131373 32.1249
30.08242840783577 32.1122
30.105483000888153 32.0511
30.128718970092244 32.0267
30.151776069006917 32.0285
30.17483441768648 31.9313
30.198074175317235 31.9442
30.221135036724256 32.0245
30.24419715131772 31.8915
30.267260520236203 31.8696
30.290505341942243 31.8916
30.313571232750228 31.9392
30.336638381310948 31.8795
30.35970678876503 31.7784
30.38295669299435 31.7023
30.40602763151657 31.6546
30.429099832366074 31.7435
30.452173296685572 31.6465
30.47542830191959 31.6791
30.498504306502497 31.6388
30.521581577995562 31.6836
30.544660117543582 31.754
30.56792024229725 31.8284
30.59100133132069 31.7766
30.614083691845494 31.7638
30.637167325018545 31.9164
30.660432587840603 31.9103
30.683518779717886 31.7687
30.70660624769615 31.8918
30.729694992924372 31.8724
30.75296541239743 31.8758
30.77605672557558 31.7745
30.799149319462742 31.6651
30.8224236211637 31.6159
30.845518789950724 31.4468
30.868615242910597 31.4729
30.891712981195973 31.313000000000002
30.91499247215866 31.1906
30.938092794619365 31.0582
30.96119440587579 31.1259
30.984297307082752 31.052
31.00758200598383 30.8939
31.030687500658694 30.894000000000002
31.053794288760695 30.7356
31.076902371446767 30.6874
31.100192296997445 30.7294
31.12330298246119 30.6625
31.14641496599209 30.5623
31.169528248749216 30.5794
31.19282341969534 30.5033
31.215939314557186 30.4788
31.239056512134788 30.5245
31.262175013589378 30.5096
31.28547544871168 30.5112
31.30859657161541 30.3712
31.331719001892175 30.4333
31.35484274070538 30.5207
31.378148458819545 30.5625
31.401274828443725 30.4475
31.424402510106933 30.513
31.447712205419993 30.5971
31.470842524931633 30.4679
31.493974159989783 30.4829
31.51710711176168 30.443
31.54042212308802 30.4227
31.563557722100917 30.3769
31.586694641341655 30.2019
31.609832881979628 30.1469
31.63315322823208 30.0775
31.656294125521327 29.9202
31.679436347728515 29.9279
31.70257989602529 29.8817
31.725905596152327 29.8915
31.74905181052835 29.6601
31.772199354521323 29.8832
31.79534822930507 29.8581
31.818679302290967 29.7674
31.84183085259981 29.764
31.864983737233473 29.752
31.88813795736804 29.8016
31.911474422233013 29.6069
31.934631327356435 29.7056
31.9577895715215 29.666
31.980949155906522 29.6751
32.004291031706956 29.6531
32.027453310562606 29.4408
32.05061693318573 29.3996
32.07396288236386 29.406999999999996
32.09712920658542 29.3621
32.12029687812702 29.318
32.14346589817093 29.2042
32.166817291729984 29.1991
32.18998902288583 29.0765
32.21316210610336 29.0555
32.23633654256711 28.9121
32.259693399663725 28.8891
32.282870556771144 28.7057
32.30604907069099 28.7854
32.329228942610065 28.7402
32.35259128243769 28.6024
32.375773884550505 28.5674
32.398957848235646 28.5561
32.422143174682176 28.4574
32.445511016471215 28.4165
32.468699082679954 28.3359
32.49188851523011 28.385
32.51507931531304 28.3138
32.538452678331 28.2636
32.56164622776311 28.2035
32.58484114831493 28.1813
32.60803744118015 28.2194
32.631416344731896 28.2291
32.654615396551876 28.1059
32.67781582427913 28.0448
32.701198898634416 27.9639
32.72440209253756 28.015
32.747606665947124 27.982
32.77081262006088 27.811999999999998
32.79420126883317 27.8461
32.81740999876112 27.8441
32.840620112999424 27.7145
32.86383161274818 27.6841
32.88722585534586 27.6579
32.91044014056596 27.7494
32.933655814909734 27.752
32.95687287957963 27.7045
32.98027273544904 27.5904
33.00349259526636 27.4883
33.026713849030116 27.5183
33.04993649794511 27.5194
33.073341986570746 27.4817
33.09656744032826 27.5066
33.11979429286444 27.5252
33.14302254538647 27.5167
33.166433686291185 27.4402
33.18966475336992 27.3473
33.212897224069096 27.265
33.23613109959831 27.2969
33.259547912343415 27.2597
33.2827846121627 27.2611
33.306022720453775 27.1903
33.32926223842861 27.0485
33.352684742614166 27.0463
33.37592709463173 26.9552
33.399170859982064 26.9828
33.422597648419426 26.8851
33.44584425514446 26.7325
33.46909227885668 26.7786
33.4923417207723 26.671999999999997
33.51577423505344 26.726999999999997
33.539026528130385 26.6579
33.56228024307245 26.5093
33.585535381098246 26.4288
33.60897364093058 26.4292
33.63223163992385 26.4749
33.6554910656699 26.3839
33.678751919389796 26.4048
33.702195944520106 26.2593
33.72545966903325 26.2647
33.74872482519663 26.1189
33.771991414233746 26.1756
33.79544122444841 26.1784
33.81871069412428 26.119
33.84198160035767 26.1102
33.86525394437455 26.0662
33.88870955949969 25.9941
33.911984794020626 26.0066
33.93526147001624 25.9256
33.958539588715006 25.8305
33.98200102861669 25.6993
34.0052820477047 25.7202
34.02856451319451 25.7975
34.05203033759056 25.6259
34.07531571090147 25.5967
34.09860253431845 25.6628
34.121890809074316 25.5741
34.145362493118924 25.5581
34.16865368561615 25.4495
34.191946333164054 25.4868
34.21524043699793 25.5028
34.23871800066799 25.4396
34.26201503218366 25.3718
34.28531352370466 25.3175
34.30861347646881 25.3208
34.33209693978188 25.3137
34.3553998301885 25.2582
34.378704185565205 25.1848
34.402010007152356 25.1394
34.42549939016683 25.1061
34.44880815937748 25.0433
34.472118398533134 24.9052
34.49543010887669 24.8809
34.51892543169198 24.8103
34.54224009966052 24.8158
34.56555624255917 24.8102
34.58887386163339 24.7856
34.61237514439016 24.6744
34.6356957311114 24.6555
34.65901779775809 24.6058
34.68252356662995 24.5979
34.705848608458616 24.5657
34.72917513396849 24.5543
34.75250314440949 24.4956
34.77601490857862 24.4388
34.799345904259795 24.3853
34.82267838863559 24.3742
34.846012362958525 24.3637
34.869530142679984 24.3588
34.89286711232212 24.3982
34.91620557568269 24.3014
34.93954553401677 24.2816
34.9630693495876 24.2119
34.986412313340814 24.2888
35.00975677584668 24.1948
35.033102738362956 24.0732
35.05663261012228 23.997
35.0799815881786 24.0153
35.10333207003229 23.9906
35.12668405694369 23.9985
35.150220005273056 23.9343
35.17357501786656 24.0055
35.19693153931268 23.8888
35.220289570874385 23.8502
35.24383161619786 23.8779
35.267192683604904 23.8465
35.290555264930376 23.8459
35.314101899412165 23.8158
35.33746752422433 23.6802
35.36083466676374 23.6849
35.38420332829803 23.6502
35.407756095629054 23.6684
35.43112781085063 23.6586
35.45450104888391 23.6842
35.477875810999194 23.6789
35.50143473172161 23.5777
35.52481255774625 23.6606
35.54819191167777 23.4914
35.57157279478914 23.3891
35.595137889488406 23.4636
35.61852184675279 23.4195
35.641907337029984 23.4127
35.665294361595684 23.3275
35.68886565090076 23.2788
35.7122557598848 23.2334
35.73564740699838 23.2513
35.759040593519934 23.2865
35.78261809810353 23.1899
35.80601437933051 23.0514
35.829412203814705 23.0459
35.85281157283719 22.9744
35.876395313415884 23.041999999999998
35.8997977874528 22.9571
35.92320180988546 22.9119
35.946790244133936 22.8559
35.97019737933222 22.826999999999998
35.993606066789866 22.7692
36.01701630779276 22.753
36.04061101440684 22.7448
36.06402437852291 22.7638
36.08743930005611 22.7474
36.1108557802951 22.6378
36.13445678011326 22.6823
36.15787639383515 22.6096
36.18129757014299 22.4951
36.20472031032821 22.479
36.22832762423364 22.4184
36.25175350829375 22.3713
36.275180960119776 22.412
36.298609981005924 22.4961
36.32222362992669 22.3994
36.34565580510207 22.3327
36.36908955323448 22.3525
36.39252487562093 22.2712
36.416144880530226 22.1864
36.43958336764275 22.1922
36.463023432914625 22.1437
36.486465077645676 22.1157
36.51009145956204 22.1591
36.53353627947859 22.0903
36.55698268276811 22.0446
36.58043067073321 22.0774
36.60406345072071 21.9785
36.62751462435344 21.9533
36.65096738658405 21.9302
36.67460498210655 21.8835
36.69806093788647 21.7676
36.72151848619297 21.726999999999997
36.744977628333636 21.7794
36.76862165890998 21.6802
36.79208400512205 21.7381
36.81554794910557 21.7152
36.83901349217101 21.6306
36.862663978991606 21.5372
36.88613273667352 21.5785
36.90960309738324 21.548000000000002
36.933075062434064 21.4669
36.95673202673572 21.4397
36.98020721697122 21.4235
37.003684015502365 21.398000000000003
37.027162423645365 21.3748
37.050825886711465 21.2515
37.07430753063053 21.1618
37.09779078812467 21.224
37.121275660513014 21.205
37.144945643673694 21.1654
37.16843376245278 21.1537
37.19192350009803 21.1752
37.215414857931435 21.0509
37.239091382563885 21.0165
37.262585997426164 20.9883
37.28608223645736 21.0433
37.309763684451696 20.9293
37.33326318851098 20.949
37.356764320726555 20.8615
37.380267082425526 20.9315
37.40395510942588 20.8537
37.42746114683234 20.8135
37.45096881771841 20.728
37.474478123414166 20.733
37.49817275092816 20.6656
37.52168534303452 20.658
37.54519957395567 20.5814
37.568715445024665 20.5368
37.592416694607714 20.4734
37.61593586281424 20.5981
37.63945667518264 20.5857
37.66297913304891 20.5066
37.68668702630454 20.5077
37.710212792059274 20.3563
37.733740207334854 20.3277
37.757269273470364 20.2909
37.780983832050374 20.2656
37.80451621684926 20.2502
37.82805025654007 20.269000000000002
37.851585952464795 20.2543
37.8753071980695 20.0888
37.89884622345676 20.0798
37.92238690911902 20.0996
37.94611318753442 20.022000000000002
37.969657210779765 20.0381
37.99320289834801 20.0101
38.016750251586465 19.9306
38.04048325513017 19.8329
38.06403395679343 19.8653
38.087586328183946 19.8302
38.11114037065203 19.8245
38.13488012115898 19.8148
38.1584375229181 19.7243
38.181996599821 19.7387
38.205557353221124 19.6628
38.229303872575656 19.6862
38.2528679961576 19.674
38.27643380031219 19.5933
38.30000128639589 19.6229
38.32375459653193 19.5946
38.34732546371299 19.578
38.37089801690786 19.4424
38.39447225747609 19.4002
38.418232380377425 19.3863
38.441810012983396 19.386
38.46538933705673 19.3824
38.488970353960084 19.3914
38.51273731166058 19.2888
38.536321731567014 19.3042
38.55990784840681 19.2844
38.58367995004091 19.2401
38.60726947812959 19.1649
38.63086070726198 19.2013
38.654453638806274 19.1985
38.678232613930824 19.1569
38.70182896773327 19.0692
38.72542702806741 18.9659
38.7490267963045 18.9885
38.77281266709232 18.9555
38.79641586862214 18.9139
38.8200207821842 18.8636
38.843627409152944 18.9101
38.86742019782782 18.8448
38.891030269149255 18.8156
38.914642058016156 18.7697
38.938255565806124 18.7203
38.96205529464307 18.6922
38.98567225787121 18.7679
39.00929094417078 18.7602
39.03291135492255 18.7389
39.05671804624804 18.6149
39.080341923549106 18.5918
39.103967529460334 18.5783
39.127594865365744 18.5465
39.15140854155791 18.4867
39.17503935514948 18.5413
39.19867190290282 18.4542
39.22249083587951 18.4027
39.24612686969409 18.3814
39.269764641845306 18.4159
39.293404153722804 18.375999999999998
39.317230110864074 18.3186
39.34087311998506 18.2261
39.36451787301696 18.225
39.388164371352595 18.1829
39.41199737518003 18.1564
39.43564738196752 18.1361
39.45929913825317 18.1108
39.48295264543308 18.1091
39.506792718520884 18.0825
39.530449745387216 18.0523
39.55410852735203 17.9541
39.57776906581474 18.0126
39.60161623079 18.002
39.625280300200025 17.9538
39.64894613032202 17.8713
39.67261372255866 17.9163
39.6964680021016 17.8123
39.72013913657293 17.8102
39.74381203738292 17.7569
39.76748670593756 17.7879
39.79134812278169 17.7666
39.81502634488497 17.6639
39.83870633896685 17.6881
39.862388106436654 17.6051
39.88625668336918 17.5984
39.90994201572829 17.6503
39.933629125719285 17.555
39.957503091207826 17.5362
39.9811937746168 17.509
40.00488623990914 17.4954
40.02858048850006 17.459
40.05246165409549 17.4327
40.076159487492085 17.3819
40.099859108448875 17.3869
40.123560518384345 17.2956
40.1474489070226 17.3086
40.171153913178564 17.2484
40.194860712584955 17.2274
40.2185693066637 17.3009
40.242464941335314 17.1812
40.26617714307655 17.1637
40.289891143772046 17.136
40.3136069448471 17.0969
40.33750984859743 17.0815
40.3612292688043 17.0695
40.3849504936829 16.9911
40.40867352466194 17.0094
40.43258372059144 16.9335
40.45631038219906 16.9076
40.48003885420956 16.8839
40.503769138055105 16.9427
40.52768664931955 16.8875
40.55142057531802 16.8927
40.57515631746428 16.8759
40.599079334038514 16.8058
40.62281872700477 16.752
40.64655994043941 16.7257
40.67030297578061 16.7053
40.69423334835778 16.706
40.71798004609188 16.6636
40.74172857006355 16.6037
40.76547892171441 16.6333
40.7894166736039 16.5972
40.813170699248566 16.544
40.83692655691388 16.5692
40.86068424804498 16.5485
40.884629402612525 16.5151
40.908390779366385 16.4719
40.932153993938 16.4489
40.95591904777605 16.4421
40.979871628443995 16.4769
41.003640379561936 16.377
41.02741097430883 16.3121
41.05118341413683 16.334
41.075143444384416 16.2763
41.098919593177826 16.2381
41.1226975914255 16.2599
41.14647744058318 16.2195
41.170444943946755 16.1727
41.19422851378379 16.1033
41.218013938914645 16.0832
41.24198706625173 16.0743
41.26577622087193 16.0317
41.289567235177785 16.0617
41.31336011063129 15.9549
41.337340752422875 15.9581
41.361137369129835 15.9864
41.38493585138705 15.912
41.40873620066004 15.9569
41.43272438060107 15.9404
41.45652848292052 15.8608
41.48033445666918 15.8226
41.50414230331616 15.7736
41.528138045159764 15.8076
41.551949656675205 15.6722
41.575763145513235 15.7149
41.59957851314666 15.6711
41.62358184070442 15.6806
41.64740098505737 15.6789
41.6712220126409 15.5838
41.69504492493139 15.5478
41.71905586207357 15.5579
41.74288256296395 15.5118
41.766711153007456 15.4719
41.79054163368412 15.4899
41.814560204340054 15.4563
41.838394485526365 15.4568
41.86223066180303 15.364
41.88625497706819 15.3516
41.910094962812 15.3591
41.93393684811168 15.3487
41.95778063445365 15.2841
41.981812625263366 15.2274
42.00566023303407 15.232000000000001
42.029509746323676 15.2172
42.05336116662236 15.2502
42.077400857069705 15.2032
42.10125611078846 15.1695
42.12511327600405 15.168
42.14897235421036 15.0577
42.173019768448455 15.0134
42.19688269209613 14.9977
42.22074753323349 15.0407
42.24461429335818 14.9753
42.268669455600495 14.9657
42.292540073217886 14.9485
42.31641261433284 14.9481
42.34028708044675 14.8536
42.36435001496739 14.8824
42.38822835065557 14.8403
42.41210861586426 14.7926
42.4359908120986 14.794
42.46006154323262 14.7675
42.48394762115317 14.6926
42.507835634632315 14.7221
42.531912233047436 14.6755
42.55580413732265 14.6443
42.579697981698 14.6786
42.60359376768525 14.6404
42.62767820545945 14.6479
42.65157789440821 14.5729
42.67547952952185 14.6291
42.699383112316 14.557
42.72347541395347 14.5155
42.74738291190531 14.4393
42.771292362102166 14.4415
42.795203766063516 14.4245
42.819303956130405 14.3938
42.843219287476536 14.3659
42.86713657716324 14.3537
42.89105582671383 14.3302
42.91516392983864 14.270999999999999
42.939087119032166 14.307
42.963012272677304 14.2614
42.98693939230129 14.2546
43.01105543317513 14.2012
43.034986504731386 14.1506
43.05891954686589 14.1409
43.08285456110972 14.1454
43.10697856448665 14.0562
43.130917542983475 14.0398
43.15485849820081 14.0581
43.17880143167367 13.9794
43.20293342237094 13.9806
43.226880332449 14.0182
43.25082922540554 14.0006
43.27496722682525 13.9457
43.29892010567796 13.8768
43.32287497204102 13.8987
43.34683182745632 13.8704
43.370977859791836 13.8218
43.39493871351105 13.8138
43.41890156092628 13.8061
43.44286640358341 13.745
43.46702049182749 13.7006
43.49098934522816 13.7257
43.51496019852649 13.7482
43.5389330532723 13.6577
43.56309522248204 13.6136
43.58707210044314 13.6515
43.61105098451946 13.595
43.63503187626491 13.5871
43.659202151562134 13.5483
43.68318707902681 13.5302
43.70717401884041 13.535
43.731162972560874 13.4614
43.75534137913236 13.4508
43.779334381108384 13.445
43.803329401683186 13.3936
43.82732644241872 13.402000000000001
43.8515130055166 13.4355
43.87551410707659 13.3364
43.89951723350145 13.3333
43.923709934595614 13.2848
43.94771713129917 13.2302
43.97172635758096 13.2119
43.99573761501002 13.2508
44.0199385169922 13.1823
44.04395385732619 13.1865
44.067971233533086 13.1565
44.09199064718605 13.1256
44.11619977548961 13.0953
44.14022328470671 13.1055
44.16424883610785 13.0913
44.18827643127035 13.0829
44.21249381139513 13.0563
44.236525514814076 13.0298
44.26055926674478 13.0405
44.28459506876863 12.9971
44.3088207262813 12.9255
44.33286064928722 12.883
44.35690262714919 12.8706
44.38094666145278 12.8837
44.4051806219871 12.8119
44.42922879003185 12.7687
44.45327901929361 12.7997
44.477331311362136 12.767999999999999
44.501573600619416 12.7335
44.525630039221795 12.7545
44.54968854541895 12.7075
44.573937102200176 12.6631
44.5979997645541 12.675
44.622064499300315 12.6462
44.64613130803592 12.5963
44.67038823869318 12.5936
44.69445921643748 12.5992
44.718532272981385 12.5667
44.742607409926194 12.5498
44.76687274034801 12.5517
44.79095205918753 12.4478
44.81503346325094 12.4648
44.839116954143876 12.4827
44.86339071028742 12.4229
44.88747839599524 12.3863
44.91156817336837 12.3431
44.93566004401666 12.3208
44.959942251908146 12.3207
44.984038330325966 12.3395
45.00813650686762 12.3044
45.03223678314731 12.3053
45.05652746888232 12.1906
45.08063196592069 12.2559
45.104738567558705 12.2149
45.128847275414856 12.1798
45.15314646515866 12.1279
45.17725940679741 12.1434
45.20137445952892 12.0969
45.22568004865265 12.1066
45.24979934496396 12.1044
45.27392075725247 12.0942
45.29804428714431 12.0313
45.322358426247604 12.005
45.346486212804315 11.9674
45.370616121861914 11.984000000000002
45.39474815505086 11.9553
45.41907087049246 11.9201
45.4432071734666 11.9065
45.46734560548283 11.9177
45.49148616817604 11.9224
45.51581748638564 11.8497
45.5399623320197 11.8099
45.56410931325473 11.7775
45.58825843173002 11.7813
45.61259837920865 11.7879
45.636751793816 11.7469
45.66090735060093 11.7469
45.68506505120716 11.6826
45.7094136545275 11.6621
45.73357566449271 11.6234
45.75773982322992 11.675999999999998
45.78190613238733 11.6464
45.806263418194064 11.5739
45.83043404997326 11.5803
45.85460683713677 11.5774
45.87897065658495 11.5264
45.90314777634752 11.4856
45.92732705646868 11.4577
45.9515084986045 11.4523
45.97588104735473 11.4508
46.00006683541565 11.4253
46.02425479047904 11.4026
46.04844491420549 11.4164
46.0728262191024 11.3939
46.09702070211635 11.3495
46.12121735879483 11.3377
46.14541619080294 11.3464
46.169806278764455 11.3206
46.194009483459034 11.2501
46.21821486849841 11.2229
46.24242243555223 11.2396
46.266821333570014 11.2124
46.29103328674601 11.2187
46.31524742696538 11.1717
46.33946375590237 11.1124
46.36387149104216 11.126
46.38809221957392 11.0958
46.41231514186606 11.110999999999999
46.436540259597464 11.1008
46.460956858999374 11.0285
46.48518638983522 11.0288
46.509418121166966 11.0143
46.533652054678114 10.9488
46.55807754555709 10.9263
46.58231590571962 10.9379
46.60655647313217 10.92
46.630988654873654 10.9139
46.655233659129024 10.8926
46.67948087571551 10.8702
46.70373030632484 10.8593
46.72817142736393 10.849
46.752425308428684 10.8155
46.77668140861147 10.7839
46.80093972960865 10.7441
46.82538981736788 10.7316
46.849652602470904 10.7223
46.87391761349769 10.7186
46.8981848521493 10.6993
46.9226439341274 10.6568
46.946915650573224 10.648
46.97118959976749 10.6471
46.99546578341598 10.6181
47.019933887188216 10.6134
47.04421456235744 10.5924
47.06849747711879 10.5677
47.09278263318286 10.5363
47.11725978640143 10.4766
47.14154944775105 10.5243
47.165841355555656 10.4875
47.1901355115306 10.4464
47.214621741924994 10.4577
47.23892041698887 10.4139
47.26322134538975 10.356
47.28771440635075 10.3747
47.31201986422527 10.3828
47.33632758061436 10.3334
47.360637557241866 10.2897
47.38513974410611 10.3102
47.40945426407847 10.2945
47.43377104948137 10.2669
47.45809010204344 10.2616
47.48260144275502 10.2263
47.506925052572285 10.2131
47.53125093475548 10.1987
47.55557909103813 10.1777
47.58009961361992 10.118
47.60443234110732 10.1127
47.62876734791564 10.0747
47.65310463578333 10.0632
47.6776343683373 10.085
47.7019762413987 10.0471
47.72632040075572 10.0299
47.75066684815169 10.0089
47.77520581885936 9.98749
47.799556865477655 9.96355
47.823910205386 9.94232
47.84826584033272 9.95149
47.87281407745551 9.91525
47.89717432569297 9.90128
47.92153687423484 9.89208
47.94609208429692 9.8726
47.97045925671401 9.90595
47.99482873471275 9.823189999999999
48.01920052005013 9.81
48.04376504619224 9.810130000000001
48.068141469543484 9.8305
48.09252020552573 9.766860000000001
48.11690125590099 9.76317
48.1414751266064 9.72343
48.16586082917454 9.682030000000001
48.19024885144316 9.683910000000001
48.2146391951793 9.65572
48.239222439012764 9.64756
48.26361744916137 9.62657
48.28801478610016 9.65588
48.31241445160131 9.60398
48.337007097209366 9.57037
48.36141144338331 9.56837
48.38581812345755 9.521289999999999
48.41022713920929 9.566130000000001
48.434829215320704 9.55294
48.45924292604658 9.48227
48.48365897780325 9.52634
48.50807737237308 9.45955
48.532688907799276 9.447289999999999
48.55711201168574 9.43586
48.581537463754074 9.43516
48.60615611725119 9.41657
48.63058628942721 9.36275
48.65501881516546 9.38185
48.6794536962573 9.33965
48.70408185970339 9.31452
48.72852147531801 9.294960000000001
48.75296345168211 9.294830000000001
48.77740779059232 9.27009
48.80204549302823 9.2968
48.82649458091802 9.27776
48.85094603676547 9.2206
48.87539986237231 9.2119
48.90004713292306 9.17778
48.92450572200832 9.16213
48.94896668628025 9.1508
48.97343002754588 9.153739999999999
48.99808689542115 9.128860000000001
49.02255501470614 9.11829
49.04702551642794 9.07802
49.0714984023988 9.068610000000001
49.096164896893235 9.044039999999999
49.120642575466796 9.03207
49.145122643748394 9.02887
49.16960510355558 9.02628
49.19428125404938 9.00635
49.2187685210852 8.97298
49.243258185121555 8.94587
49.26794160167084 8.90926
49.2924360839405 8.91244
49.31693296869764 8.91352
49.34143225776915 8.867280000000001
49.36612538195438 8.82492
49.39062950396021 8.831719999999999
49.41513603578346 8.83767
49.4396449792564 8.80326
49.46434784069503 8.79611
49.488861631846454 8.79608
49.513377840166804 8.75796
49.537896467493745 8.726
49.56260909589029 8.69882
49.587132585683285 8.71216
49.611658500018365 8.701889999999999
49.636186840738596 8.69559
49.66090926588511 8.64917
49.685442483902584 8.65208
49.70997813385706 8.61046
49.734516217597076 8.5824
49.75924846937352 8.62562
49.7837914452858 8.59682
49.80833686055187 8.54852
49.83288471702571 8.54197
49.85762682540054 8.5467
49.882179588965734 8.50937
49.9067347993235 8.5122
49.93129245833333 8.476180000000001
49.95604445336378 8.48925
49.98060703442832 8.48081
50.005172069746266 8.41136
50.02993150438364 8.44212
50.05450147301533 8.381210000000001
50.07907390151433 8.38619
50.10364879174981 8.39138
50.12841816587289 8.35741
50.1529980044635 8.34849
50.17758031042124 8.30741
50.20216508562089 8.29521
50.22694442953363 8.31061
50.25153416817468 8.29044
50.27612638170508 8.27029
50.300721072005196 8.207139999999999
50.325510416102105 8.202860000000001
50.350110084975064 8.2321
50.37471223628208 8.18395
50.39931687190919 8.1856
50.424116246675766 8.16976
50.44872587605249 8.17778
50.47333799543065 8.10922
50.49795260670191 8.1168
50.52276204271512 8.073830000000001
50.54738166295838 8.05228
50.57200378079314 8.079939999999999
50.596628398116835 8.031080000000001
50.62144792604559 8.02203
50.646077567609396 8.00577
50.670709714377715 7.99288
50.69553683636198 7.96572
50.72017401885922 7.930839999999999
50.7448137122895 7.97359
50.76945591856022 7.96155
50.79429318636823 7.962039999999999
50.818940443716784 7.90643
50.84359021965163 7.87105
50.868242516085964 7.86118
50.893089960641895 7.88952
50.917747323549435 7.85589
50.94240721271973 7.8411
50.96706963007175 7.798780000000001
50.99192728239342 7.802239999999999
51.01659478166073 7.80721
51.04126481489051 7.807410000000001
51.06593738400761 7.79243
51.090805275207074 7.7708
51.11548294172845 7.721080000000001
51.14016314993547 7.677639999999999
51.164845901758845 7.69009
51.18972406304274 7.6471
51.21441192780656 7.61183
51.23910234200271 7.622089999999999
51.2637953075678 7.623360000000001
51.288683770237945 7.61333
51.31338186432707 7.603280000000001
51.33808251561888 7.60686
51.362978729967345 7.57694
51.387684521509755 7.539910000000001
51.41239287610203 7.56043
51.437103795691165 7.53932
51.46201036644977 7.50205
51.486726441956634 7.493410000000001
51.51144508832545 7.49215
51.536166307509156 7.47697
51.56108326624387 7.46917
51.58580965706056 7.46634
51.61053862657523 7.398619999999999
51.635270176746864 7.40419
51.66019755512065 7.3768199999999995
51.68493429268881 7.355230000000001
51.70967361681515 7.3352
51.73441552946465 7.3389
51.759353359237934 7.33098
51.7841004750961 7.3281
51.80885018539685 7.29069
51.833602492111254 7.271960000000001
51.8585508051424 7.2712
51.883308330926425 7.24255
51.90806845906181 7.26398
51.932831191525715 7.23066
51.95779001977161 7.20627
51.98255798721516 7.19724
52.00732856494335 7.168089999999999
52.03229530577543 7.176939999999999
52.057071130455945 7.13733
52.081849571391054 7.13785
52.106630630568695 7.11526
52.13160794279417 7.09145
52.15639426492067 7.11256
52.18118321127822 7.0789800000000005
52.205974783860896 7.06035
52.23096269971011 7.051830000000001
52.255759551287994 7.0290300000000006
52.280559035098186 7.015460000000001
52.30536115314103 7.0316399999999994
52.33035970494467 7.03065
52.35516711807904 7.00393
52.37997717147198 6.9391300000000005
52.40478986713005 6.937060000000001
52.42979908731974 6.89935
52.454617094216 6.90826
52.47943774942214 6.8910800000000005
52.50426105495102 6.88845
52.529280976059844 6.87115
52.554109609024096 6.84105
52.57894089837482 6.85785
52.60377484613117 6.788460000000001
52.62880550079408 6.8426800000000005
52.65364479223379 6.800910000000001
52.67848674816189 6.74793
52.70352547971946 6.7401800000000005
52.72837279155837 6.76122
52.753222773982785 6.76128
52.778075429022984 6.7856
52.80312495150885 6.713439999999999
52.827982978797436 6.69774
52.85284368481815 6.68968
52.87770707160767 6.61702
52.90276741793998 6.65079
52.92763619336701 6.622269999999999
52.952507655698504 6.60878
52.977381806977576 6.63743
53.00245301017842 6.60348
53.02733256653592 6.58179
53.052214817996074 6.6133
53.077099766608484 6.59583
53.102181859804446 6.54047
53.127072229988265 6.575880000000001
53.15196530349892 6.54844
53.17686108239249 6.496980000000001
53.20195409881522 6.5084599999999995
53.22685531582556 6.47489
53.25175924441303 6.42169
53.27666588664027 6.44879
53.30176985962693 6.426419999999999
53.3266819565689 6.41196
53.35159677336455 6.43529
53.376514312083096 6.40306
53.40162927507703 6.4297699999999995
53.42655228516116 6.39783
53.45147802340193 6.3830800000000005
53.47660125628886 6.31427
53.50153247842639 6.33465
53.52646643496923 6.27128
53.55140312799818 6.28854
53.576537409691696 6.281969999999999
53.60147960336152 6.2522400000000005
53.626424539786164 6.22634
53.65137222105307 6.28179
53.67651758529126 6.20941
53.70147078399681 6.1823
53.72642673383343 6.20297
53.75138543689533 6.149719999999999
53.776541917524526 6.1492
53.801506154876755 6.17252
53.826473151763246 6.1515699999999995
53.851442910284916 6.15161
53.87661054126026 6.14797
53.9015858509782 6.16429
53.92656392866066 6.11109
53.95154477641532 6.08777
53.976723591801296 6.0768
54.00171000771266 6.08427
54.02669920004598 6.08047
54.051691170915745 6.01932
54.076881204886796 6.0092099999999995
54.101878760928514 6.030469999999999
54.12687910187696 5.9875300000000005
54.152077577768296 5.9572400000000005
54.1770835166946 5.96106
54.20209224691339 5.9523
54.22710377055121 5.94431
54.25231352511594 5.93119
54.27733066384342 5.880730000000001
54.30235060239643 5.8558
54.32737334290836 5.84983
54.35259441062629 5.81651
54.377622783395324 5.8624
54.40265396455061 5.86116
54.42768795623251 5.86451
54.45292037169559 5.80788
54.477960012857906 5.775119999999999
54.50300247099511 5.71666
54.52804774825457 5.71773
54.55329154616743 5.71967
54.57834249018678 5.70255
54.6033962597977 5.69707
54.6284528571545 5.700880000000001
54.653708072335164 5.65191
54.67877035378786 5.6356
54.70383546947698 5.58831
54.72890342156389 5.58496
54.7541700889442 5.49235
54.77924374251975 5.49445
54.8043202390049 5.51428
54.82959552413022 5.52229
54.8546777351945 5.4553
54.87976279569621 5.43358
54.90485070780914 5.44067
54.930137506558005 5.40303
54.95523115074295 5.45365
54.98032765308844 5.41815
55.005427015775496 5.40945
55.03072536339621 5.359780000000001
55.05583047570572 5.3167599999999995
55.080938454927676 5.32569
55.10604930325027 5.3164
55.131359235107396 5.2555
55.15647585066083 5.23146
55.181595341907496 5.21321
55.20671771104285 5.1835
55.232039262617704 5.17435
55.25716741665048 5.17331
55.28229845518636 5.14445
55.30743238042802 5.11279
55.33276558731939 5.08847
55.357905315183636 5.06612
55.383047936390035 5.052569999999999
55.40819345314859 5.00476
55.433538351073295 4.98511
55.458689688238415 4.98404
55.483843927614096 4.9313400000000005
55.509197623043605 4.94423
55.53435769621134 4.88163
55.55952067826466 4.86562
55.5846865714265 4.892930000000001
55.61005202069737 4.85709
55.63522376553902 4.85506
55.66039842818645 4.78998
55.68557601087004 4.79661
55.7109532500271 4.7701
55.73613670233794 4.77915
