TT I
1.2716486653135266 7.32763
1.2939594142134223 7.20397
1.3162702121660406 6.6382
1.3385810600174564 6.553059999999999
1.3608919586137629 7.03143
1.383202908801069 6.7608
1.405513911425503 5.7789
1.4278249673332093 6.47293
1.4501343378461518 6.65084
1.4724455028545926 6.40165
1.4947567236847858 5.74374
1.517068001182951 5.67809
1.5393793361953272 5.98307
1.5616907295681737 5.18388
1.5840021821477681 5.76474
1.60631369478041 5.58145
1.6286252683124185 5.46796
1.6509369035901333 5.577000000000001
1.6732468618895553 5.73441
1.695558623192809 4.7365
1.7178704487808514 5.19094
1.7401823395001077 5.20867
1.7625012545597203 5.43896
1.7848028405262486 5.18689
1.8071218901122095 4.74506
1.8294236121921872 4.77445
1.8517427996910911 4.90839
1.8740620574440425 4.82262
1.8963639900671978 4.46056
1.9186833908139995 4.7039599999999995
1.9409854680117449 4.86409
1.9633050151394713 5.15099
1.9856246367570705 4.661490000000001
2.0079269371922672 4.96704
2.03024671027244 4.55714
2.0525491637446027 4.42994
2.074869091674931 4.41498
2.097171701569106 4.5555
2.1194917877373847 5.3235
2.141811954326636 5.14905
2.164114805233074 4.68529
2.186435135143035 4.83509
2.208738150935709 7.825539999999999
2.231058647554722 13.9927
2.2533792288321184 11.4181
2.275682498336085 6.67055
2.298003251406138 5.15727
2.3203066942619714 5.22878
2.3426276225136022 4.49339
2.3649486396617507 5.58257
2.387252348930071 5.491619999999999
2.4095735463442893 5.67626
2.4318774374315884 5.86431
2.4541988185014043 5.9373
2.476502894794693 6.8404300000000005
2.498824462909887 6.210459999999999
2.521146125856138 6.987710000000001
2.5434504863470337 7.16409
2.5657723414244717 7.048439999999999
2.588076895590662 7.63875
2.610398946189713 7.815230000000001
2.6327210958598384 7.281960000000001
2.6550259469304716 6.62409
2.6773482972090137 7.482260000000001
2.6996533504259 7.33126
2.7219759047039602 8.27168
2.744298562293959 7.84375
2.7666039251246595 7.581689999999999
2.7889267918020164 7.821210000000001
2.8112323652516555 7.822360000000001
2.833555444408179 7.455010000000001
2.8558786311183852 7.76107
2.8781845268938557 8.4457
2.9005079311721484 8.82751
2.9228140460410397 9.0448
2.9451376712799635 9.7774
2.967444008632326 9.558489999999999
2.9897678582247247 9.74957
3.0120918213106695 10.1808
3.0343984987899373 10.1246
3.0567226913198637 10.4437
3.079029599759726 11.3937
3.101354025127254 12.4129
3.123678568232338 12.8838
3.145985829517914 12.8183
3.16831061055229 13.3321
3.1906181112775593 14.0413
3.212943133635653 14.7204
3.2352682779763207 15.1462
3.2575761442691227 15.3303
3.2799015350264273 15.4833
3.302209649240067 16.4462
3.3245352898092655 16.8156
3.3468436553365257 17.5194
3.369169549113219 17.6032
3.3914955708171384 18.3655
3.413804319727358 18.7749
3.4361305997334863 18.9789
3.4584396084414553 19.7471
3.4807661501462652 20.6203
3.503092824025881 20.9706
3.5254022288463154 21.6173
3.5477291695206588 21.3444
3.5700388426251948 22.1068
3.5923660534916446 23.3736
3.6146934007816114 29.8343
3.637003482731501 50.526
3.6593311053109985 54.266999999999996
3.681641464033634 37.6529
3.7039693653009733 27.135
3.726297407241705 25.2333
3.7486081875460804 25.4287
3.7709365132734978 25.6871
3.793247578841633 26.5563
3.8155761917550093 26.6765
3.8378875459837216 27.0798
3.8602164494827234 27.2921
3.882545499606844 28.3877
3.9048572932539183 28.9531
3.9271866390645718 29.2656
3.9494987298666713 29.7943
3.971828374764527 30.6339
3.9941581705403255 30.6721
4.016470713506008 31.4533
4.038800813471445 32.1268
4.061113662089144 32.8013
4.0834440696459176 33.3569
4.105774632334751 33.9258
4.128087945865126 34.874
4.150418821249301 35.4812
4.172732448931298 36.4238
4.195063640413578 37.7792
4.2173775856475215 40.1904
4.239709096631102 55.1062
4.262040768704612 121.079
4.284355196706267 154.42600000000002
4.306687193387355 106.958
4.329001947444346 57.641999999999996
4.35133427213731 45.1327
4.373666762177566 43.923
4.395982011761091 44.1034
4.418314834921175 45.4543
4.44063041906622 49.0001
4.4629635787515625 54.0553
4.4852969080429785 54.3555
4.5076130004776225 52.848
4.529946671403969 55.2179
4.552263106909177 56.7598
4.574597122877047 55.2735
4.596931312711224 54.7187
4.619248269273446 54.2843
4.6415828092605835 55.0675
4.663900117405352 56.4379
4.686235010953232 58.2897
4.708552674085913 59.3157
4.730887924602802 60.6608
4.753223354952695 62.4487
4.775541557023902 65.6797
4.797877349456786 67.7027
4.820195915032126 68.9443
4.842532072957498 69.1475
4.864868414979744 72.1742
4.88718753227192 75.8333
4.909524244902505 76.984
4.931843734218147 78.1418
4.954180820867835 79.9343
4.976518095879839 83.4914
4.998838149695359 86.1649
5.021175803844231 90.4131
5.043496238205739 93.8112
5.065834274903528 98.6299
5.088172504230693 104.54700000000001
5.1104935158799565 112.229
5.132832132875765 131.952
5.155153533596801 165.275
5.1774925416746225 227.827
5.199814334878411 542.003
5.2221537374521505 1423.59
5.244493338631803 3515.11
5.266815727034316 7793.67
5.289155727832427 11694.5
5.311478517248165 8437.53
5.333818921080011 2830.15
5.356159527788849 579.492
5.3784829252032536 207.43200000000002
5.400823940070432 158.269
5.423147747031976 135.597
5.445489173474152 124.31200000000001
5.467830807066149 121.25
5.490155234831516 118.685
5.512497285125229 112.318
5.534822130975162 107.822
5.557164601388673 105.40100000000001
5.579489868738879 102.117
5.601832762690846 100.32700000000001
5.6241758697774475 99.4397
5.646501775867269 98.456
5.668845311622074 97.2406
5.691171647754637 96.3131
5.713515615597765 96.0699
5.735859800852677 95.2821
5.758186788542988 96.1255
5.780531411018185 98.751
5.802858837297399 98.0392
5.825203900414495 97.8724
5.8475491852224 100.88799999999999
5.869877275883075 99.7781
5.892223006467101 98.8099
5.914551544266608 99.1965
5.936897724049891 102.979
5.959244129804903 112.666
5.981573344815301 152.53
6.0039202049061 301.791
6.026249875609095 609.775
6.04859719346037 1199.95
6.070927323278297 2382.12
6.093275102315365 4249.91
6.115623113320588 5091.62
6.137953938319995 3255.54
6.160302415650845 1021.88
6.182633708324452 252.202
6.2049826554078376 119.30799999999999
6.227331838745022 95.6442
6.249663839443684 87.258
6.27201349767565 83.264
6.294345974611799 83.9336
6.316696111167083 87.01100000000001
6.339046488263839 83.4712
6.361379686074702 76.3888
6.383730546639482 72.2047
6.406064229255215 71.1247
6.428415576718203 71.1318
6.450749747566656 69.5077
6.47310158535871 67.5458
6.495453669698332 66.1384
6.517788579421056 65.6573
6.540141159237969 64.5021
6.562476565766648 63.8611
6.5848296444934045 63.7018
6.607182974060425 63.397
6.6295191323281015 63.4287
6.651872965955752 64.0546
6.6742096296068985 74.4067
6.6965639707294615 93.0374
6.71891856698715 92.5821
6.741255995248479 74.3746
6.763611104154477 63.2218
6.785949046381137 59.9369
6.808304671371482 59.4737
6.8306605557940046 60.5462
6.852999275508618 59.0693
6.875355681171544 58.1439
6.897694923437771 57.3205
6.92005185377892 56.8019
6.9423916220322655 56.8789
6.964749080490181 56.4564
6.987106804399774 56.4508
7.009447368180821 56.5824
7.031805625367033 56.5748
7.054146723727803 56.0674
7.076505517631004 55.5924
7.098864581288365 55.6577
7.121206488070854 55.6077
7.143566093607822 55.7283
7.165908543567245 56.888000000000005
7.188268694426048 56.4484
7.2106291193438095 55.7173
7.232972390625943 55.8077
7.255333366030969 61.4246
7.277677189091925 82.6436
7.300038718428332 101.59899999999999
7.322400526130865 91.4456
7.344745183422596 69.0746
7.367107550224791 58.0472
7.389452767901992 55.6573
7.411815697249891 55.2269
7.434161478756298 54.4545
7.456524974096713 54.4744
7.478888753837185 54.4356
7.501235387657368 54.7504
7.523599738562711 54.7042
7.545946944825532 55.3054
7.568311870344528 55.8379
7.5906770845765665 55.8782
7.613025156078678 56.3758
7.635390950099687 57.3931
7.657739602662809 56.9892
7.680105979923558 56.7333
7.702472650212829 57.3286
7.724822180948224 57.401
7.747189439655568 57.1643
7.769539560075357 57.2267
7.791907410653562 57.6418
7.81425812420825 57.2606
7.836626570110925 57.5775
7.858995315087906 58.3012
7.881346924933401 58.5978
7.903716270417482 59.2164
7.926068482028405 59.4775
7.948438431475253 59.9463
7.9708086843180235 60.6257
7.993161805171116 61.3371
8.015532667162402 61.8732
8.037886398416653 63.0996
8.060257873014221 63.4264
8.082629655331942 64.123
8.104984308787587 65.278
8.127356708900503 67.265
8.149711981398308 71.3508
8.172085002766314 72.848
8.194458336181368 71.2501
8.216814543847752 70.2036
8.23918850371002 70.5159
8.26154533906492 71.4743
8.283919928836452 73.3815
8.306277395339652 74.2241
8.328652618483376 75.6538
8.351028159736202 77.7831
8.373386579575245 80.3242
8.395762759396959 82.2146
8.418121819038275 86.1307
8.440498640894003 94.5558
8.462875785192262 108.70100000000001
8.485235811156207 141.785
8.507613602688501 212.967
8.529974277114228 317.397
8.552352719347912 468.785
8.574731488360351 754.78
8.59709314210385 1246.4
8.619472567021075 1905.88
8.64183487789147 2158.45
8.664214962183097 1771.72
8.686577933647762 947.5319999999999
8.708958680784317 362.235
8.731339760774953 163.624
8.753703729764451 113.094
8.77608547780821 101.531
8.798450116065078 97.4083
8.820832535634787 94.4348
8.843215292401656 94.1162
8.865580941199045 93.1691
8.887964374703538 92.1329
8.910330701447199 91.9663
8.932714815164482 92.2768
8.955099270424924 90.2572
8.977466620733543 88.1453
8.999851761421976 86.7393
9.022219798361645 85.3969
9.04460562795561 85.2293
9.066991803441677 84.9551
9.089360876979615 84.9468
9.111747746589993 84.7284
9.13411751544971 83.9731
9.156505082664324 83.5269
9.178875550323522 83.4657
9.20126381862328 83.5744
9.223652438908596 83.8357
9.246023961427412 83.9694
9.26841328802173 83.8614
9.290785518039224 83.9564
9.313175554425882 85.5808
9.335565947154315 86.59200000000001
9.357939245086508 86.6992
9.380330352834827 86.0219
9.40270436697103 86.1134
9.425096193225055 85.8627
9.447488380180165 86.2256
9.469863475295412 85.9411
9.492256385987508 86.1646
9.514632206018318 87.0142
9.537025843935714 87.4676
9.559402392368193 88.569
9.581796761000229 90.3332
9.604191496441521 91.7916
9.626569144158516 94.1011
9.648964615551032 96.0895
9.671343000390081 96.0544
9.693739211225699 95.3647
9.716135793237463 94.5444
9.738515290448102 94.8052
9.760912617143402 96.5769
9.783292860202891 98.5573
9.805690935076182 100.307
9.828089385495742 101.598
9.850470754023561 103.289
9.872869957865444 107.155
9.89525208097539 114.821
9.917652041736662 123.47200000000001
9.940052382417589 134.411
9.962435644102392 168.24400000000003
9.984836746950979 224.146
10.007220771957746 297.508
10.029622640473708 414.63800000000003
10.052007432299963 607.117
10.074410069984072 890.9680000000001
10.096813093716005 1296.39
10.119199042482517 1701.08
10.141602840636468 1923.78
10.163989564971628 1595.25
10.186394141051062 914.245
10.208799107559706 397.1
10.231187001965623 189.179
10.253592751657669 129.247
10.275981430388155 115.45
10.298387966769793 112.51100000000001
10.320794897965431 112.62100000000001
10.343184759907361 111.538
10.36559248305461 108.193
10.387983138083852 108.60799999999999
10.410391656691655 118.03200000000001
10.432800574501677 132.366
10.455192425893369 150.68200000000002
10.47760214443012 179.80700000000002
10.499994797678786 225.59099999999998
10.522405320453982 304.878
10.54479877906917 407.346
10.567210109595656 499.61300000000006
10.5896218454736 560.0880000000001
10.612016518879773 495.345
10.634429067781074 343.01800000000003
10.656824555333241 199.162
10.679237920773568 123.10600000000001
10.701651695961992 97.3336
10.724048411481384 90.9857
10.746463008485165 88.1437
10.768860546937125 86.1345
10.791275969274796 84.696
10.81369180576079 83.6349
10.836090585366925 82.2287
10.858507252467449 81.1454
10.88090686379991 80.23899999999999
10.903324365036394 79.6546
10.925724811614439 78.9297
10.948143150509463 79.73899999999999
10.970561909719066 78.7
10.992963615930844 77.5746
11.015383218085756 75.7381
11.037785768347074 74.3301
11.06020621697282 73.9178
11.082627090322113 73.3213
11.105030913430326 72.5468
11.12745263854165 72.296
11.149857314510728 73.2672
11.172279894912576 75.8134
11.194702904450653 75.4383
11.217108866490921 73.6745
11.239532736615194 71.6315
11.26193956033512 70.857
11.284364294577085 69.7466
11.306789462371718 68.3665
11.329197585398376 67.8066
11.351623622610898 67.8482
11.37403261614354 67.0124
11.396459526308487 66.9686
11.418869393879497 66.6169
11.441297180532617 66.208
11.463725406927658 65.8913
11.486136592353875 65.587
11.508565700543707 65.7893
11.530977768845315 66.4737
11.553407762368774 66.5417
11.575838200059769 66.0534
11.598251599479612 65.0923
11.620682927815501 64.6711
11.64309721895548 64.3602
11.665529441478206 64.0072
11.687962112597958 63.67100000000001
11.710377748130886 64.067
11.732811318753434 63.8949
11.755227854859067 63.8752
11.777662328529495 63.7273
11.800079768750786 63.6112
11.822515149015453 63.6928
11.844950984084935 63.723
11.867369787303163 63.4968
11.889806534289491 63.5098
11.912226250487029 63.6724
11.934663912939751 63.7784
11.9571020346363 64.2125
11.979523127133968 64.294
12.001962169624331 65.9096
12.024384183972964 68.3385
12.046824150809913 72.4355
12.069264581333726 77.8526
12.091687985297767 84.2616
12.11412934550045 94.59899999999999
12.136553680195208 109.538
12.158995973632788 131.382
12.181438735204349 156.1
12.20386447284199 184.43599999999998
12.226308172985636 202.044
12.24873485024193 199.81
12.271179492516982 166.903
12.293607112949127 122.17299999999999
12.316052700916226 90.53200000000001
12.338498763250042 74.7796
12.360927805303868 68.2917
12.383374818673879 66.1737
12.405804812803074 64.9622
12.428252780773262 64.9334
12.45070122756722 65.0998
12.473132656675375 65.3035
12.49558206341869 65.7776
12.518014453510101 65.6789
12.540464823770117 65.6441
12.562915677315177 65.8045
12.58534951575545 66.0212
12.607801338171472 67.1572
12.630236146511358 69.0127
12.652688941369085 71.5823
12.675124723177234 72.0094
12.697578494048786 71.1613
12.720032754458185 69.0346
12.742470003354093 68.7417
12.764925245138771 68.789
12.787363476431278 69.2465
12.809819703166806 69.6846
12.83227642391173 70.5863
12.854716135692716 71.0117
12.877173846755147 72.0013
12.899614549869717 72.5356
12.9220732548287 73.491
12.94453245827299 74.173
12.966974655289818 75.4926
12.989434858002571 75.9691
13.011878055298721 76.6098
13.034339260862497 77.8398
13.056800969391883 78.9883
13.079245674017244 82.3246
13.101708390774869 87.82700000000001
13.12415410463411 98.4517
13.146617833206086 110.412
13.169064559883248 122.397
13.191529303857127 138.849
13.213994557076367 163.76
13.236442809902437 201.78400000000002
13.258909083908291 252.982
13.28135835851934 307.48400000000004
13.30382565690295 369.67800000000005
13.326293469022952 417.579
13.348744283242008 420.75699999999995
13.371213125129904 352.724
13.39366497011003 257.358
13.416134845360597 169.388
13.438605238843131 125.064
13.46105863690397 112.47399999999999
13.483530069144786 114.006
13.505984506951902 120.43700000000001
13.528456981549432 131.732
13.550929978879088 148.039
13.573385983253365 172.699
13.595860028340867 209.55900000000003
13.618317081455832 255.183
13.64079217790333 303.689
13.663250283359057 343.144
13.685726434770173 370.48199999999997
13.708203115221277 337.414
13.730662806148091 263.459
13.75314054697177 186.937
13.775601299246777 128.159
13.798080104050406 97.4301
13.820559442405358 86.4215
13.843021793671388 82.9603
13.865502201420897 81.5845
13.887965623051947 80.9145
13.910447103807167 79.8681
13.932929122629764 78.2995
13.955394156785959 78.1993
13.977877254034569 77.149
14.000343367582113 76.2187
14.022827546871707 75.6123
14.045294743423524 74.9528
14.06778000837062 74.2855
14.090265817715476 73.9605
14.112734645763819 73.6432
14.13522154619454 73.1741
14.157691466286913 73.3213
14.180179461423874 72.992
14.202668005486178 72.4245
14.22513957064374 71.9128
14.247629214846473 71.643
14.270101881097517 71.202
14.29259262906496 71.2481
14.315083930490205 71.6308
14.337558255389705 71.5911
14.360050666019726 71.3334
14.382526101071944 70.9334
14.405019624534942 70.4774
14.427513705993134 70.0886
14.449990813291825 70.2936
14.47248601302899 69.8355
14.49496423954951 70.1677
14.517460561197822 70.1702
14.539939910570322 69.8496
14.562437357763558 70.3377
14.58493536931253 70.7346
14.607416409993311 71.11
14.62991555254159 71.8134
14.652397725157423 71.7099
14.674898002342799 71.8597
14.697398848433282 72.0727
14.719882725991326 73.7712
14.74238471217934 76.3986
14.764869730765593 80.6982
14.787372860692983 84.2881
14.809876564079925 89.1436
14.83236330125751 95.2979
14.854868153850365 105.042
14.877356041159485 118.863
14.899862046604186 136.80200000000002
14.922351087688757 158.566
14.944858249632887 182.787
14.967365991421232 204.138
14.989856770231246 218.109
15.012365673994204 214.952
15.03485761569738 186.34599999999998
15.05736768508665 148.113
15.07987833888692 114.2
15.102372032001655 90.2592
15.124883856909658 77.4805
15.14737872204565 73.4382
15.169891721717274 71.7124
15.192405310371893 71.4483
15.214901940621196 71.2193
15.237416709527137 70.6549
15.259914520936249 70.8131
15.282430473753607 69.9096
15.304947020131227 69.1072
15.327446610371178 68.5494
15.349964346154254 68.163
15.372465126703139 67.7583
15.394984055556009 67.6682
15.417486030076159 67.5884
15.44000615566487 67.2182
15.462526881230803 67.0206
15.485030653812652 67.1317
15.507552581617434 67.1107
15.530057557334603 67.1269
15.55258069104857 67.1821
15.575104429329837 67.028
15.597611216864632 67.4045
15.620136166564563 68.3156
15.6426441664095 70.4048
15.665170331202765 73.5503
15.687697105158826 76.7269
15.710206930593545 80.4219
15.732734925158933 85.1488
15.755245972089478 92.1112
15.77777519094324 101.796
15.800287463046663 114.49700000000001
15.822817909869592 131.30700000000002
15.84534897229804 149.029
15.867863089299354 169.304
15.890395385222186 183.178
15.912910736597423 191.166
15.935444269699861 178.641
15.957978423016485 153.584
15.980495633101265 120.975
16.003031029129367 95.2848
16.02554948280019 76.5058
16.048086125229432 68.2016
16.070623392487107 65.1883
16.09314371869582 64.0735
16.11568223789321 63.1445
16.13820381691126 62.4707
16.160743591742527 61.782
16.183283996022084 61.1141
16.205807461423195 60.2913
16.228349126881973 59.927
16.25087385432698 59.5671
16.27341678466365 59.0079
16.29594277784926 58.8206
16.31848697676433 58.7197
16.341031811604868 58.7214
16.36355971058487 58.8039
16.3861058195587 58.5694
16.40863499352978 57.85
16.431182380342005 57.3279
16.453730407713202 56.9832
16.476261501364792 56.5321
16.498810812136167 56.181999999999995
16.52134319004079 56.3926
16.54389378792203 56.1827
16.566445031001553 55.9723
16.588979342490088 55.8913
16.61153187824822 55.8642
16.634067483263312 55.9144
16.656621315414416 55.5445
16.679175797408888 55.1571
16.701713349928728 55.4589
16.72426913389191 55.7032
16.74680798922351 55.5518
16.76936507887444 55.6888
16.791905240734874 55.7968
16.814463639794468 55.43600000000001
16.837022695210294 55.6916
16.859564824093756 55.7907
16.882125194503903 56.0231
16.904668639217885 56.5285
16.927230328348003 56.4753
16.949792678493612 56.7628
16.972338104193863 56.5452
16.994901778652235 56.3133
17.017448529496576 56.7166
17.040013531998152 57.183
17.06257920018044 57.7884
17.0851279459922 58.6664
17.107694947817667 59.3346
17.130245028099072 60.2976
17.15281336730298 61.7466
17.17536478578733 63.6068
17.19793446610687 65.8141
17.220504818648422 68.6665
17.243058251703697 71.4782
17.265629950971032 75.3161
17.288184731571736 78.8563
17.310757781306908 82.2166
17.33333150794385 83.1276
17.355888317140174 81.5383
17.37846339986244 77.1444
17.401021565958885 71.35300000000001
17.42359800851343 66.1016
17.44617513265564 62.9205
17.468735341390783 61.0318
17.491261035594565 60.4554
17.51396340099364 59.7942
17.536490463869136 60.0604
17.559018209820174 60.1938
17.58154663977963 60.1756
17.604251766089718 60.5095
17.626781572227713 60.8612
17.64931206518155 60.9193
17.671843245885103 61.3105
17.69455114821572 61.4471
17.717083712612634 61.6114
17.739616967569667 62.0197
17.762150914021706 62.4204
17.78486160749854 62.6599
17.807396945166804 63.7411
17.829932977143503 65.3511
17.85246970436452 67.6349
17.875183204129467 69.1861
17.897721330097664 71.3039
17.920260154126645 73.9237
17.942799677153296 77.345
17.9655159983646 81.2866
17.988056927677544 86.837
18.010598558807683 94.5238
18.033140892692916 103.331
18.05586005052525 112.598
18.07840379824407 122.815
18.10094825154059 133.472
18.12366954819864 140.6
18.146215420998306 139.882
18.16876200220057 133.063
18.191309292745153 119.219
18.214033452627167 104.833
18.236582170236648 93.3637
18.259131600016456 88.4211
18.281681742907335 88.3987
18.304408781233683 92.3184
18.32696035875955 96.2236
18.349512652227624 100.65899999999999
18.372065662579683 105.303
18.394795594587553 106.531
18.41735004715306 102.995
18.43990521943684 96.1812
18.46246111238171 86.7122
18.485193953325208 77.7478
18.507751296070428 70.6795
18.530309362314178 66.5654
18.552868153000343 64.6463
18.57560391815056 63.1422
18.59816416623245 62.8092
18.620725141597372 62.2013
18.643286845190268 61.738
18.666025549835414 61.4338
18.688588718427933 60.7716
18.711152618092243 60.6195
18.73389353884365 60.3433
18.75645890921984 59.7853
18.77902501351406 59.4583
18.801591852673102 59.7109
18.824335739722738 59.06399999999999
18.846904057212626 58.9277
18.8694731124168 58.7082
18.89204290628315 58.7519
18.914789774966803 58.5482
18.937361054791623 58.0766
18.959933076131318 57.8106
18.982505839934877 57.8646
19.00525570560582 57.9741
19.027829963004184 57.7978
19.05040496572238 58.071000000000005
19.072980714710468 58.1458
19.095733592739563 58.3637
19.11831084296757 58.6769
19.140888842324735 58.9829
19.16346759176222 59.0687
19.18622349753803 59.876000000000005
19.208803755869358 60.88399999999999
19.231384767143577 61.9797
19.253966532312948 63.6229
19.276725481241822 65.5332
19.29930876296784 67.8904
19.3218928014549 70.2859
19.34465404436217 72.6649
19.36723960516257 75.07600000000001
19.389825925592426 76.6157
19.412413006605938 75.59100000000001
19.43517731967805 72.7392
19.457765930683355 68.2268
19.48035530514408 63.6019
19.50294544401556 59.6267
19.525712842708348 57.2127
19.54830451925909 56.0425
19.570896963095727 54.8829
19.593490175174704 54.6393
19.616260674962184 54.7692
19.638855432416964 54.4274
19.661450960992624 54.6183
19.68404726164677 54.331
19.706820878021247 54.2552
19.729418731756834 54.45
19.752017360452857 54.3094
19.77461676506804 54.6263
19.797393513540218 54.8757
19.819994478951667 55.162
19.84259622316767 55.8071
19.8651987471481 55.8362
19.887978643247177 56.0412
19.91058273574792 56.5555
19.933187610901943 57.6446
19.955969879466828 58.9243
19.97857632894404 60.5371
20.00118356396599 61.7841
20.023791585494575 63.5804
20.046577028914875 65.8947
20.069186632506966 67.8713
20.091797025500632 69.7454
20.114408208858933 70.6905
20.137196842715273 70.6727
20.159809615886765 69.094
20.18242318232135 66.9251
20.20503754298326 64.7577
20.227829382875154 63.2082
20.250445341109344 62.7656
20.27306209647285 63.2041
20.29567964993108 64.2083
20.31847471147704 65.1358
20.34109387027612 65.9586
20.363713830075454 65.9226
20.386334591841646 64.5229
20.409132890679302 61.6122
20.431755265564437 58.5567
20.454378445325528 55.843
20.477002430930366 53.9417
20.499803982716553 52.5834
20.522429589228004 51.9793
20.54505600449589 51.5359
20.567683229489194 51.2332
20.590488049900088 50.873000000000005
20.61311690359731 50.7293
20.63574656993626 50.8211
20.658553853717297 50.5624
20.681185154618298 50.3964
20.703817271080066 50.2653
20.72645020407368 49.8066
20.749260783967177 49.6411
20.771895359337133 49.6368
20.794530754161617 49.873000000000005
20.817166969412938 49.7466
20.83998086114876 49.705
20.86261872660049 49.549
20.885257415405402 49.6211
20.90789692853701 49.5077
20.930714147864748 49.6207
20.953355319030678 49.537
20.97599731745334 49.4911
20.99864014410749 49.4643
21.021460706796564 49.4193
21.044105199328826 49.7103
21.06675052302631 49.8213
21.089396678865015 50.0047
21.112220600704806 50.4505
21.134868430275347 50.8039
21.15751709492456 50.7939
21.180166595629693 51.0844
21.202993892429635 51.4219
21.22564507473034 51.8341
21.24829709602816 52.011
21.27112693608965 52.0589
21.293780644891275 51.9805
21.316435195634053 51.4471
21.339090589297417 50.7935
21.361923832041875 50.4494
21.384580921090404 49.588
21.407238856007325 49.038999999999994
21.429897637773326 49.0895
21.45273429906592 49.163000000000004
21.475394784108598 49.0452
21.498056118951983 49.1225
21.520718304578022 49.4169
21.543558400304388 49.5862
21.566222297108816 49.8225
21.58888704765135 50.1643
21.61155265291521 50.5327
21.63439619898156 50.9863
21.657063523335786 51.0578
21.67973170537063 51.5686
21.7024007460706 52.0823
21.72524775840385 52.9623
21.747918526116475 54.0385
21.770590155457388 55.2655
21.79326264741238 56.7854
21.816113141960237 58.3452
21.838787368860547 59.943000000000005
21.861462461341976 61.6186
21.884315579735777 63.1738
21.90699241312273 64.4996
21.92967011506078 65.3866
21.95234868653799 65.109
21.9752053151131 63.9011
21.997885635446785 61.8089
22.020566828293532 60.0063
22.04324889464272 58.2006
22.066109049404666 56.8558
22.088792872571794 56.6212
22.111477572219204 56.5413
22.1341631493376 56.5333
22.157026846313123 56.5469
22.179714188221507 56.0286
22.202402410582668 55.0503
22.22509151438863 53.492
22.24795876962584 52.1636
22.270649646204486 51.1293
22.293341407213727 50.5393
22.316034053646906 50.0593
22.338904883215342 49.7219
22.36159931041458 49.7606
22.38429462602756 49.5917
22.40699083104897 49.4815
22.429865251039757 49.4401
22.452563244831367 49.3715
22.47526213102522 49.4138
22.49813925616515 49.4012
22.520839937143307 49.2653
22.543541513520587 49.3289
22.56624398629403 49.3136
22.589124730075895 49.1839
22.611829005656723 49.6327
22.63453418063466 49.5592
22.657240256008077 49.8997
22.680124634582935 49.9514
22.70283252079775 50.2497
22.725541310413075 50.6696
22.74825100442868 50.604
22.771139033969575 51.4141
22.79385054687155 51.7373
22.81656296718292 52.3248
22.83927629590484 52.9272
22.862167992606945 53.8794
22.88488314827121 54.8811
22.907599215359284 55.838
22.93031619487366 56.636
22.953211574954405 57.5061
22.975930389478226 58.2434
22.998650119445763 58.5146
23.02137076586092 57.5778
23.044269845560063 56.4674
23.06699233506288 54.8606
23.089715744034912 53.1681
23.112617610931565 51.6845
23.135342869061212 50.5422
23.158069049684816 50.0204
23.1807961538087 49.5837
23.20370174880544 49.6159
23.226430710184808 49.8146
23.249160598093425 49.8227
23.271891413539002 49.7117
23.294800752937697 49.7899
23.31753343374794 49.9567
23.340267045128353 49.867
23.36300158808808 50.4426
23.38591468821339 50.8521
23.408651104658304 51.3811
23.431388455719986 51.843
23.454126742409 52.7703
23.4770436196085 53.644
23.499783787914662 54.6658
23.522524894889884 55.571000000000005
23.54526694154616 56.2702
23.56818761219047 57.3858
23.59093154860734 57.766000000000005
23.613676427751283 58.407
23.636422250635754 57.5339
23.659346731118656 55.9827
23.68209445191868 54.1167
23.704843119509587 52.0552
23.72759273490623 50.3081
23.750521041644767 48.9309
23.77327256312355 47.9309
23.796025035462787 47.1361
23.818956224555475 46.7573
23.841710609113413 46.6032
23.86446594758979 46.4139
23.887222241002014 46.1247
23.910157285144578 45.8411
23.932915498962537 45.9752
23.955674670778713 45.7151
23.978434801611975 45.4604
24.001373717286125 45.3739
24.024135776723917 45.2158
24.046898798245582 45.1168
24.06966278287146 44.9531
24.092605586582614 44.8786
24.115371508023642 44.926
24.1381383956401 44.7454
24.16090625045381 44.6038
24.183852958731244 44.4686
24.206622758582608 44.3921
24.229393528706886 44.0269
24.252165270127392 44.3133
24.27511589952438 44.2873
24.297889594216997 43.9801
24.32066426328598 43.9756
24.34343990775613 44.0262
24.36639447485003 43.8374
24.38917208083877 43.8697
24.41195066531332 43.7186
24.43490819850244 43.7605
24.457688750692377 43.583
24.48047028445616 43.5172
24.503252800821233 43.6977
24.526214300784112 43.7613
24.548998793132213 43.7519
24.57178427117417 43.5764
24.59457073593893 43.6434
24.617536219319863 43.6023
24.64032466834748 43.6129
24.663114107195035 43.4396
24.685904536893013 43.2792
24.708874020360852 43.208
24.731666442613744 42.9095
24.754459858818787 42.9355
24.777254270007962 42.9581
24.80022777025625 42.8508
24.82302418230472 42.92
24.845821592443674 42.8836
24.86862000170663 42.8734
24.891597535453727 42.6148
24.914397953892728 43.0836
24.93719937456671 42.9354
24.96000179851076 42.9734
24.98298338249997 43.4053
25.00578782394922 43.5364
25.028593271784167 43.583
25.05157790644186 43.9801
25.07438537804115 44.0967
25.097193859145293 44.3226
25.120003350792075 44.5382
25.142992065061257 44.861000000000004
25.165803588823465 45.0478
25.18861612625217 45.3133
25.211429678386736 45.3583
25.234422489079968 45.3453
25.257238081693636 45.3976
25.280054692141732 45.2567
25.3028723214652 45.2239
25.325869245420463 45.306999999999995
25.348688923599397 45.3878
25.371509623787006 45.4116
25.394331347025812 45.2258
25.41733240110666 44.7336
25.440156181590016 44.0054
25.46298098826268 43.5837
25.48580682216873 42.8932
25.50881202326435 42.4819
25.53163992281684 42.1115
25.55446885274561 41.7587
25.577298814096377 41.5506
25.600308179121807 41.4435
25.623140214533745 41.5059
25.64597328451537 41.3774
25.66898578564376 41.1137
25.691820936010206 41.2319
25.714657124097695 41.0681
25.737494350954734 41.2739
25.760511045684957 41.0119
25.783350361364224 41.0486
25.806190718969255 41.1109
25.82903211955018 41.2206
25.852053024868923 41.3738
25.874896522722523 41.3029
25.897741066713106 41.2306
25.920586657892454 41.3988
25.943611790812668 41.5661
25.966459487728237 41.729
25.989308234998564 41.7693
26.01215803367705 42.0097
26.03518741123814 42.106
26.05803932412957 42.1498
26.080892291600094 42.1864
26.10374631470478 42.1329
26.12677995397268 42.3733
26.14963609978026 42.2968
26.172493304397875 41.9859
26.19535156888223 41.7706
26.218389486949604 41.2895
26.241249882640123 41.1463
26.26411134137826 40.8995
26.28715248187403 40.9567
26.31001607820869 40.803000000000004
26.3328807407756 40.5821
26.35574647063438 40.8739
26.37879191991473 40.7243
26.401659795896734 40.7685
26.424528742360263 41.0561
26.447398760366614 41.2008
26.470448535598294 41.3007
26.49332070826805 41.5308
26.516193955675355 41.8614
26.53906827888316 41.8629
26.562122397260108 42.0521
26.584998883685063 42.2145
26.607876449110325 42.4774
26.63075509460056 42.678000000000004
26.65381357334404 42.6898
26.67669439061878 42.8564
26.699576291163382 42.5588
26.722459276044212 42.4575
26.745522132402975 42.318000000000005
26.768407297649354 41.9791
26.791293550442003 41.4801
26.814180891848974 41.4033
26.837248143099337 41.1144
26.860137673466657 41.022
26.88302829566349 40.6137
26.90592001075963 40.6914
26.92899167420566 40.5448
26.951885586870763 40.0716
26.974780595655517 39.8697
26.99785558178161 39.8414
27.020752794605112 39.6685
27.043651106772522 39.4835
27.06655051935668 39.5256
27.089629948036183 39.3323
27.112531573292053 39.3649
27.135434302194138 39.3291
27.158338135817015 39.2707
27.181422024430987 39.1972
27.204328079372566 39.0978
27.22723524226965 39.0345
27.250143514198573 39.0898
27.273231880156334 39.1273
27.296142382065014 39.0152
27.319053996245536 39.0559
27.341966723775965 38.9443
27.365059584515222 38.964
27.38797455070062 39.062
27.410890633481237 38.9764
27.433807833936918 38.9936
27.456905206923906 39.0624
27.47982465472398 38.9522
27.502745223449743 39.1513
27.525666914182825 39.1176
27.548768816912457 39.0755
27.571692763693633 39.1011
27.59461783573812 38.8393
27.617723149491244 38.8896
27.640650484125285 38.7774
27.66357894728264 38.7239
27.686508540048052 38.694
27.709618414237887 38.4533
27.732550278321757 38.3036
27.755483275279115 38.3842
27.778417406196485 38.4335
27.801531858397514 38.4622
27.824468269376716 38.4625
27.847405817586786 38.5222
27.870344504116094 38.6255
27.893463551932008 38.6613
27.916404527281053 38.9091
27.93934664422563 38.9535
27.962289903855886 38.9431
27.98541356491974 39.2236
28.00835912214229 39.2366
28.03130582533231 39.5482
28.054253675581805 39.7221
28.077381967556104 39.6044
28.100332124185126 39.6158
28.123283431160893 39.459
28.146235889577238 39.4177
28.169368830154156 39.2234
28.192323603752033 39.0054
28.215279532083304 38.6727
28.238415973016764 38.4272
28.261374223145094 38.3785
28.284333631303806 38.0966
28.307294198589954 37.9494
28.330435319167677 37.7299
28.353398217078915 37.3734
28.376362277420153 37.088
28.39932750129032 37.0237
28.422473319286713 36.9009
28.44544088262495 36.8309
28.468409612800283 36.71
28.491379510913497 36.5267
28.51453004413313 36.4889
28.53750229057244 36.5568
28.56047570826344 36.4427
28.583450298308804 36.3694
28.606605564586562 36.119
28.629582511831156 36.2183
28.65256063474956 36.1313
28.675539934446338 36.1469
28.698699951647605 36.1227
28.72168161743193 36.0265
28.74466446331978 36.0719
28.767648490417624 35.977
28.790813276438353 35.8692
28.813799678527303 35.992
28.836787265157085 35.9605
28.859955641890075 35.9772
28.882945610203045 35.8664
28.905936766392035 35.8341
28.928929111566863 35.8049
28.952102288520145 35.7281
28.975097024308607 35.7133
28.998092952423807 35.4904
29.021090073977508 35.5242
29.04426806913204 35.2935
29.067267590245258 35.1834
29.090268308143695 35.1306
29.11327022394099 35.1325
29.13645305530891 34.9709
29.159457379627167 34.9227
29.18246290519685 34.8607
29.20546963313352 34.7892
29.22865731875826 34.8116
29.25166646419296 34.9064
29.27467681535305 34.7353
29.29768837335608 34.8152
29.320880931312562 34.7789
29.34389491580634 34.7322
29.366910110507334 34.7491
29.38992651653503 34.7499
29.41312396492981 34.6394
29.436142806456754 34.5855
29.45916286268059 34.5281
29.48236399319994 34.5335
29.50538649169417 34.3262
29.528410208259935 34.2555
29.55143514402014 33.9693
29.574641196749695 33.9279
29.597668583816574 33.7932
29.6206971934585 33.6436
29.64372702680042 33.742
29.666938019934474 33.5424
29.689970313635285 33.5229
29.713003834422636 33.4829
29.73603858342347 33.4324
29.759254535188578 33.3658
29.78229175361658 33.2322
29.80533020365064 33.407
29.82836988641968 33.3726
29.85159081507472 33.1888
29.874632976355343 33.15
29.89767637376955 33.2517
29.920721008448314 33.1319
29.9439469322847 33.1145
29.96699405457564 32.9681
29.9900424175358 33.0681
30.013092022298157 32.9413
30.03632295963995 32.817
30.059375061131373 32.8874
30.08242840783577 33.0918
30.105483000888153 33.0726
30.128718970092244 32.9587
30.151776069006917 32.8632
30.17483441768648 32.9213
30.198074175317235 32.8026
30.221135036724256 32.9039
30.24419715131772 32.8209
30.267260520236203 32.7525
30.290505341942243 32.7515
30.313571232750228 32.6861
30.336638381310948 32.7616
30.35970678876503 32.7582
30.38295669299435 32.6437
30.40602763151657 32.6009
30.429099832366074 32.6002
30.452173296685572 32.4743
30.47542830191959 32.5842
30.498504306502497 32.5786
30.521581577995562 32.7235
30.544660117543582 32.6923
30.56792024229725 32.6116
30.59100133132069 32.5912
30.614083691845494 32.5544
30.637167325018545 32.69
30.660432587840603 32.7006
30.683518779717886 32.537
30.70660624769615 32.7037
30.729694992924372 32.7238
30.75296541239743 32.7968
30.77605672557558 32.6896
30.799149319462742 32.633
30.8224236211637 32.4615
30.845518789950724 32.3116
30.868615242910597 32.3348
30.891712981195973 32.1031
30.91499247215866 31.997
30.938092794619365 32.0103
30.96119440587579 31.8918
30.984297307082752 31.8565
31.00758200598383 31.8317
31.030687500658694 31.7149
31.053794288760695 31.6243
31.076902371446767 31.5283
31.100192296997445 31.5719
31.12330298246119 31.5794
31.14641496599209 31.3762
31.169528248749216 31.3664
31.19282341969534 31.3057
31.215939314557186 31.4297
31.239056512134788 31.4004
31.262175013589378 31.3457
31.28547544871168 31.3281
31.30859657161541 31.3351
31.331719001892175 31.2354
31.35484274070538 31.3971
31.378148458819545 31.4596
31.401274828443725 31.2533
31.424402510106933 31.3288
31.447712205419993 31.3124
31.470842524931633 31.2945
31.493974159989783 31.2776
31.51710711176168 31.2328
31.54042212308802 31.272
31.563557722100917 31.1472
31.586694641341655 31.0301
31.609832881979628 31.013
31.63315322823208 30.8189
31.656294125521327 30.8045
31.679436347728515 30.8301
31.70257989602529 30.7352
31.725905596152327 30.6647
31.74905181052835 30.5674
31.772199354521323 30.7039
31.79534822930507 30.6408
31.818679302290967 30.5809
31.84183085259981 30.6555
31.864983737233473 30.5662
31.88813795736804 30.6845
31.911474422233013 30.4542
31.934631327356435 30.5656
31.9577895715215 30.4806
31.980949155906522 30.3499
32.004291031706956 30.4536
32.027453310562606 30.3832
32.05061693318573 30.2151
32.07396288236386 30.2054
32.09712920658542 30.0878
32.12029687812702 30.0168
32.14346589817093 29.9413
32.166817291729984 29.9578
32.18998902288583 29.8881
32.21316210610336 29.7979
32.23633654256711 29.7118
32.259693399663725 29.625
32.282870556771144 29.6629
32.30604907069099 29.559
32.329228942610065 29.4354
32.35259128243769 29.4076
32.375773884550505 29.3572
32.398957848235646 29.3104
32.422143174682176 29.2514
32.445511016471215 29.1589
32.468699082679954 29.1287
32.49188851523011 29.1127
32.51507931531304 29.0883
32.538452678331 29.0613
32.56164622776311 28.9324
32.58484114831493 28.8782
32.60803744118015 28.9309
32.631416344731896 28.9568
32.654615396551876 28.8652
32.67781582427913 28.8943
32.701198898634416 28.7328
32.72440209253756 28.7467
32.747606665947124 28.8058
32.77081262006088 28.6256
32.79420126883317 28.5605
32.81740999876112 28.6101
32.840620112999424 28.4079
32.86383161274818 28.3284
32.88722585534586 28.3642
32.91044014056596 28.4567
32.933655814909734 28.3643
32.95687287957963 28.4423
32.98027273544904 28.3961
33.00349259526636 28.2694
33.026713849030116 28.3513
33.04993649794511 28.2661
33.073341986570746 28.2473
33.09656744032826 28.2182
33.11979429286444 28.2081
33.14302254538647 28.2508
33.166433686291185 28.1252
33.18966475336992 28.1186
33.212897224069096 28.0433
33.23613109959831 27.9814
33.259547912343415 27.9931
33.2827846121627 27.9752
33.306022720453775 27.9755
33.32926223842861 27.7885
33.352684742614166 27.7065
33.37592709463173 27.7468
33.399170859982064 27.6825
33.422597648419426 27.5857
33.44584425514446 27.478
33.46909227885668 27.4584
33.4923417207723 27.392
33.51577423505344 27.4493
33.539026528130385 27.2857
33.56228024307245 27.2642
33.585535381098246 27.185
33.60897364093058 27.1368
33.63223163992385 27.1058
33.6554910656699 27.1237
33.678751919389796 27.0341
33.702195944520106 26.9072
33.72545966903325 26.9279
33.74872482519663 26.9415
33.771991414233746 26.9421
33.79544122444841 26.8046
33.81871069412428 26.7473
33.84198160035767 26.7924
33.86525394437455 26.767
33.88870955949969 26.6865
33.911984794020626 26.6902
33.93526147001624 26.6402
33.958539588715006 26.5918
33.98200102861669 26.4774
34.0052820477047 26.4018
34.02856451319451 26.3938
34.05203033759056 26.416999999999998
34.07531571090147 26.389
34.09860253431845 26.3089
34.121890809074316 26.3006
34.145362493118924 26.1475
34.16865368561615 26.1764
34.191946333164054 26.1647
34.21524043699793 26.1377
34.23871800066799 26.1157
34.26201503218366 25.9923
34.28531352370466 26.0516
34.30861347646881 25.8855
34.33209693978188 25.9318
34.3553998301885 25.8896
34.378704185565205 25.8061
34.402010007152356 25.773000000000003
34.42549939016683 25.8087
34.44880815937748 25.7346
34.472118398533134 25.6394
34.49543010887669 25.5614
34.51892543169198 25.516
34.54224009966052 25.4668
34.56555624255917 25.5029
34.58887386163339 25.4008
34.61237514439016 25.3218
34.6356957311114 25.3045
34.65901779775809 25.3422
34.68252356662995 25.2823
34.705848608458616 25.3169
34.72917513396849 25.1719
34.75250314440949 25.1429
34.77601490857862 25.1435
34.799345904259795 25.0432
34.82267838863559 25.0328
34.846012362958525 24.9831
34.869530142679984 24.9467
34.89286711232212 24.9314
34.91620557568269 24.9215
34.93954553401677 24.8539
34.9630693495876 24.8036
34.986412313340814 24.8251
35.00975677584668 24.8784
35.033102738362956 24.8152
35.05663261012228 24.623
35.0799815881786 24.7641
35.10333207003229 24.7224
35.12668405694369 24.6522
35.150220005273056 24.6085
35.17357501786656 24.5853
35.19693153931268 24.4913
35.220289570874385 24.4995
35.24383161619786 24.5059
35.267192683604904 24.5815
35.290555264930376 24.4436
35.314101899412165 24.4254
35.33746752422433 24.4528
35.36083466676374 24.3562
35.38420332829803 24.3454
35.407756095629054 24.3397
35.43112781085063 24.256
35.45450104888391 24.2324
35.477875810999194 24.3506
35.50143473172161 24.2413
35.52481255774625 24.1927
35.54819191167777 24.1538
35.57157279478914 24.1329
35.595137889488406 24.0492
35.61852184675279 24.0226
35.641907337029984 24.0307
35.665294361595684 23.9966
35.68886565090076 23.8964
35.7122557598848 23.8283
35.73564740699838 23.8774
35.759040593519934 23.7906
35.78261809810353 23.7677
35.80601437933051 23.7643
35.829412203814705 23.6035
35.85281157283719 23.5602
35.876395313415884 23.5899
35.8997977874528 23.4692
35.92320180988546 23.4548
35.946790244133936 23.3885
35.97019737933222 23.4146
35.993606066789866 23.3976
36.01701630779276 23.3135
36.04061101440684 23.2909
36.06402437852291 23.3087
36.08743930005611 23.3063
36.1108557802951 23.2347
36.13445678011326 23.2686
36.15787639383515 23.1999
36.18129757014299 23.1064
36.20472031032821 23.0644
36.22832762423364 23.0315
36.25175350829375 22.9976
36.275180960119776 22.9587
36.298609981005924 23.0029
36.32222362992669 22.9879
36.34565580510207 22.9068
36.36908955323448 22.8648
36.39252487562093 22.8001
36.416144880530226 22.7558
36.43958336764275 22.721
36.463023432914625 22.7823
36.486465077645676 22.6515
36.51009145956204 22.7503
36.53353627947859 22.6482
36.55698268276811 22.6302
36.58043067073321 22.5761
36.60406345072071 22.4792
36.62751462435344 22.4585
36.65096738658405 22.4214
36.67460498210655 22.4134
36.69806093788647 22.4177
36.72151848619297 22.3487
36.744977628333636 22.3923
36.76862165890998 22.2629
36.79208400512205 22.2751
36.81554794910557 22.1931
36.83901349217101 22.1423
36.862663978991606 22.1155
36.88613273667352 22.1204
36.90960309738324 22.0448
36.933075062434064 22.0037
36.95673202673572 21.9608
36.98020721697122 21.9469
37.003684015502365 21.87
37.027162423645365 21.8222
37.050825886711465 21.8977
37.07430753063053 21.7937
37.09779078812467 21.7844
37.121275660513014 21.7261
37.144945643673694 21.7262
37.16843376245278 21.6563
37.19192350009803 21.7071
37.215414857931435 21.6694
37.239091382563885 21.5391
37.262585997426164 21.5593
37.28608223645736 21.5683
37.309763684451696 21.5056
37.33326318851098 21.4411
37.356764320726555 21.4409
37.380267082425526 21.4094
37.40395510942588 21.3973
37.42746114683234 21.3396
37.45096881771841 21.3577
37.474478123414166 21.3122
37.49817275092816 21.278000000000002
37.52168534303452 21.186
37.54519957395567 21.1817
37.568715445024665 21.1412
37.592416694607714 21.0945
37.61593586281424 21.0913
37.63945667518264 21.1445
37.66297913304891 21.0174
37.68668702630454 21.0154
37.710212792059274 20.9821
37.733740207334854 20.9576
37.757269273470364 20.8515
37.780983832050374 20.7273
37.80451621684926 20.7954
37.82805025654007 20.7857
37.851585952464795 20.7307
37.8753071980695 20.7044
37.89884622345676 20.6841
37.92238690911902 20.6456
37.94611318753442 20.6392
37.969657210779765 20.6038
37.99320289834801 20.6333
38.016750251586465 20.5003
38.04048325513017 20.4821
38.06403395679343 20.4613
38.087586328183946 20.3386
38.11114037065203 20.3632
38.13488012115898 20.4033
38.1584375229181 20.3245
38.181996599821 20.2485
38.205557353221124 20.1755
38.229303872575656 20.1768
38.2528679961576 20.195
38.27643380031219 20.1806
38.30000128639589 20.1147
38.32375459653193 20.0757
38.34732546371299 20.0784
38.37089801690786 19.9864
38.39447225747609 19.9237
38.418232380377425 19.9308
38.441810012983396 19.9926
38.46538933705673 19.8765
38.488970353960084 19.8651
38.51273731166058 19.8328
38.536321731567014 19.7479
38.55990784840681 19.8006
38.58367995004091 19.7415
38.60726947812959 19.695
38.63086070726198 19.7112
38.654453638806274 19.7016
38.678232613930824 19.5965
38.70182896773327 19.5852
38.72542702806741 19.5106
38.7490267963045 19.4745
38.77281266709232 19.5308
38.79641586862214 19.4815
38.8200207821842 19.3836
38.843627409152944 19.3231
38.86742019782782 19.3434
38.891030269149255 19.3392
38.914642058016156 19.3065
38.938255565806124 19.1994
38.96205529464307 19.2202
38.98567225787121 19.1465
39.00929094417078 19.195999999999998
39.03291135492255 19.1558
39.05671804624804 19.0895
39.080341923549106 19.0677
39.103967529460334 19.0449
39.127594865365744 19.0065
39.15140854155791 18.8927
39.17503935514948 18.9586
39.19867190290282 18.961
39.22249083587951 18.9012
39.24612686969409 18.947
39.269764641845306 18.884
39.293404153722804 18.7506
39.317230110864074 18.7254
39.34087311998506 18.7387
39.36451787301696 18.7778
39.388164371352595 18.7078
39.41199737518003 18.6161
39.43564738196752 18.6572
39.45929913825317 18.5489
39.48295264543308 18.5881
39.506792718520884 18.6047
39.530449745387216 18.4937
39.55410852735203 18.4668
39.57776906581474 18.5093
39.60161623079 18.4216
39.625280300200025 18.430999999999997
39.64894613032202 18.3859
39.67261372255866 18.3555
39.6964680021016 18.3226
39.72013913657293 18.3115
39.74381203738292 18.3094
39.76748670593756 18.2415
39.79134812278169 18.2229
39.81502634488497 18.1559
39.83870633896685 18.1271
39.862388106436654 18.0421
39.88625668336918 18.0534
39.90994201572829 18.0697
39.933629125719285 18.0375
39.957503091207826 18.0111
39.9811937746168 17.9977
40.00488623990914 17.9621
40.02858048850006 17.9042
40.05246165409549 17.8459
40.076159487492085 17.8243
40.099859108448875 17.8419
40.123560518384345 17.8019
40.1474489070226 17.7956
40.171153913178564 17.7021
40.194860712584955 17.6978
40.2185693066637 17.7104
40.242464941335314 17.6347
40.26617714307655 17.6067
40.289891143772046 17.6036
40.3136069448471 17.5937
40.33750984859743 17.5674
40.3612292688043 17.4936
40.3849504936829 17.4782
40.40867352466194 17.4397
40.43258372059144 17.3802
40.45631038219906 17.4269
40.48003885420956 17.3497
40.503769138055105 17.3659
40.52768664931955 17.3421
40.55142057531802 17.3042
40.57515631746428 17.1723
40.599079334038514 17.2214
40.62281872700477 17.1607
40.64655994043941 17.1417
40.67030297578061 17.1498
40.69423334835778 17.148
40.71798004609188 17.1201
40.74172857006355 17.0654
40.76547892171441 17.0847
40.7894166736039 16.9777
40.813170699248566 16.995
40.83692655691388 16.9742
40.86068424804498 17.0345
40.884629402612525 16.930999999999997
40.908390779366385 16.8926
40.932153993938 16.794
40.95591904777605 16.7797
40.979871628443995 16.8482
41.003640379561936 16.8145
41.02741097430883 16.8286
41.05118341413683 16.7875
41.075143444384416 16.6555
41.098919593177826 16.6865
41.1226975914255 16.6509
41.14647744058318 16.577
41.170444943946755 16.5818
41.19422851378379 16.6011
41.218013938914645 16.5104
41.24198706625173 16.4974
41.26577622087193 16.4603
41.289567235177785 16.3981
41.31336011063129 16.468
41.337340752422875 16.4375
41.361137369129835 16.3982
41.38493585138705 16.3389
41.40873620066004 16.2902
41.43272438060107 16.2825
41.45652848292052 16.1935
41.48033445666918 16.1605
41.50414230331616 16.1898
41.528138045159764 16.1899
41.551949656675205 16.1306
41.575763145513235 16.0733
41.59957851314666 16.0103
41.62358184070442 16.0413
41.64740098505737 16.0216
41.6712220126409 15.9795
41.69504492493139 15.8884
41.71905586207357 15.969000000000001
41.74288256296395 15.965
41.766711153007456 15.9207
41.79054163368412 15.9223
41.814560204340054 15.9165
41.838394485526365 15.9009
41.86223066180303 15.8154
41.88625497706819 15.790999999999999
41.910094962812 15.7613
41.93393684811168 15.7166
41.95778063445365 15.6486
41.981812625263366 15.6127
42.00566023303407 15.6268
42.029509746323676 15.5804
42.05336116662236 15.5696
42.077400857069705 15.5406
42.10125611078846 15.5447
42.12511327600405 15.5144
42.14897235421036 15.4796
42.173019768448455 15.4455
42.19688269209613 15.3874
42.22074753323349 15.3836
42.24461429335818 15.3818
42.268669455600495 15.3621
42.292540073217886 15.3451
42.31641261433284 15.2956
42.34028708044675 15.2744
42.36435001496739 15.2129
42.38822835065557 15.2276
42.41210861586426 15.1939
42.4359908120986 15.1543
42.46006154323262 15.1623
42.48394762115317 15.1019
42.507835634632315 15.1201
42.531912233047436 15.0583
42.55580413732265 15.0171
42.579697981698 14.9982
42.60359376768525 14.9225
42.62767820545945 14.93
42.65157789440821 14.9971
42.67547952952185 14.9056
42.699383112316 14.9068
42.72347541395347 14.8499
42.74738291190531 14.8235
42.771292362102166 14.8066
42.795203766063516 14.7404
42.819303956130405 14.7978
42.843219287476536 14.7151
42.86713657716324 14.7287
42.89105582671383 14.6587
42.91516392983864 14.6932
42.939087119032166 14.61
42.963012272677304 14.6226
42.98693939230129 14.6168
43.01105543317513 14.5792
43.034986504731386 14.5509
43.05891954686589 14.533
43.08285456110972 14.5003
43.10697856448665 14.4582
43.130917542983475 14.4083
43.15485849820081 14.4007
43.17880143167367 14.3913
43.20293342237094 14.3335
43.226880332449 14.3161
43.25082922540554 14.3362
43.27496722682525 14.2914
43.29892010567796 14.2747
43.32287497204102 14.2614
43.34683182745632 14.1801
43.370977859791836 14.1671
43.39493871351105 14.1651
43.41890156092628 14.1514
43.44286640358341 14.1078
43.46702049182749 14.0941
43.49098934522816 14.0394
43.51496019852649 14.0383
43.5389330532723 14.0159
43.56309522248204 13.995999999999999
43.58707210044314 13.9789
43.61105098451946 13.8858
43.63503187626491 13.8915
43.659202151562134 13.8405
43.68318707902681 13.8934
43.70717401884041 13.8507
43.731162972560874 13.8431
43.75534137913236 13.7969
43.779334381108384 13.7552
43.803329401683186 13.7003
43.82732644241872 13.7274
43.8515130055166 13.7015
43.87551410707659 13.7329
43.89951723350145 13.6876
43.923709934595614 13.6213
43.94771713129917 13.6217
43.97172635758096 13.5764
43.99573761501002 13.6058
44.0199385169922 13.5618
44.04395385732619 13.5464
44.067971233533086 13.495999999999999
44.09199064718605 13.4615
44.11619977548961 13.4792
44.14022328470671 13.4235
44.16424883610785 13.4127
44.18827643127035 13.4013
44.21249381139513 13.3779
44.236525514814076 13.2999
44.26055926674478 13.3488
44.28459506876863 13.3078
44.3088207262813 13.3025
44.33286064928722 13.2539
44.35690262714919 13.2083
44.38094666145278 13.2181
44.4051806219871 13.195
44.42922879003185 13.1342
44.45327901929361 13.0899
44.477331311362136 13.0859
44.501573600619416 13.0546
44.525630039221795 13.0992
44.54968854541895 13.0694
44.573937102200176 13.0214
44.5979997645541 12.9848
44.622064499300315 13.0024
44.64613130803592 13.0139
44.67038823869318 12.9686
44.69445921643748 12.9277
44.718532272981385 12.8267
44.742607409926194 12.8745
44.76687274034801 12.8276
44.79095205918753 12.7445
44.81503346325094 12.7713
44.839116954143876 12.7953
44.86339071028742 12.7224
44.88747839599524 12.7162
44.91156817336837 12.6957
44.93566004401666 12.6924
44.959942251908146 12.6689
44.984038330325966 12.6081
45.00813650686762 12.593
45.03223678314731 12.5915
45.05652746888232 12.5171
45.08063196592069 12.5279
45.104738567558705 12.5228
45.128847275414856 12.4531
45.15314646515866 12.4491
45.17725940679741 12.4515
45.20137445952892 12.4398
45.22568004865265 12.3993
45.24979934496396 12.3694
45.27392075725247 12.3471
45.29804428714431 12.2846
45.322358426247604 12.2737
45.346486212804315 12.276
45.370616121861914 12.2764
45.39474815505086 12.2504
45.41907087049246 12.1891
45.4432071734666 12.2272
45.46734560548283 12.1993
45.49148616817604 12.1936
45.51581748638564 12.1041
45.5399623320197 12.1245
45.56410931325473 12.0592
45.58825843173002 12.0539
45.61259837920865 12.0385
45.636751793816 12.0448
45.66090735060093 11.9732
45.68506505120716 11.9389
45.7094136545275 11.9311
45.73357566449271 11.9067
45.75773982322992 11.9248
45.78190613238733 11.892000000000001
45.806263418194064 11.8355
45.83043404997326 11.8388
45.85460683713677 11.8471
45.87897065658495 11.8157
45.90314777634752 11.7959
45.92732705646868 11.7957
45.9515084986045 11.7892
45.97588104735473 11.7695
46.00006683541565 11.7234
46.02425479047904 11.6502
46.04844491420549 11.6691
46.0728262191024 11.6584
46.09702070211635 11.6365
46.12121735879483 11.6207
46.14541619080294 11.5815
46.169806278764455 11.5532
46.194009483459034 11.5168
46.21821486849841 11.5408
46.24242243555223 11.5019
46.266821333570014 11.4864
46.29103328674601 11.4397
46.31524742696538 11.4462
46.33946375590237 11.3918
46.36387149104216 11.4091
46.38809221957392 11.3486
46.41231514186606 11.3405
46.436540259597464 11.3345
46.460956858999374 11.3212
46.48518638983522 11.3146
46.509418121166966 11.2418
46.533652054678114 11.269
46.55807754555709 11.2252
46.58231590571962 11.2124
46.60655647313217 11.1574
46.630988654873654 11.2024
46.655233659129024 11.1588
46.67948087571551 11.1129
46.70373030632484 11.1216
46.72817142736393 11.1043
46.752425308428684 11.0654
46.77668140861147 11.0528
46.80093972960865 11.0077
46.82538981736788 10.9734
46.849652602470904 10.9915
46.87391761349769 10.9526
46.8981848521493 10.9314
46.9226439341274 10.9138
46.946915650573224 10.9274
46.97118959976749 10.8865
46.99546578341598 10.8652
47.019933887188216 10.8519
47.04421456235744 10.8095
47.06849747711879 10.7927
47.09278263318286 10.7616
47.11725978640143 10.7769
47.14154944775105 10.74
47.165841355555656 10.7084
47.1901355115306 10.7057
47.214621741924994 10.6683
47.23892041698887 10.6535
47.26322134538975 10.6438
47.28771440635075 10.6262
47.31201986422527 10.6223
47.33632758061436 10.5734
47.360637557241866 10.5873
47.38513974410611 10.5568
47.40945426407847 10.5159
47.43377104948137 10.502
47.45809010204344 10.5354
47.48260144275502 10.4516
47.506925052572285 10.4684
47.53125093475548 10.4252
47.55557909103813 10.3894
47.58009961361992 10.3902
47.60443234110732 10.3549
47.62876734791564 10.3711
47.65310463578333 10.3612
47.6776343683373 10.3192
47.7019762413987 10.2835
47.72632040075572 10.2489
47.75066684815169 10.2607
47.77520581885936 10.2403
47.799556865477655 10.2001
47.823910205386 10.1995
47.84826584033272 10.1482
47.87281407745551 10.127
47.89717432569297 10.1339
47.92153687423484 10.1091
47.94609208429692 10.13
47.97045925671401 10.097000000000001
47.99482873471275 10.0799
48.01920052005013 10.0295
48.04376504619224 10.022
48.068141469543484 10.0756
48.09252020552573 9.969669999999999
48.11690125590099 9.97507
48.1414751266064 9.99811
48.16586082917454 9.96689
48.19024885144316 9.950619999999999
48.2146391951793 9.89462
48.239222439012764 9.88674
48.26361744916137 9.86355
48.28801478610016 9.8542
48.31241445160131 9.862960000000001
48.337007097209366 9.84078
48.36141144338331 9.83657
48.38581812345755 9.77866
48.41022713920929 9.78705
48.434829215320704 9.75718
48.45924292604658 9.74273
48.48365897780325 9.75254
48.50807737237308 9.69917
48.532688907799276 9.70754
48.55711201168574 9.70834
48.581537463754074 9.67304
48.60615611725119 9.65188
48.63058628942721 9.64592
48.65501881516546 9.60248
48.6794536962573 9.60559
48.70408185970339 9.57735
48.72852147531801 9.54766
48.75296345168211 9.513060000000001
48.77740779059232 9.50067
48.80204549302823 9.53165
48.82649458091802 9.48223
48.85094603676547 9.42545
48.87539986237231 9.468160000000001
48.90004713292306 9.42277
48.92450572200832 9.4052
48.94896668628025 9.36465
48.97343002754588 9.38899
48.99808689542115 9.34591
49.02255501470614 9.307730000000001
49.04702551642794 9.27978
49.0714984023988 9.27621
49.096164896893235 9.25725
49.120642575466796 9.26491
49.145122643748394 9.2538
49.16960510355558 9.21288
49.19428125404938 9.18297
49.2187685210852 9.18336
49.243258185121555 9.19064
49.26794160167084 9.15421
49.2924360839405 9.12537
49.31693296869764 9.109110000000001
49.34143225776915 9.12239
49.36612538195438 9.081710000000001
49.39062950396021 9.10305
49.41513603578346 9.07255
49.4396449792564 9.012
49.46434784069503 9.01525
49.488861631846454 8.99657
49.513377840166804 8.99823
49.537896467493745 8.94561
49.56260909589029 8.8996
49.587132585683285 8.953619999999999
49.611658500018365 8.94835
49.636186840738596 8.905619999999999
49.66090926588511 8.87487
49.685442483902584 8.8398
49.70997813385706 8.79373
49.734516217597076 8.79702
49.75924846937352 8.7858
49.7837914452858 8.78133
49.80833686055187 8.77507
49.83288471702571 8.75425
49.85762682540054 8.78088
49.882179588965734 8.72391
49.9067347993235 8.69404
49.93129245833333 8.72141
49.95604445336378 8.6964
49.98060703442832 8.61701
50.005172069746266 8.62438
50.02993150438364 8.60522
50.05450147301533 8.60706
50.07907390151433 8.61024
50.10364879174981 8.562439999999999
50.12841816587289 8.55397
50.1529980044635 8.55673
50.17758031042124 8.49077
50.20216508562089 8.48424
50.22694442953363 8.51029
50.25153416817468 8.47129
50.27612638170508 8.43633
50.300721072005196 8.420960000000001
50.325510416102105 8.39959
50.350110084975064 8.39807
50.37471223628208 8.40817
50.39931687190919 8.3838
50.424116246675766 8.363610000000001
50.44872587605249 8.33259
50.47333799543065 8.33922
50.49795260670191 8.33612
50.52276204271512 8.27466
50.54738166295838 8.2907
50.57200378079314 8.288310000000001
50.596628398116835 8.233360000000001
50.62144792604559 8.19539
50.646077567609396 8.20382
50.670709714377715 8.21739
50.69553683636198 8.20508
50.72017401885922 8.19462
50.7448137122895 8.164589999999999
50.76945591856022 8.13653
50.79429318636823 8.12507
50.818940443716784 8.12208
50.84359021965163 8.10186
50.868242516085964 8.07472
50.893089960641895 8.06875
50.917747323549435 8.008289999999999
50.94240721271973 7.999389999999999
50.96706963007175 8.01491
50.99192728239342 7.97196
51.01659478166073 7.98232
51.04126481489051 8.00266
51.06593738400761 7.96552
51.090805275207074 7.931
51.11548294172845 7.92104
51.14016314993547 7.91635
51.164845901758845 7.93923
51.18972406304274 7.88207
51.21441192780656 7.84462
51.23910234200271 7.868130000000001
51.2637953075678 7.83697
51.288683770237945 7.81601
51.31338186432707 7.805739999999999
51.33808251561888 7.7815
51.362978729967345 7.74489
51.387684521509755 7.7701199999999995
51.41239287610203 7.7089
51.437103795691165 7.70857
51.46201036644977 7.688110000000001
51.486726441956634 7.6750300000000005
51.51144508832545 7.668810000000001
51.536166307509156 7.646039999999999
51.56108326624387 7.64567
51.58580965706056 7.65326
51.61053862657523 7.61722
51.635270176746864 7.5454300000000005
51.66019755512065 7.5850800000000005
51.68493429268881 7.54373
51.70967361681515 7.5450800000000005
51.73441552946465 7.53919
51.759353359237934 7.53023
51.7841004750961 7.49372
51.80885018539685 7.47982
51.833602492111254 7.4489
51.8585508051424 7.45565
51.883308330926425 7.46435
51.90806845906181 7.409339999999999
51.932831191525715 7.404039999999999
51.95779001977161 7.35226
51.98255798721516 7.34748
52.00732856494335 7.351369999999999
52.03229530577543 7.3288
52.057071130455945 7.299460000000001
52.081849571391054 7.3009
52.106630630568695 7.2933
52.13160794279417 7.28448
52.15639426492067 7.292210000000001
52.18118321127822 7.25697
52.205974783860896 7.222230000000001
52.23096269971011 7.19875
52.255759551287994 7.20488
52.280559035098186 7.2020100000000005
52.30536115314103 7.16412
52.33035970494467 7.1364
52.35516711807904 7.14237
52.37997717147198 7.1387100000000006
52.40478986713005 7.105410000000001
52.42979908731974 7.1109
52.454617094216 7.08775
52.47943774942214 7.04339
52.50426105495102 7.04891
52.529280976059844 7.04983
52.554109609024096 7.002000000000001
52.57894089837482 7.00245
52.60377484613117 6.970160000000001
52.62880550079408 6.99137
52.65364479223379 6.96974
52.67848674816189 6.9065199999999995
52.70352547971946 6.941039999999999
52.72837279155837 6.9366
52.753222773982785 6.89646
52.778075429022984 6.897889999999999
52.80312495150885 6.85491
52.827982978797436 6.875210000000001
52.85284368481815 6.86884
52.87770707160767 6.8064800000000005
52.90276741793998 6.79845
52.92763619336701 6.80737
52.952507655698504 6.785830000000001
52.977381806977576 6.7677
53.00245301017842 6.7526600000000006
53.02733256653592 6.7515
53.052214817996074 6.6920399999999995
53.077099766608484 6.681539999999999
53.102181859804446 6.6812
53.127072229988265 6.69039
53.15196530349892 6.67635
53.17686108239249 6.625939999999999
53.20195409881522 6.65216
53.22685531582556 6.6481699999999995
53.25175924441303 6.61465
53.27666588664027 6.59497
53.30176985962693 6.568219999999999
53.3266819565689 6.58902
53.35159677336455 6.59695
53.376514312083096 6.55079
53.40162927507703 6.53823
53.42655228516116 6.5423599999999995
53.45147802340193 6.462680000000001
53.47660125628886 6.49841
53.50153247842639 6.47391
53.52646643496923 6.4922699999999995
53.55140312799818 6.43901
53.576537409691696 6.46145
53.60147960336152 6.41505
53.626424539786164 6.38302
53.65137222105307 6.3651
53.67651758529126 6.3853800000000005
53.70147078399681 6.34826
53.72642673383343 6.32982
53.75138543689533 6.35424
53.776541917524526 6.33143
53.801506154876755 6.29902
53.826473151763246 6.26843
53.851442910284916 6.26639
53.87661054126026 6.26411
53.9015858509782 6.25106
53.92656392866066 6.23557
53.95154477641532 6.24241
53.976723591801296 6.20768
54.00171000771266 6.21975
54.02669920004598 6.22152
54.051691170915745 6.23206
54.076881204886796 6.1186
54.101878760928514 6.17647
54.12687910187696 6.13793
54.152077577768296 6.1134699999999995
54.1770835166946 6.1075800000000005
54.20209224691339 6.07758
54.22710377055121 6.0509
54.25231352511594 6.06463
54.27733066384342 6.02502
54.30235060239643 6.04516
54.32737334290836 6.031969999999999
54.35259441062629 5.96096
54.377622783395324 5.94278
54.40265396455061 5.93963
54.42768795623251 5.93761
54.45292037169559 5.91175
54.477960012857906 5.90768
54.50300247099511 5.86644
54.52804774825457 5.884930000000001
54.55329154616743 5.84943
54.57834249018678 5.80695
54.6033962597977 5.7717
54.6284528571545 5.79516
54.653708072335164 5.75244
54.67877035378786 5.78419
54.70383546947698 5.72845
54.72890342156389 5.75553
54.7541700889442 5.72805
54.77924374251975 5.6525
54.8043202390049 5.61032
54.82959552413022 5.57108
54.8546777351945 5.574990000000001
54.87976279569621 5.583559999999999
54.90485070780914 5.56915
54.930137506558005 5.54851
54.95523115074295 5.54228
54.98032765308844 5.54359
55.005427015775496 5.56572
55.03072536339621 5.49394
55.05583047570572 5.40658
55.080938454927676 5.42095
55.10604930325027 5.428059999999999
55.131359235107396 5.39808
55.15647585066083 5.35377
55.181595341907496 5.32759
55.20671771104285 5.319319999999999
55.232039262617704 5.30104
55.25716741665048 5.29734
55.28229845518636 5.27902
55.30743238042802 5.20401
55.33276558731939 5.19193
55.357905315183636 5.22239
55.383047936390035 5.18595
55.40819345314859 5.1664699999999995
55.433538351073295 5.11112
55.458689688238415 5.062790000000001
55.483843927614096 5.08554
55.509197623043605 5.08406
55.53435769621134 5.083559999999999
55.55952067826466 5.018009999999999
55.5846865714265 4.9787099999999995
55.61005202069737 4.96948
55.63522376553902 4.97173
55.66039842818645 4.96646
55.68557601087004 4.93525
55.7109532500271 4.83801
55.73613670233794 4.8853
