TT I
1.2716486653135266 6.938960000000001
1.2939594142134223 6.45544
1.3162702121660406 7.12812
1.3385810600174564 6.593089999999999
1.3608919586137629 6.0165
1.383202908801069 5.87025
1.405513911425503 6.04061
1.4278249673332093 6.36305
1.4501343378461518 6.22326
1.4724455028545926 5.57616
1.4947567236847858 5.44545
1.517068001182951 5.759930000000001
1.5393793361953272 5.546069999999999
1.5616907295681737 5.18267
1.5840021821477681 5.69245
1.60631369478041 5.14164
1.6286252683124185 4.48299
1.6509369035901333 5.54544
1.6732468618895553 5.31905
1.695558623192809 4.7729800000000004
1.7178704487808514 5.052219999999999
1.7401823395001077 5.0096
1.7625012545597203 4.71496
1.7848028405262486 4.79938
1.8071218901122095 4.31464
1.8294236121921872 4.08031
1.8517427996910911 4.69992
1.8740620574440425 4.826309999999999
1.8963639900671978 4.4938
1.9186833908139995 4.56267
1.9409854680117449 4.74177
1.9633050151394713 4.24697
1.9856246367570705 4.63124
2.0079269371922672 5.33014
2.03024671027244 4.20947
2.0525491637446027 4.403230000000001
2.074869091674931 4.71362
2.097171701569106 4.95118
2.1194917877373847 4.2613900000000005
2.141811954326636 4.7960400000000005
2.164114805233074 4.92476
2.186435135143035 6.44618
2.208738150935709 13.4478
2.231058647554722 28.5322
2.2533792288321184 22.1271
2.275682498336085 10.0116
2.298003251406138 5.94461
2.3203066942619714 5.59925
2.3426276225136022 5.8537
2.3649486396617507 5.41446
2.387252348930071 6.14551
2.4095735463442893 6.0897
2.4318774374315884 6.49739
2.4541988185014043 6.7275
2.476502894794693 7.5987800000000005
2.498824462909887 7.0925
2.521146125856138 7.67547
2.5434504863470337 7.581189999999999
2.5657723414244717 8.05146
2.588076895590662 8.13524
2.610398946189713 8.79323
2.6327210958598384 8.65585
2.6550259469304716 7.29339
2.6773482972090137 8.18619
2.6996533504259 8.27333
2.7219759047039602 8.6038
2.744298562293959 8.36705
2.7666039251246595 7.6985399999999995
2.7889267918020164 7.76045
2.8112323652516555 7.8425
2.833555444408179 8.83158
2.8558786311183852 9.0345
2.8781845268938557 8.95379
2.9005079311721484 8.97199
2.9228140460410397 8.78323
2.9451376712799635 9.288089999999999
2.967444008632326 10.2359
2.9897678582247247 9.722439999999999
3.0120918213106695 10.3709
3.0343984987899373 10.8079
3.0567226913198637 11.2889
3.079029599759726 11.2839
3.101354025127254 11.9749
3.123678568232338 13.0386
3.145985829517914 13.0401
3.16831061055229 13.6584
3.1906181112775593 14.5238
3.212943133635653 15.1777
3.2352682779763207 15.034
3.2575761442691227 15.3365
3.2799015350264273 16.4004
3.302209649240067 16.9173
3.3245352898092655 16.7148
3.3468436553365257 17.1921
3.369169549113219 17.7295
3.3914955708171384 18.7782
3.413804319727358 19.3301
3.4361305997334863 19.1638
3.4584396084414553 19.572
3.4807661501462652 20.4806
3.503092824025881 20.44
3.5254022288463154 20.9334
3.5477291695206588 21.5487
3.5700388426251948 22.3277
3.5923660534916446 23.4831
3.6146934007816114 38.8276
3.637003482731501 89.2245
3.6593311053109985 98.5135
3.681641464033634 56.5925
3.7039693653009733 30.6469
3.726297407241705 26.064
3.7486081875460804 25.4565
3.7709365132734978 26.1334
3.793247578841633 26.0465
3.8155761917550093 26.7419
3.8378875459837216 27.1048
3.8602164494827234 27.1873
3.882545499606844 28.2716
3.9048572932539183 28.6667
3.9271866390645718 29.0699
3.9494987298666713 29.4513
3.971828374764527 29.586
3.9941581705403255 30.1744
4.016470713506008 31.0011
4.038800813471445 32.1161
4.061113662089144 32.446
4.0834440696459176 33.1121
4.105774632334751 33.4243
4.128087945865126 34.5489
4.150418821249301 35.2289
4.172732448931298 36.6047
4.195063640413578 37.9566
4.2173775856475215 42.4883
4.239709096631102 73.9813
4.262040768704612 236.355
4.284355196706267 322.065
4.306687193387355 208.44799999999998
4.329001947444346 81.4817
4.35133427213731 48.2142
4.373666762177566 44.3342
4.395982011761091 44.2089
4.418314834921175 45.4982
4.44063041906622 53.0923
4.4629635787515625 64.5692
4.4852969080429785 63.9875
4.5076130004776225 53.5353
4.529946671403969 49.6868
4.552263106909177 49.5974
4.574597122877047 50.7263
4.596931312711224 51.6828
4.619248269273446 52.9133
4.6415828092605835 53.8424
4.663900117405352 54.9181
4.686235010953232 55.9914
4.708552674085913 57.2166
4.730887924602802 58.7106
4.753223354952695 60.0517
4.775541557023902 61.3996
4.797877349456786 62.913000000000004
4.820195915032126 64.9573
4.842532072957498 66.3742
4.864868414979744 68.3922
4.88718753227192 70.3499
4.909524244902505 72.5987
4.931843734218147 73.9827
4.954180820867835 76.3384
4.976518095879839 79.4494
4.998838149695359 81.7351
5.021175803844231 85.0865
5.043496238205739 87.7125
5.065834274903528 92.3812
5.088172504230693 96.4028
5.1104935158799565 102.363
5.132832132875765 122.85700000000001
5.155153533596801 163.87099999999998
5.1774925416746225 194.548
5.199814334878411 296.26
5.2221537374521505 801.54
5.244493338631803 2514.07
5.266815727034316 7474.94
5.289155727832427 12365.3
5.311478517248165 8847.68
5.333818921080011 2672.71
5.356159527788849 494.61300000000006
5.3784829252032536 176.05599999999998
5.400823940070432 139.60299999999998
5.423147747031976 125.141
5.445489173474152 116.245
5.467830807066149 111.08
5.490155234831516 107.329
5.512497285125229 104.05
5.534822130975162 102.719
5.557164601388673 100.566
5.579489868738879 97.8135
5.601832762690846 96.7268
5.6241758697774475 96.1184
5.646501775867269 95.3838
5.668845311622074 93.8669
5.691171647754637 92.6004
5.713515615597765 91.3857
5.735859800852677 90.646
5.758186788542988 90.0282
5.780531411018185 89.9547
5.802858837297399 89.6933
5.825203900414495 89.145
5.8475491852224 89.6605
5.869877275883075 90.0391
5.892223006467101 91.0401
5.914551544266608 91.4858
5.936897724049891 93.4685
5.959244129804903 97.6867
5.981573344815301 111.35600000000001
6.0039202049061 177.898
6.026249875609095 387.92
6.04859719346037 847.579
6.070927323278297 2122.6
6.093275102315365 4460.34
6.115623113320588 5242.59
6.137953938319995 3177.87
6.160302415650845 935.043
6.182633708324452 223.25799999999998
6.2049826554078376 110.307
6.227331838745022 90.3982
6.249663839443684 83.588
6.27201349767565 81.0459
6.294345974611799 87.8332
6.316696111167083 99.7774
6.339046488263839 93.801
6.361379686074702 78.8838
6.383730546639482 70.9647
6.406064229255215 67.9629
6.428415576718203 67.2482
6.450749747566656 66.1069
6.47310158535871 65.0183
6.495453669698332 64.5864
6.517788579421056 64.3784
6.540141159237969 63.1811
6.562476565766648 62.5376
6.5848296444934045 62.1443
6.607182974060425 61.5541
6.6295191323281015 61.9624
6.651872965955752 65.6514
6.6742096296068985 91.5678
6.6965639707294615 137.561
6.71891856698715 137.328
6.741255995248479 94.5921
6.763611104154477 67.6315
6.785949046381137 59.7557
6.808304671371482 58.0565
6.8306605557940046 57.8255
6.852999275508618 56.9336
6.875355681171544 56.5574
6.897694923437771 55.99100000000001
6.92005185377892 56.2107
6.9423916220322655 55.8235
6.964749080490181 55.0962
6.987106804399774 55.0376
7.009447368180821 55.4172
7.031805625367033 54.8872
7.054146723727803 54.6955
7.076505517631004 54.788000000000004
7.098864581288365 54.7008
7.121206488070854 54.2272
7.143566093607822 54.2408
7.165908543567245 54.3983
7.188268694426048 54.6979
7.2106291193438095 54.9434
7.232972390625943 56.5766
7.255333366030969 69.9921
7.277677189091925 123.241
7.300038718428332 170.03599999999997
7.322400526130865 143.498
7.344745183422596 88.5596
7.367107550224791 61.4596
7.389452767901992 55.8825
7.411815697249891 54.9194
7.434161478756298 54.1934
7.456524974096713 54.2143
7.478888753837185 53.766000000000005
7.501235387657368 53.8176
7.523599738562711 54.1501
7.545946944825532 54.2589
7.568311870344528 54.5727
7.5906770845765665 55.0483
7.613025156078678 56.2485
7.635390950099687 57.5495
7.657739602662809 56.5473
7.680105979923558 55.4486
7.702472650212829 55.3353
7.724822180948224 55.736999999999995
7.747189439655568 55.6712
7.769539560075357 55.6881
7.791907410653562 56.044
7.81425812420825 56.0372
7.836626570110925 56.3548
7.858995315087906 57.1589
7.881346924933401 57.144
7.903716270417482 57.7887
7.926068482028405 58.0831
7.948438431475253 58.6853
7.9708086843180235 59.4264
7.993161805171116 60.0311
8.015532667162402 60.2892
8.037886398416653 60.8916
8.060257873014221 61.2439
8.082629655331942 62.156000000000006
8.104984308787587 63.3081
8.127356708900503 66.41
8.149711981398308 71.8981
8.172085002766314 74.7028
8.194458336181368 71.1956
8.216814543847752 68.3857
8.23918850371002 68.4046
8.26154533906492 69.3688
8.283919928836452 70.854
8.306277395339652 71.8094
8.328652618483376 73.0205
8.351028159736202 74.8029
8.373386579575245 77.0051
8.395762759396959 78.5726
8.418121819038275 83.315
8.440498640894003 96.3458
8.462875785192262 110.07799999999999
8.485235811156207 119.31200000000001
8.507613602688501 146.989
8.529974277114228 221.77599999999998
8.552352719347912 344.569
8.574731488360351 606.354
8.59709314210385 1136.66
8.619472567021075 1877.07
8.64183487789147 2244.01
8.664214962183097 1815.32
8.686577933647762 932.4830000000001
8.708958680784317 362.035
8.731339760774953 167.395
8.753703729764451 110.381
8.77608547780821 97.7318
8.798450116065078 94.1785
8.820832535634787 91.2018
8.843215292401656 89.6388
8.865580941199045 88.0675
8.887964374703538 87.7364
8.910330701447199 88.7303
8.932714815164482 91.1771
8.955099270424924 90.4654
8.977466620733543 87.344
8.999851761421976 84.3748
9.022219798361645 82.4921
9.04460562795561 82.5646
9.066991803441677 82.1788
9.089360876979615 81.9461
9.111747746589993 81.8961
9.13411751544971 81.0536
9.156505082664324 80.4463
9.178875550323522 81.2801
9.20126381862328 81.4218
9.223652438908596 81.6825
9.246023961427412 82.065
9.26841328802173 81.1249
9.290785518039224 80.9006
9.313175554425882 81.3979
9.335565947154315 81.3771
9.357939245086508 81.4058
9.380330352834827 81.882
9.40270436697103 82.0376
9.425096193225055 82.1371
9.447488380180165 82.96799999999999
9.469863475295412 82.9822
9.492256385987508 83.5486
9.514632206018318 83.9669
9.537025843935714 84.2458
9.559402392368193 84.8469
9.581796761000229 86.314
9.604191496441521 86.9069
9.626569144158516 90.3639
9.648964615551032 95.3248
9.671343000390081 96.999
9.693739211225699 94.4111
9.716135793237463 92.4009
9.738515290448102 91.6783
9.760912617143402 92.7155
9.783292860202891 93.7337
9.805690935076182 94.7388
9.828089385495742 95.9047
9.850470754023561 98.1498
9.872869957865444 105.766
9.89525208097539 120.79299999999999
9.917652041736662 133.214
9.940052382417589 131.91299999999998
9.962435644102392 133.442
9.984836746950979 159.562
10.007220771957746 216.02599999999998
10.029622640473708 311.20099999999996
10.052007432299963 483.94699999999995
10.074410069984072 790.628
10.096813093716005 1276.58
10.119199042482517 1761.61
10.141602840636468 1963.0
10.163989564971628 1560.66
10.186394141051062 890.904
10.208799107559706 396.917
10.231187001965623 184.132
10.253592751657669 124.234
10.275981430388155 111.14299999999999
10.298387966769793 111.074
10.320794897965431 113.676
10.343184759907361 112.49600000000001
10.36559248305461 107.37799999999999
10.387983138083852 102.667
10.410391656691655 103.803
10.432800574501677 112.439
10.455192425893369 127.417
10.47760214443012 151.601
10.499994797678786 195.135
10.522405320453982 277.413
10.54479877906917 402.708
10.567210109595656 538.04
10.5896218454736 585.281
10.612016518879773 510.309
10.634429067781074 352.273
10.656824555333241 201.752
10.679237920773568 122.131
10.701651695961992 95.5911
10.724048411481384 88.3777
10.746463008485165 85.3472
10.768860546937125 83.8389
10.791275969274796 81.8961
10.81369180576079 80.8684
10.836090585366925 79.8687
10.858507252467449 78.8073
10.88090686379991 77.9486
10.903324365036394 77.2415
10.925724811614439 77.2047
10.948143150509463 78.5142
10.970561909719066 77.7638
10.992963615930844 75.7234
11.015383218085756 73.9713
11.037785768347074 72.314
11.06020621697282 71.7955
11.082627090322113 71.1587
11.105030913430326 70.7621
11.12745263854165 71.678
11.149857314510728 74.9999
11.172279894912576 80.6379
11.194702904450653 81.863
11.217108866490921 77.7397
11.239532736615194 73.5364
11.26193956033512 71.3542
11.284364294577085 69.4518
11.306789462371718 67.3722
11.329197585398376 66.1676
11.351623622610898 65.9731
11.37403261614354 65.2616
11.396459526308487 65.2708
11.418869393879497 64.7374
11.441297180532617 64.2244
11.463725406927658 64.1158
11.486136592353875 63.6767
11.508565700543707 64.6479
11.530977768845315 66.6658
11.553407762368774 67.2755
11.575838200059769 66.7998
11.598251599479612 64.6821
11.620682927815501 63.2557
11.64309721895548 62.7017
11.665529441478206 62.3195
11.687962112597958 62.0376
11.710377748130886 61.9403
11.732811318753434 62.2535
11.755227854859067 62.2775
11.777662328529495 62.0233
11.800079768750786 61.6162
11.822515149015453 61.4515
11.844950984084935 61.8208
11.867369787303163 61.6598
11.889806534289491 61.4373
11.912226250487029 61.8044
11.934663912939751 62.0768
11.9571020346363 62.1083
11.979523127133968 62.0092
12.001962169624331 62.4908
12.024384183972964 63.0673
12.046824150809913 65.6167
12.069264581333726 70.226
12.091687985297767 75.956
12.11412934550045 84.6683
12.136553680195208 99.2043
12.158995973632788 123.227
12.181438735204349 152.591
12.20386447284199 191.515
12.226308172985636 214.00099999999998
12.24873485024193 204.935
12.271179492516982 168.521
12.293607112949127 126.281
12.316052700916226 94.8822
12.338498763250042 77.542
12.360927805303868 69.1796
12.383374818673879 65.4079
12.405804812803074 63.733999999999995
12.428252780773262 63.5699
12.45070122756722 63.5523
12.473132656675375 63.2753
12.49558206341869 63.4227
12.518014453510101 63.3745
12.540464823770117 63.4843
12.562915677315177 63.5048
12.58534951575545 64.6426
12.607801338171472 66.6066
12.630236146511358 71.9647
12.652688941369085 76.6658
12.675124723177234 77.3196
12.697578494048786 73.2519
12.720032754458185 68.9117
12.742470003354093 67.1193
12.764925245138771 66.8551
12.787363476431278 67.0764
12.809819703166806 67.2725
12.83227642391173 68.0069
12.854716135692716 68.6067
12.877173846755147 69.6997
12.899614549869717 69.8472
12.9220732548287 70.4505
12.94453245827299 70.8883
12.966974655289818 72.1718
12.989434858002571 72.8171
13.011878055298721 73.5093
13.034339260862497 74.6435
13.056800969391883 75.6411
13.079245674017244 77.2817
13.101708390774869 78.9863
13.12415410463411 84.4672
13.146617833206086 94.425
13.169064559883248 105.536
13.191529303857127 119.21799999999999
13.213994557076367 141.128
13.236442809902437 177.737
13.258909083908291 233.287
13.28135835851934 303.629
13.30382565690295 374.788
13.326293469022952 423.475
13.348744283242008 420.533
13.371213125129904 348.699
13.39366497011003 256.808
13.416134845360597 169.958
13.438605238843131 121.575
13.46105863690397 102.818
13.483530069144786 101.037
13.505984506951902 105.331
13.528456981549432 114.436
13.550929978879088 128.361
13.573385983253365 152.347
13.595860028340867 193.02700000000002
13.618317081455832 249.172
13.64079217790333 308.437
13.663250283359057 358.656
13.685726434770173 378.15
13.708203115221277 333.705
13.730662806148091 259.04200000000003
13.75314054697177 182.05700000000002
13.775601299246777 126.044
13.798080104050406 96.0997
13.820559442405358 83.9373
13.843021793671388 80.5017
13.865502201420897 78.7124
13.887965623051947 78.2932
13.910447103807167 77.3433
13.932929122629764 76.1491
13.955394156785959 75.5692
13.977877254034569 74.6321
14.000343367582113 73.8191
14.022827546871707 73.0677
14.045294743423524 72.3501
14.06778000837062 71.9101
14.090265817715476 71.8119
14.112734645763819 71.686
14.13522154619454 71.3828
14.157691466286913 71.4601
14.180179461423874 71.1297
14.202668005486178 70.3502
14.22513957064374 69.8956
14.247629214846473 69.0997
14.270101881097517 69.0795
14.29259262906496 69.7647
14.315083930490205 70.5986
14.337558255389705 70.6107
14.360050666019726 70.3706
14.382526101071944 69.2436
14.405019624534942 68.2665
14.427513705993134 67.6061
14.449990813291825 67.6049
14.47248601302899 67.597
14.49496423954951 67.9649
14.517460561197822 67.8646
14.539939910570322 67.4096
14.562437357763558 68.1209
14.58493536931253 69.0596
14.607416409993311 70.0218
14.62991555254159 70.8427
14.652397725157423 70.2868
14.674898002342799 69.7781
14.697398848433282 69.5154
14.719882725991326 69.8015
14.74238471217934 70.0972
14.764869730765593 72.7725
14.787372860692983 75.8471
14.809876564079925 79.9352
14.83236330125751 85.3382
14.854868153850365 93.5008
14.877356041159485 106.939
14.899862046604186 126.429
14.922351087688757 153.345
14.944858249632887 185.18
14.967365991421232 212.48
14.989856770231246 224.981
15.012365673994204 218.373
15.03485761569738 188.578
15.05736768508665 147.688
15.07987833888692 112.992
15.102372032001655 90.1394
15.124883856909658 76.5321
15.14737872204565 71.2348
15.169891721717274 69.5179
15.192405310371893 69.3464
15.214901940621196 69.8542
15.237416709527137 70.1557
15.259914520936249 70.2098
15.282430473753607 69.1104
15.304947020131227 67.8416
15.327446610371178 66.8884
15.349964346154254 66.2061
15.372465126703139 65.9096
15.394984055556009 65.5736
15.417486030076159 65.5189
15.44000615566487 65.1444
15.462526881230803 65.0851
15.485030653812652 65.485
15.507552581617434 65.4025
15.530057557334603 65.4439
15.55258069104857 65.0586
15.575104429329837 65.0693
15.597611216864632 64.6907
15.620136166564563 64.7541
15.6426441664095 65.4584
15.665170331202765 67.1265
15.687697105158826 69.9879
15.710206930593545 72.9597
15.732734925158933 76.7418
15.755245972089478 82.8385
15.77777519094324 92.0079
15.800287463046663 105.04
15.822817909869592 125.045
15.84534897229804 148.10299999999998
15.867863089299354 172.11599999999999
15.890395385222186 190.687
15.912910736597423 193.28799999999998
15.935444269699861 182.739
15.957978423016485 152.739
15.980495633101265 120.58200000000001
16.003031029129367 93.8033
16.02554948280019 75.8681
16.048086125229432 67.1942
16.070623392487107 64.4298
16.09314371869582 63.7072
16.11568223789321 62.8987
16.13820381691126 61.9457
16.160743591742527 60.6466
16.183283996022084 59.7761
16.205807461423195 58.8613
16.228349126881973 58.2872
16.25087385432698 58.1588
16.27341678466365 57.4982
16.29594277784926 57.5817
16.31848697676433 57.8078
16.341031811604868 58.1696
16.36355971058487 58.479
16.3861058195587 58.1866
16.40863499352978 56.8729
16.431182380342005 55.9966
16.453730407713202 55.4038
16.476261501364792 54.9964
16.498810812136167 54.8307
16.52134319004079 54.9736
16.54389378792203 54.803000000000004
16.566445031001553 54.6767
16.588979342490088 54.5021
16.61153187824822 54.3264
16.634067483263312 54.2445
16.656621315414416 53.9852
16.679175797408888 53.6533
16.701713349928728 53.9066
16.72426913389191 54.1299
16.74680798922351 54.1963
16.76936507887444 54.2151
16.791905240734874 54.0664
16.814463639794468 53.8775
16.837022695210294 53.9548
16.859564824093756 54.6071
16.882125194503903 55.2267
16.904668639217885 55.7943
16.927230328348003 56.0636
16.949792678493612 56.0856
16.972338104193863 55.1667
16.994901778652235 54.7532
17.017448529496576 54.7926
17.040013531998152 54.8646
17.06257920018044 55.1867
17.0851279459922 56.0159
17.107694947817667 56.9068
17.130245028099072 57.4274
17.15281336730298 58.8544
17.17536478578733 60.5214
17.19793446610687 62.7601
17.220504818648422 65.5662
17.243058251703697 69.0488
17.265629950971032 74.0693
17.288184731571736 79.4855
17.310757781306908 82.84700000000001
17.33333150794385 83.0719
17.355888317140174 81.2893
17.37846339986244 76.0407
17.401021565958885 70.1385
17.42359800851343 64.7888
17.44617513265564 61.2098
17.468735341390783 59.3347
17.491261035594565 58.2758
17.51396340099364 58.1478
17.536490463869136 58.1725
17.559018209820174 58.1406
17.58154663977963 58.3363
17.604251766089718 58.6165
17.626781572227713 58.6834
17.64931206518155 58.9955
17.671843245885103 59.568000000000005
17.69455114821572 59.6591
17.717083712612634 60.0245
17.739616967569667 60.0765
17.762150914021706 60.4078
17.78486160749854 60.2136
17.807396945166804 60.9018
17.829932977143503 61.3828
17.85246970436452 62.6253
17.875183204129467 64.4108
17.897721330097664 66.3841
17.920260154126645 68.6225
17.942799677153296 71.6276
17.9655159983646 75.1402
17.988056927677544 80.6977
18.010598558807683 88.1422
18.033140892692916 98.7584
18.05586005052525 109.88600000000001
18.07840379824407 121.796
18.10094825154059 131.689
18.12366954819864 138.019
18.146215420998306 136.135
18.16876200220057 126.994
18.191309292745153 113.60700000000001
18.214033452627167 101.193
18.236582170236648 90.1465
18.259131600016456 84.861
18.281681742907335 85.2717
18.304408781233683 89.8844
18.32696035875955 95.8412
18.349512652227624 100.655
18.372065662579683 104.21700000000001
18.394795594587553 104.397
18.41735004715306 100.285
18.43990521943684 93.3139
18.46246111238171 84.6143
18.485193953325208 76.209
18.507751296070428 68.9039
18.530309362314178 64.7613
18.552868153000343 62.6402
18.57560391815056 61.1905
18.59816416623245 60.8749
18.620725141597372 60.3613
18.643286845190268 59.9115
18.666025549835414 59.4226
18.688588718427933 58.9873
18.711152618092243 58.8793
18.73389353884365 58.5202
18.75645890921984 58.0763
18.77902501351406 57.7731
18.801591852673102 57.8203
18.824335739722738 57.3726
18.846904057212626 57.2781
18.8694731124168 57.0009
18.89204290628315 57.0194
18.914789774966803 56.7882
18.937361054791623 56.4974
18.959933076131318 56.3071
18.982505839934877 56.1904
19.00525570560582 56.352
19.027829963004184 56.256
19.05040496572238 56.3289
19.072980714710468 56.0702
19.095733592739563 56.2554
19.11831084296757 56.6451
19.140888842324735 56.8743
19.16346759176222 57.0781
19.18622349753803 57.5877
19.208803755869358 58.4639
19.231384767143577 59.4976
19.253966532312948 61.0087
19.276725481241822 63.3166
19.29930876296784 66.0005
19.3218928014549 69.0275
19.34465404436217 72.444
19.36723960516257 75.0861
19.389825925592426 75.8582
19.412413006605938 74.6922
19.43517731967805 70.8086
19.457765930683355 66.5185
19.48035530514408 62.3507
19.50294544401556 58.6242
19.525712842708348 56.0217
19.54830451925909 54.49
19.570896963095727 53.3526
19.593490175174704 53.2934
19.616260674962184 53.1513
19.638855432416964 52.5439
19.661450960992624 52.9285
19.68404726164677 52.8222
19.706820878021247 52.713
19.729418731756834 52.7673
19.752017360452857 52.4674
19.77461676506804 52.6654
19.797393513540218 52.7575
19.819994478951667 52.9864
19.84259622316767 53.5071
19.8651987471481 53.8789
19.887978643247177 54.0447
19.91058273574792 54.6072
19.933187610901943 55.4239
19.955969879466828 56.4591
19.97857632894404 57.7585
20.00118356396599 59.6152
20.023791585494575 61.696000000000005
20.046577028914875 64.4137
20.069186632506966 66.6211
20.091797025500632 68.3929
20.114408208858933 68.8324
20.137196842715273 68.4265
20.159809615886765 67.0326
20.18242318232135 64.4117
20.20503754298326 62.2798
20.227829382875154 61.5077
20.250445341109344 61.5313
20.27306209647285 62.3407
20.29567964993108 63.5897
20.31847471147704 64.7154
20.34109387027612 65.0949
20.363713830075454 64.8401
20.386334591841646 63.1639
20.409132890679302 60.7081
20.431755265564437 57.4524
20.454378445325528 54.7318
20.477002430930366 52.8512
20.499803982716553 51.6924
20.522429589228004 51.0245
20.54505600449589 50.6081
20.567683229489194 50.3549
20.590488049900088 49.8922
20.61311690359731 49.4979
20.63574656993626 49.2889
20.658553853717297 49.0887
20.681185154618298 48.9429
20.703817271080066 48.9685
20.72645020407368 48.4366
20.749260783967177 48.4351
20.771895359337133 48.4009
20.794530754161617 48.2909
20.817166969412938 48.1881
20.83998086114876 48.2103
20.86261872660049 47.9941
20.885257415405402 48.0237
20.90789692853701 47.8539
20.930714147864748 47.8804
20.953355319030678 48.0903
20.97599731745334 48.0031
20.99864014410749 47.8952
21.021460706796564 47.8375
21.044105199328826 48.2236
21.06675052302631 48.327
21.089396678865015 48.4406
21.112220600704806 48.6963
21.134868430275347 49.0309
21.15751709492456 49.5251
21.180166595629693 49.8061
21.202993892429635 50.3778
21.22564507473034 50.567
21.24829709602816 50.8627
21.27112693608965 50.8867
21.293780644891275 50.9401
21.316435195634053 50.0924
21.339090589297417 49.4809
21.361923832041875 49.1278
21.384580921090404 48.3056
21.407238856007325 47.8719
21.429897637773326 47.8163
21.45273429906592 47.5244
21.475394784108598 47.5566
21.498056118951983 47.65
21.520718304578022 47.9278
21.543558400304388 47.9892
21.566222297108816 48.0043
21.58888704765135 48.1047
21.61155265291521 48.4861
21.63439619898156 48.8282
21.657063523335786 49.0048
21.67973170537063 49.4508
21.7024007460706 49.8991
21.72524775840385 50.7458
21.747918526116475 51.7165
21.770590155457388 52.9692
21.79326264741238 54.7348
21.816113141960237 56.4607
21.838787368860547 58.4079
21.861462461341976 60.4088
21.884315579735777 62.2303
21.90699241312273 63.3343
21.92967011506078 63.5412
21.95234868653799 63.3928
21.9752053151131 61.9561
21.997885635446785 60.1846
22.020566828293532 58.4942
22.04324889464272 57.0382
22.066109049404666 55.8822
22.088792872571794 55.446999999999996
22.111477572219204 55.3807
22.1341631493376 55.451
22.157026846313123 55.05
22.179714188221507 54.3535
22.202402410582668 53.496
22.22509151438863 52.0389
22.24795876962584 50.7213
22.270649646204486 50.0702
22.293341407213727 49.2063
22.316034053646906 48.6579
22.338904883215342 48.431000000000004
22.36159931041458 48.4071
22.38429462602756 48.5613
22.40699083104897 48.2712
22.429865251039757 48.1717
22.452563244831367 48.2962
22.47526213102522 48.325
22.49813925616515 48.1129
22.520839937143307 47.8752
22.543541513520587 47.8643
22.56624398629403 47.8231
22.589124730075895 47.7184
22.611829005656723 47.9594
22.63453418063466 47.8699
22.657240256008077 48.0703
22.680124634582935 48.2276
22.70283252079775 48.4686
22.725541310413075 48.6656
22.74825100442868 48.9905
22.771139033969575 49.5756
22.79385054687155 49.8612
22.81656296718292 50.2272
22.83927629590484 51.1382
22.862167992606945 52.2319
22.88488314827121 53.5575
22.907599215359284 54.6002
22.93031619487366 55.7956
22.953211574954405 56.7299
22.975930389478226 57.2253
22.998650119445763 57.5724
23.02137076586092 56.6426
23.044269845560063 55.3116
23.06699233506288 53.9244
23.089715744034912 52.1517
23.112617610931565 50.2909
23.135342869061212 49.4106
23.158069049684816 48.5462
23.1807961538087 48.183
23.20370174880544 48.129
23.226430710184808 47.9885
23.249160598093425 48.123000000000005
23.271891413539002 48.1019
23.294800752937697 48.1029
23.31753343374794 48.2409
23.340267045128353 48.2781
23.36300158808808 48.6245
23.38591468821339 49.0312
23.408651104658304 49.3035
23.431388455719986 49.9456
23.454126742409 50.8369
23.4770436196085 51.958999999999996
23.499783787914662 53.3418
23.522524894889884 54.4023
23.54526694154616 55.599
23.56818761219047 56.6756
23.59093154860734 56.9469
23.613676427751283 57.2742
23.636422250635754 56.3497
23.659346731118656 54.6739
23.68209445191868 52.8577
23.704843119509587 50.7835
23.72759273490623 49.0188
23.750521041644767 47.7822
23.77327256312355 46.7306
23.796025035462787 46.0867
23.818956224555475 45.5727
23.841710609113413 45.4142
23.86446594758979 45.2626
23.887222241002014 45.0151
23.910157285144578 44.5943
23.932915498962537 44.6215
23.955674670778713 44.3747
23.978434801611975 44.2271
24.001373717286125 44.0212
24.024135776723917 43.9974
24.046898798245582 43.9461
24.06966278287146 43.7508
24.092605586582614 43.733000000000004
24.115371508023642 43.6125
24.1381383956401 43.3696
24.16090625045381 43.4973
24.183852958731244 43.3448
24.206622758582608 43.2831
24.229393528706886 42.8785
24.252165270127392 43.1644
24.27511589952438 43.0882
24.297889594216997 42.8188
24.32066426328598 42.6496
24.34343990775613 42.843
24.36639447485003 42.6534
24.38917208083877 42.5916
24.41195066531332 42.4745
24.43490819850244 42.4585
24.457688750692377 42.4282
24.48047028445616 42.5878
24.503252800821233 42.5546
24.526214300784112 42.4084
24.548998793132213 42.6316
24.57178427117417 42.3437
24.59457073593893 42.3584
24.617536219319863 42.5159
24.64032466834748 42.3594
24.663114107195035 42.108999999999995
24.685904536893013 41.8181
24.708874020360852 41.9978
24.731666442613744 42.047
24.754459858818787 41.9923
24.777254270007962 41.9138
24.80022777025625 41.791000000000004
24.82302418230472 41.7679
24.845821592443674 41.6842
24.86862000170663 41.6226
24.891597535453727 41.5356
24.914397953892728 41.6517
24.93719937456671 41.536
24.96000179851076 41.745
24.98298338249997 41.8934
25.00578782394922 41.9188
25.028593271784167 42.1777
25.05157790644186 42.5801
25.07438537804115 42.7218
25.097193859145293 43.0225
25.120003350792075 43.1706
25.142992065061257 43.6241
25.165803588823465 43.7902
25.18861612625217 43.9205
25.211429678386736 44.0231
25.234422489079968 44.1939
25.257238081693636 44.299
25.280054692141732 44.4408
25.3028723214652 44.3781
25.325869245420463 44.3641
25.348688923599397 44.3519
25.371509623787006 44.3462
25.394331347025812 44.0946
25.41733240110666 43.5717
25.440156181590016 43.0024
25.46298098826268 42.3699
25.48580682216873 41.8421
25.50881202326435 41.4358
25.53163992281684 40.9635
25.55446885274561 40.5874
25.577298814096377 40.3896
25.600308179121807 40.4094
25.623140214533745 40.357
25.64597328451537 40.2637
25.66898578564376 39.9946
25.691820936010206 40.01
25.714657124097695 40.0739
25.737494350954734 39.988
25.760511045684957 39.9019
25.783350361364224 40.0771
25.806190718969255 40.05
25.82903211955018 39.9769
25.852053024868923 40.1307
25.874896522722523 40.1209
25.897741066713106 40.0213
25.920586657892454 40.2297
25.943611790812668 40.183
25.966459487728237 40.3779
25.989308234998564 40.4056
26.01215803367705 40.7949
26.03518741123814 41.0509
26.05803932412957 41.0464
26.080892291600094 41.119
26.10374631470478 41.0105
26.12677995397268 41.1869
26.14963609978026 41.1267
26.172493304397875 40.7017
26.19535156888223 40.507
26.218389486949604 40.132
26.241249882640123 39.8816
26.26411134137826 39.7578
26.28715248187403 39.6479
26.31001607820869 39.5866
26.3328807407756 39.2893
26.35574647063438 39.4844
26.37879191991473 39.4779
26.401659795896734 39.5587
26.424528742360263 39.7679
26.447398760366614 39.8826
26.470448535598294 40.0492
26.49332070826805 40.2127
26.516193955675355 40.5473
26.53906827888316 40.7077
26.562122397260108 40.8451
26.584998883685063 41.148
26.607876449110325 41.4603
26.63075509460056 41.6818
26.65381357334404 41.6705
26.67669439061878 41.7079
26.699576291163382 41.4368
26.722459276044212 41.3768
26.745522132402975 41.1314
26.768407297649354 40.7994
26.791293550442003 40.5792
26.814180891848974 40.3793
26.837248143099337 39.9629
26.860137673466657 39.8599
26.88302829566349 39.5279
26.90592001075963 39.4297
26.92899167420566 39.3978
26.951885586870763 39.0687
26.974780595655517 38.8678
26.99785558178161 38.7329
27.020752794605112 38.6216
27.043651106772522 38.3758
27.06655051935668 38.2923
27.089629948036183 38.1689
27.112531573292053 38.1514
27.135434302194138 38.2634
27.158338135817015 38.0364
27.181422024430987 38.1295
27.204328079372566 37.9972
27.22723524226965 38.0476
27.250143514198573 38.0114
27.273231880156334 37.9844
27.296142382065014 37.8631
27.319053996245536 37.8748
27.341966723775965 37.9309
27.365059584515222 37.9926
27.38797455070062 38.1233
27.410890633481237 37.8546
27.433807833936918 37.8578
27.456905206923906 38.0709
27.47982465472398 38.1275
27.502745223449743 38.0576
27.525666914182825 38.1084
27.548768816912457 38.0937
27.571692763693633 38.048
27.59461783573812 37.7849
27.617723149491244 37.6551
27.640650484125285 37.5932
27.66357894728264 37.6876
27.686508540048052 37.7171
27.709618414237887 37.5185
27.732550278321757 37.3335
27.755483275279115 37.4266
27.778417406196485 37.4565
27.801531858397514 37.4199
27.824468269376716 37.3843
27.847405817586786 37.3874
27.870344504116094 37.4888
27.893463551932008 37.6685
27.916404527281053 37.9026
27.93934664422563 37.9286
27.962289903855886 37.9718
27.98541356491974 38.1232
28.00835912214229 38.2319
28.03130582533231 38.5811
28.054253675581805 38.7315
28.077381967556104 38.476
28.100332124185126 38.6077
28.123283431160893 38.4013
28.146235889577238 38.262
28.169368830154156 38.1865
28.192323603752033 37.9259
28.215279532083304 37.6361
28.238415973016764 37.5484
28.261374223145094 37.2987
28.284333631303806 37.1583
28.307294198589954 37.0693
28.330435319167677 36.7238
28.353398217078915 36.4523
28.376362277420153 36.3797
28.39932750129032 36.1149
28.422473319286713 35.9683
28.44544088262495 35.9196
28.468409612800283 35.8186
28.491379510913497 35.7461
28.51453004413313 35.518
28.53750229057244 35.4644
28.56047570826344 35.486
28.583450298308804 35.4454
28.606605564586562 35.3275
28.629582511831156 35.3255
28.65256063474956 35.1343
28.675539934446338 35.3128
28.698699951647605 35.163000000000004
28.72168161743193 35.1034
28.74466446331978 35.1017
28.767648490417624 35.0382
28.790813276438353 34.9877
28.813799678527303 35.0598
28.836787265157085 35.0046
28.859955641890075 35.0785
28.882945610203045 35.0598
28.905936766392035 34.8978
28.928929111566863 34.863
28.952102288520145 34.8394
28.975097024308607 34.6562
28.998092952423807 34.5062
29.021090073977508 34.486
29.04426806913204 34.437
29.067267590245258 34.2206
29.090268308143695 34.0411
29.11327022394099 34.0189
29.13645305530891 34.0214
29.159457379627167 34.0198
29.18246290519685 33.9761
29.20546963313352 33.825
29.22865731875826 33.897
29.25166646419296 33.8911
29.27467681535305 33.717
29.29768837335608 33.8179
29.320880931312562 33.8502
29.34389491580634 33.8003
29.366910110507334 33.869
29.38992651653503 33.8806
29.41312396492981 33.7778
29.436142806456754 33.8277
29.45916286268059 33.5556
29.48236399319994 33.4831
29.50538649169417 33.3569
29.528410208259935 33.2686
29.55143514402014 33.1125
29.574641196749695 32.9174
29.597668583816574 32.954
29.6206971934585 32.7213
29.64372702680042 32.7986
29.666938019934474 32.7742
29.689970313635285 32.593
29.713003834422636 32.5633
29.73603858342347 32.5808
29.759254535188578 32.4625
29.78229175361658 32.5052
29.80533020365064 32.4797
29.82836988641968 32.4232
29.85159081507472 32.4257
29.874632976355343 32.185
29.89767637376955 32.3337
29.920721008448314 32.1735
29.9439469322847 32.2084
29.96699405457564 32.0064
29.9900424175358 32.095
30.013092022298157 32.0417
30.03632295963995 32.2097
30.059375061131373 32.1312
30.08242840783577 32.1541
30.105483000888153 32.1611
30.128718970092244 31.9979
30.151776069006917 31.9461
30.17483441768648 32.0168
30.198074175317235 32.083
30.221135036724256 32.0096
30.24419715131772 32.0615
30.267260520236203 31.9288
30.290505341942243 32.014
30.313571232750228 32.037
30.336638381310948 31.941999999999997
30.35970678876503 31.7644
30.38295669299435 31.7299
30.40602763151657 31.7657
30.429099832366074 31.7326
30.452173296685572 31.6171
30.47542830191959 31.6249
30.498504306502497 31.6349
30.521581577995562 31.7405
30.544660117543582 31.8342
30.56792024229725 31.7887
30.59100133132069 31.8447
30.614083691845494 31.781999999999996
30.637167325018545 31.8614
30.660432587840603 31.8138
30.683518779717886 31.7245
30.70660624769615 31.8812
30.729694992924372 31.8079
30.75296541239743 31.7516
30.77605672557558 31.6472
30.799149319462742 31.6671
30.8224236211637 31.5722
30.845518789950724 31.5698
30.868615242910597 31.3624
30.891712981195973 31.2153
30.91499247215866 31.1677
30.938092794619365 31.2654
30.96119440587579 31.0826
30.984297307082752 30.9377
31.00758200598383 30.8101
31.030687500658694 30.8733
31.053794288760695 30.7046
31.076902371446767 30.6916
31.100192296997445 30.7311
31.12330298246119 30.6417
31.14641496599209 30.496
31.169528248749216 30.6156
31.19282341969534 30.6249
31.215939314557186 30.6177
31.239056512134788 30.6924
31.262175013589378 30.5937
31.28547544871168 30.4446
31.30859657161541 30.4116
31.331719001892175 30.4845
31.35484274070538 30.531
31.378148458819545 30.5526
31.401274828443725 30.4897
31.424402510106933 30.523000000000003
31.447712205419993 30.5502
31.470842524931633 30.3953
31.493974159989783 30.427
31.51710711176168 30.4321
31.54042212308802 30.4437
31.563557722100917 30.3528
31.586694641341655 30.2354
31.609832881979628 30.1018
31.63315322823208 30.135
31.656294125521327 30.0873
31.679436347728515 29.9654
31.70257989602529 29.9139
31.725905596152327 29.8294
31.74905181052835 29.7397
31.772199354521323 29.8217
31.79534822930507 29.7844
31.818679302290967 29.775
31.84183085259981 29.7317
31.864983737233473 29.6878
31.88813795736804 29.7219
31.911474422233013 29.7163
31.934631327356435 29.789
31.9577895715215 29.6892
31.980949155906522 29.6078
32.004291031706956 29.5915
32.027453310562606 29.5482
32.05061693318573 29.4385
32.07396288236386 29.4184
32.09712920658542 29.3443
32.12029687812702 29.1504
32.14346589817093 29.1946
32.166817291729984 29.2576
32.18998902288583 29.0837
32.21316210610336 29.0165
32.23633654256711 28.9594
32.259693399663725 28.9646
32.282870556771144 28.8065
32.30604907069099 28.8145
32.329228942610065 28.7755
32.35259128243769 28.6352
32.375773884550505 28.6229
32.398957848235646 28.6044
32.422143174682176 28.4721
32.445511016471215 28.3428
32.468699082679954 28.4574
32.49188851523011 28.3879
32.51507931531304 28.3471
32.538452678331 28.3311
32.56164622776311 28.1299
32.58484114831493 28.1165
32.60803744118015 28.1896
32.631416344731896 28.1822
32.654615396551876 28.1441
32.67781582427913 28.0869
32.701198898634416 28.0474
32.72440209253756 27.9778
32.747606665947124 27.9005
32.77081262006088 27.7395
32.79420126883317 27.7716
32.81740999876112 27.7827
32.840620112999424 27.7398
32.86383161274818 27.6679
32.88722585534586 27.6388
32.91044014056596 27.6766
32.933655814909734 27.6732
32.95687287957963 27.6542
32.98027273544904 27.5228
33.00349259526636 27.5048
33.026713849030116 27.5374
33.04993649794511 27.5879
33.073341986570746 27.4884
33.09656744032826 27.4665
33.11979429286444 27.5009
33.14302254538647 27.401
33.166433686291185 27.4053
33.18966475336992 27.4151
33.212897224069096 27.323
33.23613109959831 27.2474
33.259547912343415 27.2097
33.2827846121627 27.2152
33.306022720453775 27.1328
33.32926223842861 26.9744
33.352684742614166 27.1338
33.37592709463173 27.069000000000003
33.399170859982064 26.9747
33.422597648419426 26.8531
33.44584425514446 26.8186
33.46909227885668 26.7374
33.4923417207723 26.622
33.51577423505344 26.6773
33.539026528130385 26.6319
33.56228024307245 26.5024
33.585535381098246 26.4774
33.60897364093058 26.5019
33.63223163992385 26.4879
33.6554910656699 26.404
33.678751919389796 26.4342
33.702195944520106 26.2733
33.72545966903325 26.2481
33.74872482519663 26.158
33.771991414233746 26.1935
33.79544122444841 26.2386
33.81871069412428 26.1325
33.84198160035767 26.112
33.86525394437455 26.1311
33.88870955949969 26.0288
33.911984794020626 25.9782
33.93526147001624 25.9728
33.958539588715006 25.886
33.98200102861669 25.8629
34.0052820477047 25.8001
34.02856451319451 25.7517
34.05203033759056 25.592
34.07531571090147 25.7098
34.09860253431845 25.6811
34.121890809074316 25.619
34.145362493118924 25.6315
34.16865368561615 25.6034
34.191946333164054 25.486
34.21524043699793 25.4377
34.23871800066799 25.4283
34.26201503218366 25.3559
34.28531352370466 25.3506
34.30861347646881 25.3082
34.33209693978188 25.2643
34.3553998301885 25.2535
34.378704185565205 25.1707
34.402010007152356 25.0182
34.42549939016683 25.0715
34.44880815937748 25.0027
34.472118398533134 25.0093
34.49543010887669 25.0039
34.51892543169198 24.8679
34.54224009966052 24.9225
34.56555624255917 24.8983
34.58887386163339 24.7372
34.61237514439016 24.7359
34.6356957311114 24.7157
34.65901779775809 24.6287
34.68252356662995 24.596
34.705848608458616 24.5866
34.72917513396849 24.5288
34.75250314440949 24.5164
34.77601490857862 24.3952
34.799345904259795 24.3776
34.82267838863559 24.4058
34.846012362958525 24.3944
34.869530142679984 24.2653
34.89286711232212 24.3045
34.91620557568269 24.2893
34.93954553401677 24.2515
34.9630693495876 24.2166
34.986412313340814 24.2313
35.00975677584668 24.1846
35.033102738362956 24.1837
35.05663261012228 24.065
35.0799815881786 24.0683
35.10333207003229 24.0507
35.12668405694369 24.0518
35.150220005273056 24.0023
35.17357501786656 23.925
35.19693153931268 23.9399
35.220289570874385 23.8623
35.24383161619786 23.883000000000003
35.267192683604904 23.896
35.290555264930376 23.8529
35.314101899412165 23.86
35.33746752422433 23.7653
35.36083466676374 23.789
35.38420332829803 23.7818
35.407756095629054 23.758000000000003
35.43112781085063 23.6745
35.45450104888391 23.5629
35.477875810999194 23.5659
35.50143473172161 23.4774
35.52481255774625 23.6317
35.54819191167777 23.5332
35.57157279478914 23.4654
35.595137889488406 23.412
35.61852184675279 23.374000000000002
35.641907337029984 23.3315
35.665294361595684 23.3539
35.68886565090076 23.3154
35.7122557598848 23.2638
35.73564740699838 23.261999999999997
35.759040593519934 23.2204
35.78261809810353 23.305
35.80601437933051 23.0994
35.829412203814705 23.0884
35.85281157283719 23.0337
35.876395313415884 23.0522
35.8997977874528 22.9739
35.92320180988546 22.9276
35.946790244133936 22.8348
35.97019737933222 22.9382
35.993606066789866 22.7837
36.01701630779276 22.7365
36.04061101440684 22.7292
36.06402437852291 22.7787
36.08743930005611 22.7665
36.1108557802951 22.5877
36.13445678011326 22.6215
36.15787639383515 22.5379
36.18129757014299 22.5694
36.20472031032821 22.576
36.22832762423364 22.4327
36.25175350829375 22.4311
36.275180960119776 22.2809
36.298609981005924 22.346
36.32222362992669 22.4063
36.34565580510207 22.3235
36.36908955323448 22.295
36.39252487562093 22.2037
36.416144880530226 22.1488
36.43958336764275 22.1333
36.463023432914625 22.1117
36.486465077645676 22.1202
36.51009145956204 22.1778
36.53353627947859 22.1089
36.55698268276811 22.043000000000003
36.58043067073321 22.0117
36.60406345072071 21.9506
36.62751462435344 21.953000000000003
36.65096738658405 21.9334
36.67460498210655 21.86
36.69806093788647 21.7989
36.72151848619297 21.8285
36.744977628333636 21.8968
36.76862165890998 21.7418
36.79208400512205 21.6813
36.81554794910557 21.7205
36.83901349217101 21.6079
36.862663978991606 21.6301
36.88613273667352 21.5464
36.90960309738324 21.4873
36.933075062434064 21.5155
36.95673202673572 21.4561
36.98020721697122 21.4549
37.003684015502365 21.3484
37.027162423645365 21.3781
37.050825886711465 21.3186
37.07430753063053 21.3044
37.09779078812467 21.230999999999998
37.121275660513014 21.2032
37.144945643673694 21.1479
37.16843376245278 21.1828
37.19192350009803 21.1292
37.215414857931435 21.1517
37.239091382563885 20.9949
37.262585997426164 20.9824
37.28608223645736 20.9809
37.309763684451696 20.9837
37.33326318851098 20.9343
37.356764320726555 20.8432
37.380267082425526 20.83
37.40395510942588 20.7834
37.42746114683234 20.7843
37.45096881771841 20.7564
37.474478123414166 20.7006
37.49817275092816 20.6881
37.52168534303452 20.6795
37.54519957395567 20.5683
37.568715445024665 20.5459
37.592416694607714 20.5004
37.61593586281424 20.6003
37.63945667518264 20.5587
37.66297913304891 20.4887
37.68668702630454 20.4516
37.710212792059274 20.387
37.733740207334854 20.3955
37.757269273470364 20.3385
37.780983832050374 20.2469
37.80451621684926 20.3281
37.82805025654007 20.2443
37.851585952464795 20.1887
37.8753071980695 20.1305
37.89884622345676 20.1153
37.92238690911902 20.1467
37.94611318753442 20.1115
37.969657210779765 20.125999999999998
37.99320289834801 20.0028
38.016750251586465 19.9447
38.04048325513017 19.9025
38.06403395679343 19.9053
38.087586328183946 19.9126
38.11114037065203 19.8504
38.13488012115898 19.8853
38.1584375229181 19.8421
38.181996599821 19.81
38.205557353221124 19.776
38.229303872575656 19.7037
38.2528679961576 19.7107
38.27643380031219 19.6487
38.30000128639589 19.6071
38.32375459653193 19.5717
38.34732546371299 19.599
38.37089801690786 19.4855
38.39447225747609 19.4924
38.418232380377425 19.4803
38.441810012983396 19.4587
38.46538933705673 19.3732
38.488970353960084 19.4118
38.51273731166058 19.3774
38.536321731567014 19.2814
38.55990784840681 19.2582
38.58367995004091 19.2527
38.60726947812959 19.1682
38.63086070726198 19.2144
38.654453638806274 19.2009
38.678232613930824 19.1529
38.70182896773327 19.0597
38.72542702806741 18.9745
38.7490267963045 19.0448
38.77281266709232 18.9648
38.79641586862214 18.9008
38.8200207821842 18.8549
38.843627409152944 18.8825
38.86742019782782 18.8712
38.891030269149255 18.7989
38.914642058016156 18.8318
38.938255565806124 18.7327
38.96205529464307 18.6888
38.98567225787121 18.6997
39.00929094417078 18.6726
39.03291135492255 18.6793
39.05671804624804 18.6608
39.080341923549106 18.5717
39.103967529460334 18.6019
39.127594865365744 18.5302
39.15140854155791 18.5297
39.17503935514948 18.4827
39.19867190290282 18.4822
39.22249083587951 18.4307
39.24612686969409 18.4226
39.269764641845306 18.4431
39.293404153722804 18.3408
39.317230110864074 18.2584
39.34087311998506 18.2153
39.36451787301696 18.2418
39.388164371352595 18.1499
39.41199737518003 18.1577
39.43564738196752 18.1424
39.45929913825317 18.0943
39.48295264543308 18.0838
39.506792718520884 18.0719
39.530449745387216 17.9943
39.55410852735203 17.9637
39.57776906581474 17.9938
39.60161623079 17.9236
39.625280300200025 17.9648
39.64894613032202 17.8449
39.67261372255866 17.921
39.6964680021016 17.9293
39.72013913657293 17.887
39.74381203738292 17.8548
39.76748670593756 17.7674
39.79134812278169 17.7182
39.81502634488497 17.7276
39.83870633896685 17.6975
39.862388106436654 17.601
39.88625668336918 17.6497
39.90994201572829 17.6031
39.933629125719285 17.5474
39.957503091207826 17.4949
39.9811937746168 17.6047
40.00488623990914 17.4793
40.02858048850006 17.4452
40.05246165409549 17.4183
40.076159487492085 17.4108
40.099859108448875 17.3456
40.123560518384345 17.3539
40.1474489070226 17.3665
40.171153913178564 17.2918
40.194860712584955 17.2643
40.2185693066637 17.2498
40.242464941335314 17.1598
40.26617714307655 17.1927
40.289891143772046 17.1846
40.3136069448471 17.139
40.33750984859743 17.1667
40.3612292688043 17.084
40.3849504936829 17.0476
40.40867352466194 17.0384
40.43258372059144 16.9989
40.45631038219906 16.9669
40.48003885420956 16.8833
40.503769138055105 16.9075
40.52768664931955 16.9134
40.55142057531802 16.929000000000002
40.57515631746428 16.8385
40.599079334038514 16.78
40.62281872700477 16.7366
40.64655994043941 16.7049
40.67030297578061 16.7548
40.69423334835778 16.7466
40.71798004609188 16.6719
40.74172857006355 16.6313
40.76547892171441 16.6035
40.7894166736039 16.63
40.813170699248566 16.5827
40.83692655691388 16.5007
40.86068424804498 16.528
40.884629402612525 16.4787
40.908390779366385 16.4496
40.932153993938 16.4371
40.95591904777605 16.3631
40.979871628443995 16.3432
41.003640379561936 16.3287
41.02741097430883 16.3281
41.05118341413683 16.3245
41.075143444384416 16.2887
41.098919593177826 16.2963
41.1226975914255 16.2478
41.14647744058318 16.2037
41.170444943946755 16.209
41.19422851378379 16.1556
41.218013938914645 16.1003
41.24198706625173 16.0738
41.26577622087193 16.006
41.289567235177785 16.0346
41.31336011063129 16.0345
41.337340752422875 15.9427
41.361137369129835 15.9503
41.38493585138705 15.9553
41.40873620066004 15.9266
41.43272438060107 15.8349
41.45652848292052 15.8204
41.48033445666918 15.8493
41.50414230331616 15.7801
41.528138045159764 15.7667
41.551949656675205 15.7485
41.575763145513235 15.6782
41.59957851314666 15.6546
41.62358184070442 15.6341
41.64740098505737 15.6305
41.6712220126409 15.6101
41.69504492493139 15.6071
41.71905586207357 15.5354
41.74288256296395 15.5314
41.766711153007456 15.5015
41.79054163368412 15.489
41.814560204340054 15.4709
41.838394485526365 15.4593
41.86223066180303 15.4143
41.88625497706819 15.3928
41.910094962812 15.365
41.93393684811168 15.3346
41.95778063445365 15.2727
41.981812625263366 15.231
42.00566023303407 15.2287
42.029509746323676 15.2134
42.05336116662236 15.1321
42.077400857069705 15.1442
42.10125611078846 15.1602
42.12511327600405 15.1333
42.14897235421036 15.0856
42.173019768448455 15.0273
42.19688269209613 15.0096
42.22074753323349 15.0322
42.24461429335818 15.0056
42.268669455600495 14.9753
42.292540073217886 14.9541
42.31641261433284 14.89
42.34028708044675 14.8277
42.36435001496739 14.8677
42.38822835065557 14.8789
42.41210861586426 14.8555
42.4359908120986 14.8081
42.46006154323262 14.7873
42.48394762115317 14.7349
42.507835634632315 14.6931
42.531912233047436 14.6971
42.55580413732265 14.6879
42.579697981698 14.6278
42.60359376768525 14.5743
42.62767820545945 14.5848
42.65157789440821 14.5735
42.67547952952185 14.5749
42.699383112316 14.5058
42.72347541395347 14.4518
42.74738291190531 14.4572
42.771292362102166 14.4566
42.795203766063516 14.4016
42.819303956130405 14.3717
42.843219287476536 14.3279
42.86713657716324 14.3519
42.89105582671383 14.3379
42.91516392983864 14.3205
42.939087119032166 14.2486
42.963012272677304 14.3112
42.98693939230129 14.2475
43.01105543317513 14.1994
43.034986504731386 14.1832
43.05891954686589 14.1428
43.08285456110972 14.1157
43.10697856448665 14.0758
43.130917542983475 13.9906
43.15485849820081 14.0173
43.17880143167367 14.0343
43.20293342237094 14.0344
43.226880332449 13.9649
43.25082922540554 13.9705
43.27496722682525 13.9047
43.29892010567796 13.8939
43.32287497204102 13.8991
43.34683182745632 13.8182
43.370977859791836 13.8315
43.39493871351105 13.8336
43.41890156092628 13.8164
43.44286640358341 13.7881
43.46702049182749 13.7586
43.49098934522816 13.6978
43.51496019852649 13.7255
43.5389330532723 13.7179
43.56309522248204 13.6816
43.58707210044314 13.6385
43.61105098451946 13.6141
43.63503187626491 13.5857
43.659202151562134 13.5705
43.68318707902681 13.5688
43.70717401884041 13.5352
43.731162972560874 13.4613
43.75534137913236 13.4308
43.779334381108384 13.4852
43.803329401683186 13.4651
43.82732644241872 13.3877
43.8515130055166 13.3745
43.87551410707659 13.327
43.89951723350145 13.3426
43.923709934595614 13.347999999999999
43.94771713129917 13.2751
43.97172635758096 13.3009
43.99573761501002 13.3036
44.0199385169922 13.1861
44.04395385732619 13.1965
44.067971233533086 13.1733
44.09199064718605 13.1339
44.11619977548961 13.1364
44.14022328470671 13.1072
44.16424883610785 13.113
44.18827643127035 13.0638
44.21249381139513 13.0226
44.236525514814076 13.0149
44.26055926674478 12.9834
44.28459506876863 13.0044
44.3088207262813 12.9206
44.33286064928722 12.9335
44.35690262714919 12.8865
44.38094666145278 12.8297
44.4051806219871 12.8754
44.42922879003185 12.8148
44.45327901929361 12.7701
44.477331311362136 12.8117
44.501573600619416 12.7482
44.525630039221795 12.7379
44.54968854541895 12.7187
44.573937102200176 12.6895
44.5979997645541 12.6759
44.622064499300315 12.6234
44.64613130803592 12.6089
44.67038823869318 12.5704
44.69445921643748 12.555
44.718532272981385 12.5625
44.742607409926194 12.5697
44.76687274034801 12.5125
44.79095205918753 12.4768
44.81503346325094 12.4254
44.839116954143876 12.419
44.86339071028742 12.4163
44.88747839599524 12.4102
44.91156817336837 12.3567
44.93566004401666 12.3618
44.959942251908146 12.3416
44.984038330325966 12.3441
45.00813650686762 12.2793
45.03223678314731 12.3075
45.05652746888232 12.1989
45.08063196592069 12.2433
45.104738567558705 12.208
45.128847275414856 12.2024
45.15314646515866 12.1498
45.17725940679741 12.1268
45.20137445952892 12.1158
45.22568004865265 12.0718
45.24979934496396 12.1038
45.27392075725247 12.1024
45.29804428714431 12.0516
45.322358426247604 12.0114
45.346486212804315 11.9678
45.370616121861914 11.9788
45.39474815505086 11.9735
45.41907087049246 11.9142
45.4432071734666 11.8879
45.46734560548283 11.8876
45.49148616817604 11.9061
45.51581748638564 11.857000000000001
45.5399623320197 11.802
45.56410931325473 11.8072
45.58825843173002 11.82
45.61259837920865 11.7562
45.636751793816 11.7379
45.66090735060093 11.7043
45.68506505120716 11.6805
45.7094136545275 11.6539
45.73357566449271 11.6288
45.75773982322992 11.6546
45.78190613238733 11.6405
45.806263418194064 11.57
45.83043404997326 11.5739
45.85460683713677 11.5864
45.87897065658495 11.5046
45.90314777634752 11.514000000000001
45.92732705646868 11.4755
45.9515084986045 11.43
45.97588104735473 11.4523
46.00006683541565 11.3976
46.02425479047904 11.3855
46.04844491420549 11.3748
46.0728262191024 11.3666
46.09702070211635 11.3668
46.12121735879483 11.3414
46.14541619080294 11.3573
46.169806278764455 11.3528
46.194009483459034 11.2675
46.21821486849841 11.2619
46.24242243555223 11.2009
46.266821333570014 11.1773
46.29103328674601 11.1807
46.31524742696538 11.1815
46.33946375590237 11.145
46.36387149104216 11.1287
46.38809221957392 11.0868
46.41231514186606 11.0902
46.436540259597464 11.093
46.460956858999374 11.0638
46.48518638983522 11.0439
46.509418121166966 11.0262
46.533652054678114 10.9416
46.55807754555709 10.9775
46.58231590571962 10.9509
46.60655647313217 10.9391
46.630988654873654 10.9122
46.655233659129024 10.8804
46.67948087571551 10.8864
46.70373030632484 10.8478
46.72817142736393 10.7888
46.752425308428684 10.7978
46.77668140861147 10.8168
46.80093972960865 10.7383
46.82538981736788 10.7438
46.849652602470904 10.7565
46.87391761349769 10.7185
46.8981848521493 10.697000000000001
46.9226439341274 10.6768
46.946915650573224 10.5936
46.97118959976749 10.6097
46.99546578341598 10.6075
47.019933887188216 10.6068
47.04421456235744 10.5717
47.06849747711879 10.5512
47.09278263318286 10.5328
47.11725978640143 10.5184
47.14154944775105 10.4686
47.165841355555656 10.4383
47.1901355115306 10.4421
47.214621741924994 10.4781
47.23892041698887 10.4457
47.26322134538975 10.4392
47.28771440635075 10.3721
47.31201986422527 10.3562
47.33632758061436 10.3262
47.360637557241866 10.3032
47.38513974410611 10.3029
47.40945426407847 10.2284
47.43377104948137 10.212
47.45809010204344 10.2663
47.48260144275502 10.2153
47.506925052572285 10.1973
47.53125093475548 10.1576
47.55557909103813 10.1599
47.58009961361992 10.1173
47.60443234110732 10.1192
47.62876734791564 10.0943
47.65310463578333 10.0991
47.6776343683373 10.0736
47.7019762413987 10.0441
47.72632040075572 10.0299
47.75066684815169 10.022
47.77520581885936 10.001
47.799556865477655 9.97245
47.823910205386 9.976280000000001
47.84826584033272 9.94192
47.87281407745551 9.9016
47.89717432569297 9.94332
47.92153687423484 9.910839999999999
47.94609208429692 9.88435
47.97045925671401 9.884360000000001
47.99482873471275 9.82361
48.01920052005013 9.82647
48.04376504619224 9.766630000000001
48.068141469543484 9.80874
48.09252020552573 9.773480000000001
48.11690125590099 9.716619999999999
48.1414751266064 9.72707
48.16586082917454 9.712769999999999
48.19024885144316 9.667589999999999
48.2146391951793 9.66836
48.239222439012764 9.66108
48.26361744916137 9.625760000000001
48.28801478610016 9.58802
48.31241445160131 9.61007
48.337007097209366 9.60007
48.36141144338331 9.58205
48.38581812345755 9.55913
48.41022713920929 9.5553
48.434829215320704 9.519960000000001
48.45924292604658 9.518469999999999
48.48365897780325 9.51079
48.50807737237308 9.47583
48.532688907799276 9.43143
48.55711201168574 9.44478
48.581537463754074 9.42414
48.60615611725119 9.43647
48.63058628942721 9.392389999999999
48.65501881516546 9.375119999999999
48.6794536962573 9.34407
48.70408185970339 9.32825
48.72852147531801 9.31813
48.75296345168211 9.288089999999999
48.77740779059232 9.27827
48.80204549302823 9.2946
48.82649458091802 9.27007
48.85094603676547 9.25581
48.87539986237231 9.20195
48.90004713292306 9.14353
48.92450572200832 9.17879
48.94896668628025 9.178469999999999
48.97343002754588 9.15335
48.99808689542115 9.12464
49.02255501470614 9.11448
49.04702551642794 9.06476
49.0714984023988 9.07723
49.096164896893235 9.057160000000001
49.120642575466796 9.068660000000001
49.145122643748394 9.05828
49.16960510355558 9.01249
49.19428125404938 8.98018
49.2187685210852 8.96637
49.243258185121555 8.93878
49.26794160167084 8.95086
49.2924360839405 8.895439999999999
49.31693296869764 8.854289999999999
49.34143225776915 8.85613
49.36612538195438 8.8719
49.39062950396021 8.87867
49.41513603578346 8.80498
49.4396449792564 8.818769999999999
49.46434784069503 8.82392
49.488861631846454 8.79384
49.513377840166804 8.78565
49.537896467493745 8.78583
49.56260909589029 8.702760000000001
49.587132585683285 8.68704
49.611658500018365 8.667539999999999
49.636186840738596 8.65418
49.66090926588511 8.67742
49.685442483902584 8.64823
49.70997813385706 8.6235
49.734516217597076 8.6226
49.75924846937352 8.60985
49.7837914452858 8.59106
49.80833686055187 8.59673
49.83288471702571 8.58939
49.85762682540054 8.55273
49.882179588965734 8.50327
49.9067347993235 8.471860000000001
49.93129245833333 8.483319999999999
49.95604445336378 8.44448
49.98060703442832 8.45095
50.005172069746266 8.41066
50.02993150438364 8.4276
50.05450147301533 8.39586
50.07907390151433 8.42335
50.10364879174981 8.38033
50.12841816587289 8.357330000000001
50.1529980044635 8.33281
50.17758031042124 8.30183
50.20216508562089 8.311580000000001
50.22694442953363 8.30532
50.25153416817468 8.288860000000001
50.27612638170508 8.25105
50.300721072005196 8.22985
50.325510416102105 8.21475
50.350110084975064 8.17088
50.37471223628208 8.17826
50.39931687190919 8.208789999999999
50.424116246675766 8.13642
50.44872587605249 8.12025
50.47333799543065 8.143089999999999
50.49795260670191 8.11529
50.52276204271512 8.09229
50.54738166295838 8.10763
50.57200378079314 8.09077
50.596628398116835 8.04618
50.62144792604559 8.03624
50.646077567609396 8.02722
50.670709714377715 8.0104
50.69553683636198 8.0025
50.72017401885922 7.969539999999999
50.7448137122895 7.9449
50.76945591856022 7.95828
50.79429318636823 7.916639999999999
50.818940443716784 7.9365
50.84359021965163 7.88127
50.868242516085964 7.9023699999999995
50.893089960641895 7.871010000000001
50.917747323549435 7.8603
50.94240721271973 7.86602
50.96706963007175 7.84555
50.99192728239342 7.81151
51.01659478166073 7.80048
51.04126481489051 7.8008
51.06593738400761 7.76222
51.090805275207074 7.722339999999999
51.11548294172845 7.7305
51.14016314993547 7.721239999999999
51.164845901758845 7.71537
51.18972406304274 7.69457
51.21441192780656 7.6513100000000005
51.23910234200271 7.635560000000001
51.2637953075678 7.614739999999999
51.288683770237945 7.6096
51.31338186432707 7.58511
51.33808251561888 7.5746899999999995
51.362978729967345 7.58714
51.387684521509755 7.587680000000001
51.41239287610203 7.5638
51.437103795691165 7.484560000000001
51.46201036644977 7.51118
51.486726441956634 7.4481399999999995
51.51144508832545 7.471080000000001
51.536166307509156 7.48652
51.56108326624387 7.4333800000000005
51.58580965706056 7.42295
51.61053862657523 7.437810000000001
51.635270176746864 7.39633
51.66019755512065 7.406219999999999
51.68493429268881 7.369960000000001
51.70967361681515 7.33375
51.73441552946465 7.358169999999999
51.759353359237934 7.34952
51.7841004750961 7.3304800000000006
51.80885018539685 7.3091800000000005
51.833602492111254 7.28598
51.8585508051424 7.25207
51.883308330926425 7.26093
51.90806845906181 7.218539999999999
51.932831191525715 7.202960000000001
51.95779001977161 7.21127
51.98255798721516 7.180839999999999
52.00732856494335 7.173589999999999
52.03229530577543 7.17152
52.057071130455945 7.136419999999999
52.081849571391054 7.16582
52.106630630568695 7.1409199999999995
52.13160794279417 7.11563
52.15639426492067 7.1002600000000005
52.18118321127822 7.05951
52.205974783860896 7.047960000000001
52.23096269971011 7.012630000000001
52.255759551287994 7.05624
52.280559035098186 7.01733
52.30536115314103 7.03068
52.33035970494467 7.00891
52.35516711807904 6.95799
52.37997717147198 6.95392
52.40478986713005 6.97612
52.42979908731974 6.93514
52.454617094216 6.89762
52.47943774942214 6.85578
52.50426105495102 6.86517
52.529280976059844 6.8730899999999995
52.554109609024096 6.86942
52.57894089837482 6.86345
52.60377484613117 6.824510000000001
52.62880550079408 6.821680000000001
52.65364479223379 6.812069999999999
52.67848674816189 6.783339999999999
52.70352547971946 6.77302
52.72837279155837 6.75318
52.753222773982785 6.74454
52.778075429022984 6.75798
52.80312495150885 6.701739999999999
52.827982978797436 6.7178
52.85284368481815 6.728460000000001
52.87770707160767 6.6567
52.90276741793998 6.639360000000001
52.92763619336701 6.61355
52.952507655698504 6.610760000000001
52.977381806977576 6.59768
53.00245301017842 6.61947
53.02733256653592 6.633210000000001
53.052214817996074 6.614380000000001
53.077099766608484 6.5556600000000005
53.102181859804446 6.51874
53.127072229988265 6.540780000000001
53.15196530349892 6.54595
53.17686108239249 6.52005
53.20195409881522 6.49129
53.22685531582556 6.51657
53.25175924441303 6.43663
53.27666588664027 6.474080000000001
53.30176985962693 6.45602
53.3266819565689 6.433669999999999
53.35159677336455 6.41765
53.376514312083096 6.38572
53.40162927507703 6.37021
53.42655228516116 6.36552
53.45147802340193 6.30857
53.47660125628886 6.31171
53.50153247842639 6.31671
53.52646643496923 6.29366
53.55140312799818 6.2961599999999995
53.576537409691696 6.315230000000001
53.60147960336152 6.26273
53.626424539786164 6.2453199999999995
53.65137222105307 6.22139
53.67651758529126 6.18876
53.70147078399681 6.19873
53.72642673383343 6.190119999999999
53.75138543689533 6.1805
53.776541917524526 6.22011
53.801506154876755 6.171819999999999
53.826473151763246 6.17528
53.851442910284916 6.10886
53.87661054126026 6.11201
53.9015858509782 6.11217
53.92656392866066 6.14275
53.95154477641532 6.1315
53.976723591801296 6.00747
54.00171000771266 6.0810900000000006
54.02669920004598 6.039680000000001
54.051691170915745 6.05238
54.076881204886796 6.02881
54.101878760928514 6.01626
54.12687910187696 6.01299
54.152077577768296 5.98043
54.1770835166946 6.00546
54.20209224691339 5.94814
54.22710377055121 5.930540000000001
54.25231352511594 5.89855
54.27733066384342 5.87876
54.30235060239643 5.87202
54.32737334290836 5.85304
54.35259441062629 5.84583
54.377622783395324 5.83805
54.40265396455061 5.843319999999999
54.42768795623251 5.83099
54.45292037169559 5.75058
54.477960012857906 5.77501
54.50300247099511 5.761819999999999
54.52804774825457 5.719130000000001
54.55329154616743 5.70252
54.57834249018678 5.73158
54.6033962597977 5.66827
54.6284528571545 5.67936
54.653708072335164 5.62284
54.67877035378786 5.5865
54.70383546947698 5.54403
54.72890342156389 5.57396
54.7541700889442 5.5146
54.77924374251975 5.5386
54.8043202390049 5.53222
54.82959552413022 5.4788
54.8546777351945 5.47023
54.87976279569621 5.461119999999999
54.90485070780914 5.51906
54.930137506558005 5.46035
54.95523115074295 5.423030000000001
54.98032765308844 5.40458
55.005427015775496 5.406219999999999
55.03072536339621 5.36787
55.05583047570572 5.313619999999999
55.080938454927676 5.30497
55.10604930325027 5.31947
55.131359235107396 5.3015300000000005
55.15647585066083 5.26006
55.181595341907496 5.252999999999999
55.20671771104285 5.23126
55.232039262617704 5.18124
55.25716741665048 5.1826099999999995
55.28229845518636 5.15107
55.30743238042802 5.07527
55.33276558731939 5.12825
55.357905315183636 5.1127400000000005
55.383047936390035 5.0645
55.40819345314859 5.01627
55.433538351073295 5.00995
55.458689688238415 5.0048699999999995
55.483843927614096 4.91898
55.509197623043605 4.91632
55.53435769621134 4.92286
55.55952067826466 4.82572
55.5846865714265 4.8091099999999996
55.61005202069737 4.82608
55.63522376553902 4.81335
55.66039842818645 4.82937
55.68557601087004 4.82748
55.7109532500271 4.72816
55.73613670233794 4.79035
