TT I
1.2716486653135266 7.422439999999999
1.2939594142134223 6.855589999999999
1.3162702121660406 6.76853
1.3385810600174564 6.76885
1.3608919586137629 6.7775
1.383202908801069 6.22395
1.405513911425503 6.691960000000001
1.4278249673332093 6.34109
1.4501343378461518 5.76334
1.4724455028545926 5.27029
1.4947567236847858 5.600280000000001
1.517068001182951 5.66937
1.5393793361953272 5.772880000000001
1.5616907295681737 6.01492
1.5840021821477681 5.6348400000000005
1.60631369478041 5.3111
1.6286252683124185 5.84249
1.6509369035901333 5.0238
1.6732468618895553 4.70493
1.695558623192809 4.9797400000000005
1.7178704487808514 4.69252
1.7401823395001077 5.00265
1.7625012545597203 4.76145
1.7848028405262486 4.81902
1.8071218901122095 4.78022
1.8294236121921872 4.1915
1.8517427996910911 4.69665
1.8740620574440425 4.53225
1.8963639900671978 4.77935
1.9186833908139995 4.63403
1.9409854680117449 4.60279
1.9633050151394713 5.31945
1.9856246367570705 4.574380000000001
2.0079269371922672 4.72551
2.03024671027244 4.65932
2.0525491637446027 4.11634
2.074869091674931 4.89426
2.097171701569106 4.5315
2.1194917877373847 4.26607
2.141811954326636 4.59312
2.164114805233074 4.80403
2.186435135143035 5.5648800000000005
2.208738150935709 8.83005
2.231058647554722 14.3329
2.2533792288321184 11.6657
2.275682498336085 6.701739999999999
2.298003251406138 6.02315
2.3203066942619714 5.70753
2.3426276225136022 5.27824
2.3649486396617507 6.18607
2.387252348930071 5.75956
2.4095735463442893 5.90658
2.4318774374315884 6.8766300000000005
2.4541988185014043 6.48364
2.476502894794693 7.361669999999999
2.498824462909887 7.226389999999999
2.521146125856138 7.59083
2.5434504863470337 7.439610000000001
2.5657723414244717 8.06748
2.588076895590662 8.84167
2.610398946189713 8.8916
2.6327210958598384 8.82121
2.6550259469304716 7.8555
2.6773482972090137 7.91933
2.6996533504259 8.45394
2.7219759047039602 8.89803
2.744298562293959 8.60178
2.7666039251246595 8.14775
2.7889267918020164 7.97422
2.8112323652516555 7.95602
2.833555444408179 8.122060000000001
2.8558786311183852 8.46885
2.8781845268938557 9.073319999999999
2.9005079311721484 9.25553
2.9228140460410397 9.58014
2.9451376712799635 9.851239999999999
2.967444008632326 9.944930000000001
2.9897678582247247 9.74957
3.0120918213106695 10.4979
3.0343984987899373 11.0572
3.0567226913198637 11.2117
3.079029599759726 11.8536
3.101354025127254 12.0032
3.123678568232338 12.909
3.145985829517914 12.9405
3.16831061055229 13.4082
3.1906181112775593 13.9676
3.212943133635653 15.0757
3.2352682779763207 15.0958
3.2575761442691227 15.3438
3.2799015350264273 15.7868
3.302209649240067 16.3082
3.3245352898092655 16.5498
3.3468436553365257 17.1283
3.369169549113219 17.7341
3.3914955708171384 18.4769
3.413804319727358 18.2078
3.4361305997334863 18.5547
3.4584396084414553 19.1399
3.4807661501462652 20.2841
3.503092824025881 20.2576
3.5254022288463154 20.7295
3.5477291695206588 21.3604
3.5700388426251948 22.1752
3.5923660534916446 23.1544
3.6146934007816114 29.8132
3.637003482731501 49.6217
3.6593311053109985 53.5248
3.681641464033634 37.1813
3.7039693653009733 27.1357
3.726297407241705 25.3817
3.7486081875460804 25.4421
3.7709365132734978 25.4903
3.793247578841633 25.8796
3.8155761917550093 26.3867
3.8378875459837216 26.8024
3.8602164494827234 26.7797
3.882545499606844 27.9315
3.9048572932539183 28.3837
3.9271866390645718 28.8806
3.9494987298666713 29.5651
3.971828374764527 30.0561
3.9941581705403255 30.7734
4.016470713506008 31.1126
4.038800813471445 31.6286
4.061113662089144 32.1907
4.0834440696459176 33.2303
4.105774632334751 33.4828
4.128087945865126 34.3601
4.150418821249301 35.1576
4.172732448931298 35.6917
4.195063640413578 36.9411
4.2173775856475215 39.3125
4.239709096631102 53.9006
4.262040768704612 121.64299999999999
4.284355196706267 153.873
4.306687193387355 108.193
4.329001947444346 57.3255
4.35133427213731 43.918
4.373666762177566 42.8774
4.395982011761091 43.3035
4.418314834921175 44.2496
4.44063041906622 48.0184
4.4629635787515625 53.4461
4.4852969080429785 53.9462
4.5076130004776225 52.3914
4.529946671403969 56.327
4.552263106909177 60.3028
4.574597122877047 57.1774
4.596931312711224 53.7607
4.619248269273446 53.2729
4.6415828092605835 54.4225
4.663900117405352 55.3265
4.686235010953232 56.2182
4.708552674085913 57.7798
4.730887924602802 59.367
4.753223354952695 61.3509
4.775541557023902 64.5856
4.797877349456786 67.755
4.820195915032126 68.6101
4.842532072957498 67.8444
4.864868414979744 70.1084
4.88718753227192 74.4898
4.909524244902505 76.4865
4.931843734218147 76.1644
4.954180820867835 77.4981
4.976518095879839 80.8003
4.998838149695359 83.0042
5.021175803844231 86.4296
5.043496238205739 89.4379
5.065834274903528 93.9712
5.088172504230693 99.0108
5.1104935158799565 105.292
5.132832132875765 124.15
5.155153533596801 155.762
5.1774925416746225 195.747
5.199814334878411 396.745
5.2221537374521505 1016.05
5.244493338631803 2849.68
5.266815727034316 8004.09
5.289155727832427 12510.1
5.311478517248165 8159.22
5.333818921080011 2465.95
5.356159527788849 479.441
5.3784829252032536 190.27700000000002
5.400823940070432 151.113
5.423147747031976 129.088
5.445489173474152 118.744
5.467830807066149 118.441
5.490155234831516 118.491
5.512497285125229 112.18799999999999
5.534822130975162 105.603
5.557164601388673 101.412
5.579489868738879 98.2314
5.601832762690846 97.455
5.6241758697774475 96.15100000000001
5.646501775867269 95.7305
5.668845311622074 94.5665
5.691171647754637 93.7526
5.713515615597765 92.6403
5.735859800852677 92.2538
5.758186788542988 93.8975
5.780531411018185 97.6085
5.802858837297399 97.5908
5.825203900414495 97.7052
5.8475491852224 101.102
5.869877275883075 100.333
5.892223006467101 96.3459
5.914551544266608 94.1694
5.936897724049891 96.5144
5.959244129804903 103.67399999999999
5.981573344815301 131.412
6.0039202049061 238.921
6.026249875609095 473.86
6.04859719346037 965.6210000000001
6.070927323278297 2231.03
6.093275102315365 4593.02
6.115623113320588 5186.79
6.137953938319995 2995.01
6.160302415650845 866.916
6.182633708324452 207.361
6.2049826554078376 107.319
6.227331838745022 89.3828
6.249663839443684 82.705
6.27201349767565 79.5195
6.294345974611799 80.8839
6.316696111167083 84.25299999999999
6.339046488263839 80.9506
6.361379686074702 74.1187
6.383730546639482 70.4412
6.406064229255215 69.5252
6.428415576718203 70.4668
6.450749747566656 69.0311
6.47310158535871 66.3988
6.495453669698332 64.8785
6.517788579421056 63.7611
6.540141159237969 62.6904
6.562476565766648 62.5971
6.5848296444934045 62.1136
6.607182974060425 62.0678
6.6295191323281015 62.3992
6.651872965955752 62.8776
6.6742096296068985 73.0365
6.6965639707294615 90.4868
6.71891856698715 89.95
6.741255995248479 72.8123
6.763611104154477 61.4875
6.785949046381137 58.8514
6.808304671371482 58.9933
6.8306605557940046 60.2548
6.852999275508618 59.2464
6.875355681171544 57.746
6.897694923437771 56.4553
6.92005185377892 55.7487
6.9423916220322655 55.8293
6.964749080490181 55.0708
6.987106804399774 55.2048
7.009447368180821 55.2219
7.031805625367033 55.1918
7.054146723727803 54.9708
7.076505517631004 54.5536
7.098864581288365 54.4478
7.121206488070854 54.2575
7.143566093607822 54.2528
7.165908543567245 55.7051
7.188268694426048 55.9898
7.2106291193438095 55.1454
7.232972390625943 54.809
7.255333366030969 60.1275
7.277677189091925 81.045
7.300038718428332 101.348
7.322400526130865 92.7854
7.344745183422596 68.4761
7.367107550224791 57.0216
7.389452767901992 54.3181
7.411815697249891 53.9555
7.434161478756298 53.2647
7.456524974096713 53.0551
7.478888753837185 53.2246
7.501235387657368 53.6439
7.523599738562711 53.9425
7.545946944825532 53.988
7.568311870344528 54.585
7.5906770845765665 54.4466
7.613025156078678 54.9682
7.635390950099687 55.553000000000004
7.657739602662809 55.5776
7.680105979923558 55.8911
7.702472650212829 56.184
7.724822180948224 56.2524
7.747189439655568 55.9248
7.769539560075357 55.6165
7.791907410653562 55.5785
7.81425812420825 55.8769
7.836626570110925 56.1388
7.858995315087906 57.0548
7.881346924933401 57.122
7.903716270417482 57.6914
7.926068482028405 57.8722
7.948438431475253 58.7951
7.9708086843180235 58.9565
7.993161805171116 59.6552
8.015532667162402 60.5092
8.037886398416653 61.6024
8.060257873014221 61.9239
8.082629655331942 62.5231
8.104984308787587 63.696999999999996
8.127356708900503 66.4369
8.149711981398308 70.5571
8.172085002766314 72.5558
8.194458336181368 70.6928
8.216814543847752 68.6106
8.23918850371002 68.6897
8.26154533906492 69.5495
8.283919928836452 70.9823
8.306277395339652 72.2467
8.328652618483376 73.3823
8.351028159736202 75.3581
8.373386579575245 77.7687
8.395762759396959 79.5543
8.418121819038275 82.9242
8.440498640894003 90.8574
8.462875785192262 102.68299999999999
8.485235811156207 126.57600000000001
8.507613602688501 176.571
8.529974277114228 257.106
8.552352719347912 379.773
8.574731488360351 654.528
8.59709314210385 1215.4
8.619472567021075 1949.29
8.64183487789147 2186.38
8.664214962183097 1731.95
8.686577933647762 845.951
8.708958680784317 315.647
8.731339760774953 147.57
8.753703729764451 106.48299999999999
8.77608547780821 96.7449
8.798450116065078 93.6304
8.820832535634787 91.5648
8.843215292401656 91.8437
8.865580941199045 92.0073
8.887964374703538 91.1301
8.910330701447199 91.2102
8.932714815164482 91.5813
8.955099270424924 89.3149
8.977466620733543 86.5452
8.999851761421976 84.7663
9.022219798361645 83.66799999999999
9.04460562795561 83.0575
9.066991803441677 83.0505
9.089360876979615 83.3852
9.111747746589993 83.1932
9.13411751544971 82.2329
9.156505082664324 81.3992
9.178875550323522 81.5375
9.20126381862328 81.4021
9.223652438908596 81.5307
9.246023961427412 81.5917
9.26841328802173 81.4012
9.290785518039224 81.623
9.313175554425882 83.9437
9.335565947154315 85.434
9.357939245086508 85.7336
9.380330352834827 85.6426
9.40270436697103 85.0746
9.425096193225055 84.5787
9.447488380180165 84.8952
9.469863475295412 84.2913
9.492256385987508 84.3177
9.514632206018318 84.7063
9.537025843935714 85.1356
9.559402392368193 86.5052
9.581796761000229 88.781
9.604191496441521 91.0202
9.626569144158516 93.8878
9.648964615551032 95.8763
9.671343000390081 94.8781
9.693739211225699 93.2802
9.716135793237463 91.7473
9.738515290448102 92.1761
9.760912617143402 94.0274
9.783292860202891 95.9942
9.805690935076182 98.7266
9.828089385495742 99.7002
9.850470754023561 101.161
9.872869957865444 104.51100000000001
9.89525208097539 111.448
9.917652041736662 118.97
9.940052382417589 126.51299999999999
9.962435644102392 149.822
9.984836746950979 189.153
10.007220771957746 244.787
10.029622640473708 341.824
10.052007432299963 520.456
10.074410069984072 834.847
10.096813093716005 1320.77
10.119199042482517 1824.17
10.141602840636468 2009.51
10.163989564971628 1517.73
10.186394141051062 813.268
10.208799107559706 346.082
10.231187001965623 169.23
10.253592751657669 120.417
10.275981430388155 110.46600000000001
10.298387966769793 108.556
10.320794897965431 108.89
10.343184759907361 107.726
10.36559248305461 104.411
10.387983138083852 104.052
10.410391656691655 110.223
10.432800574501677 121.186
10.455192425893369 136.44899999999998
10.47760214443012 162.285
10.499994797678786 208.06799999999998
10.522405320453982 293.83
10.54479877906917 422.98400000000004
10.567210109595656 536.5419999999999
10.5896218454736 575.878
10.612016518879773 488.57099999999997
10.634429067781074 322.002
10.656824555333241 184.262
10.679237920773568 115.156
10.701651695961992 93.443
10.724048411481384 87.8745
10.746463008485165 85.2944
10.768860546937125 83.57600000000001
10.791275969274796 82.4005
10.81369180576079 81.3244
10.836090585366925 80.1073
10.858507252467449 79.3015
10.88090686379991 78.0788
10.903324365036394 77.592
10.925724811614439 77.105
10.948143150509463 77.6595
10.970561909719066 77.641
10.992963615930844 76.4255
11.015383218085756 74.6869
11.037785768347074 73.1226
11.06020621697282 72.2703
11.082627090322113 71.7149
11.105030913430326 70.9409
11.12745263854165 70.4316
11.149857314510728 71.6197
11.172279894912576 73.92399999999999
11.194702904450653 73.7039
11.217108866490921 71.8285
11.239532736615194 69.7952
11.26193956033512 68.6455
11.284364294577085 68.0873
11.306789462371718 67.0841
11.329197585398376 66.2652
11.351623622610898 66.3043
11.37403261614354 65.5825
11.396459526308487 65.1581
11.418869393879497 64.3883
11.441297180532617 64.637
11.463725406927658 64.0721
11.486136592353875 63.9625
11.508565700543707 64.0805
11.530977768845315 65.0458
11.553407762368774 64.8517
11.575838200059769 64.5801
11.598251599479612 63.7431
11.620682927815501 62.9019
11.64309721895548 62.8245
11.665529441478206 62.3258
11.687962112597958 62.3887
11.710377748130886 62.2536
11.732811318753434 62.0186
11.755227854859067 62.0954
11.777662328529495 62.0228
11.800079768750786 62.0608
11.822515149015453 62.138999999999996
11.844950984084935 62.378
11.867369787303163 61.93899999999999
11.889806534289491 61.8672
11.912226250487029 62.0514
11.934663912939751 62.2417
11.9571020346363 62.2099
11.979523127133968 62.6826
12.001962169624331 63.7368
12.024384183972964 65.1604
12.046824150809913 68.0536
12.069264581333726 72.4968
12.091687985297767 77.9992
12.11412934550045 86.8269
12.136553680195208 102.686
12.158995973632788 128.501
12.181438735204349 159.915
12.20386447284199 195.493
12.226308172985636 216.662
12.24873485024193 203.65900000000002
12.271179492516982 165.39
12.293607112949127 118.024
12.316052700916226 87.2251
12.338498763250042 72.2109
12.360927805303868 66.1267
12.383374818673879 64.36399999999999
12.405804812803074 63.6641
12.428252780773262 63.4306
12.45070122756722 63.6415
12.473132656675375 63.6717
12.49558206341869 63.8371
12.518014453510101 64.1242
12.540464823770117 64.2525
12.562915677315177 64.2541
12.58534951575545 64.429
12.607801338171472 65.1734
12.630236146511358 67.8868
12.652688941369085 69.7499
12.675124723177234 70.1151
12.697578494048786 69.2454
12.720032754458185 67.2365
12.742470003354093 67.1207
12.764925245138771 67.1092
12.787363476431278 67.0561
12.809819703166806 67.6956
12.83227642391173 68.7859
12.854716135692716 69.336
12.877173846755147 70.4675
12.899614549869717 70.7776
12.9220732548287 71.6311
12.94453245827299 72.3794
12.966974655289818 73.1608
12.989434858002571 73.7327
13.011878055298721 74.4484
13.034339260862497 75.1897
13.056800969391883 76.8962
13.079245674017244 79.9643
13.101708390774869 83.8492
13.12415410463411 92.04799999999999
13.146617833206086 101.32600000000001
13.169064559883248 110.92
13.191529303857127 125.255
13.213994557076367 148.77100000000002
13.236442809902437 188.16299999999998
13.258909083908291 247.75799999999998
13.28135835851934 312.84
13.30382565690295 391.881
13.326293469022952 428.89300000000003
13.348744283242008 413.339
13.371213125129904 333.58
13.39366497011003 236.183
13.416134845360597 157.05200000000002
13.438605238843131 117.98899999999999
13.46105863690397 105.20700000000001
13.483530069144786 105.79299999999999
13.505984506951902 109.846
13.528456981549432 119.59299999999999
13.550929978879088 134.687
13.573385983253365 160.769
13.595860028340867 200.655
13.618317081455832 257.925
13.64079217790333 317.751
13.663250283359057 363.265
13.685726434770173 375.278
13.708203115221277 329.255
13.730662806148091 244.99099999999999
13.75314054697177 170.67
13.775601299246777 118.226
13.798080104050406 92.9046
13.820559442405358 83.7321
13.843021793671388 80.941
13.865502201420897 79.4593
13.887965623051947 78.8491
13.910447103807167 77.732
13.932929122629764 76.2981
13.955394156785959 75.9618
13.977877254034569 74.8685
14.000343367582113 74.153
14.022827546871707 73.8504
14.045294743423524 73.1116
14.06778000837062 72.2729
14.090265817715476 72.1684
14.112734645763819 71.5513
14.13522154619454 71.26899999999999
14.157691466286913 71.0559
14.180179461423874 70.8586
14.202668005486178 70.4678
14.22513957064374 70.1325
14.247629214846473 69.7372
14.270101881097517 69.562
14.29259262906496 69.3761
14.315083930490205 69.5873
14.337558255389705 69.7487
14.360050666019726 69.5878
14.382526101071944 69.1059
14.405019624534942 68.6805
14.427513705993134 68.3545
14.449990813291825 68.3239
14.47248601302899 68.0097
14.49496423954951 68.2017
14.517460561197822 68.31
14.539939910570322 67.958
14.562437357763558 68.2889
14.58493536931253 68.6757
14.607416409993311 69.3422
14.62991555254159 69.8539
14.652397725157423 69.9003
14.674898002342799 69.9403
14.697398848433282 69.9711
14.719882725991326 71.3575
14.74238471217934 73.0969
14.764869730765593 76.3413
14.787372860692983 79.1086
14.809876564079925 82.9309
14.83236330125751 88.417
14.854868153850365 97.2325
14.877356041159485 111.686
14.899862046604186 131.658
14.922351087688757 160.06
14.944858249632887 189.571
14.967365991421232 218.34599999999998
14.989856770231246 229.079
15.012365673994204 220.101
15.03485761569738 187.248
15.05736768508665 140.993
15.07987833888692 107.26
15.102372032001655 86.03
15.124883856909658 74.6308
15.14737872204565 70.9351
15.169891721717274 69.4261
15.192405310371893 69.0088
15.214901940621196 69.142
15.237416709527137 68.8473
15.259914520936249 68.6446
15.282430473753607 68.053
15.304947020131227 67.1639
15.327446610371178 66.86
15.349964346154254 66.4178
15.372465126703139 66.2579
15.394984055556009 65.8631
15.417486030076159 65.5992
15.44000615566487 65.3837
15.462526881230803 65.2114
15.485030653812652 65.3013
15.507552581617434 65.0482
15.530057557334603 65.2983
15.55258069104857 65.1402
15.575104429329837 65.3961
15.597611216864632 65.28399999999999
15.620136166564563 65.7563
15.6426441664095 67.5906
15.665170331202765 70.0024
15.687697105158826 72.5804
15.710206930593545 75.2275
15.732734925158933 79.3226
15.755245972089478 85.7449
15.77777519094324 95.2789
15.800287463046663 109.044
15.822817909869592 129.985
15.84534897229804 152.844
15.867863089299354 176.72099999999998
15.890395385222186 194.40400000000002
15.912910736597423 197.146
15.935444269699861 180.002
15.957978423016485 146.341
15.980495633101265 112.95200000000001
16.003031029129367 88.6479
16.02554948280019 72.3442
16.048086125229432 65.3983
16.070623392487107 63.4145
16.09314371869582 62.3825
16.11568223789321 61.5028
16.13820381691126 60.8734
16.160743591742527 60.1763
16.183283996022084 59.3241
16.205807461423195 58.6699
16.228349126881973 58.211999999999996
16.25087385432698 58.0855
16.27341678466365 57.4705
16.29594277784926 57.2792
16.31848697676433 57.1537
16.341031811604868 56.961000000000006
16.36355971058487 57.2477
16.3861058195587 56.8786
16.40863499352978 56.1134
16.431182380342005 55.4297
16.453730407713202 55.2078
16.476261501364792 55.0644
16.498810812136167 54.7563
16.52134319004079 54.7364
16.54389378792203 54.8503
16.566445031001553 54.7838
16.588979342490088 54.5324
16.61153187824822 54.2229
16.634067483263312 54.3876
16.656621315414416 54.2972
16.679175797408888 53.7208
16.701713349928728 53.9815
16.72426913389191 54.1613
16.74680798922351 54.0697
16.76936507887444 54.1053
16.791905240734874 54.1113
16.814463639794468 54.0106
16.837022695210294 54.0773
16.859564824093756 54.2768
16.882125194503903 54.7077
16.904668639217885 54.8929
16.927230328348003 55.0434
16.949792678493612 55.2013
16.972338104193863 54.7062
16.994901778652235 54.7656
17.017448529496576 55.0471
17.040013531998152 55.3312
17.06257920018044 55.782
17.0851279459922 56.5698
17.107694947817667 57.3321
17.130245028099072 57.9259
17.15281336730298 59.3477
17.17536478578733 61.1526
17.19793446610687 63.5776
17.220504818648422 66.7919
17.243058251703697 70.1884
17.265629950971032 75.1005
17.288184731571736 80.3171
17.310757781306908 83.9262
17.33333150794385 83.775
17.355888317140174 80.9802
17.37846339986244 75.303
17.401021565958885 68.5318
17.42359800851343 63.4951
17.44617513265564 60.6411
17.468735341390783 59.3181
17.491261035594565 58.3897
17.51396340099364 58.2388
17.536490463869136 58.4175
17.559018209820174 58.4622
17.58154663977963 58.7755
17.604251766089718 58.7119
17.626781572227713 58.9856
17.64931206518155 59.2374
17.671843245885103 59.7487
17.69455114821572 59.7799
17.717083712612634 60.0124
17.739616967569667 60.0942
17.762150914021706 60.7078
17.78486160749854 61.0842
17.807396945166804 61.6734
17.829932977143503 62.9488
17.85246970436452 64.5733
17.875183204129467 66.0511
17.897721330097664 67.8002
17.920260154126645 70.0406
17.942799677153296 73.2002
17.9655159983646 76.8386
17.988056927677544 82.4281
18.010598558807683 90.9234
18.033140892692916 101.671
18.05586005052525 113.539
18.07840379824407 125.31299999999999
18.10094825154059 135.96
18.12366954819864 140.938
18.146215420998306 137.905
18.16876200220057 126.51799999999999
18.191309292745153 112.054
18.214033452627167 98.7779
18.236582170236648 88.5858
18.259131600016456 84.4472
18.281681742907335 85.6808
18.304408781233683 91.0029
18.32696035875955 96.6817
18.349512652227624 101.876
18.372065662579683 105.09100000000001
18.394795594587553 105.09700000000001
18.41735004715306 99.7009
18.43990521943684 91.7422
18.46246111238171 82.5475
18.485193953325208 74.0157
18.507751296070428 67.5056
18.530309362314178 64.2649
18.552868153000343 62.4969
18.57560391815056 61.3074
18.59816416623245 61.0646
18.620725141597372 60.7056
18.643286845190268 60.157
18.666025549835414 59.5333
18.688588718427933 59.0428
18.711152618092243 59.0888
18.73389353884365 58.7151
18.75645890921984 58.236999999999995
18.77902501351406 57.9767
18.801591852673102 58.1119
18.824335739722738 57.4678
18.846904057212626 57.4975
18.8694731124168 57.0316
18.89204290628315 57.027
18.914789774966803 57.0096
18.937361054791623 56.5869
18.959933076131318 56.542
18.982505839934877 56.2609
19.00525570560582 56.3551
19.027829963004184 56.1694
19.05040496572238 56.3519
19.072980714710468 56.4649
19.095733592739563 56.6473
19.11831084296757 56.7337
19.140888842324735 57.115
19.16346759176222 57.1034
19.18622349753803 57.6521
19.208803755869358 58.6095
19.231384767143577 59.9795
19.253966532312948 61.7264
19.276725481241822 63.9408
19.29930876296784 66.8088
19.3218928014549 69.7681
19.34465404436217 72.6751
19.36723960516257 75.3644
19.389825925592426 75.6824
19.412413006605938 74.4853
19.43517731967805 70.0845
19.457765930683355 65.3827
19.48035530514408 61.0558
19.50294544401556 57.5357
19.525712842708348 55.4128
19.54830451925909 54.1471
19.570896963095727 53.4501
19.593490175174704 53.386
19.616260674962184 53.2643
19.638855432416964 52.896
19.661450960992624 53.1662
19.68404726164677 52.9743
19.706820878021247 52.7223
19.729418731756834 53.1286
19.752017360452857 53.033
19.77461676506804 52.9767
19.797393513540218 53.0495
19.819994478951667 53.4367
19.84259622316767 53.7832
19.8651987471481 53.9111
19.887978643247177 54.3547
19.91058273574792 54.9171
19.933187610901943 55.6725
19.955969879466828 56.7907
19.97857632894404 58.5926
20.00118356396599 60.2849
20.023791585494575 62.4896
20.046577028914875 65.5429
20.069186632506966 67.8552
20.091797025500632 69.4136
20.114408208858933 69.6772
20.137196842715273 68.9578
20.159809615886765 66.8987
20.18242318232135 64.3511
20.20503754298326 62.3685
20.227829382875154 61.4264
20.250445341109344 61.7916
20.27306209647285 62.6973
20.29567964993108 63.9337
20.31847471147704 64.694
20.34109387027612 65.1026
20.363713830075454 64.3717
20.386334591841646 62.5452
20.409132890679302 59.843
20.431755265564437 56.5663
20.454378445325528 54.1041
20.477002430930366 52.367
20.499803982716553 51.028999999999996
20.522429589228004 50.5223
20.54505600449589 50.1364
20.567683229489194 50.0654
20.590488049900088 49.8026
20.61311690359731 49.518
20.63574656993626 49.3924
20.658553853717297 48.9959
20.681185154618298 48.8746
20.703817271080066 48.8251
20.72645020407368 48.6718
20.749260783967177 48.5674
20.771895359337133 48.3207
20.794530754161617 48.3175
20.817166969412938 48.2971
20.83998086114876 48.3613
20.86261872660049 48.1295
20.885257415405402 48.2387
20.90789692853701 48.1708
20.930714147864748 48.1614
20.953355319030678 48.2324
20.97599731745334 48.2711
20.99864014410749 47.9441
21.021460706796564 48.06
21.044105199328826 48.3054
21.06675052302631 48.3338
21.089396678865015 48.4163
21.112220600704806 49.0375
21.134868430275347 49.2988
21.15751709492456 49.5906
21.180166595629693 50.0934
21.202993892429635 50.48
21.22564507473034 50.8198
21.24829709602816 51.0472
21.27112693608965 50.9433
21.293780644891275 50.7926
21.316435195634053 50.0351
21.339090589297417 49.3553
21.361923832041875 48.9598
21.384580921090404 48.2826
21.407238856007325 47.8788
21.429897637773326 47.8492
21.45273429906592 47.8597
21.475394784108598 47.8332
21.498056118951983 47.8899
21.520718304578022 48.1269
21.543558400304388 48.3004
21.566222297108816 48.6814
21.58888704765135 48.6753
21.61155265291521 49.028
21.63439619898156 49.3865
21.657063523335786 49.3944
21.67973170537063 50.0658
21.7024007460706 50.2954
21.72524775840385 51.1161
21.747918526116475 52.1489
21.770590155457388 53.6267
21.79326264741238 55.2452
21.816113141960237 57.2501
21.838787368860547 59.1355
21.861462461341976 61.0279
21.884315579735777 62.8844
21.90699241312273 63.7631
21.92967011506078 64.1217
21.95234868653799 63.4581
21.9752053151131 61.9509
21.997885635446785 59.8987
22.020566828293532 57.9543
22.04324889464272 56.6678
22.066109049404666 55.7621
22.088792872571794 55.6621
22.111477572219204 55.7727
22.1341631493376 55.6965
22.157026846313123 55.4324
22.179714188221507 54.6
22.202402410582668 53.2529
22.22509151438863 51.8384
22.24795876962584 50.6322
22.270649646204486 49.556999999999995
22.293341407213727 49.1486
22.316034053646906 48.7254
22.338904883215342 48.4642
22.36159931041458 48.4992
22.38429462602756 48.2895
22.40699083104897 48.0984
22.429865251039757 48.2416
22.452563244831367 48.2279
22.47526213102522 48.2226
22.49813925616515 48.0847
22.520839937143307 48.1407
22.543541513520587 48.1955
22.56624398629403 48.1241
22.589124730075895 48.0217
22.611829005656723 48.3525
22.63453418063466 48.4218
22.657240256008077 48.4579
22.680124634582935 48.4586
22.70283252079775 48.6981
22.725541310413075 49.052
22.74825100442868 49.3627
22.771139033969575 49.6907
22.79385054687155 49.9017
22.81656296718292 50.6472
22.83927629590484 51.6702
22.862167992606945 52.7518
22.88488314827121 54.0044
22.907599215359284 55.1259
22.93031619487366 56.165
22.953211574954405 56.9649
22.975930389478226 57.3802
22.998650119445763 57.6599
23.02137076586092 56.468999999999994
23.044269845560063 55.0661
23.06699233506288 53.363
23.089715744034912 51.431999999999995
23.112617610931565 50.1773
23.135342869061212 49.2007
23.158069049684816 48.4534
23.1807961538087 48.008
23.20370174880544 48.2456
23.226430710184808 48.2295
23.249160598093425 48.303999999999995
23.271891413539002 48.1481
23.294800752937697 48.336000000000006
23.31753343374794 48.6559
23.340267045128353 48.6733
23.36300158808808 48.9149
23.38591468821339 49.1035
23.408651104658304 49.809
23.431388455719986 50.4277
23.454126742409 51.4094
23.4770436196085 52.5585
23.499783787914662 53.857
23.522524894889884 54.8206
23.54526694154616 56.0642
23.56818761219047 57.1471
23.59093154860734 57.4863
23.613676427751283 57.5153
23.636422250635754 56.277
23.659346731118656 54.5447
23.68209445191868 52.4538
23.704843119509587 50.3425
23.72759273490623 48.6204
23.750521041644767 47.2382
23.77327256312355 46.4838
23.796025035462787 45.9978
23.818956224555475 45.6
23.841710609113413 45.5934
23.86446594758979 45.2954
23.887222241002014 45.0061
23.910157285144578 44.6815
23.932915498962537 44.7286
23.955674670778713 44.5703
23.978434801611975 44.4025
24.001373717286125 44.224
24.024135776723917 44.0992
24.046898798245582 44.0652
24.06966278287146 44.0194
24.092605586582614 43.6867
24.115371508023642 43.5542
24.1381383956401 43.528
24.16090625045381 43.5456
24.183852958731244 43.4005
24.206622758582608 43.3969
24.229393528706886 43.0947
24.252165270127392 43.093999999999994
24.27511589952438 43.2058
24.297889594216997 42.8697
24.32066426328598 42.6456
24.34343990775613 42.6533
24.36639447485003 42.6672
24.38917208083877 42.721000000000004
24.41195066531332 42.5239
24.43490819850244 42.6261
24.457688750692377 42.5289
24.48047028445616 42.3999
24.503252800821233 42.5813
24.526214300784112 42.604
24.548998793132213 42.6487
24.57178427117417 42.582
24.59457073593893 42.458
24.617536219319863 42.5388
24.64032466834748 42.6704
24.663114107195035 42.4609
24.685904536893013 42.0146
24.708874020360852 41.9581
24.731666442613744 41.8641
24.754459858818787 41.961999999999996
24.777254270007962 41.8098
24.80022777025625 41.7039
24.82302418230472 41.7887
24.845821592443674 41.7909
24.86862000170663 41.7198
24.891597535453727 41.6729
24.914397953892728 41.9439
24.93719937456671 41.8196
24.96000179851076 42.1525
24.98298338249997 42.1567
25.00578782394922 42.3426
25.028593271784167 42.4498
25.05157790644186 42.8599
25.07438537804115 42.9052
25.097193859145293 43.0595
25.120003350792075 43.4311
25.142992065061257 43.7894
25.165803588823465 44.0671
25.18861612625217 44.1604
25.211429678386736 44.1117
25.234422489079968 44.2445
25.257238081693636 44.357
25.280054692141732 44.433
25.3028723214652 44.4002
25.325869245420463 44.5979
25.348688923599397 44.5537
25.371509623787006 44.4736
25.394331347025812 44.1455
25.41733240110666 43.4034
25.440156181590016 42.8776
25.46298098826268 42.1997
25.48580682216873 41.66
25.50881202326435 41.303000000000004
25.53163992281684 40.835
25.55446885274561 40.6561
25.577298814096377 40.5627
25.600308179121807 40.3776
25.623140214533745 40.4028
25.64597328451537 40.3016
25.66898578564376 39.8581
25.691820936010206 40.0592
25.714657124097695 40.0864
25.737494350954734 40.1616
25.760511045684957 40.0528
25.783350361364224 40.0482
25.806190718969255 40.0648
25.82903211955018 40.0888
25.852053024868923 40.193000000000005
25.874896522722523 40.2037
25.897741066713106 40.1876
25.920586657892454 40.2857
25.943611790812668 40.5592
25.966459487728237 40.7068
25.989308234998564 40.598
26.01215803367705 40.9557
26.03518741123814 41.2026
26.05803932412957 41.3826
26.080892291600094 41.3513
26.10374631470478 41.3771
26.12677995397268 41.3107
26.14963609978026 41.2327
26.172493304397875 40.9557
26.19535156888223 40.6747
26.218389486949604 40.3244
26.241249882640123 40.035
26.26411134137826 39.8836
26.28715248187403 39.7963
26.31001607820869 39.5845
26.3328807407756 39.4542
26.35574647063438 39.6496
26.37879191991473 39.6327
26.401659795896734 39.6477
26.424528742360263 39.8904
26.447398760366614 40.0302
26.470448535598294 40.1199
26.49332070826805 40.3225
26.516193955675355 40.7851
26.53906827888316 40.8727
26.562122397260108 41.0282
26.584998883685063 41.4376
26.607876449110325 41.6671
26.63075509460056 41.7812
26.65381357334404 41.8678
26.67669439061878 41.7169
26.699576291163382 41.5468
26.722459276044212 41.5062
26.745522132402975 41.2272
26.768407297649354 40.9338
26.791293550442003 40.4959
26.814180891848974 40.4263
26.837248143099337 40.1439
26.860137673466657 39.9522
26.88302829566349 39.7589
26.90592001075963 39.5656
26.92899167420566 39.2723
26.951885586870763 39.0088
26.974780595655517 38.9289
26.99785558178161 38.7121
27.020752794605112 38.6322
27.043651106772522 38.4042
27.06655051935668 38.4126
27.089629948036183 38.3634
27.112531573292053 38.2675
27.135434302194138 38.4514
27.158338135817015 38.239000000000004
27.181422024430987 38.2403
27.204328079372566 38.0618
27.22723524226965 38.0536
27.250143514198573 38.0238
27.273231880156334 38.0477
27.296142382065014 38.0477
27.319053996245536 37.9515
27.341966723775965 38.0031
27.365059584515222 38.0417
27.38797455070062 38.0706
27.410890633481237 37.9271
27.433807833936918 38.0994
27.456905206923906 38.091
27.47982465472398 38.0914
27.502745223449743 38.2153
27.525666914182825 38.1454
27.548768816912457 38.0988
27.571692763693633 38.2267
27.59461783573812 37.9382
27.617723149491244 37.8602
27.640650484125285 37.7884
27.66357894728264 37.6963
27.686508540048052 37.6857
27.709618414237887 37.6039
27.732550278321757 37.4157
27.755483275279115 37.4331
27.778417406196485 37.4954
27.801531858397514 37.4985
27.824468269376716 37.4127
27.847405817586786 37.4376
27.870344504116094 37.68
27.893463551932008 37.718
27.916404527281053 37.8946
27.93934664422563 37.9565
27.962289903855886 37.9665
27.98541356491974 38.3168
28.00835912214229 38.5017
28.03130582533231 38.725
28.054253675581805 38.9011
28.077381967556104 38.7591
28.100332124185126 38.6876
28.123283431160893 38.595
28.146235889577238 38.4169
28.169368830154156 38.1488
28.192323603752033 37.889
28.215279532083304 37.7585
28.238415973016764 37.589
28.261374223145094 37.3921
28.284333631303806 37.1491
28.307294198589954 37.0577
28.330435319167677 36.7013
28.353398217078915 36.5064
28.376362277420153 36.1788
28.39932750129032 36.1308
28.422473319286713 35.9079
28.44544088262495 35.9459
28.468409612800283 35.8884
28.491379510913497 35.5664
28.51453004413313 35.6485
28.53750229057244 35.5281
28.56047570826344 35.588
28.583450298308804 35.4958
28.606605564586562 35.3143
28.629582511831156 35.415
28.65256063474956 35.3808
28.675539934446338 35.2305
28.698699951647605 35.1689
28.72168161743193 35.0879
28.74466446331978 35.2039
28.767648490417624 35.0749
28.790813276438353 35.1052
28.813799678527303 35.1652
28.836787265157085 35.1458
28.859955641890075 35.0516
28.882945610203045 34.9771
28.905936766392035 35.0813
28.928929111566863 34.9588
28.952102288520145 34.8933
28.975097024308607 34.7626
28.998092952423807 34.5738
29.021090073977508 34.491
29.04426806913204 34.4249
29.067267590245258 34.2254
29.090268308143695 34.2241
29.11327022394099 34.2082
29.13645305530891 33.9827
29.159457379627167 33.9425
29.18246290519685 33.869
29.20546963313352 33.9317
29.22865731875826 33.9764
29.25166646419296 33.9782
29.27467681535305 33.9969
29.29768837335608 33.907
29.320880931312562 33.9216
29.34389491580634 33.9032
29.366910110507334 33.9343
29.38992651653503 33.7484
29.41312396492981 33.8416
29.436142806456754 33.8172
29.45916286268059 33.6867
29.48236399319994 33.5769
29.50538649169417 33.4623
29.528410208259935 33.4079
29.55143514402014 33.1871
29.574641196749695 33.0264
29.597668583816574 32.9031
29.6206971934585 32.7772
29.64372702680042 32.7958
29.666938019934474 32.6538
29.689970313635285 32.6214
29.713003834422636 32.5889
29.73603858342347 32.6168
29.759254535188578 32.5723
29.78229175361658 32.4087
29.80533020365064 32.5218
29.82836988641968 32.525999999999996
29.85159081507472 32.5234
29.874632976355343 32.4132
29.89767637376955 32.3551
29.920721008448314 32.235
29.9439469322847 32.2963
29.96699405457564 32.1834
29.9900424175358 32.1504
30.013092022298157 32.1183
30.03632295963995 32.1035
30.059375061131373 32.0933
30.08242840783577 32.3318
30.105483000888153 32.2632
30.128718970092244 32.1158
30.151776069006917 32.0705
30.17483441768648 32.0739
30.198074175317235 32.0124
30.221135036724256 32.0781
30.24419715131772 32.1306
30.267260520236203 31.9902
30.290505341942243 31.9633
30.313571232750228 31.9289
30.336638381310948 31.8569
30.35970678876503 31.9438
30.38295669299435 31.8012
30.40602763151657 31.8543
30.429099832366074 31.7949
30.452173296685572 31.7255
30.47542830191959 31.7815
30.498504306502497 31.773000000000003
30.521581577995562 31.840999999999998
30.544660117543582 31.8569
30.56792024229725 31.8799
30.59100133132069 31.8008
30.614083691845494 31.6837
30.637167325018545 31.8508
30.660432587840603 31.8997
30.683518779717886 31.8504
30.70660624769615 31.9482
30.729694992924372 31.8804
30.75296541239743 31.9417
30.77605672557558 31.7518
30.799149319462742 31.6177
30.8224236211637 31.6228
30.845518789950724 31.5399
30.868615242910597 31.522
30.891712981195973 31.4064
30.91499247215866 31.2485
30.938092794619365 31.3006
30.96119440587579 31.1271
30.984297307082752 31.0567
31.00758200598383 30.9168
31.030687500658694 30.9196
31.053794288760695 30.8879
31.076902371446767 30.7063
31.100192296997445 30.7357
31.12330298246119 30.6862
31.14641496599209 30.5935
31.169528248749216 30.6338
31.19282341969534 30.6609
31.215939314557186 30.6396
31.239056512134788 30.6324
31.262175013589378 30.5282
31.28547544871168 30.5901
31.30859657161541 30.5778
31.331719001892175 30.4889
31.35484274070538 30.6729
31.378148458819545 30.5961
31.401274828443725 30.5707
31.424402510106933 30.5844
31.447712205419993 30.7409
31.470842524931633 30.4516
31.493974159989783 30.4607
31.51710711176168 30.4832
31.54042212308802 30.5124
31.563557722100917 30.4786
31.586694641341655 30.27
31.609832881979628 30.0989
31.63315322823208 30.0854
31.656294125521327 29.9858
31.679436347728515 29.9345
31.70257989602529 29.8344
31.725905596152327 29.8279
31.74905181052835 29.8546
31.772199354521323 29.9074
31.79534822930507 29.8263
31.818679302290967 29.8865
31.84183085259981 29.8785
31.864983737233473 29.8598
31.88813795736804 29.8332
31.911474422233013 29.6495
31.934631327356435 29.7312
31.9577895715215 29.7166
31.980949155906522 29.7294
32.004291031706956 29.693
32.027453310562606 29.5329
32.05061693318573 29.4339
32.07396288236386 29.4368
32.09712920658542 29.3772
32.12029687812702 29.2629
32.14346589817093 29.2626
32.166817291729984 29.12
32.18998902288583 29.0877
32.21316210610336 29.0616
32.23633654256711 28.9824
32.259693399663725 28.9608
32.282870556771144 28.8231
32.30604907069099 28.8617
32.329228942610065 28.8507
32.35259128243769 28.6861
32.375773884550505 28.6914
32.398957848235646 28.6094
32.422143174682176 28.5628
32.445511016471215 28.5083
32.468699082679954 28.406999999999996
32.49188851523011 28.4027
32.51507931531304 28.2422
32.538452678331 28.3506
32.56164622776311 28.3996
32.58484114831493 28.2287
32.60803744118015 28.1826
32.631416344731896 28.1238
32.654615396551876 28.2112
32.67781582427913 28.215999999999998
32.701198898634416 27.965
32.72440209253756 27.8696
32.747606665947124 28.0241
32.77081262006088 27.8543
32.79420126883317 27.8396
32.81740999876112 27.898000000000003
32.840620112999424 27.7238
32.86383161274818 27.7134
32.88722585534586 27.7497
32.91044014056596 27.8079
32.933655814909734 27.6909
32.95687287957963 27.660999999999998
32.98027273544904 27.6069
33.00349259526636 27.5577
33.026713849030116 27.605
33.04993649794511 27.5834
33.073341986570746 27.4411
33.09656744032826 27.5205
33.11979429286444 27.5324
33.14302254538647 27.4962
33.166433686291185 27.428
33.18966475336992 27.3864
33.212897224069096 27.3157
33.23613109959831 27.3272
33.259547912343415 27.2925
33.2827846121627 27.2289
33.306022720453775 27.1589
33.32926223842861 27.0971
33.352684742614166 27.1175
33.37592709463173 27.1183
33.399170859982064 27.0392
33.422597648419426 26.9077
33.44584425514446 26.8316
33.46909227885668 26.8465
33.4923417207723 26.7339
33.51577423505344 26.7181
33.539026528130385 26.6697
33.56228024307245 26.6514
33.585535381098246 26.4928
33.60897364093058 26.4654
33.63223163992385 26.4561
33.6554910656699 26.445999999999998
33.678751919389796 26.399
33.702195944520106 26.2873
33.72545966903325 26.3436
33.74872482519663 26.1611
33.771991414233746 26.1583
33.79544122444841 26.1703
33.81871069412428 26.1956
33.84198160035767 26.1318
33.86525394437455 26.1015
33.88870955949969 25.9961
33.911984794020626 26.0456
33.93526147001624 25.9595
33.958539588715006 25.816
33.98200102861669 25.8332
34.0052820477047 25.7178
34.02856451319451 25.7632
34.05203033759056 25.7046
34.07531571090147 25.6241
34.09860253431845 25.6563
34.121890809074316 25.5991
34.145362493118924 25.6146
34.16865368561615 25.5178
34.191946333164054 25.4261
34.21524043699793 25.5252
34.23871800066799 25.4613
34.26201503218366 25.3864
34.28531352370466 25.3242
34.30861347646881 25.3811
34.33209693978188 25.2838
34.3553998301885 25.2133
34.378704185565205 25.1846
34.402010007152356 25.2016
34.42549939016683 25.0952
34.44880815937748 25.0392
34.472118398533134 24.9854
34.49543010887669 25.0085
34.51892543169198 24.9254
34.54224009966052 24.8476
34.56555624255917 24.8272
34.58887386163339 24.7112
34.61237514439016 24.7603
34.6356957311114 24.7444
34.65901779775809 24.6675
34.68252356662995 24.6813
34.705848608458616 24.6334
34.72917513396849 24.5362
34.75250314440949 24.5601
34.77601490857862 24.5116
34.799345904259795 24.3695
34.82267838863559 24.5333
34.846012362958525 24.4384
34.869530142679984 24.4222
34.89286711232212 24.2846
34.91620557568269 24.3198
34.93954553401677 24.2552
34.9630693495876 24.2594
34.986412313340814 24.2251
35.00975677584668 24.2897
35.033102738362956 24.1625
35.05663261012228 24.0409
35.0799815881786 24.0809
35.10333207003229 24.05
35.12668405694369 23.9682
35.150220005273056 23.9478
35.17357501786656 23.988000000000003
35.19693153931268 23.9661
35.220289570874385 23.865
35.24383161619786 23.85
35.267192683604904 23.8277
35.290555264930376 23.8955
35.314101899412165 23.8265
35.33746752422433 23.7693
35.36083466676374 23.7509
35.38420332829803 23.7169
35.407756095629054 23.7823
35.43112781085063 23.6958
35.45450104888391 23.6861
35.477875810999194 23.6223
35.50143473172161 23.601999999999997
35.52481255774625 23.6621
35.54819191167777 23.590999999999998
35.57157279478914 23.5783
35.595137889488406 23.4447
35.61852184675279 23.4288
35.641907337029984 23.399
35.665294361595684 23.366999999999997
35.68886565090076 23.2765
35.7122557598848 23.3181
35.73564740699838 23.3129
35.759040593519934 23.3024
35.78261809810353 23.2617
35.80601437933051 23.1095
35.829412203814705 23.0431
35.85281157283719 23.0268
35.876395313415884 23.04
35.8997977874528 22.9634
35.92320180988546 22.9004
35.946790244133936 22.8497
35.97019737933222 22.8949
35.993606066789866 22.9049
36.01701630779276 22.8634
36.04061101440684 22.8247
36.06402437852291 22.6967
36.08743930005611 22.7645
36.1108557802951 22.6853
36.13445678011326 22.6871
36.15787639383515 22.6741
36.18129757014299 22.5922
36.20472031032821 22.500999999999998
36.22832762423364 22.4731
36.25175350829375 22.4521
36.275180960119776 22.351
36.298609981005924 22.423000000000002
36.32222362992669 22.4675
36.34565580510207 22.4218
36.36908955323448 22.3748
36.39252487562093 22.2566
36.416144880530226 22.1993
36.43958336764275 22.2013
36.463023432914625 22.2325
36.486465077645676 22.1056
36.51009145956204 22.2096
36.53353627947859 22.1717
36.55698268276811 22.0704
36.58043067073321 22.0416
36.60406345072071 21.9654
36.62751462435344 21.9369
36.65096738658405 21.9431
36.67460498210655 21.8223
36.69806093788647 21.8608
36.72151848619297 21.8521
36.744977628333636 21.8242
36.76862165890998 21.724
36.79208400512205 21.715999999999998
36.81554794910557 21.6923
36.83901349217101 21.6189
36.862663978991606 21.5592
36.88613273667352 21.569000000000003
36.90960309738324 21.5794
36.933075062434064 21.4949
36.95673202673572 21.4631
36.98020721697122 21.4575
37.003684015502365 21.3925
37.027162423645365 21.3423
37.050825886711465 21.3112
37.07430753063053 21.2776
37.09779078812467 21.2151
37.121275660513014 21.2665
37.144945643673694 21.2232
37.16843376245278 21.1823
37.19192350009803 21.1343
37.215414857931435 21.085
37.239091382563885 21.0067
37.262585997426164 21.0588
37.28608223645736 21.0707
37.309763684451696 20.9935
37.33326318851098 20.989
37.356764320726555 20.8406
37.380267082425526 20.8757
37.40395510942588 20.799
37.42746114683234 20.7815
37.45096881771841 20.7439
37.474478123414166 20.7027
37.49817275092816 20.71
37.52168534303452 20.7324
37.54519957395567 20.6775
37.568715445024665 20.5767
37.592416694607714 20.5073
37.61593586281424 20.6083
37.63945667518264 20.6145
37.66297913304891 20.4957
37.68668702630454 20.4692
37.710212792059274 20.3971
37.733740207334854 20.3879
37.757269273470364 20.317999999999998
37.780983832050374 20.3056
37.80451621684926 20.2715
37.82805025654007 20.2293
37.851585952464795 20.2035
37.8753071980695 20.1766
37.89884622345676 20.1004
37.92238690911902 20.0891
37.94611318753442 20.0423
37.969657210779765 20.0135
37.99320289834801 19.9727
38.016750251586465 20.014
38.04048325513017 19.9028
38.06403395679343 19.9126
38.087586328183946 19.9321
38.11114037065203 19.8515
38.13488012115898 19.8512
38.1584375229181 19.8047
38.181996599821 19.7812
38.205557353221124 19.7835
38.229303872575656 19.6869
38.2528679961576 19.7546
38.27643380031219 19.6294
38.30000128639589 19.5694
38.32375459653193 19.5999
38.34732546371299 19.6325
38.37089801690786 19.5348
38.39447225747609 19.456
38.418232380377425 19.441
38.441810012983396 19.4594
38.46538933705673 19.3708
38.488970353960084 19.4165
38.51273731166058 19.3622
38.536321731567014 19.2834
38.55990784840681 19.233
38.58367995004091 19.2276
38.60726947812959 19.176
38.63086070726198 19.1998
38.654453638806274 19.1996
38.678232613930824 19.1712
38.70182896773327 19.061
38.72542702806741 19.0863
38.7490267963045 19.0343
38.77281266709232 18.995
38.79641586862214 18.9898
38.8200207821842 18.9173
38.843627409152944 19.0052
38.86742019782782 18.9314
38.891030269149255 18.8612
38.914642058016156 18.8951
38.938255565806124 18.7855
38.96205529464307 18.7585
38.98567225787121 18.7284
39.00929094417078 18.7719
39.03291135492255 18.6855
39.05671804624804 18.5876
39.080341923549106 18.6092
39.103967529460334 18.5489
39.127594865365744 18.5033
39.15140854155791 18.474
39.17503935514948 18.505
39.19867190290282 18.491
39.22249083587951 18.4376
39.24612686969409 18.4288
39.269764641845306 18.4168
39.293404153722804 18.410999999999998
39.317230110864074 18.3437
39.34087311998506 18.3018
39.36451787301696 18.2725
39.388164371352595 18.186
39.41199737518003 18.1911
39.43564738196752 18.1942
39.45929913825317 18.1747
39.48295264543308 18.0748
39.506792718520884 18.1056
39.530449745387216 18.0721
39.55410852735203 18.0548
39.57776906581474 18.0282
39.60161623079 17.9843
39.625280300200025 17.992
39.64894613032202 17.899
39.67261372255866 17.8557
39.6964680021016 17.8656
39.72013913657293 17.9273
39.74381203738292 17.8709
39.76748670593756 17.873
39.79134812278169 17.7782
39.81502634488497 17.7736
39.83870633896685 17.6615
39.862388106436654 17.6801
39.88625668336918 17.6079
39.90994201572829 17.6788
39.933629125719285 17.6434
39.957503091207826 17.5568
39.9811937746168 17.585
40.00488623990914 17.4769
40.02858048850006 17.4099
40.05246165409549 17.4017
40.076159487492085 17.3583
40.099859108448875 17.38
40.123560518384345 17.391
40.1474489070226 17.3541
40.171153913178564 17.2711
40.194860712584955 17.268
40.2185693066637 17.2942
40.242464941335314 17.1153
40.26617714307655 17.1747
40.289891143772046 17.1692
40.3136069448471 17.1246
40.33750984859743 17.1093
40.3612292688043 17.0268
40.3849504936829 17.0413
40.40867352466194 17.0432
40.43258372059144 16.9965
40.45631038219906 17.0109
40.48003885420956 16.8875
40.503769138055105 16.9333
40.52768664931955 16.9021
40.55142057531802 16.8664
40.57515631746428 16.8233
40.599079334038514 16.7925
40.62281872700477 16.7749
40.64655994043941 16.7221
40.67030297578061 16.7595
40.69423334835778 16.7087
40.71798004609188 16.671
40.74172857006355 16.6315
40.76547892171441 16.6511
40.7894166736039 16.6157
40.813170699248566 16.5659
40.83692655691388 16.5596
40.86068424804498 16.5922
40.884629402612525 16.4787
40.908390779366385 16.4905
40.932153993938 16.4449
40.95591904777605 16.4601
40.979871628443995 16.3944
41.003640379561936 16.4044
41.02741097430883 16.3795
41.05118341413683 16.3163
41.075143444384416 16.2675
41.098919593177826 16.2603
41.1226975914255 16.2786
41.14647744058318 16.2756
41.170444943946755 16.1701
41.19422851378379 16.1641
41.218013938914645 16.192999999999998
41.24198706625173 16.087
41.26577622087193 16.0503
41.289567235177785 16.031
41.31336011063129 16.0131
41.337340752422875 16.0182
41.361137369129835 15.9832
41.38493585138705 15.9443
41.40873620066004 15.9267
41.43272438060107 15.9242
41.45652848292052 15.8325
41.48033445666918 15.8016
41.50414230331616 15.845
41.528138045159764 15.7702
41.551949656675205 15.7216
41.575763145513235 15.6901
41.59957851314666 15.7263
41.62358184070442 15.6468
41.64740098505737 15.6416
41.6712220126409 15.5742
41.69504492493139 15.5629
41.71905586207357 15.5729
41.74288256296395 15.5655
41.766711153007456 15.5356
41.79054163368412 15.4965
41.814560204340054 15.4187
41.838394485526365 15.4762
41.86223066180303 15.3929
41.88625497706819 15.3735
41.910094962812 15.394
41.93393684811168 15.2992
41.95778063445365 15.2899
41.981812625263366 15.2898
42.00566023303407 15.2238
42.029509746323676 15.1821
42.05336116662236 15.2028
42.077400857069705 15.2248
42.10125611078846 15.1878
42.12511327600405 15.1195
42.14897235421036 15.0746
42.173019768448455 15.1216
42.19688269209613 14.9823
42.22074753323349 15.0015
42.24461429335818 15.0095
42.268669455600495 14.9481
42.292540073217886 14.9661
42.31641261433284 14.9275
42.34028708044675 14.934000000000001
42.36435001496739 14.8949
42.38822835065557 14.8715
42.41210861586426 14.7933
42.4359908120986 14.857000000000001
42.46006154323262 14.8309
42.48394762115317 14.7195
42.507835634632315 14.7731
42.531912233047436 14.7173
42.55580413732265 14.6537
42.579697981698 14.6472
42.60359376768525 14.6307
42.62767820545945 14.6229
42.65157789440821 14.6235
42.67547952952185 14.5629
42.699383112316 14.5565
42.72347541395347 14.4578
42.74738291190531 14.4169
42.771292362102166 14.4675
42.795203766063516 14.3911
42.819303956130405 14.4417
42.843219287476536 14.3881
42.86713657716324 14.3451
42.89105582671383 14.3604
42.91516392983864 14.3322
42.939087119032166 14.2857
42.963012272677304 14.2914
42.98693939230129 14.2235
43.01105543317513 14.2127
43.034986504731386 14.213
43.05891954686589 14.2122
43.08285456110972 14.1863
43.10697856448665 14.1094
43.130917542983475 14.1068
43.15485849820081 14.0597
43.17880143167367 14.0005
43.20293342237094 14.0129
43.226880332449 13.9969
43.25082922540554 13.9653
43.27496722682525 13.9336
43.29892010567796 13.9
43.32287497204102 13.9468
43.34683182745632 13.84
43.370977859791836 13.8202
43.39493871351105 13.7889
43.41890156092628 13.8264
43.44286640358341 13.8063
43.46702049182749 13.8027
43.49098934522816 13.712
43.51496019852649 13.7165
43.5389330532723 13.6962
43.56309522248204 13.6613
43.58707210044314 13.6435
43.61105098451946 13.6061
43.63503187626491 13.5975
43.659202151562134 13.574000000000002
43.68318707902681 13.5515
43.70717401884041 13.5388
43.731162972560874 13.5199
43.75534137913236 13.4521
43.779334381108384 13.4104
43.803329401683186 13.4277
43.82732644241872 13.4268
43.8515130055166 13.4124
43.87551410707659 13.3329
43.89951723350145 13.3153
43.923709934595614 13.3121
43.94771713129917 13.344000000000001
43.97172635758096 13.3122
43.99573761501002 13.255999999999998
44.0199385169922 13.238
44.04395385732619 13.2001
44.067971233533086 13.17
44.09199064718605 13.1356
44.11619977548961 13.1049
44.14022328470671 13.0768
44.16424883610785 13.0655
44.18827643127035 13.0884
44.21249381139513 12.9948
44.236525514814076 13.0068
44.26055926674478 12.9942
44.28459506876863 13.0122
44.3088207262813 12.9148
44.33286064928722 12.8609
44.35690262714919 12.8603
44.38094666145278 12.8351
44.4051806219871 12.9176
44.42922879003185 12.8895
44.45327901929361 12.818
44.477331311362136 12.7725
44.501573600619416 12.7125
44.525630039221795 12.7313
44.54968854541895 12.7227
44.573937102200176 12.7373
44.5979997645541 12.7074
44.622064499300315 12.6822
44.64613130803592 12.6552
44.67038823869318 12.6281
44.69445921643748 12.5893
44.718532272981385 12.5778
44.742607409926194 12.5628
44.76687274034801 12.5322
44.79095205918753 12.4937
44.81503346325094 12.4981
44.839116954143876 12.4826
44.86339071028742 12.4398
44.88747839599524 12.4423
44.91156817336837 12.4414
44.93566004401666 12.3917
44.959942251908146 12.3523
44.984038330325966 12.2723
45.00813650686762 12.2252
45.03223678314731 12.2727
45.05652746888232 12.2751
45.08063196592069 12.2618
45.104738567558705 12.2371
45.128847275414856 12.2365
45.15314646515866 12.1484
45.17725940679741 12.159
45.20137445952892 12.0967
45.22568004865265 12.1093
45.24979934496396 12.1113
45.27392075725247 12.0431
45.29804428714431 12.0254
45.322358426247604 12.0406
45.346486212804315 11.9945
45.370616121861914 11.9701
45.39474815505086 11.9419
45.41907087049246 11.9355
45.4432071734666 11.8954
45.46734560548283 11.9061
45.49148616817604 11.8854
45.51581748638564 11.8614
45.5399623320197 11.8394
45.56410931325473 11.8292
45.58825843173002 11.8159
45.61259837920865 11.7725
45.636751793816 11.762
45.66090735060093 11.7069
45.68506505120716 11.6729
45.7094136545275 11.6739
45.73357566449271 11.6641
45.75773982322992 11.6144
45.78190613238733 11.675
45.806263418194064 11.58
45.83043404997326 11.6093
45.85460683713677 11.581
45.87897065658495 11.5292
45.90314777634752 11.5435
45.92732705646868 11.4906
45.9515084986045 11.4396
45.97588104735473 11.5017
46.00006683541565 11.4206
46.02425479047904 11.4312
46.04844491420549 11.3435
46.0728262191024 11.3609
46.09702070211635 11.3868
46.12121735879483 11.3424
46.14541619080294 11.3069
46.169806278764455 11.3462
46.194009483459034 11.2926
46.21821486849841 11.2454
46.24242243555223 11.2156
46.266821333570014 11.2178
46.29103328674601 11.1931
46.31524742696538 11.1903
46.33946375590237 11.1835
46.36387149104216 11.1087
46.38809221957392 11.1164
46.41231514186606 11.1235
46.436540259597464 11.1115
46.460956858999374 11.0536
46.48518638983522 11.0497
46.509418121166966 11.0188
46.533652054678114 10.9918
46.55807754555709 10.9696
46.58231590571962 10.9449
46.60655647313217 10.9207
46.630988654873654 10.8912
46.655233659129024 10.8733
46.67948087571551 10.8635
46.70373030632484 10.8233
46.72817142736393 10.8093
46.752425308428684 10.7961
46.77668140861147 10.8029
46.80093972960865 10.7544
46.82538981736788 10.7368
46.849652602470904 10.7075
46.87391761349769 10.6815
46.8981848521493 10.6712
46.9226439341274 10.6686
46.946915650573224 10.6681
46.97118959976749 10.6327
46.99546578341598 10.6293
47.019933887188216 10.5803
47.04421456235744 10.5737
47.06849747711879 10.5559
47.09278263318286 10.5399
47.11725978640143 10.5106
47.14154944775105 10.4452
47.165841355555656 10.4894
47.1901355115306 10.4793
47.214621741924994 10.4028
47.23892041698887 10.4101
47.26322134538975 10.402000000000001
47.28771440635075 10.4062
47.31201986422527 10.3523
47.33632758061436 10.3213
47.360637557241866 10.3185
47.38513974410611 10.2895
47.40945426407847 10.3036
47.43377104948137 10.293
47.45809010204344 10.2812
47.48260144275502 10.2456
47.506925052572285 10.199
47.53125093475548 10.1778
47.55557909103813 10.1536
47.58009961361992 10.1192
47.60443234110732 10.1344
47.62876734791564 10.1162
47.65310463578333 10.1013
47.6776343683373 10.1019
47.7019762413987 10.0589
47.72632040075572 10.0409
47.75066684815169 9.996210000000001
47.77520581885936 9.95203
47.799556865477655 9.93587
47.823910205386 9.95807
47.84826584033272 9.955919999999999
47.87281407745551 9.934
47.89717432569297 9.95675
47.92153687423484 9.94028
47.94609208429692 9.90264
47.97045925671401 9.828439999999999
47.99482873471275 9.82088
48.01920052005013 9.818810000000001
48.04376504619224 9.79749
48.068141469543484 9.837480000000001
48.09252020552573 9.79535
48.11690125590099 9.775030000000001
48.1414751266064 9.734869999999999
48.16586082917454 9.709769999999999
48.19024885144316 9.7065
48.2146391951793 9.69852
48.239222439012764 9.656419999999999
48.26361744916137 9.63151
48.28801478610016 9.65612
48.31241445160131 9.61415
48.337007097209366 9.580219999999999
48.36141144338331 9.58911
48.38581812345755 9.52541
48.41022713920929 9.57744
48.434829215320704 9.51901
48.45924292604658 9.49435
48.48365897780325 9.50191
48.50807737237308 9.50911
48.532688907799276 9.50844
48.55711201168574 9.415389999999999
48.581537463754074 9.43193
48.60615611725119 9.43334
48.63058628942721 9.40061
48.65501881516546 9.388060000000001
48.6794536962573 9.32737
48.70408185970339 9.329830000000001
48.72852147531801 9.3142
48.75296345168211 9.29705
48.77740779059232 9.3108
48.80204549302823 9.24585
48.82649458091802 9.27621
48.85094603676547 9.22943
48.87539986237231 9.20668
48.90004713292306 9.202910000000001
48.92450572200832 9.17912
48.94896668628025 9.18487
48.97343002754588 9.137939999999999
48.99808689542115 9.11023
49.02255501470614 9.10683
49.04702551642794 9.09961
49.0714984023988 9.08924
49.096164896893235 9.04925
49.120642575466796 9.08164
49.145122643748394 9.01263
49.16960510355558 8.993839999999999
49.19428125404938 8.9783
49.2187685210852 8.97288
49.243258185121555 8.95071
49.26794160167084 8.94382
49.2924360839405 8.89984
49.31693296869764 8.87627
49.34143225776915 8.87321
49.36612538195438 8.85525
49.39062950396021 8.8821
49.41513603578346 8.820269999999999
49.4396449792564 8.81826
49.46434784069503 8.81893
49.488861631846454 8.77442
49.513377840166804 8.76213
49.537896467493745 8.723239999999999
49.56260909589029 8.68873
49.587132585683285 8.730780000000001
49.611658500018365 8.685369999999999
49.636186840738596 8.668569999999999
49.66090926588511 8.67694
49.685442483902584 8.64236
49.70997813385706 8.62613
49.734516217597076 8.60052
49.75924846937352 8.595139999999999
49.7837914452858 8.58422
49.80833686055187 8.56145
49.83288471702571 8.53547
49.85762682540054 8.5456
49.882179588965734 8.50044
49.9067347993235 8.46826
49.93129245833333 8.501389999999999
49.95604445336378 8.48905
49.98060703442832 8.470369999999999
50.005172069746266 8.4462
50.02993150438364 8.44266
50.05450147301533 8.42252
50.07907390151433 8.41156
50.10364879174981 8.36085
50.12841816587289 8.381089999999999
50.1529980044635 8.375630000000001
50.17758031042124 8.29538
50.20216508562089 8.28749
50.22694442953363 8.28346
50.25153416817468 8.31293
50.27612638170508 8.29122
50.300721072005196 8.21593
50.325510416102105 8.22613
50.350110084975064 8.173169999999999
50.37471223628208 8.178339999999999
50.39931687190919 8.19738
50.424116246675766 8.13621
50.44872587605249 8.141860000000001
50.47333799543065 8.15243
50.49795260670191 8.13568
50.52276204271512 8.11904
50.54738166295838 8.07127
50.57200378079314 8.080219999999999
50.596628398116835 8.06236
50.62144792604559 8.05753
50.646077567609396 8.021189999999999
50.670709714377715 8.01308
50.69553683636198 8.00403
50.72017401885922 7.99309
50.7448137122895 8.02228
50.76945591856022 7.9643
50.79429318636823 7.929139999999999
50.818940443716784 7.933610000000001
50.84359021965163 7.93186
50.868242516085964 7.888310000000001
50.893089960641895 7.889989999999999
50.917747323549435 7.826280000000001
50.94240721271973 7.843839999999999
50.96706963007175 7.813110000000001
50.99192728239342 7.80427
51.01659478166073 7.838610000000001
51.04126481489051 7.752610000000001
51.06593738400761 7.79552
51.090805275207074 7.76617
51.11548294172845 7.74507
51.14016314993547 7.72495
51.164845901758845 7.6983
51.18972406304274 7.6863
51.21441192780656 7.633369999999999
51.23910234200271 7.62648
51.2637953075678 7.61464
51.288683770237945 7.641369999999999
51.31338186432707 7.63824
51.33808251561888 7.571000000000001
51.362978729967345 7.57063
51.387684521509755 7.56613
51.41239287610203 7.56769
51.437103795691165 7.54092
51.46201036644977 7.5411
51.486726441956634 7.4955
51.51144508832545 7.49405
51.536166307509156 7.470619999999999
51.56108326624387 7.44964
51.58580965706056 7.442410000000001
51.61053862657523 7.4278699999999995
51.635270176746864 7.39162
51.66019755512065 7.39352
51.68493429268881 7.36375
51.70967361681515 7.367939999999999
51.73441552946465 7.355460000000001
51.759353359237934 7.34745
51.7841004750961 7.32535
51.80885018539685 7.32141
51.833602492111254 7.28027
51.8585508051424 7.26991
51.883308330926425 7.30122
51.90806845906181 7.232080000000001
51.932831191525715 7.22282
51.95779001977161 7.186210000000001
51.98255798721516 7.1537
52.00732856494335 7.13865
52.03229530577543 7.14145
52.057071130455945 7.14827
52.081849571391054 7.161969999999999
52.106630630568695 7.13409
52.13160794279417 7.09899
52.15639426492067 7.09072
52.18118321127822 7.091819999999999
52.205974783860896 7.08432
52.23096269971011 7.06474
52.255759551287994 7.03755
52.280559035098186 6.99348
52.30536115314103 6.99245
52.33035970494467 6.992380000000001
52.35516711807904 7.00508
52.37997717147198 6.97611
52.40478986713005 6.985860000000001
52.42979908731974 6.930860000000001
52.454617094216 6.916060000000001
52.47943774942214 6.87662
52.50426105495102 6.87095
52.529280976059844 6.84035
52.554109609024096 6.84415
52.57894089837482 6.84704
52.60377484613117 6.816560000000001
52.62880550079408 6.82684
52.65364479223379 6.81555
52.67848674816189 6.759360000000001
52.70352547971946 6.735339999999999
52.72837279155837 6.723510000000001
52.753222773982785 6.7312
52.778075429022984 6.75051
52.80312495150885 6.757289999999999
52.827982978797436 6.70856
52.85284368481815 6.653910000000001
52.87770707160767 6.6661600000000005
52.90276741793998 6.6345600000000005
52.92763619336701 6.67978
52.952507655698504 6.63748
52.977381806977576 6.60977
53.00245301017842 6.60505
53.02733256653592 6.61998
53.052214817996074 6.5865
53.077099766608484 6.59801
53.102181859804446 6.53503
53.127072229988265 6.5580300000000005
53.15196530349892 6.5610100000000005
53.17686108239249 6.51015
53.20195409881522 6.4667900000000005
53.22685531582556 6.47878
53.25175924441303 6.46655
53.27666588664027 6.46249
53.30176985962693 6.4509300000000005
53.3266819565689 6.43158
53.35159677336455 6.38248
53.376514312083096 6.43755
53.40162927507703 6.40731
53.42655228516116 6.36468
53.45147802340193 6.32942
53.47660125628886 6.36445
53.50153247842639 6.31
53.52646643496923 6.31156
53.55140312799818 6.332409999999999
53.576537409691696 6.288469999999999
53.60147960336152 6.26365
53.626424539786164 6.26337
53.65137222105307 6.23611
53.67651758529126 6.2305
53.70147078399681 6.20121
53.72642673383343 6.20539
53.75138543689533 6.176130000000001
53.776541917524526 6.18495
53.801506154876755 6.160419999999999
53.826473151763246 6.18136
53.851442910284916 6.11374
53.87661054126026 6.1369
53.9015858509782 6.13039
53.92656392866066 6.0923099999999994
53.95154477641532 6.13198
53.976723591801296 6.10165
54.00171000771266 6.0018
54.02669920004598 6.05525
54.051691170915745 6.04549
54.076881204886796 6.02594
54.101878760928514 6.0374
54.12687910187696 5.99249
54.152077577768296 5.9849
54.1770835166946 5.99559
54.20209224691339 5.96553
54.22710377055121 5.89509
54.25231352511594 5.91258
54.27733066384342 5.8796800000000005
54.30235060239643 5.88822
54.32737334290836 5.8924900000000004
54.35259441062629 5.79421
54.377622783395324 5.84744
54.40265396455061 5.81241
54.42768795623251 5.77949
54.45292037169559 5.7598400000000005
54.477960012857906 5.76103
54.50300247099511 5.782430000000001
54.52804774825457 5.75627
54.55329154616743 5.73946
54.57834249018678 5.69269
54.6033962597977 5.69839
54.6284528571545 5.69111
54.653708072335164 5.6132
54.67877035378786 5.58922
54.70383546947698 5.58954
54.72890342156389 5.610609999999999
54.7541700889442 5.58211
54.77924374251975 5.56029
54.8043202390049 5.57348
54.82959552413022 5.49198
54.8546777351945 5.49943
54.87976279569621 5.42491
54.90485070780914 5.454219999999999
54.930137506558005 5.39901
54.95523115074295 5.39422
54.98032765308844 5.39508
55.005427015775496 5.3718
55.03072536339621 5.41069
55.05583047570572 5.34472
55.080938454927676 5.2769
55.10604930325027 5.31731
55.131359235107396 5.3
55.15647585066083 5.2365900000000005
55.181595341907496 5.22369
55.20671771104285 5.19035
55.232039262617704 5.15431
55.25716741665048 5.16004
55.28229845518636 5.1689099999999994
55.30743238042802 5.1314400000000004
55.33276558731939 5.1106
55.357905315183636 5.10323
55.383047936390035 5.04134
55.40819345314859 5.02784
55.433538351073295 5.04097
55.458689688238415 5.00509
55.483843927614096 4.91999
55.509197623043605 4.91535
55.53435769621134 4.9124300000000005
55.55952067826466 4.85578
55.5846865714265 4.80858
55.61005202069737 4.86245
55.63522376553902 4.875369999999999
55.66039842818645 4.80045
55.68557601087004 4.79975
55.7109532500271 4.73735
55.73613670233794 4.76576
