TT I
1.2716486653135266 8.17155
1.2939594142134223 7.38545
1.3162702121660406 7.17427
1.3385810600174564 7.053160000000001
1.3608919586137629 6.60456
1.383202908801069 6.7348300000000005
1.405513911425503 6.32987
1.4278249673332093 6.171819999999999
1.4501343378461518 6.11977
1.4724455028545926 6.977469999999999
1.4947567236847858 6.287669999999999
1.517068001182951 6.43834
1.5393793361953272 6.321680000000001
1.5616907295681737 6.23908
1.5840021821477681 6.0937
1.60631369478041 5.3939699999999995
1.6286252683124185 5.27308
1.6509369035901333 5.2885
1.6732468618895553 5.18926
1.695558623192809 5.156680000000001
1.7178704487808514 5.613090000000001
1.7401823395001077 4.79692
1.7625012545597203 4.85268
1.7848028405262486 5.15804
1.8071218901122095 4.985530000000001
1.8294236121921872 5.34123
1.8517427996910911 5.53561
1.8740620574440425 5.14553
1.8963639900671978 5.25124
1.9186833908139995 5.669230000000001
1.9409854680117449 5.45488
1.9633050151394713 5.23067
1.9856246367570705 4.61051
2.0079269371922672 4.49602
2.03024671027244 4.195119999999999
2.0525491637446027 3.98259
2.074869091674931 4.76267
2.097171701569106 4.15798
2.1194917877373847 4.50014
2.141811954326636 4.382
2.164114805233074 4.86607
2.186435135143035 5.02916
2.208738150935709 4.40244
2.231058647554722 4.62737
2.2533792288321184 4.37427
2.275682498336085 4.319030000000001
2.298003251406138 4.331919999999999
2.3203066942619714 4.60781
2.3426276225136022 4.892119999999999
2.3649486396617507 5.0599300000000005
2.387252348930071 4.30354
2.4095735463442893 4.57281
2.4318774374315884 5.054869999999999
2.4541988185014043 4.87329
2.476502894794693 4.6902800000000004
2.498824462909887 4.86586
2.521146125856138 5.21298
2.5434504863470337 5.5054
2.5657723414244717 5.69106
2.588076895590662 5.87266
2.610398946189713 6.03301
2.6327210958598384 5.64849
2.6550259469304716 6.45478
2.6773482972090137 7.0010699999999995
2.6996533504259 7.21219
2.7219759047039602 6.87677
2.744298562293959 6.742789999999999
2.7666039251246595 7.065410000000001
2.7889267918020164 7.262410000000001
2.8112323652516555 7.5145
2.833555444408179 7.51382
2.8558786311183852 7.2549
2.8781845268938557 7.84393
2.9005079311721484 8.1548
2.9228140460410397 8.82645
2.9451376712799635 8.748460000000001
2.967444008632326 9.03235
2.9897678582247247 9.52195
3.0120918213106695 10.1252
3.0343984987899373 10.2308
3.0567226913198637 10.925999999999998
3.079029599759726 11.9529
3.101354025127254 12.571
3.123678568232338 13.1665
3.145985829517914 12.9519
3.16831061055229 13.2084
3.1906181112775593 14.4286
3.212943133635653 14.5235
3.2352682779763207 15.1126
3.2575761442691227 15.4651
3.2799015350264273 15.9876
3.302209649240067 16.3379
3.3245352898092655 17.0773
3.3468436553365257 17.3622
3.369169549113219 17.4507
3.3914955708171384 18.4645
3.413804319727358 18.6969
3.4361305997334863 19.124000000000002
3.4584396084414553 19.4974
3.4807661501462652 20.3715
3.503092824025881 20.9621
3.5254022288463154 21.3052
3.5477291695206588 21.6437
3.5700388426251948 21.8468
3.5923660534916446 22.4243
3.6146934007816114 22.6623
3.637003482731501 23.3333
3.6593311053109985 24.0963
3.681641464033634 23.8067
3.7039693653009733 24.1194
3.726297407241705 25.1657
3.7486081875460804 25.4105
3.7709365132734978 26.0169
3.793247578841633 26.6983
3.8155761917550093 26.9323
3.8378875459837216 27.2265
3.8602164494827234 27.9774
3.882545499606844 28.6907
3.9048572932539183 29.1853
3.9271866390645718 29.6846
3.9494987298666713 30.2344
3.971828374764527 30.5466
3.9941581705403255 30.9316
4.016470713506008 31.7099
4.038800813471445 32.6564
4.061113662089144 33.2581
4.0834440696459176 33.8358
4.105774632334751 33.9015
4.128087945865126 34.9679
4.150418821249301 35.7184
4.172732448931298 36.4885
4.195063640413578 37.1192
4.2173775856475215 38.0052
4.239709096631102 38.7044
4.262040768704612 39.3467
4.284355196706267 40.1163
4.306687193387355 40.7675
4.329001947444346 41.6632
4.35133427213731 42.8329
4.373666762177566 43.7078
4.395982011761091 44.347
4.418314834921175 44.773999999999994
4.44063041906622 46.0953
4.4629635787515625 47.3965
4.4852969080429785 48.3993
4.5076130004776225 50.8537
4.529946671403969 52.8652
4.552263106909177 54.0452
4.574597122877047 53.9964
4.596931312711224 55.3433
4.619248269273446 56.2519
4.6415828092605835 56.9651
4.663900117405352 58.4851
4.686235010953232 60.0575
4.708552674085913 60.9107
4.730887924602802 63.2871
4.753223354952695 64.8181
4.775541557023902 66.7799
4.797877349456786 68.0798
4.820195915032126 70.8172
4.842532072957498 71.467
4.864868414979744 74.2149
4.88718753227192 77.2873
4.909524244902505 79.1624
4.931843734218147 81.0737
4.954180820867835 84.2512
4.976518095879839 88.1217
4.998838149695359 92.2825
5.021175803844231 96.5912
5.043496238205739 100.94
5.065834274903528 106.70200000000001
5.088172504230693 114.06200000000001
5.1104935158799565 123.436
5.132832132875765 141.015
5.155153533596801 169.717
5.1774925416746225 288.41700000000003
5.199814334878411 896.2139999999999
5.2221537374521505 2195.3
5.244493338631803 3984.36
5.266815727034316 7034.21
5.289155727832427 10607.4
5.311478517248165 9198.69
5.333818921080011 3929.14
5.356159527788849 893.47
5.3784829252032536 262.05
5.400823940070432 181.71200000000002
5.423147747031976 151.986
5.445489173474152 136.55200000000002
5.467830807066149 129.559
5.490155234831516 124.146
5.512497285125229 117.94200000000001
5.534822130975162 114.59700000000001
5.557164601388673 111.605
5.579489868738879 108.134
5.601832762690846 106.301
5.6241758697774475 105.04899999999999
5.646501775867269 104.096
5.668845311622074 103.21600000000001
5.691171647754637 102.76799999999999
5.713515615597765 101.529
5.735859800852677 100.88
5.758186788542988 101.022
5.780531411018185 102.605
5.802858837297399 101.985
5.825203900414495 102.889
5.8475491852224 104.613
5.869877275883075 104.964
5.892223006467101 106.31700000000001
5.914551544266608 109.522
5.936897724049891 116.551
5.959244129804903 132.385
5.981573344815301 199.342
6.0039202049061 446.63800000000003
6.026249875609095 884.8380000000001
6.04859719346037 1429.93
6.070927323278297 2272.83
6.093275102315365 3753.65
6.115623113320588 4596.96
6.137953938319995 3615.27
6.160302415650845 1326.21
6.182633708324452 338.82
6.2049826554078376 143.273
6.227331838745022 107.304
6.249663839443684 95.3074
6.27201349767565 88.5089
6.294345974611799 84.0345
6.316696111167083 80.5069
6.339046488263839 78.4623
6.361379686074702 76.1279
6.383730546639482 74.1688
6.406064229255215 72.7577
6.428415576718203 72.4615
6.450749747566656 70.9146
6.47310158535871 69.6197
6.495453669698332 68.277
6.517788579421056 67.8046
6.540141159237969 66.7497
6.562476565766648 65.7523
6.5848296444934045 65.5278
6.607182974060425 64.7354
6.6295191323281015 64.363
6.651872965955752 63.4241
6.6742096296068985 62.5387
6.6965639707294615 61.8455
6.71891856698715 61.4365
6.741255995248479 60.9228
6.763611104154477 60.7836
6.785949046381137 60.2473
6.808304671371482 60.1839
6.8306605557940046 60.1566
6.852999275508618 59.5698
6.875355681171544 58.8533
6.897694923437771 58.6584
6.92005185377892 58.0892
6.9423916220322655 57.9088
6.964749080490181 57.2304
6.987106804399774 57.6527
7.009447368180821 57.5368
7.031805625367033 57.1302
7.054146723727803 56.9633
7.076505517631004 56.5343
7.098864581288365 56.9066
7.121206488070854 55.9069
7.143566093607822 56.3573
7.165908543567245 56.8867
7.188268694426048 56.6497
7.2106291193438095 56.0595
7.232972390625943 55.8893
7.255333366030969 55.9774
7.277677189091925 55.3439
7.300038718428332 55.582
7.322400526130865 55.6731
7.344745183422596 55.9759
7.367107550224791 55.7871
7.389452767901992 55.8396
7.411815697249891 56.0425
7.434161478756298 55.5463
7.456524974096713 55.2935
7.478888753837185 55.1622
7.501235387657368 55.7133
7.523599738562711 55.8437
7.545946944825532 56.4673
7.568311870344528 57.1508
7.5906770845765665 57.2533
7.613025156078678 57.1382
7.635390950099687 57.6628
7.657739602662809 57.306999999999995
7.680105979923558 57.2987
7.702472650212829 58.23
7.724822180948224 58.2341
7.747189439655568 58.1548
7.769539560075357 58.3625
7.791907410653562 59.1386
7.81425812420825 59.0162
7.836626570110925 59.2242
7.858995315087906 60.095
7.881346924933401 60.3029
7.903716270417482 60.9778
7.926068482028405 61.048
7.948438431475253 61.4179
7.9708086843180235 62.3462
7.993161805171116 63.3362
8.015532667162402 63.8248
8.037886398416653 64.7433
8.060257873014221 65.4002
8.082629655331942 65.3919
8.104984308787587 66.8055
8.127356708900503 68.0271
8.149711981398308 69.1914
8.172085002766314 70.2122
8.194458336181368 70.665
8.216814543847752 71.4171
8.23918850371002 73.0987
8.26154533906492 74.1621
8.283919928836452 75.9927
8.306277395339652 77.5752
8.328652618483376 79.0301
8.351028159736202 81.4378
8.373386579575245 84.2467
8.395762759396959 86.4967
8.418121819038275 90.4249
8.440498640894003 96.2788
8.462875785192262 111.90899999999999
8.485235811156207 167.685
8.507613602688501 292.953
8.529974277114228 446.62300000000005
8.552352719347912 580.169
8.574731488360351 766.034
8.59709314210385 1094.23
8.619472567021075 1548.55
8.64183487789147 2004.21
8.664214962183097 1873.18
8.686577933647762 1147.33
8.708958680784317 491.093
8.731339760774953 205.213
8.753703729764451 127.13799999999999
8.77608547780821 109.367
8.798450116065078 103.81
8.820832535634787 100.086
8.843215292401656 97.838
8.865580941199045 95.7969
8.887964374703538 94.4895
8.910330701447199 93.3054
8.932714815164482 91.9563
8.955099270424924 90.8832
8.977466620733543 89.9005
8.999851761421976 89.4233
9.022219798361645 88.5338
9.04460562795561 88.70700000000001
9.066991803441677 88.2376
9.089360876979615 87.9487
9.111747746589993 87.8195
9.13411751544971 87.0771
9.156505082664324 86.791
9.178875550323522 86.5943
9.20126381862328 86.4726
9.223652438908596 86.1995
9.246023961427412 86.6675
9.26841328802173 86.3585
9.290785518039224 87.0478
9.313175554425882 88.029
9.335565947154315 88.405
9.357939245086508 88.8798
9.380330352834827 88.3909
9.40270436697103 88.2517
9.425096193225055 87.9646
9.447488380180165 89.0246
9.469863475295412 89.2957
9.492256385987508 89.7377
9.514632206018318 90.2173
9.537025843935714 90.7137
9.559402392368193 91.6263
9.581796761000229 92.9874
9.604191496441521 93.7337
9.626569144158516 94.5686
9.648964615551032 95.1758
9.671343000390081 95.6298
9.693739211225699 96.4408
9.716135793237463 97.6827
9.738515290448102 98.4788
9.760912617143402 100.14299999999999
9.783292860202891 101.34299999999999
9.805690935076182 103.425
9.828089385495742 104.381
9.850470754023561 106.54
9.872869957865444 108.86
9.89525208097539 112.208
9.917652041736662 118.41799999999999
9.940052382417589 138.69
9.962435644102392 203.799
9.984836746950979 304.279
10.007220771957746 412.241
10.029622640473708 513.4590000000001
10.052007432299963 641.558
10.074410069984072 817.8389999999999
10.096813093716005 1093.37
10.119199042482517 1493.25
10.141602840636468 1790.34
10.163989564971628 1688.32
10.186394141051062 1108.54
10.208799107559706 515.5740000000001
10.231187001965623 240.783
10.253592751657669 146.039
10.275981430388155 123.072
10.298387966769793 117.015
10.320794897965431 114.62799999999999
10.343184759907361 112.696
10.36559248305461 111.344
10.387983138083852 115.63
10.410391656691655 132.136
10.432800574501677 159.099
10.455192425893369 185.668
10.47760214443012 210.43200000000002
10.499994797678786 238.954
10.522405320453982 286.2
10.54479877906917 359.305
10.567210109595656 456.06800000000004
10.5896218454736 530.3580000000001
10.612016518879773 523.9069999999999
10.634429067781074 408.46
10.656824555333241 242.74599999999998
10.679237920773568 145.736
10.701651695961992 105.751
10.724048411481384 95.4209
10.746463008485165 91.8969
10.768860546937125 89.8989
10.791275969274796 87.5535
10.81369180576079 85.9783
10.836090585366925 84.9874
10.858507252467449 84.1735
10.88090686379991 82.8268
10.903324365036394 81.9973
10.925724811614439 80.3129
10.948143150509463 80.1517
10.970561909719066 79.5602
10.992963615930844 78.4499
11.015383218085756 77.5971
11.037785768347074 76.7269
11.06020621697282 76.089
11.082627090322113 75.3766
11.105030913430326 74.8922
11.12745263854165 74.38
11.149857314510728 73.3075
11.172279894912576 73.4567
11.194702904450653 72.1394
11.217108866490921 71.2044
11.239532736615194 71.1835
11.26193956033512 70.9503
11.284364294577085 70.7141
11.306789462371718 70.0664
11.329197585398376 69.5527
11.351623622610898 69.6073
11.37403261614354 69.035
11.396459526308487 69.1592
11.418869393879497 68.6486
11.441297180532617 68.2697
11.463725406927658 67.7637
11.486136592353875 67.3531
11.508565700543707 67.0407
11.530977768845315 67.0413
11.553407762368774 66.5486
11.575838200059769 66.5331
11.598251599479612 66.3081
11.620682927815501 66.195
11.64309721895548 66.1114
11.665529441478206 65.7002
11.687962112597958 65.5878
11.710377748130886 65.7591
11.732811318753434 65.3995
11.755227854859067 65.4042
11.777662328529495 65.6843
11.800079768750786 65.3527
11.822515149015453 65.1622
11.844950984084935 65.6135
11.867369787303163 65.2697
11.889806534289491 65.4455
11.912226250487029 65.9015
11.934663912939751 66.2668
11.9571020346363 66.3682
11.979523127133968 66.5634
12.001962169624331 68.6701
12.024384183972964 73.0818
12.046824150809913 79.9982
12.069264581333726 87.5001
12.091687985297767 94.1164
12.11412934550045 100.065
12.136553680195208 109.73899999999999
12.158995973632788 123.79799999999999
12.181438735204349 142.11700000000002
12.20386447284199 166.877
12.226308172985636 197.179
12.24873485024193 206.68400000000003
12.271179492516982 182.393
12.293607112949127 143.44799999999998
12.316052700916226 101.96799999999999
12.338498763250042 77.8361
12.360927805303868 69.6851
12.383374818673879 67.6745
12.405804812803074 67.2177
12.428252780773262 67.2006
12.45070122756722 67.1645
12.473132656675375 67.1604
12.49558206341869 67.3339
12.518014453510101 67.4428
12.540464823770117 67.3251
12.562915677315177 67.3615
12.58534951575545 67.9596
12.607801338171472 67.8265
12.630236146511358 68.3607
12.652688941369085 68.7895
12.675124723177234 68.9686
12.697578494048786 69.5485
12.720032754458185 69.6492
12.742470003354093 70.3525
12.764925245138771 70.8008
12.787363476431278 71.3784
12.809819703166806 71.9563
12.83227642391173 72.6039
12.854716135692716 73.25399999999999
12.877173846755147 74.3688
12.899614549869717 74.882
12.9220732548287 75.8278
12.94453245827299 76.6174
12.966974655289818 77.5874
12.989434858002571 78.3768
13.011878055298721 79.2235
13.034339260862497 80.7842
13.056800969391883 82.6706
13.079245674017244 86.971
13.101708390774869 95.0241
13.12415410463411 111.449
13.146617833206086 130.253
13.169064559883248 145.53799999999998
13.191529303857127 159.015
13.213994557076367 175.213
13.236442809902437 198.93200000000002
13.258909083908291 233.09
13.28135835851934 274.647
13.30382565690295 329.606
13.326293469022952 391.23
13.348744283242008 421.57099999999997
13.371213125129904 385.806
13.39366497011003 300.903
13.416134845360597 203.793
13.438605238843131 145.983
13.46105863690397 128.681
13.483530069144786 132.921
13.505984506951902 141.849
13.528456981549432 151.898
13.550929978879088 161.47799999999998
13.573385983253365 176.18099999999998
13.595860028340867 199.037
13.618317081455832 229.34900000000002
13.64079217790333 271.33299999999997
13.663250283359057 318.182
13.685726434770173 357.741
13.708203115221277 358.82
13.730662806148091 298.756
13.75314054697177 221.65900000000002
13.775601299246777 150.507
13.798080104050406 108.963
13.820559442405358 91.7648
13.843021793671388 86.6283
13.865502201420897 84.4315
13.887965623051947 83.7399
13.910447103807167 82.8597
13.932929122629764 81.3399
13.955394156785959 80.8981
13.977877254034569 79.8555
14.000343367582113 78.892
14.022827546871707 78.0754
14.045294743423524 77.7303
14.06778000837062 76.9583
14.090265817715476 76.6183
14.112734645763819 76.1682
14.13522154619454 75.4022
14.157691466286913 75.1769
14.180179461423874 75.1475
14.202668005486178 74.7284
14.22513957064374 74.3544
14.247629214846473 73.918
14.270101881097517 73.5521
14.29259262906496 73.236
14.315083930490205 73.0304
14.337558255389705 72.9147
14.360050666019726 72.5918
14.382526101071944 72.8503
14.405019624534942 72.3818
14.427513705993134 72.2069
14.449990813291825 72.5212
14.47248601302899 72.4096
14.49496423954951 72.3563
14.517460561197822 72.477
14.539939910570322 72.2392
14.562437357763558 72.4846
14.58493536931253 72.9424
14.607416409993311 72.8876
14.62991555254159 73.3325
14.652397725157423 73.6377
14.674898002342799 73.93
14.697398848433282 74.4804
14.719882725991326 77.0281
14.74238471217934 81.7036
14.764869730765593 88.9172
14.787372860692983 94.736
14.809876564079925 100.758
14.83236330125751 105.941
14.854868153850365 111.868
14.877356041159485 120.27600000000001
14.899862046604186 131.662
14.922351087688757 147.248
14.944858249632887 166.878
14.967365991421232 190.321
14.989856770231246 211.472
15.012365673994204 221.58
15.03485761569738 203.19799999999998
15.05736768508665 166.537
15.07987833888692 127.531
15.102372032001655 99.0204
15.124883856909658 82.3732
15.14737872204565 76.6686
15.169891721717274 74.3022
15.192405310371893 73.4699
15.214901940621196 73.0156
15.237416709527137 72.2612
15.259914520936249 72.1364
15.282430473753607 71.041
15.304947020131227 70.7658
15.327446610371178 70.314
15.349964346154254 69.90100000000001
15.372465126703139 69.8256
15.394984055556009 69.8218
15.417486030076159 69.9194
15.44000615566487 69.27
15.462526881230803 69.3516
15.485030653812652 69.3538
15.507552581617434 69.0273
15.530057557334603 68.988
15.55258069104857 69.0682
15.575104429329837 69.4948
15.597611216864632 69.7546
15.620136166564563 71.3053
15.6426441664095 75.2001
15.665170331202765 80.4299
15.687697105158826 85.8084
15.710206930593545 90.4971
15.732734925158933 94.2427
15.755245972089478 98.2566
15.77777519094324 104.068
15.800287463046663 112.454
15.822817909869592 123.546
15.84534897229804 136.811
15.867863089299354 154.713
15.890395385222186 174.158
15.912910736597423 189.612
15.935444269699861 190.06599999999997
15.957978423016485 168.917
15.980495633101265 137.678
16.003031029129367 107.198
16.02554948280019 83.7775
16.048086125229432 71.8229
16.070623392487107 67.3294
16.09314371869582 65.4276
16.11568223789321 64.2191
16.13820381691126 63.542
16.160743591742527 63.3807
16.183283996022084 62.8815
16.205807461423195 61.9436
16.228349126881973 61.5146
16.25087385432698 61.4493
16.27341678466365 60.9357
16.29594277784926 60.3683
16.31848697676433 60.1435
16.341031811604868 59.4915
16.36355971058487 59.4814
16.3861058195587 59.5155
16.40863499352978 58.8612
16.431182380342005 58.6061
16.453730407713202 58.4139
16.476261501364792 58.2265
16.498810812136167 57.9673
16.52134319004079 58.0621
16.54389378792203 57.8534
16.566445031001553 57.6677
16.588979342490088 57.6209
16.61153187824822 57.4856
16.634067483263312 57.483999999999995
16.656621315414416 57.2852
16.679175797408888 56.7939
16.701713349928728 57.0671
16.72426913389191 56.8905
16.74680798922351 57.0012
16.76936507887444 57.021
16.791905240734874 57.2765
16.814463639794468 56.9561
16.837022695210294 56.8439
16.859564824093756 57.2029
16.882125194503903 57.3021
16.904668639217885 57.5034
16.927230328348003 57.3106
16.949792678493612 57.5818
16.972338104193863 57.6385
16.994901778652235 57.695
17.017448529496576 58.3598
17.040013531998152 59.2543
17.06257920018044 60.4057
17.0851279459922 61.7608
17.107694947817667 62.7654
17.130245028099072 63.5607
17.15281336730298 64.641
17.17536478578733 65.7248
17.19793446610687 67.2505
17.220504818648422 69.1524
17.243058251703697 71.117
17.265629950971032 74.2368
17.288184731571736 78.3691
17.310757781306908 82.7592
17.33333150794385 85.2175
17.355888317140174 85.4743
17.37846339986244 82.2852
17.401021565958885 76.8255
17.42359800851343 70.9296
17.44617513265564 66.3064
17.468735341390783 63.6164
17.491261035594565 62.1858
17.51396340099364 61.8913
17.536490463869136 61.9593
17.559018209820174 62.0117
17.58154663977963 62.1426
17.604251766089718 62.3356
17.626781572227713 62.4786
17.64931206518155 62.4084
17.671843245885103 63.0889
17.69455114821572 63.0402
17.717083712612634 63.6334
17.739616967569667 63.9919
17.762150914021706 64.487
17.78486160749854 65.0158
17.807396945166804 66.5473
17.829932977143503 69.1172
17.85246970436452 72.2421
17.875183204129467 75.0059
17.897721330097664 77.7673
17.920260154126645 80.1172
17.942799677153296 82.6729
17.9655159983646 85.0068
17.988056927677544 88.3582
18.010598558807683 93.5941
18.033140892692916 99.8923
18.05586005052525 106.868
18.07840379824407 116.359
18.10094825154059 128.033
18.12366954819864 139.411
18.146215420998306 145.019
18.16876200220057 141.717
18.191309292745153 131.154
18.214033452627167 115.836
18.236582170236648 101.771
18.259131600016456 92.6879
18.281681742907335 89.4532
18.304408781233683 90.5365
18.32696035875955 93.4079
18.349512652227624 97.4856
18.372065662579683 103.436
18.394795594587553 106.54299999999999
18.41735004715306 106.26700000000001
18.43990521943684 101.037
18.46246111238171 92.2163
18.485193953325208 82.6095
18.507751296070428 74.4095
18.530309362314178 69.4927
18.552868153000343 66.7725
18.57560391815056 65.1877
18.59816416623245 64.7384
18.620725141597372 64.2272
18.643286845190268 63.7941
18.666025549835414 63.2447
18.688588718427933 62.5007
18.711152618092243 62.2851
18.73389353884365 62.2476
18.75645890921984 61.8754
18.77902501351406 61.5358
18.801591852673102 61.6848
18.824335739722738 60.9943
18.846904057212626 60.8787
18.8694731124168 60.5578
18.89204290628315 60.3734
18.914789774966803 60.2268
18.937361054791623 60.0769
18.959933076131318 59.63
18.982505839934877 59.6218
19.00525570560582 59.663000000000004
19.027829963004184 59.542
19.05040496572238 59.8399
19.072980714710468 60.3768
19.095733592739563 60.8047
19.11831084296757 61.1939
19.140888842324735 61.5675
19.16346759176222 61.8634
19.18622349753803 62.1567
19.208803755869358 62.8422
19.231384767143577 63.5891
19.253966532312948 64.6987
19.276725481241822 66.098
19.29930876296784 67.4338
19.3218928014549 69.4049
19.34465404436217 71.6204
19.36723960516257 74.3284
19.389825925592426 76.7304
19.412413006605938 77.5073
19.43517731967805 75.8683
19.457765930683355 72.3233
19.48035530514408 67.69
19.50294544401556 63.2175
19.525712842708348 60.0287
19.54830451925909 58.2203
19.570896963095727 56.7334
19.593490175174704 56.4782
19.616260674962184 56.3997
19.638855432416964 55.9367
19.661450960992624 56.1034
19.68404726164677 56.1528
19.706820878021247 55.8998
19.729418731756834 56.2237
19.752017360452857 56.1272
19.77461676506804 56.4944
19.797393513540218 56.894
19.819994478951667 57.3309
19.84259622316767 58.0558
19.8651987471481 58.5829
19.887978643247177 58.545
19.91058273574792 58.7766
19.933187610901943 59.356
19.955969879466828 60.3517
19.97857632894404 61.4347
20.00118356396599 62.6699
20.023791585494575 64.393
20.046577028914875 66.7172
20.069186632506966 68.7458
20.091797025500632 70.8326
20.114408208858933 72.4291
20.137196842715273 73.1637
20.159809615886765 72.4212
20.18242318232135 70.238
20.20503754298326 67.6966
20.227829382875154 65.6146
20.250445341109344 64.2122
20.27306209647285 63.9091
20.29567964993108 64.6748
20.31847471147704 65.6237
20.34109387027612 66.7018
20.363713830075454 67.5544
20.386334591841646 66.8928
20.409132890679302 64.7979
20.431755265564437 61.7901
20.454378445325528 58.7382
20.477002430930366 56.4168
20.499803982716553 54.5809
20.522429589228004 53.5524
20.54505600449589 52.9902
20.567683229489194 52.8824
20.590488049900088 52.652
20.61311690359731 52.4612
20.63574656993626 52.3544
20.658553853717297 51.9258
20.681185154618298 51.9785
20.703817271080066 51.772
20.72645020407368 51.345
20.749260783967177 51.1474
20.771895359337133 51.0885
20.794530754161617 51.184
20.817166969412938 51.2553
20.83998086114876 51.1211
20.86261872660049 50.9151
20.885257415405402 50.9595
20.90789692853701 50.9329
20.930714147864748 51.2067
20.953355319030678 51.1011
20.97599731745334 51.1001
20.99864014410749 50.9971
21.021460706796564 51.0647
21.044105199328826 51.2396
21.06675052302631 51.2869
21.089396678865015 51.5775
21.112220600704806 51.6758
21.134868430275347 52.0058
21.15751709492456 52.0522
21.180166595629693 52.1439
21.202993892429635 52.4959
21.22564507473034 52.6511
21.24829709602816 53.2472
21.27112693608965 53.5105
21.293780644891275 53.8942
21.316435195634053 53.3373
21.339090589297417 52.7419
21.361923832041875 52.1123
21.384580921090404 51.5481
21.407238856007325 50.9364
21.429897637773326 50.7259
21.45273429906592 50.9132
21.475394784108598 50.8525
21.498056118951983 50.8409
21.520718304578022 51.0822
21.543558400304388 51.2902
21.566222297108816 51.8357
21.58888704765135 52.0231
21.61155265291521 52.5899
21.63439619898156 53.2341
21.657063523335786 53.4797
21.67973170537063 53.7864
21.7024007460706 54.1334
21.72524775840385 54.6555
21.747918526116475 55.3908
21.770590155457388 56.5026
21.79326264741238 57.6921
21.816113141960237 59.0138
21.838787368860547 60.3492
21.861462461341976 61.6109
21.884315579735777 63.6333
21.90699241312273 65.2008
21.92967011506078 66.6367
21.95234868653799 67.2147
21.9752053151131 66.7964
21.997885635446785 64.9906
22.020566828293532 62.7351
22.04324889464272 60.1579
22.066109049404666 58.446999999999996
22.088792872571794 57.6919
22.111477572219204 57.6669
22.1341631493376 58.0134
22.157026846313123 58.1822
22.179714188221507 58.0233
22.202402410582668 57.208
22.22509151438863 55.6098
22.24795876962584 54.3623
22.270649646204486 53.1712
22.293341407213727 52.2907
22.316034053646906 51.5921
22.338904883215342 51.273999999999994
22.36159931041458 51.2062
22.38429462602756 51.1788
22.40699083104897 50.7566
22.429865251039757 50.8862
22.452563244831367 50.9502
22.47526213102522 50.8865
22.49813925616515 50.8335
22.520839937143307 50.8036
22.543541513520587 50.8841
22.56624398629403 50.867
22.589124730075895 50.7992
22.611829005656723 51.405
22.63453418063466 51.5536
22.657240256008077 51.8715
22.680124634582935 51.9326
22.70283252079775 52.4576
22.725541310413075 52.6419
22.74825100442868 52.7091
22.771139033969575 53.0497
22.79385054687155 53.1224
22.81656296718292 53.5979
22.83927629590484 54.1895
22.862167992606945 54.6935
22.88488314827121 55.4964
22.907599215359284 56.1426
22.93031619487366 57.0684
22.953211574954405 58.1427
22.975930389478226 59.2502
22.998650119445763 59.9709
23.02137076586092 59.7248
23.044269845560063 58.7917
23.06699233506288 57.6677
23.089715744034912 55.9397
23.112617610931565 54.0582
23.135342869061212 52.8014
23.158069049684816 51.7893
23.1807961538087 51.2574
23.20370174880544 51.269
23.226430710184808 51.5066
23.249160598093425 51.5398
23.271891413539002 51.7028
23.294800752937697 51.9515
23.31753343374794 52.0604
23.340267045128353 52.086000000000006
23.36300158808808 52.3529
23.38591468821339 52.6185
23.408651104658304 52.8311
23.431388455719986 53.166000000000004
23.454126742409 53.7229
23.4770436196085 54.1536
23.499783787914662 55.0556
23.522524894889884 55.6937
23.54526694154616 56.5156
23.56818761219047 57.7344
23.59093154860734 58.5592
23.613676427751283 59.6571
23.636422250635754 59.4203
23.659346731118656 58.3802
23.68209445191868 56.8594
23.704843119509587 54.7176
23.72759273490623 52.4612
23.750521041644767 50.8206
23.77327256312355 49.5173
23.796025035462787 48.8539
23.818956224555475 48.3222
23.841710609113413 48.4073
23.86446594758979 47.9615
23.887222241002014 47.7008
23.910157285144578 47.2018
23.932915498962537 47.2356
23.955674670778713 47.076
23.978434801611975 47.0254
24.001373717286125 46.7252
24.024135776723917 46.7301
24.046898798245582 46.5792
24.06966278287146 46.3826
24.092605586582614 46.2216
24.115371508023642 46.1112
24.1381383956401 45.9638
24.16090625045381 45.9834
24.183852958731244 45.8316
24.206622758582608 45.648
24.229393528706886 45.65
24.252165270127392 45.7164
24.27511589952438 45.6876
24.297889594216997 45.5052
24.32066426328598 45.2505
24.34343990775613 45.1942
24.36639447485003 45.0412
24.38917208083877 45.0245
24.41195066531332 44.9518
24.43490819850244 45.0517
24.457688750692377 44.8858
24.48047028445616 44.8002
24.503252800821233 44.9
24.526214300784112 44.9002
24.548998793132213 44.9295
24.57178427117417 44.8511
24.59457073593893 44.8296
24.617536219319863 44.8211
24.64032466834748 44.763999999999996
24.663114107195035 44.8363
24.685904536893013 44.5506
24.708874020360852 44.3265
24.731666442613744 44.446999999999996
24.754459858818787 44.3609
24.777254270007962 44.2126
24.80022777025625 44.3184
24.82302418230472 44.331
24.845821592443674 44.3029
24.86862000170663 44.3786
24.891597535453727 44.1802
24.914397953892728 44.3333
24.93719937456671 44.2027
24.96000179851076 44.3643
24.98298338249997 44.6956
25.00578782394922 44.8348
25.028593271784167 45.0009
25.05157790644186 45.2353
25.07438537804115 45.1957
25.097193859145293 45.4309
25.120003350792075 45.5269
25.142992065061257 45.8932
25.165803588823465 46.1011
25.18861612625217 46.4604
25.211429678386736 46.4413
25.234422489079968 46.3951
25.257238081693636 46.3637
25.280054692141732 46.4896
25.3028723214652 46.3352
25.325869245420463 46.3908
25.348688923599397 46.5953
25.371509623787006 46.6054
25.394331347025812 46.4201
25.41733240110666 46.1739
25.440156181590016 45.6309
25.46298098826268 45.1704
25.48580682216873 44.501999999999995
25.50881202326435 43.8923
25.53163992281684 43.407
25.55446885274561 43.2327
25.577298814096377 42.7514
25.600308179121807 42.6371
25.623140214533745 42.7383
25.64597328451537 42.5209
25.66898578564376 42.5077
25.691820936010206 42.4719
25.714657124097695 42.46
25.737494350954734 42.4321
25.760511045684957 42.2637
25.783350361364224 42.3628
25.806190718969255 42.4095
25.82903211955018 42.5307
25.852053024868923 42.4529
25.874896522722523 42.5454
25.897741066713106 42.4478
25.920586657892454 42.5372
25.943611790812668 42.5785
25.966459487728237 42.5807
25.989308234998564 42.6041
26.01215803367705 42.997
26.03518741123814 42.9923
26.05803932412957 43.1844
26.080892291600094 43.0488
26.10374631470478 43.1657
26.12677995397268 43.5435
26.14963609978026 43.6052
26.172493304397875 43.1885
26.19535156888223 43.1892
26.218389486949604 42.7389
26.241249882640123 42.5399
26.26411134137826 42.4216
26.28715248187403 42.336000000000006
26.31001607820869 42.0898
26.3328807407756 41.82899999999999
26.35574647063438 41.9911
26.37879191991473 41.9737
26.401659795896734 42.0526
26.424528742360263 42.1196
26.447398760366614 42.1577
26.470448535598294 42.2847
26.49332070826805 42.4673
26.516193955675355 42.6451
26.53906827888316 42.8706
26.562122397260108 42.8838
26.584998883685063 43.1262
26.607876449110325 43.3445
26.63075509460056 43.7435
26.65381357334404 43.95
26.67669439061878 43.8643
26.699576291163382 43.7825
26.722459276044212 43.8749
26.745522132402975 43.5565
26.768407297649354 43.2421
26.791293550442003 42.9007
26.814180891848974 42.6631
26.837248143099337 42.2643
26.860137673466657 42.2372
26.88302829566349 41.9555
26.90592001075963 41.8661
26.92899167420566 41.8568
26.951885586870763 41.2839
26.974780595655517 41.0781
26.99785558178161 41.0486
27.020752794605112 40.9442
27.043651106772522 40.6883
27.06655051935668 40.5938
27.089629948036183 40.5013
27.112531573292053 40.4134
27.135434302194138 40.5827
27.158338135817015 40.4123
27.181422024430987 40.4229
27.204328079372566 40.2552
27.22723524226965 40.2402
27.250143514198573 40.3536
27.273231880156334 40.2993
27.296142382065014 40.0091
27.319053996245536 40.0816
27.341966723775965 40.2253
27.365059584515222 40.1904
27.38797455070062 40.1793
27.410890633481237 39.9866
27.433807833936918 39.9425
27.456905206923906 40.173
27.47982465472398 40.162
27.502745223449743 40.1573
27.525666914182825 40.2662
27.548768816912457 40.1927
27.571692763693633 40.2472
27.59461783573812 40.1477
27.617723149491244 39.9163
27.640650484125285 40.109
27.66357894728264 39.9676
27.686508540048052 39.86
27.709618414237887 39.8646
27.732550278321757 39.6383
27.755483275279115 39.5704
27.778417406196485 39.6019
27.801531858397514 39.6004
27.824468269376716 39.5692
27.847405817586786 39.633
27.870344504116094 39.7866
27.893463551932008 39.8414
27.916404527281053 39.8637
27.93934664422563 39.861
27.962289903855886 40.0026
27.98541356491974 40.1005
28.00835912214229 40.2686
28.03130582533231 40.3573
28.054253675581805 40.5448
28.077381967556104 40.6489
28.100332124185126 40.6156
28.123283431160893 40.5678
28.146235889577238 40.3313
28.169368830154156 40.1877
28.192323603752033 40.1143
28.215279532083304 39.786
28.238415973016764 39.745
28.261374223145094 39.607
28.284333631303806 39.2402
28.307294198589954 39.1048
28.330435319167677 38.8198
28.353398217078915 38.6437
28.376362277420153 38.388000000000005
28.39932750129032 38.1503
28.422473319286713 38.0281
28.44544088262495 38.0765
28.468409612800283 37.8014
28.491379510913497 37.6229
28.51453004413313 37.4596
28.53750229057244 37.5065
28.56047570826344 37.4083
28.583450298308804 37.4135
28.606605564586562 37.2828
28.629582511831156 37.3981
28.65256063474956 37.2725
28.675539934446338 37.2524
28.698699951647605 37.0654
28.72168161743193 37.0332
28.74466446331978 37.021
28.767648490417624 36.9272
28.790813276438353 36.8628
28.813799678527303 36.9225
28.836787265157085 36.83
28.859955641890075 36.8902
28.882945610203045 36.9139
28.905936766392035 36.689
28.928929111566863 36.8571
28.952102288520145 36.7877
28.975097024308607 36.681999999999995
28.998092952423807 36.5426
29.021090073977508 36.4569
29.04426806913204 36.4218
29.067267590245258 36.1736
29.090268308143695 36.1452
29.11327022394099 36.1472
29.13645305530891 35.9864
29.159457379627167 35.9978
29.18246290519685 35.8904
29.20546963313352 35.7386
29.22865731875826 35.7932
29.25166646419296 35.7715
29.27467681535305 35.5654
29.29768837335608 35.6877
29.320880931312562 35.6803
29.34389491580634 35.7055
29.366910110507334 35.5983
29.38992651653503 35.7359
29.41312396492981 35.666
29.436142806456754 35.6769
29.45916286268059 35.6986
29.48236399319994 35.5038
29.50538649169417 35.3789
29.528410208259935 35.1671
29.55143514402014 34.9665
29.574641196749695 34.9536
29.597668583816574 34.7406
29.6206971934585 34.6788
29.64372702680042 34.6818
29.666938019934474 34.5206
29.689970313635285 34.5006
29.713003834422636 34.3816
29.73603858342347 34.3736
29.759254535188578 34.2363
29.78229175361658 34.2868
29.80533020365064 34.3446
29.82836988641968 34.3648
29.85159081507472 34.1682
29.874632976355343 34.1867
29.89767637376955 34.1589
29.920721008448314 33.9884
29.9439469322847 33.9391
29.96699405457564 33.9264
29.9900424175358 33.9497
30.013092022298157 33.9323
30.03632295963995 33.739000000000004
30.059375061131373 33.855
30.08242840783577 33.9738
30.105483000888153 33.9195
30.128718970092244 33.8619
30.151776069006917 33.7955
30.17483441768648 33.8023
30.198074175317235 33.814
30.221135036724256 33.7788
30.24419715131772 33.7892
30.267260520236203 33.7113
30.290505341942243 33.8203
30.313571232750228 33.7766
30.336638381310948 33.7433
30.35970678876503 33.7657
30.38295669299435 33.5911
30.40602763151657 33.7066
30.429099832366074 33.5269
30.452173296685572 33.4789
30.47542830191959 33.4616
30.498504306502497 33.4145
30.521581577995562 33.4659
30.544660117543582 33.5803
30.56792024229725 33.5352
30.59100133132069 33.3473
30.614083691845494 33.4083
30.637167325018545 33.4809
30.660432587840603 33.6692
30.683518779717886 33.6088
30.70660624769615 33.4628
30.729694992924372 33.5897
30.75296541239743 33.5043
30.77605672557558 33.471
30.799149319462742 33.510999999999996
30.8224236211637 33.4283
30.845518789950724 33.293
30.868615242910597 33.1966
30.891712981195973 32.9761
30.91499247215866 33.0125
30.938092794619365 33.1057
30.96119440587579 33.0179
30.984297307082752 32.8567
31.00758200598383 32.6558
31.030687500658694 32.7269
31.053794288760695 32.5073
31.076902371446767 32.382
31.100192296997445 32.5393
31.12330298246119 32.4313
31.14641496599209 32.4549
31.169528248749216 32.3865
31.19282341969534 32.2407
31.215939314557186 32.2516
31.239056512134788 32.2519
31.262175013589378 32.1913
31.28547544871168 32.2733
31.30859657161541 32.118
31.331719001892175 32.0835
31.35484274070538 32.2808
31.378148458819545 32.2185
31.401274828443725 32.2124
31.424402510106933 32.1626
31.447712205419993 32.273
31.470842524931633 32.1466
31.493974159989783 32.187
31.51710711176168 32.1654
31.54042212308802 32.1455
31.563557722100917 32.0623
31.586694641341655 31.9401
31.609832881979628 31.8824
31.63315322823208 31.7396
31.656294125521327 31.7272
31.679436347728515 31.643
31.70257989602529 31.5388
31.725905596152327 31.523000000000003
31.74905181052835 31.4926
31.772199354521323 31.5514
31.79534822930507 31.401999999999997
31.818679302290967 31.4532
31.84183085259981 31.3239
31.864983737233473 31.3202
31.88813795736804 31.5045
31.911474422233013 31.2754
31.934631327356435 31.33
31.9577895715215 31.3065
31.980949155906522 31.3368
32.004291031706956 31.2891
32.027453310562606 31.1832
32.05061693318573 31.1169
32.07396288236386 31.1385
32.09712920658542 31.0532
32.12029687812702 30.9443
32.14346589817093 30.8738
32.166817291729984 30.8336
32.18998902288583 30.6942
32.21316210610336 30.7278
32.23633654256711 30.5403
32.259693399663725 30.4973
32.282870556771144 30.5119
32.30604907069099 30.485
32.329228942610065 30.4217
32.35259128243769 30.2931
32.375773884550505 30.1558
32.398957848235646 30.162
32.422143174682176 30.0568
32.445511016471215 29.9363
32.468699082679954 29.9845
32.49188851523011 29.9891
32.51507931531304 29.8816
32.538452678331 29.9346
32.56164622776311 29.7526
32.58484114831493 29.785
32.60803744118015 29.767
32.631416344731896 29.7875
32.654615396551876 29.6728
32.67781582427913 29.6607
32.701198898634416 29.5649
32.72440209253756 29.5637
32.747606665947124 29.5625
32.77081262006088 29.3882
32.79420126883317 29.4664
32.81740999876112 29.3573
32.840620112999424 29.285
32.86383161274818 29.1951
32.88722585534586 29.2298
32.91044014056596 29.3338
32.933655814909734 29.279
32.95687287957963 29.2637
32.98027273544904 29.1187
33.00349259526636 29.1041
33.026713849030116 29.1261
33.04993649794511 29.0968
33.073341986570746 28.9822
33.09656744032826 28.9147
33.11979429286444 28.945999999999998
33.14302254538647 28.8899
33.166433686291185 28.9015
33.18966475336992 28.8024
33.212897224069096 28.6869
33.23613109959831 28.7458
33.259547912343415 28.6534
33.2827846121627 28.7445
33.306022720453775 28.6674
33.32926223842861 28.607
33.352684742614166 28.5489
33.37592709463173 28.5328
33.399170859982064 28.5201
33.422597648419426 28.3641
33.44584425514446 28.2585
33.46909227885668 28.2382
33.4923417207723 28.1116
33.51577423505344 28.225
33.539026528130385 28.1781
33.56228024307245 28.1422
33.585535381098246 27.9185
33.60897364093058 27.8976
33.63223163992385 27.9133
33.6554910656699 27.8794
33.678751919389796 27.894000000000002
33.702195944520106 27.7119
33.72545966903325 27.6965
33.74872482519663 27.6481
33.771991414233746 27.695999999999998
33.79544122444841 27.6639
33.81871069412428 27.5204
33.84198160035767 27.4456
33.86525394437455 27.5528
33.88870955949969 27.4352
33.911984794020626 27.3863
33.93526147001624 27.4016
33.958539588715006 27.4037
33.98200102861669 27.3682
34.0052820477047 27.2427
34.02856451319451 27.1867
34.05203033759056 27.1693
34.07531571090147 27.1272
34.09860253431845 27.1112
34.121890809074316 26.9728
34.145362493118924 26.9241
34.16865368561615 26.8648
34.191946333164054 26.8736
34.21524043699793 26.8346
34.23871800066799 26.8521
34.26201503218366 26.7297
34.28531352370466 26.6446
34.30861347646881 26.6287
34.33209693978188 26.6603
34.3553998301885 26.6733
34.378704185565205 26.5075
34.402010007152356 26.4895
34.42549939016683 26.4811
34.44880815937748 26.4409
34.472118398533134 26.2825
34.49543010887669 26.3196
34.51892543169198 26.2916
34.54224009966052 26.3832
34.56555624255917 26.294
34.58887386163339 26.0951
34.61237514439016 26.0061
34.6356957311114 26.0753
34.65901779775809 26.0056
34.68252356662995 25.9039
34.705848608458616 25.9658
34.72917513396849 25.873
34.75250314440949 25.8995
34.77601490857862 25.7873
34.799345904259795 25.6489
34.82267838863559 25.7277
34.846012362958525 25.7059
34.869530142679984 25.7045
34.89286711232212 25.6481
34.91620557568269 25.6218
34.93954553401677 25.6423
34.9630693495876 25.52
34.986412313340814 25.5744
35.00975677584668 25.449
35.033102738362956 25.5488
35.05663261012228 25.4457
35.0799815881786 25.443
35.10333207003229 25.2833
35.12668405694369 25.3323
35.150220005273056 25.2705
35.17357501786656 25.3992
35.19693153931268 25.2866
35.220289570874385 25.1626
35.24383161619786 25.1868
35.267192683604904 25.1995
35.290555264930376 25.1054
35.314101899412165 25.0676
35.33746752422433 25.0069
35.36083466676374 25.1144
35.38420332829803 24.98
35.407756095629054 25.0728
35.43112781085063 25.0276
35.45450104888391 24.8875
35.477875810999194 24.8861
35.50143473172161 24.8539
35.52481255774625 24.8469
35.54819191167777 24.7636
35.57157279478914 24.8279
35.595137889488406 24.7965
35.61852184675279 24.6957
35.641907337029984 24.6935
35.665294361595684 24.6124
35.68886565090076 24.5247
35.7122557598848 24.5013
35.73564740699838 24.5608
35.759040593519934 24.4854
35.78261809810353 24.4739
35.80601437933051 24.3273
35.829412203814705 24.28
35.85281157283719 24.193
35.876395313415884 24.2482
35.8997977874528 24.1623
35.92320180988546 24.2179
35.946790244133936 24.1565
35.97019737933222 24.1819
35.993606066789866 24.055
36.01701630779276 24.0542
36.04061101440684 24.0062
36.06402437852291 23.9847
36.08743930005611 23.9151
36.1108557802951 23.8591
36.13445678011326 23.8222
36.15787639383515 23.8749
36.18129757014299 23.7911
36.20472031032821 23.7032
36.22832762423364 23.6466
36.25175350829375 23.6953
36.275180960119776 23.6266
36.298609981005924 23.6492
36.32222362992669 23.6352
36.34565580510207 23.5499
36.36908955323448 23.5459
36.39252487562093 23.4289
36.416144880530226 23.3766
36.43958336764275 23.383000000000003
36.463023432914625 23.33
36.486465077645676 23.3018
36.51009145956204 23.3363
36.53353627947859 23.2716
36.55698268276811 23.2462
36.58043067073321 23.2252
36.60406345072071 23.0861
36.62751462435344 23.1129
36.65096738658405 23.1263
36.67460498210655 23.0694
36.69806093788647 23.0731
36.72151848619297 22.9952
36.744977628333636 22.947
36.76862165890998 22.8273
36.79208400512205 22.9113
36.81554794910557 22.8738
36.83901349217101 22.7524
36.862663978991606 22.7634
36.88613273667352 22.7118
36.90960309738324 22.7415
36.933075062434064 22.7276
36.95673202673572 22.7042
36.98020721697122 22.6421
37.003684015502365 22.5731
37.027162423645365 22.5572
37.050825886711465 22.4868
37.07430753063053 22.4627
37.09779078812467 22.3541
37.121275660513014 22.3987
37.144945643673694 22.4004
37.16843376245278 22.3139
37.19192350009803 22.3412
37.215414857931435 22.2757
37.239091382563885 22.1811
37.262585997426164 22.1945
37.28608223645736 22.1388
37.309763684451696 22.1452
37.33326318851098 22.0326
37.356764320726555 22.0661
37.380267082425526 22.0361
37.40395510942588 22.0335
37.42746114683234 21.8901
37.45096881771841 21.9252
37.474478123414166 21.9251
37.49817275092816 21.8583
37.52168534303452 21.8369
37.54519957395567 21.7451
37.568715445024665 21.7479
37.592416694607714 21.7339
37.61593586281424 21.715
37.63945667518264 21.666999999999998
37.66297913304891 21.6484
37.68668702630454 21.6454
37.710212792059274 21.5018
37.733740207334854 21.5011
37.757269273470364 21.4501
37.780983832050374 21.4317
37.80451621684926 21.3868
37.82805025654007 21.3816
37.851585952464795 21.3701
37.8753071980695 21.2782
37.89884622345676 21.2312
37.92238690911902 21.1915
37.94611318753442 21.1575
37.969657210779765 21.1253
37.99320289834801 21.1331
38.016750251586465 21.1193
38.04048325513017 21.135
38.06403395679343 21.0081
38.087586328183946 21.0262
38.11114037065203 20.979
38.13488012115898 20.9621
38.1584375229181 20.87
38.181996599821 20.8704
38.205557353221124 20.8599
38.229303872575656 20.7908
38.2528679961576 20.7091
38.27643380031219 20.6369
38.30000128639589 20.6937
38.32375459653193 20.6997
38.34732546371299 20.6358
38.37089801690786 20.5628
38.39447225747609 20.5036
38.418232380377425 20.5139
38.441810012983396 20.5092
38.46538933705673 20.4628
38.488970353960084 20.4229
38.51273731166058 20.3658
38.536321731567014 20.3682
38.55990784840681 20.3045
38.58367995004091 20.2697
38.60726947812959 20.1569
38.63086070726198 20.2501
38.654453638806274 20.2445
38.678232613930824 20.1349
38.70182896773327 20.1311
38.72542702806741 20.0835
38.7490267963045 20.0624
38.77281266709232 19.9762
38.79641586862214 19.9373
38.8200207821842 19.9521
38.843627409152944 19.953
38.86742019782782 19.8564
38.891030269149255 19.8322
38.914642058016156 19.8197
38.938255565806124 19.7971
38.96205529464307 19.6882
38.98567225787121 19.7559
39.00929094417078 19.7369
39.03291135492255 19.726
39.05671804624804 19.6524
39.080341923549106 19.6044
39.103967529460334 19.6239
39.127594865365744 19.541
39.15140854155791 19.5119
39.17503935514948 19.534000000000002
39.19867190290282 19.4792
39.22249083587951 19.4514
39.24612686969409 19.4314
39.269764641845306 19.3374
39.293404153722804 19.3605
39.317230110864074 19.2615
39.34087311998506 19.2726
39.36451787301696 19.2513
39.388164371352595 19.2672
39.41199737518003 19.1951
39.43564738196752 19.1173
39.45929913825317 19.1642
39.48295264543308 19.0416
39.506792718520884 18.9848
39.530449745387216 19.0207
39.55410852735203 18.9819
39.57776906581474 18.9957
39.60161623079 18.9535
39.625280300200025 18.8806
39.64894613032202 18.8891
39.67261372255866 18.804000000000002
39.6964680021016 18.7831
39.72013913657293 18.8171
39.74381203738292 18.7609
39.76748670593756 18.7503
39.79134812278169 18.7264
39.81502634488497 18.6466
39.83870633896685 18.6361
39.862388106436654 18.6301
39.88625668336918 18.6195
39.90994201572829 18.5722
39.933629125719285 18.5284
39.957503091207826 18.4518
39.9811937746168 18.4983
40.00488623990914 18.4422
40.02858048850006 18.389
40.05246165409549 18.3809
40.076159487492085 18.3649
40.099859108448875 18.3169
40.123560518384345 18.2683
40.1474489070226 18.2444
40.171153913178564 18.244
40.194860712584955 18.197
40.2185693066637 18.2106
40.242464941335314 18.1607
40.26617714307655 18.1598
40.289891143772046 18.1229
40.3136069448471 18.0915
40.33750984859743 18.0702
40.3612292688043 18.0288
40.3849504936829 17.9403
40.40867352466194 17.982
40.43258372059144 17.918
40.45631038219906 17.9245
40.48003885420956 17.8468
40.503769138055105 17.8192
40.52768664931955 17.7753
40.55142057531802 17.8155
40.57515631746428 17.7267
40.599079334038514 17.7057
40.62281872700477 17.6999
40.64655994043941 17.6717
40.67030297578061 17.6609
40.69423334835778 17.6435
40.71798004609188 17.5872
40.74172857006355 17.5556
40.76547892171441 17.5183
40.7894166736039 17.5222
40.813170699248566 17.4583
40.83692655691388 17.38
40.86068424804498 17.4328
40.884629402612525 17.4213
40.908390779366385 17.3366
40.932153993938 17.3037
40.95591904777605 17.299
40.979871628443995 17.3368
41.003640379561936 17.2989
41.02741097430883 17.2333
41.05118341413683 17.148
41.075143444384416 17.1719
41.098919593177826 17.1436
41.1226975914255 17.0534
41.14647744058318 17.0289
41.170444943946755 17.0219
41.19422851378379 17.0274
41.218013938914645 16.9764
41.24198706625173 16.9281
41.26577622087193 16.9037
41.289567235177785 16.8671
41.31336011063129 16.8614
41.337340752422875 16.8302
41.361137369129835 16.8598
41.38493585138705 16.8262
41.40873620066004 16.7637
41.43272438060107 16.7345
41.45652848292052 16.6975
41.48033445666918 16.7
41.50414230331616 16.6568
41.528138045159764 16.6218
41.551949656675205 16.6023
41.575763145513235 16.5577
41.59957851314666 16.4883
41.62358184070442 16.4983
41.64740098505737 16.5514
41.6712220126409 16.4688
41.69504492493139 16.3849
41.71905586207357 16.4032
41.74288256296395 16.3273
41.766711153007456 16.3617
41.79054163368412 16.2515
41.814560204340054 16.2707
41.838394485526365 16.2902
41.86223066180303 16.164
41.88625497706819 16.1608
41.910094962812 16.1859
41.93393684811168 16.1859
41.95778063445365 16.0881
41.981812625263366 16.0785
42.00566023303407 16.0401
42.029509746323676 15.9697
42.05336116662236 15.9823
42.077400857069705 16.0069
42.10125611078846 15.957
42.12511327600405 15.9225
42.14897235421036 15.8887
42.173019768448455 15.9093
42.19688269209613 15.8294
42.22074753323349 15.817
42.24461429335818 15.7972
42.268669455600495 15.7956
42.292540073217886 15.7543
42.31641261433284 15.7238
42.34028708044675 15.7238
42.36435001496739 15.6774
42.38822835065557 15.6337
42.41210861586426 15.5972
42.4359908120986 15.5853
42.46006154323262 15.5298
42.48394762115317 15.4745
42.507835634632315 15.527000000000001
42.531912233047436 15.4879
42.55580413732265 15.452
42.579697981698 15.4071
42.60359376768525 15.4223
42.62767820545945 15.4039
42.65157789440821 15.3297
42.67547952952185 15.3101
42.699383112316 15.2971
42.72347541395347 15.216
42.74738291190531 15.2489
42.771292362102166 15.2332
42.795203766063516 15.2062
42.819303956130405 15.1184
42.843219287476536 15.11
42.86713657716324 15.119000000000002
42.89105582671383 15.1162
42.91516392983864 15.0687
42.939087119032166 15.0517
42.963012272677304 15.05
42.98693939230129 15.0166
43.01105543317513 14.9399
43.034986504731386 14.9176
43.05891954686589 14.9312
43.08285456110972 14.8866
43.10697856448665 14.8598
43.130917542983475 14.7979
43.15485849820081 14.8057
43.17880143167367 14.7441
43.20293342237094 14.7567
43.226880332449 14.6789
43.25082922540554 14.7194
43.27496722682525 14.7025
43.29892010567796 14.6972
43.32287497204102 14.6482
43.34683182745632 14.5853
43.370977859791836 14.5191
43.39493871351105 14.5759
43.41890156092628 14.5493
43.44286640358341 14.5157
43.46702049182749 14.4901
43.49098934522816 14.4345
43.51496019852649 14.4479
43.5389330532723 14.3791
43.56309522248204 14.3874
43.58707210044314 14.3257
43.61105098451946 14.2515
43.63503187626491 14.2732
43.659202151562134 14.262
43.68318707902681 14.2607
43.70717401884041 14.2109
43.731162972560874 14.2014
43.75534137913236 14.1473
43.779334381108384 14.1212
43.803329401683186 14.1263
43.82732644241872 14.1319
43.8515130055166 14.0866
43.87551410707659 14.0339
43.89951723350145 13.9897
43.923709934595614 13.9711
43.94771713129917 13.9755
43.97172635758096 13.9631
43.99573761501002 13.946
44.0199385169922 13.8896
44.04395385732619 13.8777
44.067971233533086 13.8891
44.09199064718605 13.850999999999999
44.11619977548961 13.8417
44.14022328470671 13.7422
44.16424883610785 13.7513
44.18827643127035 13.7404
44.21249381139513 13.7574
44.236525514814076 13.737
44.26055926674478 13.6558
44.28459506876863 13.6645
44.3088207262813 13.6025
44.33286064928722 13.5897
44.35690262714919 13.578
44.38094666145278 13.494000000000002
44.4051806219871 13.5413
44.42922879003185 13.4977
44.45327901929361 13.5262
44.477331311362136 13.4634
44.501573600619416 13.4019
44.525630039221795 13.3834
44.54968854541895 13.3578
44.573937102200176 13.3603
44.5979997645541 13.3389
44.622064499300315 13.2824
44.64613130803592 13.265999999999998
44.67038823869318 13.2989
44.69445921643748 13.2374
44.718532272981385 13.2185
44.742607409926194 13.2053
44.76687274034801 13.1748
44.79095205918753 13.1906
44.81503346325094 13.169
44.839116954143876 13.1417
44.86339071028742 13.0879
44.88747839599524 13.0594
44.91156817336837 13.0202
44.93566004401666 13.0488
44.959942251908146 13.0732
44.984038330325966 13.0098
45.00813650686762 12.9201
45.03223678314731 12.9233
45.05652746888232 12.8653
45.08063196592069 12.8855
45.104738567558705 12.8736
45.128847275414856 12.8374
45.15314646515866 12.7883
45.17725940679741 12.7545
45.20137445952892 12.7587
45.22568004865265 12.7391
45.24979934496396 12.7355
45.27392075725247 12.700999999999999
45.29804428714431 12.6394
45.322358426247604 12.6804
45.346486212804315 12.6742
45.370616121861914 12.6067
45.39474815505086 12.5891
45.41907087049246 12.552999999999999
45.4432071734666 12.5312
45.46734560548283 12.5022
45.49148616817604 12.4826
45.51581748638564 12.4939
45.5399623320197 12.465
45.56410931325473 12.4266
45.58825843173002 12.4007
45.61259837920865 12.3761
45.636751793816 12.3592
45.66090735060093 12.3932
45.68506505120716 12.312999999999999
45.7094136545275 12.2942
45.73357566449271 12.2645
45.75773982322992 12.2232
45.78190613238733 12.2311
45.806263418194064 12.1809
45.83043404997326 12.1881
45.85460683713677 12.1608
45.87897065658495 12.157
45.90314777634752 12.0759
45.92732705646868 12.091
45.9515084986045 12.0856
45.97588104735473 12.072000000000001
46.00006683541565 12.0217
46.02425479047904 12.0261
46.04844491420549 12.005999999999998
46.0728262191024 11.9779
46.09702070211635 11.9211
46.12121735879483 11.9093
46.14541619080294 11.9176
46.169806278764455 11.9263
46.194009483459034 11.8728
46.21821486849841 11.8573
46.24242243555223 11.852
46.266821333570014 11.8006
46.29103328674601 11.7989
46.31524742696538 11.7484
46.33946375590237 11.7414
46.36387149104216 11.7089
46.38809221957392 11.661
46.41231514186606 11.6183
46.436540259597464 11.6275
46.460956858999374 11.6437
46.48518638983522 11.5667
46.509418121166966 11.5515
46.533652054678114 11.5476
46.55807754555709 11.5459
46.58231590571962 11.5647
46.60655647313217 11.5054
46.630988654873654 11.4419
46.655233659129024 11.4343
46.67948087571551 11.4443
46.70373030632484 11.4281
46.72817142736393 11.434000000000001
46.752425308428684 11.3877
46.77668140861147 11.3451
46.80093972960865 11.2956
46.82538981736788 11.2817
46.849652602470904 11.2495
46.87391761349769 11.2506
46.8981848521493 11.2686
46.9226439341274 11.2059
46.946915650573224 11.1814
46.97118959976749 11.1705
46.99546578341598 11.1726
47.019933887188216 11.1536
47.04421456235744 11.1356
47.06849747711879 11.0815
47.09278263318286 11.0835
47.11725978640143 11.0089
47.14154944775105 11.0633
47.165841355555656 11.0159
47.1901355115306 10.9759
47.214621741924994 10.9914
47.23892041698887 10.9804
47.26322134538975 10.9131
47.28771440635075 10.9174
47.31201986422527 10.9301
47.33632758061436 10.8747
47.360637557241866 10.8614
47.38513974410611 10.8659
47.40945426407847 10.8455
47.43377104948137 10.8161
47.45809010204344 10.7381
47.48260144275502 10.7555
47.506925052572285 10.6988
47.53125093475548 10.6675
47.55557909103813 10.7062
47.58009961361992 10.6865
47.60443234110732 10.6601
47.62876734791564 10.6211
47.65310463578333 10.6189
47.6776343683373 10.567
47.7019762413987 10.558
47.72632040075572 10.5474
47.75066684815169 10.5015
47.77520581885936 10.5105
47.799556865477655 10.5043
47.823910205386 10.4731
47.84826584033272 10.4264
47.87281407745551 10.4348
47.89717432569297 10.4331
47.92153687423484 10.4001
47.94609208429692 10.3863
47.97045925671401 10.3452
47.99482873471275 10.3705
48.01920052005013 10.321
48.04376504619224 10.2925
48.068141469543484 10.319
48.09252020552573 10.2758
48.11690125590099 10.238999999999999
48.1414751266064 10.2359
48.16586082917454 10.2217
48.19024885144316 10.192
48.2146391951793 10.1626
48.239222439012764 10.144
48.26361744916137 10.1327
48.28801478610016 10.1222
48.31241445160131 10.1186
48.337007097209366 10.1194
48.36141144338331 10.1002
48.38581812345755 10.0519
48.41022713920929 10.0354
48.434829215320704 9.99385
48.45924292604658 10.001
48.48365897780325 9.98742
48.50807737237308 9.93827
48.532688907799276 9.9261
48.55711201168574 9.966660000000001
48.581537463754074 9.88229
48.60615611725119 9.89976
48.63058628942721 9.8693
48.65501881516546 9.80861
48.6794536962573 9.82649
48.70408185970339 9.84949
48.72852147531801 9.80327
48.75296345168211 9.76167
48.77740779059232 9.75111
48.80204549302823 9.75866
48.82649458091802 9.7244
48.85094603676547 9.70365
48.87539986237231 9.65905
48.90004713292306 9.66715
48.92450572200832 9.67608
48.94896668628025 9.65937
48.97343002754588 9.61402
48.99808689542115 9.5901
49.02255501470614 9.60415
49.04702551642794 9.55543
49.0714984023988 9.53738
49.096164896893235 9.53862
49.120642575466796 9.505230000000001
49.145122643748394 9.4779
49.16960510355558 9.46622
49.19428125404938 9.4497
49.2187685210852 9.467039999999999
49.243258185121555 9.42656
49.26794160167084 9.43022
49.2924360839405 9.4059
49.31693296869764 9.34625
49.34143225776915 9.337069999999999
49.36612538195438 9.32518
49.39062950396021 9.30296
49.41513603578346 9.28609
49.4396449792564 9.28939
49.46434784069503 9.26699
49.488861631846454 9.21337
49.513377840166804 9.1962
49.537896467493745 9.19116
49.56260909589029 9.16116
49.587132585683285 9.18089
49.611658500018365 9.183
49.636186840738596 9.12308
49.66090926588511 9.14692
49.685442483902584 9.07103
49.70997813385706 9.05738
49.734516217597076 9.03379
49.75924846937352 9.04636
49.7837914452858 9.02182
49.80833686055187 9.01414
49.83288471702571 8.97193
49.85762682540054 8.974039999999999
49.882179588965734 8.93897
49.9067347993235 8.91961
49.93129245833333 8.94288
49.95604445336378 8.913739999999999
49.98060703442832 8.86364
50.005172069746266 8.87439
50.02993150438364 8.84676
50.05450147301533 8.85486
50.07907390151433 8.8481
50.10364879174981 8.8048
50.12841816587289 8.815539999999999
50.1529980044635 8.763910000000001
50.17758031042124 8.75789
50.20216508562089 8.72797
50.22694442953363 8.68469
50.25153416817468 8.6711
50.27612638170508 8.63799
50.300721072005196 8.6493
50.325510416102105 8.64875
50.350110084975064 8.61239
50.37471223628208 8.61843
50.39931687190919 8.61851
50.424116246675766 8.59431
50.44872587605249 8.58732
50.47333799543065 8.542019999999999
50.49795260670191 8.542019999999999
50.52276204271512 8.53306
50.54738166295838 8.508289999999999
50.57200378079314 8.53135
50.596628398116835 8.4652
50.62144792604559 8.448139999999999
50.646077567609396 8.442219999999999
50.670709714377715 8.44458
50.69553683636198 8.414810000000001
50.72017401885922 8.39653
50.7448137122895 8.397210000000001
50.76945591856022 8.38084
50.79429318636823 8.33715
50.818940443716784 8.32818
50.84359021965163 8.28703
50.868242516085964 8.27304
50.893089960641895 8.25389
50.917747323549435 8.25325
50.94240721271973 8.247489999999999
50.96706963007175 8.23303
50.99192728239342 8.22442
51.01659478166073 8.21757
51.04126481489051 8.20444
51.06593738400761 8.15882
51.090805275207074 8.14478
51.11548294172845 8.1475
51.14016314993547 8.07674
51.164845901758845 8.09402
51.18972406304274 8.07057
51.21441192780656 8.07112
51.23910234200271 8.058869999999999
51.2637953075678 8.04744
51.288683770237945 7.9851600000000005
51.31338186432707 7.983639999999999
51.33808251561888 7.9596800000000005
51.362978729967345 7.97987
51.387684521509755 7.95679
51.41239287610203 7.94698
51.437103795691165 7.90332
51.46201036644977 7.87972
51.486726441956634 7.86418
51.51144508832545 7.8300600000000005
51.536166307509156 7.83294
51.56108326624387 7.8326899999999995
51.58580965706056 7.861330000000001
51.61053862657523 7.802239999999999
51.635270176746864 7.76623
51.66019755512065 7.76618
51.68493429268881 7.724660000000001
51.70967361681515 7.755
51.73441552946465 7.70671
51.759353359237934 7.694260000000001
51.7841004750961 7.70108
51.80885018539685 7.716589999999999
51.833602492111254 7.66785
51.8585508051424 7.6466199999999995
51.883308330926425 7.65343
51.90806845906181 7.617439999999999
51.932831191525715 7.591189999999999
51.95779001977161 7.574489999999999
51.98255798721516 7.54215
52.00732856494335 7.5446800000000005
52.03229530577543 7.530010000000001
52.057071130455945 7.533739999999999
52.081849571391054 7.505039999999999
52.106630630568695 7.471480000000001
52.13160794279417 7.41449
52.15639426492067 7.449039999999999
52.18118321127822 7.4383300000000006
52.205974783860896 7.3918
52.23096269971011 7.39076
52.255759551287994 7.38065
52.280559035098186 7.3735100000000005
52.30536115314103 7.343610000000001
52.33035970494467 7.3082899999999995
52.35516711807904 7.3093699999999995
52.37997717147198 7.29166
52.40478986713005 7.310169999999999
52.42979908731974 7.25103
52.454617094216 7.2918899999999995
52.47943774942214 7.2922899999999995
52.50426105495102 7.26352
52.529280976059844 7.241560000000001
52.554109609024096 7.190180000000001
52.57894089837482 7.17095
52.60377484613117 7.17
52.62880550079408 7.153460000000001
52.65364479223379 7.134410000000001
52.67848674816189 7.11486
52.70352547971946 7.1482600000000005
52.72837279155837 7.11757
52.753222773982785 7.06778
52.778075429022984 7.084689999999999
52.80312495150885 7.07338
52.827982978797436 7.02347
52.85284368481815 7.049739999999999
52.87770707160767 7.003260000000001
52.90276741793998 6.99388
52.92763619336701 6.98102
52.952507655698504 6.96374
52.977381806977576 7.0082699999999996
53.00245301017842 6.966060000000001
53.02733256653592 6.95493
53.052214817996074 6.8975100000000005
53.077099766608484 6.889010000000001
53.102181859804446 6.87962
53.127072229988265 6.89555
53.15196530349892 6.8536399999999995
53.17686108239249 6.82492
53.20195409881522 6.814489999999999
53.22685531582556 6.84765
53.25175924441303 6.7922899999999995
53.27666588664027 6.790260000000001
53.30176985962693 6.7574
53.3266819565689 6.766189999999999
53.35159677336455 6.754860000000001
53.376514312083096 6.71258
53.40162927507703 6.7113
53.42655228516116 6.68248
53.45147802340193 6.66625
53.47660125628886 6.64838
53.50153247842639 6.62633
53.52646643496923 6.622389999999999
53.55140312799818 6.586869999999999
53.576537409691696 6.650980000000001
53.60147960336152 6.612010000000001
53.626424539786164 6.595739999999999
53.65137222105307 6.53019
53.67651758529126 6.5901
53.70147078399681 6.53964
53.72642673383343 6.51434
53.75138543689533 6.503480000000001
53.776541917524526 6.4827
53.801506154876755 6.50295
53.826473151763246 6.54269
53.851442910284916 6.46737
53.87661054126026 6.43179
53.9015858509782 6.42022
53.92656392866066 6.4459599999999995
53.95154477641532 6.42429
53.976723591801296 6.38795
54.00171000771266 6.40543
54.02669920004598 6.36043
54.051691170915745 6.34322
54.076881204886796 6.33534
54.101878760928514 6.31329
54.12687910187696 6.29608
54.152077577768296 6.2431
54.1770835166946 6.23733
54.20209224691339 6.23773
54.22710377055121 6.223730000000001
54.25231352511594 6.14655
54.27733066384342 6.1512
54.30235060239643 6.192159999999999
54.32737334290836 6.17855
54.35259441062629 6.1616800000000005
54.377622783395324 6.09711
54.40265396455061 6.13426
54.42768795623251 6.13312
54.45292037169559 6.08054
54.477960012857906 6.06689
54.50300247099511 5.9932300000000005
54.52804774825457 5.99932
54.55329154616743 5.97069
54.57834249018678 5.96443
54.6033962597977 5.92197
54.6284528571545 5.90264
54.653708072335164 5.83822
54.67877035378786 5.859380000000001
54.70383546947698 5.87269
54.72890342156389 5.85921
54.7541700889442 5.82041
54.77924374251975 5.82611
54.8043202390049 5.7635
54.82959552413022 5.77594
54.8546777351945 5.76613
54.87976279569621 5.71096
54.90485070780914 5.75223
54.930137506558005 5.688619999999999
54.95523115074295 5.69215
54.98032765308844 5.6251
55.005427015775496 5.56884
55.03072536339621 5.58988
55.05583047570572 5.559740000000001
55.080938454927676 5.55386
55.10604930325027 5.56468
55.131359235107396 5.55893
55.15647585066083 5.44735
55.181595341907496 5.44299
55.20671771104285 5.45067
55.232039262617704 5.4385900000000005
55.25716741665048 5.3087
55.28229845518636 5.33438
55.30743238042802 5.291180000000001
55.33276558731939 5.33836
55.357905315183636 5.3015300000000005
55.383047936390035 5.24744
55.40819345314859 5.23573
55.433538351073295 5.20097
55.458689688238415 5.2015199999999995
55.483843927614096 5.1656
55.509197623043605 5.18677
55.53435769621134 5.12721
55.55952067826466 5.07651
55.5846865714265 5.07156
55.61005202069737 5.07549
55.63522376553902 5.05601
55.66039842818645 5.01848
55.68557601087004 4.99883
55.7109532500271 4.93874
55.73613670233794 5.0188
