TT I
1.2716486653135266 7.71922
1.2939594142134223 7.76123
1.3162702121660406 6.18535
1.3385810600174564 6.79615
1.3608919586137629 7.1461
1.383202908801069 6.50347
1.405513911425503 6.8348
1.4278249673332093 6.51941
1.4501343378461518 6.17949
1.4724455028545926 6.486269999999999
1.4947567236847858 6.3166199999999995
1.517068001182951 6.611000000000001
1.5393793361953272 6.18623
1.5616907295681737 5.96277
1.5840021821477681 5.5677900000000005
1.60631369478041 5.72388
1.6286252683124185 5.41686
1.6509369035901333 5.23381
1.6732468618895553 5.44723
1.695558623192809 5.179530000000001
1.7178704487808514 5.76839
1.7401823395001077 5.09978
1.7625012545597203 4.94201
1.7848028405262486 4.72389
1.8071218901122095 4.74512
1.8294236121921872 4.8783900000000004
1.8517427996910911 4.89625
1.8740620574440425 5.40144
1.8963639900671978 5.40171
1.9186833908139995 4.95708
1.9409854680117449 5.194369999999999
1.9633050151394713 5.5691
1.9856246367570705 4.5841400000000005
2.0079269371922672 5.14901
2.03024671027244 4.74046
2.0525491637446027 4.4593300000000005
2.074869091674931 4.89602
2.097171701569106 4.60915
2.1194917877373847 4.6824
2.141811954326636 4.87919
2.164114805233074 4.95714
2.186435135143035 6.18243
2.208738150935709 14.7067
2.231058647554722 32.2624
2.2533792288321184 25.6149
2.275682498336085 10.7071
2.298003251406138 5.80872
2.3203066942619714 5.48177
2.3426276225136022 4.68229
2.3649486396617507 4.96643
2.387252348930071 4.50614
2.4095735463442893 5.29973
2.4318774374315884 5.61854
2.4541988185014043 5.4825800000000005
2.476502894794693 5.1830300000000005
2.498824462909887 5.70547
2.521146125856138 6.0399
2.5434504863470337 5.911580000000001
2.5657723414244717 6.1801900000000005
2.588076895590662 6.05196
2.610398946189713 6.70321
2.6327210958598384 6.74895
2.6550259469304716 6.98198
2.6773482972090137 7.324730000000001
2.6996533504259 6.7758899999999995
2.7219759047039602 7.0427800000000005
2.744298562293959 6.9394800000000005
2.7666039251246595 6.657089999999999
2.7889267918020164 7.223089999999999
2.8112323652516555 7.0620899999999995
2.833555444408179 7.761760000000001
2.8558786311183852 8.01839
2.8781845268938557 8.67395
2.9005079311721484 8.806980000000001
2.9228140460410397 8.48991
2.9451376712799635 8.674660000000001
2.967444008632326 9.07313
2.9897678582247247 10.2691
3.0120918213106695 10.6166
3.0343984987899373 10.7221
3.0567226913198637 11.1479
3.079029599759726 11.7648
3.101354025127254 11.895
3.123678568232338 12.7565
3.145985829517914 13.0295
3.16831061055229 13.6383
3.1906181112775593 14.5767
3.212943133635653 14.8002
3.2352682779763207 15.3042
3.2575761442691227 15.2895
3.2799015350264273 15.8276
3.302209649240067 16.3816
3.3245352898092655 17.1812
3.3468436553365257 17.4342
3.369169549113219 18.2921
3.3914955708171384 19.0129
3.413804319727358 18.8374
3.4361305997334863 19.5471
3.4584396084414553 20.101
3.4807661501462652 20.8623
3.503092824025881 21.0549
3.5254022288463154 21.6471
3.5477291695206588 22.2833
3.5700388426251948 23.3202
3.5923660534916446 24.4239
3.6146934007816114 41.0484
3.637003482731501 99.8856
3.6593311053109985 112.124
3.681641464033634 64.0756
3.7039693653009733 32.3927
3.726297407241705 26.7811
3.7486081875460804 25.8343
3.7709365132734978 26.6038
3.793247578841633 27.6521
3.8155761917550093 27.5588
3.8378875459837216 27.491
3.8602164494827234 28.3713
3.882545499606844 28.7422
3.9048572932539183 29.8232
3.9271866390645718 29.8152
3.9494987298666713 30.564
3.971828374764527 31.274
3.9941581705403255 31.4072
4.016470713506008 32.3309
4.038800813471445 33.0867
4.061113662089144 33.5566
4.0834440696459176 34.4072
4.105774632334751 34.8982
4.128087945865126 36.1823
4.150418821249301 37.1075
4.172732448931298 38.7147
4.195063640413578 40.5085
4.2173775856475215 44.8255
4.239709096631102 80.3552
4.262040768704612 268.159
4.284355196706267 368.62699999999995
4.306687193387355 241.335
4.329001947444346 91.0423
4.35133427213731 51.5431
4.373666762177566 46.6438
4.395982011761091 45.9432
4.418314834921175 47.1461
4.44063041906622 55.8945
4.4629635787515625 68.4158
4.4852969080429785 68.9138
4.5076130004776225 57.5471
4.529946671403969 54.4274
4.552263106909177 53.5986
4.574597122877047 53.6291
4.596931312711224 54.6441
4.619248269273446 55.292
4.6415828092605835 56.4079
4.663900117405352 57.5103
4.686235010953232 59.0752
4.708552674085913 59.6284
4.730887924602802 61.391000000000005
4.753223354952695 63.2308
4.775541557023902 64.8211
4.797877349456786 66.3813
4.820195915032126 68.6094
4.842532072957498 69.656
4.864868414979744 72.4702
4.88718753227192 74.9478
4.909524244902505 77.0449
4.931843734218147 78.3984
4.954180820867835 81.4662
4.976518095879839 84.6295
4.998838149695359 87.6543
5.021175803844231 92.2245
5.043496238205739 95.9
5.065834274903528 101.16
5.088172504230693 106.929
5.1104935158799565 115.83
5.132832132875765 145.227
5.155153533596801 201.59900000000002
5.1774925416746225 256.228
5.199814334878411 515.7
5.2221537374521505 1431.47
5.244493338631803 3239.02
5.266815727034316 6626.27
5.289155727832427 10891.6
5.311478517248165 9510.4
5.333818921080011 4157.78
5.356159527788849 964.717
5.3784829252032536 263.397
5.400823940070432 175.78099999999998
5.423147747031976 148.14
5.445489173474152 132.684
5.467830807066149 125.311
5.490155234831516 120.087
5.512497285125229 114.257
5.534822130975162 111.584
5.557164601388673 108.447
5.579489868738879 105.417
5.601832762690846 104.51
5.6241758697774475 103.485
5.646501775867269 102.256
5.668845311622074 100.914
5.691171647754637 99.6767
5.713515615597765 97.7137
5.735859800852677 97.6366
5.758186788542988 97.1889
5.780531411018185 97.6292
5.802858837297399 96.9395
5.825203900414495 97.735
5.8475491852224 98.7476
5.869877275883075 98.6737
5.892223006467101 100.15100000000001
5.914551544266608 102.088
5.936897724049891 106.12100000000001
5.959244129804903 114.404
5.981573344815301 142.137
6.0039202049061 267.161
6.026249875609095 586.885
6.04859719346037 1120.85
6.070927323278297 2059.81
6.093275102315365 3673.78
6.115623113320588 4826.65
6.137953938319995 3697.89
6.160302415650845 1439.77
6.182633708324452 373.765
6.2049826554078376 147.316
6.227331838745022 107.486
6.249663839443684 94.9891
6.27201349767565 90.4088
6.294345974611799 96.0899
6.316696111167083 110.039
6.339046488263839 103.556
6.361379686074702 85.4477
6.383730546639482 76.1938
6.406064229255215 72.752
6.428415576718203 71.9616
6.450749747566656 70.6486
6.47310158535871 69.4374
6.495453669698332 68.4934
6.517788579421056 67.8226
6.540141159237969 66.5127
6.562476565766648 66.1778
6.5848296444934045 65.9651
6.607182974060425 65.3708
6.6295191323281015 65.5449
6.651872965955752 69.2426
6.6742096296068985 97.9334
6.6965639707294615 153.477
6.71891856698715 155.861
6.741255995248479 104.538
6.763611104154477 72.3037
6.785949046381137 63.3602
6.808304671371482 61.2616
6.8306605557940046 60.9855
6.852999275508618 59.8294
6.875355681171544 59.196999999999996
6.897694923437771 59.3241
6.92005185377892 58.8792
6.9423916220322655 58.7404
6.964749080490181 57.9397
6.987106804399774 58.0971
7.009447368180821 58.3724
7.031805625367033 57.9569
7.054146723727803 57.8585
7.076505517631004 57.4805
7.098864581288365 57.9083
7.121206488070854 57.3255
7.143566093607822 57.0966
7.165908543567245 57.8056
7.188268694426048 58.0745
7.2106291193438095 58.3023
7.232972390625943 59.7369
7.255333366030969 73.1602
7.277677189091925 134.582
7.300038718428332 195.46900000000002
7.322400526130865 165.985
7.344745183422596 99.22399999999999
7.367107550224791 65.7527
7.389452767901992 59.1374
7.411815697249891 57.7619
7.434161478756298 56.625
7.456524974096713 56.5181
7.478888753837185 56.3076
7.501235387657368 56.8043
7.523599738562711 56.7729
7.545946944825532 56.8892
7.568311870344528 57.5056
7.5906770845765665 57.84
7.613025156078678 59.5051
7.635390950099687 60.9345
7.657739602662809 59.9971
7.680105979923558 58.305
7.702472650212829 58.4842
7.724822180948224 58.0258
7.747189439655568 58.3476
7.769539560075357 58.4316
7.791907410653562 59.0147
7.81425812420825 58.48
7.836626570110925 59.0485
7.858995315087906 60.0411
7.881346924933401 59.9306
7.903716270417482 60.7396
7.926068482028405 60.797
7.948438431475253 61.9706
7.9708086843180235 62.673
7.993161805171116 62.8244
8.015532667162402 63.218
8.037886398416653 64.5332
8.060257873014221 64.7411
8.082629655331942 65.5801
8.104984308787587 66.4025
8.127356708900503 70.3601
8.149711981398308 76.9299
8.172085002766314 80.0692
8.194458336181368 76.0457
8.216814543847752 72.456
8.23918850371002 72.2349
8.26154533906492 72.8619
8.283919928836452 74.8515
8.306277395339652 75.8232
8.328652618483376 77.4744
8.351028159736202 79.4047
8.373386579575245 81.6641
8.395762759396959 83.8313
8.418121819038275 89.6971
8.440498640894003 105.65
8.462875785192262 123.76700000000001
8.485235811156207 140.89
8.507613602688501 194.21900000000002
8.529974277114228 309.238
8.552352719347912 461.73699999999997
8.574731488360351 670.9730000000001
8.59709314210385 1048.44
8.619472567021075 1558.69
8.64183487789147 2068.76
8.664214962183097 2014.93
8.686577933647762 1303.88
8.708958680784317 566.876
8.731339760774953 241.72799999999998
8.753703729764451 134.201
8.77608547780821 109.195
8.798450116065078 102.86
8.820832535634787 98.8159
8.843215292401656 96.2214
8.865580941199045 94.4407
8.887964374703538 93.5235
8.910330701447199 94.4244
8.932714815164482 97.2225
8.955099270424924 95.9795
8.977466620733543 92.4286
8.999851761421976 89.0882
9.022219798361645 87.0231
9.04460562795561 87.0657
9.066991803441677 86.3297
9.089360876979615 86.432
9.111747746589993 86.215
9.13411751544971 85.2771
9.156505082664324 85.3859
9.178875550323522 85.1848
9.20126381862328 85.8407
9.223652438908596 86.3396
9.246023961427412 86.1427
9.26841328802173 85.2851
9.290785518039224 85.4776
9.313175554425882 86.5778
9.335565947154315 86.4732
9.357939245086508 86.7974
9.380330352834827 86.5906
9.40270436697103 87.2781
9.425096193225055 86.552
9.447488380180165 87.2735
9.469863475295412 87.5898
9.492256385987508 87.6225
9.514632206018318 88.6199
9.537025843935714 88.7981
9.559402392368193 89.7818
9.581796761000229 91.1237
9.604191496441521 92.5776
9.626569144158516 96.0435
9.648964615551032 101.44
9.671343000390081 103.271
9.693739211225699 100.883
9.716135793237463 97.5489
9.738515290448102 96.8637
9.760912617143402 98.0717
9.783292860202891 99.5745
9.805690935076182 100.79299999999999
9.828089385495742 102.34700000000001
9.850470754023561 104.64200000000001
9.872869957865444 112.99799999999999
9.89525208097539 130.97799999999998
9.917652041736662 146.382
9.940052382417589 147.502
9.962435644102392 156.93
9.984836746950979 202.637
10.007220771957746 289.14599999999996
10.029622640473708 406.784
10.052007432299963 551.486
10.074410069984072 745.1060000000001
10.096813093716005 1066.79
10.119199042482517 1490.47
10.141602840636468 1836.71
10.163989564971628 1761.87
10.186394141051062 1211.81
10.208799107559706 591.822
10.231187001965623 264.258
10.253592751657669 151.589
10.275981430388155 124.696
10.298387966769793 121.619
10.320794897965431 124.28
10.343184759907361 122.3
10.36559248305461 115.652
10.387983138083852 111.001
10.410391656691655 114.334
10.432800574501677 128.217
10.455192425893369 150.958
10.47760214443012 178.84400000000002
10.499994797678786 212.58700000000002
10.522405320453982 264.329
10.54479877906917 353.23900000000003
10.567210109595656 455.22900000000004
10.5896218454736 535.669
10.612016518879773 542.019
10.634429067781074 416.13300000000004
10.656824555333241 260.578
10.679237920773568 156.645
10.701651695961992 108.544
10.724048411481384 95.4938
10.746463008485165 91.5325
10.768860546937125 89.2321
10.791275969274796 87.3667
10.81369180576079 85.8988
10.836090585366925 84.6335
10.858507252467449 83.3581
10.88090686379991 82.1759
10.903324365036394 81.7196
10.925724811614439 81.9523
10.948143150509463 83.5905
10.970561909719066 83.0202
10.992963615930844 80.6136
11.015383218085756 78.1055
11.037785768347074 76.6062
11.06020621697282 75.8392
11.082627090322113 75.4443
11.105030913430326 74.8853
11.12745263854165 75.4884
11.149857314510728 79.5213
11.172279894912576 87.0952
11.194702904450653 88.2312
11.217108866490921 83.4513
11.239532736615194 78.3686
11.26193956033512 75.3918
11.284364294577085 73.648
11.306789462371718 71.5941
11.329197585398376 70.2507
11.351623622610898 69.8433
11.37403261614354 68.607
11.396459526308487 68.8173
11.418869393879497 68.4837
11.441297180532617 67.8493
11.463725406927658 67.5561
11.486136592353875 67.7774
11.508565700543707 68.2053
11.530977768845315 70.2112
11.553407762368774 71.4719
11.575838200059769 70.8314
11.598251599479612 68.6151
11.620682927815501 66.9368
11.64309721895548 66.2261
11.665529441478206 65.9447
11.687962112597958 65.5284
11.710377748130886 65.6498
11.732811318753434 65.5314
11.755227854859067 65.417
11.777662328529495 65.3753
11.800079768750786 65.2348
11.822515149015453 64.9392
11.844950984084935 65.3489
11.867369787303163 64.8161
11.889806534289491 65.0273
11.912226250487029 65.2647
11.934663912939751 65.5501
11.9571020346363 65.4411
11.979523127133968 65.4977
12.001962169624331 66.593
12.024384183972964 67.6629
12.046824150809913 71.7415
12.069264581333726 78.3477
12.091687985297767 86.1034
12.11412934550045 94.2179
12.136553680195208 104.67299999999999
12.158995973632788 119.75200000000001
12.181438735204349 140.952
12.20386447284199 168.007
12.226308172985636 196.03900000000002
12.24873485024193 210.05900000000003
12.271179492516982 191.049
12.293607112949127 153.745
12.316052700916226 114.506
12.338498763250042 89.6429
12.360927805303868 76.3856
12.383374818673879 70.2016
12.405804812803074 67.7687
12.428252780773262 67.1209
12.45070122756722 67.0401
12.473132656675375 67.1053
12.49558206341869 67.2189
12.518014453510101 67.0794
12.540464823770117 67.3777
12.562915677315177 67.4491
12.58534951575545 68.278
12.607801338171472 70.2267
12.630236146511358 76.5634
12.652688941369085 82.323
12.675124723177234 83.0185
12.697578494048786 78.4316
12.720032754458185 73.3522
12.742470003354093 70.9393
12.764925245138771 70.7255
12.787363476431278 70.9032
12.809819703166806 71.0154
12.83227642391173 71.9738
12.854716135692716 72.5528
12.877173846755147 73.5452
12.899614549869717 73.7308
12.9220732548287 74.6219
12.94453245827299 74.9976
12.966974655289818 76.2657
12.989434858002571 76.9793
13.011878055298721 77.6787
13.034339260862497 78.7188
13.056800969391883 79.9661
13.079245674017244 82.4516
13.101708390774869 85.1353
13.12415410463411 93.2049
13.146617833206086 107.734
13.169064559883248 123.53399999999999
13.191529303857127 140.547
13.213994557076367 158.507
13.236442809902437 182.68400000000003
13.258909083908291 219.143
13.28135835851934 267.323
13.30382565690295 327.716
13.326293469022952 393.898
13.348744283242008 432.651
13.371213125129904 404.665
13.39366497011003 320.953
13.416134845360597 222.512
13.438605238843131 151.256
13.46105863690397 119.837
13.483530069144786 115.329
13.505984506951902 122.102
13.528456981549432 133.702
13.550929978879088 146.366
13.573385983253365 161.741
13.595860028340867 185.997
13.618317081455832 222.08700000000002
13.64079217790333 268.226
13.663250283359057 317.327
13.685726434770173 361.88
13.708203115221277 363.788
13.730662806148091 315.534
13.75314054697177 237.9
13.775601299246777 162.20600000000002
13.798080104050406 113.531
13.820559442405358 93.27600000000001
13.843021793671388 86.6665
13.865502201420897 84.2425
13.887965623051947 83.5549
13.910447103807167 81.9977
13.932929122629764 80.5621
13.955394156785959 80.1203
13.977877254034569 78.9615
14.000343367582113 78.1951
14.022827546871707 77.1905
14.045294743423524 76.8691
14.06778000837062 75.9516
14.090265817715476 75.9084
14.112734645763819 75.6041
14.13522154619454 75.4888
14.157691466286913 75.4196
14.180179461423874 75.2357
14.202668005486178 74.6213
14.22513957064374 73.8285
14.247629214846473 73.2136
14.270101881097517 72.8896
14.29259262906496 73.4551
14.315083930490205 74.4192
14.337558255389705 74.822
14.360050666019726 74.5677
14.382526101071944 73.2311
14.405019624534942 72.5671
14.427513705993134 71.6753
14.449990813291825 71.6491
14.47248601302899 71.3709
14.49496423954951 71.6081
14.517460561197822 71.7216
14.539939910570322 71.5223
14.562437357763558 71.6615
14.58493536931253 72.9895
14.607416409993311 74.2982
14.62991555254159 75.1606
14.652397725157423 74.7756
14.674898002342799 74.1927
14.697398848433282 73.5128
14.719882725991326 74.2509
14.74238471217934 75.3035
14.764869730765593 78.9678
14.787372860692983 83.7922
14.809876564079925 89.9172
14.83236330125751 96.4625
14.854868153850365 103.56299999999999
14.877356041159485 112.49600000000001
14.899862046604186 124.212
14.922351087688757 142.289
14.944858249632887 164.55200000000002
14.967365991421232 189.94099999999997
14.989856770231246 212.148
15.012365673994204 223.32299999999998
15.03485761569738 209.28900000000002
15.05736768508665 175.06599999999997
15.07987833888692 137.595
15.102372032001655 106.32600000000001
15.124883856909658 85.6312
15.14737872204565 77.4447
15.169891721717274 74.3815
15.192405310371893 73.8355
15.214901940621196 74.2678
15.237416709527137 74.6511
15.259914520936249 74.8705
15.282430473753607 73.7089
15.304947020131227 72.2656
15.327446610371178 70.9762
15.349964346154254 70.0958
15.372465126703139 69.5786
15.394984055556009 69.3002
15.417486030076159 69.0535
15.44000615566487 68.7475
15.462526881230803 68.9489
15.485030653812652 69.0568
15.507552581617434 68.9745
15.530057557334603 68.8736
15.55258069104857 68.9837
15.575104429329837 68.9784
15.597611216864632 68.7071
15.620136166564563 68.7918
15.6426441664095 69.7077
15.665170331202765 72.7854
15.687697105158826 76.4896
15.710206930593545 81.3574
15.732734925158933 86.3324
15.755245972089478 91.5932
15.77777519094324 97.5622
15.800287463046663 106.10700000000001
15.822817909869592 118.77799999999999
15.84534897229804 134.74200000000002
15.867863089299354 154.888
15.890395385222186 175.22299999999998
15.912910736597423 191.43900000000002
15.935444269699861 194.459
15.957978423016485 177.32
15.980495633101265 147.471
16.003031029129367 116.694
16.02554948280019 89.3214
16.048086125229432 74.8871
16.070623392487107 69.9777
16.09314371869582 68.2053
16.11568223789321 67.08800000000001
16.13820381691126 65.9801
16.160743591742527 64.60600000000001
16.183283996022084 63.4601
16.205807461423195 62.3455
16.228349126881973 61.4957
16.25087385432698 61.4703
16.27341678466365 61.1105
16.29594277784926 60.8903
16.31848697676433 61.2293
16.341031811604868 61.622
16.36355971058487 62.1586
16.3861058195587 61.9494
16.40863499352978 60.4404
16.431182380342005 59.5324
16.453730407713202 58.7843
16.476261501364792 58.2103
16.498810812136167 57.6863
16.52134319004079 57.817
16.54389378792203 57.802
16.566445031001553 57.5377
16.588979342490088 57.5629
16.61153187824822 57.1978
16.634067483263312 57.1405
16.656621315414416 56.9729
16.679175797408888 56.726000000000006
16.701713349928728 56.8653
16.72426913389191 57.0606
16.74680798922351 57.3339
16.76936507887444 57.3214
16.791905240734874 57.4881
16.814463639794468 57.1445
16.837022695210294 57.1325
16.859564824093756 57.5694
16.882125194503903 58.3564
16.904668639217885 59.2909
16.927230328348003 59.5511
16.949792678493612 59.6132
16.972338104193863 58.8075
16.994901778652235 57.9949
17.017448529496576 57.968999999999994
17.040013531998152 58.2083
17.06257920018044 58.6239
17.0851279459922 59.5724
17.107694947817667 60.7433
17.130245028099072 61.8757
17.15281336730298 63.2435
17.17536478578733 64.3955
17.19793446610687 65.7686
17.220504818648422 67.7012
17.243058251703697 69.7946
17.265629950971032 73.6171
17.288184731571736 77.4884
17.310757781306908 81.8097
17.33333150794385 84.9672
17.355888317140174 85.7289
17.37846339986244 83.0496
17.401021565958885 77.5426
17.42359800851343 71.7855
17.44617513265564 67.0026
17.468735341390783 63.9122
17.491261035594565 61.9878
17.51396340099364 61.6813
17.536490463869136 61.6535
17.559018209820174 61.6786
17.58154663977963 61.5312
17.604251766089718 61.8618
17.626781572227713 61.9914
17.64931206518155 62.1562
17.671843245885103 62.8028
17.69455114821572 62.9342
17.717083712612634 63.2659
17.739616967569667 63.407
17.762150914021706 63.7152
17.78486160749854 63.5776
17.807396945166804 64.5131
17.829932977143503 65.3033
17.85246970436452 67.1227
17.875183204129467 69.5051
17.897721330097664 72.4063
17.920260154126645 75.3018
17.942799677153296 78.5656
17.9655159983646 80.9795
17.988056927677544 84.5695
18.010598558807683 89.4871
18.033140892692916 96.4351
18.05586005052525 104.64
18.07840379824407 114.741
18.10094825154059 126.111
18.12366954819864 137.10399999999998
18.146215420998306 143.07
18.16876200220057 142.27
18.191309292745153 132.238
18.214033452627167 117.77600000000001
18.236582170236648 103.00399999999999
18.259131600016456 92.8639
18.281681742907335 88.6833
18.304408781233683 89.9553
18.32696035875955 93.4687
18.349512652227624 97.8886
18.372065662579683 103.676
18.394795594587553 107.96700000000001
18.41735004715306 108.329
18.43990521943684 104.323
18.46246111238171 96.4611
18.485193953325208 85.837
18.507751296070428 76.9321
18.530309362314178 70.7591
18.552868153000343 67.2504
18.57560391815056 65.1714
18.59816416623245 64.5589
18.620725141597372 64.062
18.643286845190268 63.4368
18.666025549835414 63.202
18.688588718427933 62.5627
18.711152618092243 62.3568
18.73389353884365 61.9113
18.75645890921984 61.468
18.77902501351406 61.1228
18.801591852673102 61.1183
18.824335739722738 60.4843
18.846904057212626 60.5057
18.8694731124168 60.2073
18.89204290628315 60.1444
18.914789774966803 59.9757
18.937361054791623 59.526
18.959933076131318 59.3745
18.982505839934877 59.3526
19.00525570560582 59.4721
19.027829963004184 59.4598
19.05040496572238 59.5592
19.072980714710468 59.3704
19.095733592739563 59.5222
19.11831084296757 59.9554
19.140888842324735 60.5978
19.16346759176222 61.2005
19.18622349753803 61.9281
19.208803755869358 62.4622
19.231384767143577 62.9195
19.253966532312948 63.9231
19.276725481241822 65.1483
19.29930876296784 66.8162
19.3218928014549 69.3419
19.34465404436217 72.3044
19.36723960516257 75.6284
19.389825925592426 78.0727
19.412413006605938 78.85
19.43517731967805 77.168
19.457765930683355 73.5091
19.48035530514408 68.9219
19.50294544401556 64.3066
19.525712842708348 60.8715
19.54830451925909 58.4975
19.570896963095727 56.8165
19.593490175174704 56.2287
19.616260674962184 56.1097
19.638855432416964 55.9029
19.661450960992624 55.9481
19.68404726164677 55.8409
19.706820878021247 55.5329
19.729418731756834 55.6038
19.752017360452857 55.4702
19.77461676506804 55.7779
19.797393513540218 55.9122
19.819994478951667 56.3795
19.84259622316767 56.9314
19.8651987471481 57.6345
19.887978643247177 57.8748
19.91058273574792 58.0513
19.933187610901943 58.6265
19.955969879466828 59.4633
19.97857632894404 60.1307
20.00118356396599 61.2415
20.023791585494575 62.8793
20.046577028914875 65.263
20.069186632506966 67.3001
20.091797025500632 69.678
20.114408208858933 71.4488
20.137196842715273 72.4214
20.159809615886765 72.0201
20.18242318232135 69.9467
20.20503754298326 67.3346
20.227829382875154 65.3746
20.250445341109344 64.1418
20.27306209647285 63.7352
20.29567964993108 64.5519
20.31847471147704 65.6259
20.34109387027612 66.9349
20.363713830075454 67.6089
20.386334591841646 67.6739
20.409132890679302 65.7768
20.431755265564437 62.6201
20.454378445325528 59.3586
20.477002430930366 57.1184
20.499803982716553 55.5136
20.522429589228004 54.2251
20.54505600449589 53.6843
20.567683229489194 53.5465
20.590488049900088 52.8996
20.61311690359731 52.4553
20.63574656993626 52.2344
20.658553853717297 51.9403
20.681185154618298 51.7672
20.703817271080066 51.7517
20.72645020407368 51.3736
20.749260783967177 51.3669
20.771895359337133 51.2125
20.794530754161617 51.0835
20.817166969412938 50.9029
20.83998086114876 50.7304
20.86261872660049 50.7993
20.885257415405402 50.6542
20.90789692853701 50.6933
20.930714147864748 50.56
20.953355319030678 50.6455
20.97599731745334 50.7183
20.99864014410749 50.5269
21.021460706796564 50.6275
21.044105199328826 50.9281
21.06675052302631 51.0656
21.089396678865015 51.2546
21.112220600704806 51.3057
21.134868430275347 51.6113
21.15751709492456 51.8916
21.180166595629693 51.9511
21.202993892429635 52.2734
21.22564507473034 52.7092
21.24829709602816 53.0584
21.27112693608965 53.4225
21.293780644891275 53.6561
21.316435195634053 53.1588
21.339090589297417 52.4416
21.361923832041875 51.9667
21.384580921090404 51.3112
21.407238856007325 50.7186
21.429897637773326 50.4806
21.45273429906592 50.4743
21.475394784108598 50.6129
21.498056118951983 50.4381
21.520718304578022 50.6051
21.543558400304388 50.6866
21.566222297108816 50.8227
21.58888704765135 51.0065
21.61155265291521 51.3187
21.63439619898156 51.9631
21.657063523335786 52.2839
21.67973170537063 52.8846
21.7024007460706 53.3485
21.72524775840385 53.788999999999994
21.747918526116475 54.5172
21.770590155457388 55.4188
21.79326264741238 56.4095
21.816113141960237 57.8346
21.838787368860547 59.276
21.861462461341976 61.1506
21.884315579735777 63.0822
21.90699241312273 64.9904
21.92967011506078 66.3478
21.95234868653799 67.0323
21.9752053151131 66.6943
21.997885635446785 65.3711
22.020566828293532 63.4108
22.04324889464272 61.0972
22.066109049404666 59.0959
22.088792872571794 58.0499
22.111477572219204 57.8597
22.1341631493376 57.961999999999996
22.157026846313123 58.12
22.179714188221507 57.9183
22.202402410582668 57.2545
22.22509151438863 55.8635
22.24795876962584 54.3865
22.270649646204486 53.5089
22.293341407213727 52.4289
22.316034053646906 51.6174
22.338904883215342 51.3081
22.36159931041458 51.0595
22.38429462602756 51.1077
22.40699083104897 50.8958
22.429865251039757 51.0734
22.452563244831367 51.1534
22.47526213102522 51.0985
22.49813925616515 50.9013
22.520839937143307 50.7243
22.543541513520587 50.6939
22.56624398629403 50.4135
22.589124730075895 50.4596
22.611829005656723 50.7176
22.63453418063466 50.601000000000006
22.657240256008077 50.8803
22.680124634582935 51.2504
22.70283252079775 51.5139
22.725541310413075 51.74100000000001
22.74825100442868 51.9583
22.771139033969575 52.2766
22.79385054687155 52.4069
22.81656296718292 52.72
22.83927629590484 53.4373
22.862167992606945 54.1886
22.88488314827121 55.0229
22.907599215359284 55.7962
22.93031619487366 56.8755
22.953211574954405 57.9036
22.975930389478226 59.0807
22.998650119445763 59.9786
23.02137076586092 59.86
23.044269845560063 59.4525
23.06699233506288 58.2507
23.089715744034912 56.2478
23.112617610931565 54.3448
23.135342869061212 52.8585
23.158069049684816 51.8926
23.1807961538087 51.2189
23.20370174880544 50.8206
23.226430710184808 50.9934
23.249160598093425 50.8932
23.271891413539002 50.938
23.294800752937697 51.022
23.31753343374794 51.3841
23.340267045128353 51.2674
23.36300158808808 51.6342
23.38591468821339 51.8255
23.408651104658304 52.0749
23.431388455719986 52.4089
23.454126742409 52.9837
23.4770436196085 53.6334
23.499783787914662 54.6854
23.522524894889884 55.5567
23.54526694154616 56.5029
23.56818761219047 57.8653
23.59093154860734 58.6332
23.613676427751283 59.7916
23.636422250635754 59.8191
23.659346731118656 58.839
23.68209445191868 57.4398
23.704843119509587 54.9588
23.72759273490623 53.0283
23.750521041644767 51.2671
23.77327256312355 49.9079
23.796025035462787 48.7823
23.818956224555475 48.1481
23.841710609113413 48.1028
23.86446594758979 47.715
23.887222241002014 47.5027
23.910157285144578 47.1189
23.932915498962537 47.0524
23.955674670778713 47.0593
23.978434801611975 46.7642
24.001373717286125 46.591
24.024135776723917 46.5069
24.046898798245582 46.3002
24.06966278287146 46.4905
24.092605586582614 46.2354
24.115371508023642 46.0938
24.1381383956401 45.9218
24.16090625045381 45.8634
24.183852958731244 45.6573
24.206622758582608 45.6502
24.229393528706886 45.3246
24.252165270127392 45.4018
24.27511589952438 45.3593
24.297889594216997 45.1983
24.32066426328598 45.0792
24.34343990775613 45.1356
24.36639447485003 44.9505
24.38917208083877 44.8886
24.41195066531332 44.83
24.43490819850244 44.7515
24.457688750692377 44.6517
24.48047028445616 44.7028
24.503252800821233 44.7376
24.526214300784112 44.8626
24.548998793132213 44.5972
24.57178427117417 44.5938
24.59457073593893 44.7684
24.617536219319863 44.637
24.64032466834748 44.6499
24.663114107195035 44.7629
24.685904536893013 44.4156
24.708874020360852 44.4092
24.731666442613744 44.4157
24.754459858818787 44.1484
24.777254270007962 44.1743
24.80022777025625 43.968999999999994
24.82302418230472 43.949
24.845821592443674 43.9281
24.86862000170663 43.8503
24.891597535453727 43.8929
24.914397953892728 44.1277
24.93719937456671 43.8343
24.96000179851076 43.9794
24.98298338249997 44.2169
25.00578782394922 44.3523
25.028593271784167 44.4684
25.05157790644186 44.8462
25.07438537804115 44.7367
25.097193859145293 45.0293
25.120003350792075 45.2013
25.142992065061257 45.5518
25.165803588823465 45.8144
25.18861612625217 46.1941
25.211429678386736 46.3988
25.234422489079968 46.3804
25.257238081693636 46.3433
25.280054692141732 46.44
25.3028723214652 46.4114
25.325869245420463 46.5379
25.348688923599397 46.5226
25.371509623787006 46.6846
25.394331347025812 46.5013
25.41733240110666 46.3399
25.440156181590016 45.91
25.46298098826268 45.3515
25.48580682216873 44.6231
25.50881202326435 44.0771
25.53163992281684 43.6245
25.55446885274561 43.099
25.577298814096377 42.6986
25.600308179121807 42.4327
25.623140214533745 42.585
25.64597328451537 42.5368
25.66898578564376 42.2603
25.691820936010206 42.372
25.714657124097695 42.1496
25.737494350954734 42.3269
25.760511045684957 42.1475
25.783350361364224 42.2791
25.806190718969255 42.2626
25.82903211955018 42.3001
25.852053024868923 42.2868
25.874896522722523 42.3429
25.897741066713106 42.0747
25.920586657892454 42.2693
25.943611790812668 42.2866
25.966459487728237 42.4338
25.989308234998564 42.3852
26.01215803367705 42.7517
26.03518741123814 42.9158
26.05803932412957 43.1113
26.080892291600094 43.196999999999996
26.10374631470478 43.0248
26.12677995397268 43.3396
26.14963609978026 43.4294
26.172493304397875 43.1619
26.19535156888223 43.0655
26.218389486949604 42.6893
26.241249882640123 42.4791
26.26411134137826 42.0672
26.28715248187403 42.1549
26.31001607820869 41.85
26.3328807407756 41.7891
26.35574647063438 42.0162
26.37879191991473 41.7334
26.401659795896734 41.7251
26.424528742360263 42.0306
26.447398760366614 42.0624
26.470448535598294 42.1001
26.49332070826805 42.2715
26.516193955675355 42.492
26.53906827888316 42.6696
26.562122397260108 42.7463
26.584998883685063 43.0016
26.607876449110325 43.2298
26.63075509460056 43.4322
26.65381357334404 43.6701
26.67669439061878 43.6503
26.699576291163382 43.8238
26.722459276044212 43.7871
26.745522132402975 43.5568
26.768407297649354 43.2514
26.791293550442003 42.9354
26.814180891848974 42.7596
26.837248143099337 42.3037
26.860137673466657 42.1743
26.88302829566349 41.9086
26.90592001075963 41.8462
26.92899167420566 41.6249
26.951885586870763 41.3016
26.974780595655517 41.1088
26.99785558178161 40.99100000000001
27.020752794605112 40.7191
27.043651106772522 40.5537
27.06655051935668 40.4051
27.089629948036183 40.2984
27.112531573292053 40.2507
27.135434302194138 40.3418
27.158338135817015 40.3029
27.181422024430987 40.1804
27.204328079372566 40.0454
27.22723524226965 40.2239
27.250143514198573 40.2543
27.273231880156334 40.145
27.296142382065014 40.0167
27.319053996245536 39.8239
27.341966723775965 39.8597
27.365059584515222 39.9961
27.38797455070062 39.9777
27.410890633481237 39.8614
27.433807833936918 39.937
27.456905206923906 40.0002
27.47982465472398 39.8768
27.502745223449743 39.8835
27.525666914182825 40.0938
27.548768816912457 40.2019
27.571692763693633 40.0507
27.59461783573812 40.0219
27.617723149491244 39.8675
27.640650484125285 39.7346
27.66357894728264 39.7824
27.686508540048052 39.6643
27.709618414237887 39.5028
27.732550278321757 39.4292
27.755483275279115 39.4644
27.778417406196485 39.2822
27.801531858397514 39.3963
27.824468269376716 39.2518
27.847405817586786 39.296
27.870344504116094 39.5484
27.893463551932008 39.6568
27.916404527281053 39.6659
27.93934664422563 39.7849
27.962289903855886 39.8433
27.98541356491974 39.9836
28.00835912214229 40.0445
28.03130582533231 40.2818
28.054253675581805 40.356
28.077381967556104 40.4037
28.100332124185126 40.6103
28.123283431160893 40.6216
28.146235889577238 40.309
28.169368830154156 40.2311
28.192323603752033 40.1746
28.215279532083304 39.8941
28.238415973016764 39.5532
28.261374223145094 39.3964
28.284333631303806 39.2706
28.307294198589954 39.1052
28.330435319167677 38.7946
28.353398217078915 38.5847
28.376362277420153 38.3767
28.39932750129032 38.1104
28.422473319286713 37.9224
28.44544088262495 38.0597
28.468409612800283 37.8373
28.491379510913497 37.6082
28.51453004413313 37.388000000000005
28.53750229057244 37.4031
28.56047570826344 37.2116
28.583450298308804 37.3617
28.606605564586562 37.0532
28.629582511831156 37.2836
28.65256063474956 37.1495
28.675539934446338 37.2075
28.698699951647605 37.0004
28.72168161743193 36.8004
28.74466446331978 36.8627
28.767648490417624 36.8997
28.790813276438353 36.7843
28.813799678527303 36.8955
28.836787265157085 37.0239
28.859955641890075 36.8693
28.882945610203045 36.847
28.905936766392035 36.6993
28.928929111566863 36.8216
28.952102288520145 36.6666
28.975097024308607 36.5949
28.998092952423807 36.562
29.021090073977508 36.436
29.04426806913204 36.3019
29.067267590245258 36.181
29.090268308143695 36.0911
29.11327022394099 36.0237
29.13645305530891 35.8414
29.159457379627167 35.8919
29.18246290519685 35.8616
29.20546963313352 35.8145
29.22865731875826 35.8226
29.25166646419296 35.7562
29.27467681535305 35.576
29.29768837335608 35.6083
29.320880931312562 35.5711
29.34389491580634 35.4851
29.366910110507334 35.525999999999996
29.38992651653503 35.6292
29.41312396492981 35.4786
29.436142806456754 35.5072
29.45916286268059 35.5435
29.48236399319994 35.3672
29.50538649169417 35.3322
29.528410208259935 35.1662
29.55143514402014 34.9644
29.574641196749695 34.8315
29.597668583816574 34.7376
29.6206971934585 34.5216
29.64372702680042 34.5366
29.666938019934474 34.4224
29.689970313635285 34.2562
29.713003834422636 34.3277
29.73603858342347 34.2878
29.759254535188578 34.2813
29.78229175361658 34.0898
29.80533020365064 34.2758
29.82836988641968 34.3188
29.85159081507472 34.1141
29.874632976355343 34.0615
29.89767637376955 34.0943
29.920721008448314 33.9127
29.9439469322847 33.9938
29.96699405457564 33.9465
29.9900424175358 33.9009
30.013092022298157 33.8119
30.03632295963995 33.8309
30.059375061131373 33.7893
30.08242840783577 33.8787
30.105483000888153 33.7855
30.128718970092244 33.7356
30.151776069006917 33.6105
30.17483441768648 33.7191
30.198074175317235 33.7269
30.221135036724256 33.7953
30.24419715131772 33.7234
30.267260520236203 33.5437
30.290505341942243 33.7026
30.313571232750228 33.6926
30.336638381310948 33.5573
30.35970678876503 33.5758
30.38295669299435 33.4815
30.40602763151657 33.4497
30.429099832366074 33.4693
30.452173296685572 33.4276
30.47542830191959 33.4605
30.498504306502497 33.3744
30.521581577995562 33.3856
30.544660117543582 33.4224
30.56792024229725 33.4845
30.59100133132069 33.4813
30.614083691845494 33.3277
30.637167325018545 33.3982
30.660432587840603 33.4914
30.683518779717886 33.4981
30.70660624769615 33.3662
30.729694992924372 33.4934
30.75296541239743 33.5164
30.77605672557558 33.4961
30.799149319462742 33.4913
30.8224236211637 33.4099
30.845518789950724 33.1725
30.868615242910597 33.1832
30.891712981195973 32.9232
30.91499247215866 32.945
30.938092794619365 32.9476
30.96119440587579 32.825
30.984297307082752 32.7166
31.00758200598383 32.7262
31.030687500658694 32.5989
31.053794288760695 32.4705
31.076902371446767 32.3365
31.100192296997445 32.374
31.12330298246119 32.3195
31.14641496599209 32.1387
31.169528248749216 32.1824
31.19282341969534 32.1907
31.215939314557186 32.2803
31.239056512134788 32.2109
31.262175013589378 32.1143
31.28547544871168 32.0623
31.30859657161541 32.0154
31.331719001892175 32.0824
31.35484274070538 32.1892
31.378148458819545 32.1602
31.401274828443725 32.0667
31.424402510106933 32.1047
31.447712205419993 32.2378
31.470842524931633 32.1051
31.493974159989783 32.0798
31.51710711176168 32.0242
31.54042212308802 32.0866
31.563557722100917 32.1769
31.586694641341655 31.9125
31.609832881979628 31.7748
31.63315322823208 31.8535
31.656294125521327 31.5805
31.679436347728515 31.5922
31.70257989602529 31.4627
31.725905596152327 31.4576
31.74905181052835 31.3907
31.772199354521323 31.448
31.79534822930507 31.3843
31.818679302290967 31.434
31.84183085259981 31.32
31.864983737233473 31.3369
31.88813795736804 31.3663
31.911474422233013 31.2587
31.934631327356435 31.193
31.9577895715215 31.1998
31.980949155906522 31.221
32.004291031706956 31.2138
32.027453310562606 31.1306
32.05061693318573 31.1076
32.07396288236386 31.0525
32.09712920658542 30.9866
32.12029687812702 30.8777
32.14346589817093 30.7494
32.166817291729984 30.7614
32.18998902288583 30.663
32.21316210610336 30.5653
32.23633654256711 30.4935
32.259693399663725 30.4579
32.282870556771144 30.4113
32.30604907069099 30.4532
32.329228942610065 30.2737
32.35259128243769 30.1969
32.375773884550505 30.2399
32.398957848235646 30.2102
32.422143174682176 29.9804
32.445511016471215 29.9546
32.468699082679954 29.8854
32.49188851523011 29.938000000000002
32.51507931531304 29.8705
32.538452678331 29.9132
32.56164622776311 29.7604
32.58484114831493 29.6774
32.60803744118015 29.6845
32.631416344731896 29.6868
32.654615396551876 29.6261
32.67781582427913 29.6159
32.701198898634416 29.4839
32.72440209253756 29.4937
32.747606665947124 29.4673
32.77081262006088 29.2533
32.79420126883317 29.2991
32.81740999876112 29.325
32.840620112999424 29.2039
32.86383161274818 29.1999
32.88722585534586 29.2274
32.91044014056596 29.2723
32.933655814909734 29.2021
32.95687287957963 29.1272
32.98027273544904 29.0661
33.00349259526636 29.0453
33.026713849030116 29.0338
33.04993649794511 29.0028
33.073341986570746 28.8788
33.09656744032826 28.8403
33.11979429286444 28.8908
33.14302254538647 29.0227
33.166433686291185 28.8871
33.18966475336992 28.8113
33.212897224069096 28.7056
33.23613109959831 28.6836
33.259547912343415 28.6955
33.2827846121627 28.7384
33.306022720453775 28.6179
33.32926223842861 28.5349
33.352684742614166 28.5454
33.37592709463173 28.5273
33.399170859982064 28.4011
33.422597648419426 28.4204
33.44584425514446 28.2865
33.46909227885668 28.2537
33.4923417207723 28.121
33.51577423505344 28.2086
33.539026528130385 27.963
33.56228024307245 28.0443
33.585535381098246 27.8959
33.60897364093058 27.9249
33.63223163992385 27.8704
33.6554910656699 27.7223
33.678751919389796 27.7385
33.702195944520106 27.7783
33.72545966903325 27.7875
33.74872482519663 27.5958
33.771991414233746 27.6531
33.79544122444841 27.5175
33.81871069412428 27.5401
33.84198160035767 27.4175
33.86525394437455 27.4622
33.88870955949969 27.4386
33.911984794020626 27.3974
33.93526147001624 27.354
33.958539588715006 27.2986
33.98200102861669 27.1964
34.0052820477047 27.1093
34.02856451319451 27.1626
34.05203033759056 27.0502
34.07531571090147 26.9938
34.09860253431845 26.9529
34.121890809074316 26.9233
34.145362493118924 26.96
34.16865368561615 26.8881
34.191946333164054 26.9044
34.21524043699793 26.897
34.23871800066799 26.7993
34.26201503218366 26.6856
34.28531352370466 26.6566
34.30861347646881 26.5818
34.33209693978188 26.5057
34.3553998301885 26.5778
34.378704185565205 26.4975
34.402010007152356 26.427
34.42549939016683 26.4782
34.44880815937748 26.3533
34.472118398533134 26.3048
34.49543010887669 26.2494
34.51892543169198 26.2107
34.54224009966052 26.2243
34.56555624255917 26.1492
34.58887386163339 26.0941
34.61237514439016 26.1528
34.6356957311114 26.0023
34.65901779775809 26.0382
34.68252356662995 25.9312
34.705848608458616 25.926
34.72917513396849 25.7775
34.75250314440949 25.7799
34.77601490857862 25.6702
34.799345904259795 25.6917
34.82267838863559 25.7397
34.846012362958525 25.7102
34.869530142679984 25.6552
34.89286711232212 25.6055
34.91620557568269 25.5767
34.93954553401677 25.5669
34.9630693495876 25.4798
34.986412313340814 25.4245
35.00975677584668 25.5089
35.033102738362956 25.3975
35.05663261012228 25.3356
35.0799815881786 25.3951
35.10333207003229 25.2793
35.12668405694369 25.247
35.150220005273056 25.2575
35.17357501786656 25.2935
35.19693153931268 25.1777
35.220289570874385 25.1791
35.24383161619786 25.1967
35.267192683604904 25.112
35.290555264930376 25.1205
35.314101899412165 25.0424
35.33746752422433 25.0333
35.36083466676374 25.0012
35.38420332829803 24.9408
35.407756095629054 24.9899
35.43112781085063 24.8887
35.45450104888391 24.866
35.477875810999194 24.951999999999998
35.50143473172161 24.7607
35.52481255774625 24.8802
35.54819191167777 24.8034
35.57157279478914 24.7237
35.595137889488406 24.6782
35.61852184675279 24.6889
35.641907337029984 24.6583
35.665294361595684 24.5923
35.68886565090076 24.4879
35.7122557598848 24.4452
35.73564740699838 24.4404
35.759040593519934 24.4966
35.78261809810353 24.5198
35.80601437933051 24.3157
35.829412203814705 24.2847
35.85281157283719 24.2056
35.876395313415884 24.2685
35.8997977874528 24.1881
35.92320180988546 24.2101
35.946790244133936 24.1487
35.97019737933222 24.0688
35.993606066789866 24.0061
36.01701630779276 24.0599
36.04061101440684 23.973000000000003
36.06402437852291 23.9711
36.08743930005611 23.9745
36.1108557802951 23.8473
36.13445678011326 23.9155
36.15787639383515 23.8586
36.18129757014299 23.7437
36.20472031032821 23.6914
36.22832762423364 23.5893
36.25175350829375 23.6888
36.275180960119776 23.5489
36.298609981005924 23.5062
36.32222362992669 23.5177
36.34565580510207 23.5334
36.36908955323448 23.493000000000002
36.39252487562093 23.3759
36.416144880530226 23.2981
36.43958336764275 23.3318
36.463023432914625 23.3069
36.486465077645676 23.261
36.51009145956204 23.3411
36.53353627947859 23.3629
36.55698268276811 23.298000000000002
36.58043067073321 23.2122
36.60406345072071 23.133000000000003
36.62751462435344 23.1897
36.65096738658405 23.1382
36.67460498210655 23.0262
36.69806093788647 22.9933
36.72151848619297 22.9426
36.744977628333636 23.0104
36.76862165890998 22.9169
36.79208400512205 22.8966
36.81554794910557 22.8784
36.83901349217101 22.8212
36.862663978991606 22.7586
36.88613273667352 22.6673
36.90960309738324 22.7512
36.933075062434064 22.6441
36.95673202673572 22.6129
36.98020721697122 22.6086
37.003684015502365 22.4713
37.027162423645365 22.4389
37.050825886711465 22.4351
37.07430753063053 22.3558
37.09779078812467 22.3827
37.121275660513014 22.2968
37.144945643673694 22.3216
37.16843376245278 22.2922
37.19192350009803 22.2793
37.215414857931435 22.2491
37.239091382563885 22.1897
37.262585997426164 22.1225
37.28608223645736 22.122
37.309763684451696 22.0868
37.33326318851098 22.0351
37.356764320726555 21.9963
37.380267082425526 21.9849
37.40395510942588 21.9573
37.42746114683234 21.9109
37.45096881771841 21.9227
37.474478123414166 21.8857
37.49817275092816 21.8086
37.52168534303452 21.7729
37.54519957395567 21.7222
37.568715445024665 21.6867
37.592416694607714 21.6438
37.61593586281424 21.6968
37.63945667518264 21.6748
37.66297913304891 21.5456
37.68668702630454 21.5658
37.710212792059274 21.506
37.733740207334854 21.4403
37.757269273470364 21.361
37.780983832050374 21.3003
37.80451621684926 21.3004
37.82805025654007 21.3487
37.851585952464795 21.2648
37.8753071980695 21.2393
37.89884622345676 21.2163
37.92238690911902 21.1534
37.94611318753442 21.0677
37.969657210779765 21.0131
37.99320289834801 21.0188
38.016750251586465 20.9766
38.04048325513017 20.9499
38.06403395679343 20.9565
38.087586328183946 20.9233
38.11114037065203 20.9296
38.13488012115898 20.8408
38.1584375229181 20.7544
38.181996599821 20.7329
38.205557353221124 20.7769
38.229303872575656 20.7442
38.2528679961576 20.6932
38.27643380031219 20.6823
38.30000128639589 20.6532
38.32375459653193 20.6278
38.34732546371299 20.6335
38.37089801690786 20.5175
38.39447225747609 20.4797
38.418232380377425 20.4143
38.441810012983396 20.521
38.46538933705673 20.4513
38.488970353960084 20.4322
38.51273731166058 20.3849
38.536321731567014 20.3233
38.55990784840681 20.3085
38.58367995004091 20.2819
38.60726947812959 20.1886
38.63086070726198 20.2078
38.654453638806274 20.212
38.678232613930824 20.1455
38.70182896773327 20.0969
38.72542702806741 20.0542
38.7490267963045 20.0589
38.77281266709232 19.9888
38.79641586862214 19.9305
38.8200207821842 19.9456
38.843627409152944 19.941
38.86742019782782 19.8212
38.891030269149255 19.8718
38.914642058016156 19.8619
38.938255565806124 19.8349
38.96205529464307 19.7813
38.98567225787121 19.7685
39.00929094417078 19.7224
39.03291135492255 19.6705
39.05671804624804 19.6474
39.080341923549106 19.612000000000002
39.103967529460334 19.5862
39.127594865365744 19.4514
39.15140854155791 19.4556
39.17503935514948 19.4578
39.19867190290282 19.4894
39.22249083587951 19.4216
39.24612686969409 19.4932
39.269764641845306 19.3742
39.293404153722804 19.3008
39.317230110864074 19.224
39.34087311998506 19.2745
39.36451787301696 19.2976
39.388164371352595 19.2167
39.41199737518003 19.1391
39.43564738196752 19.0934
39.45929913825317 19.1231
39.48295264543308 19.0404
39.506792718520884 19.0472
39.530449745387216 18.9189
39.55410852735203 18.907
39.57776906581474 18.902
39.60161623079 18.9029
39.625280300200025 18.8927
39.64894613032202 18.8312
39.67261372255866 18.8684
39.6964680021016 18.7955
39.72013913657293 18.7717
39.74381203738292 18.8252
39.76748670593756 18.7218
39.79134812278169 18.7197
39.81502634488497 18.6298
39.83870633896685 18.6415
39.862388106436654 18.5961
39.88625668336918 18.5146
39.90994201572829 18.5643
39.933629125719285 18.4915
39.957503091207826 18.4694
39.9811937746168 18.5199
40.00488623990914 18.416
40.02858048850006 18.4195
40.05246165409549 18.3739
40.076159487492085 18.3239
40.099859108448875 18.3191
40.123560518384345 18.2683
40.1474489070226 18.2576
40.171153913178564 18.2201
40.194860712584955 18.1545
40.2185693066637 18.165
40.242464941335314 18.146
40.26617714307655 18.0708
40.289891143772046 18.0852
40.3136069448471 18.0186
40.33750984859743 18.0436
40.3612292688043 18.0198
40.3849504936829 17.8988
40.40867352466194 17.9433
40.43258372059144 17.8585
40.45631038219906 17.9172
40.48003885420956 17.8556
40.503769138055105 17.8105
40.52768664931955 17.767
40.55142057531802 17.7926
40.57515631746428 17.7437
40.599079334038514 17.709
40.62281872700477 17.6545
40.64655994043941 17.6132
40.67030297578061 17.637999999999998
40.69423334835778 17.5611
40.71798004609188 17.5078
40.74172857006355 17.5527
40.76547892171441 17.4697
40.7894166736039 17.4726
40.813170699248566 17.4409
40.83692655691388 17.4145
40.86068424804498 17.4405
40.884629402612525 17.4079
40.908390779366385 17.3615
40.932153993938 17.2877
40.95591904777605 17.2778
40.979871628443995 17.305999999999997
41.003640379561936 17.2688
41.02741097430883 17.2166
41.05118341413683 17.2268
41.075143444384416 17.1416
41.098919593177826 17.121
41.1226975914255 17.0497
41.14647744058318 17.0743
41.170444943946755 17.0429
41.19422851378379 17.0046
41.218013938914645 16.9138
41.24198706625173 16.9073
41.26577622087193 16.8768
41.289567235177785 16.889
41.31336011063129 16.9422
41.337340752422875 16.8082
41.361137369129835 16.8612
41.38493585138705 16.7849
41.40873620066004 16.7377
41.43272438060107 16.6914
41.45652848292052 16.6408
41.48033445666918 16.6024
41.50414230331616 16.6553
41.528138045159764 16.6123
41.551949656675205 16.5521
41.575763145513235 16.5401
41.59957851314666 16.5885
41.62358184070442 16.4853
41.64740098505737 16.4797
41.6712220126409 16.4292
41.69504492493139 16.4125
41.71905586207357 16.3785
41.74288256296395 16.3811
41.766711153007456 16.3686
41.79054163368412 16.3396
41.814560204340054 16.3115
41.838394485526365 16.2438
41.86223066180303 16.2528
41.88625497706819 16.1597
41.910094962812 16.1349
41.93393684811168 16.1058
41.95778063445365 16.0376
41.981812625263366 16.033
42.00566023303407 16.0376
42.029509746323676 15.9688
42.05336116662236 15.9811
42.077400857069705 16.0228
42.10125611078846 16.0111
42.12511327600405 15.9266
42.14897235421036 15.9136
42.173019768448455 15.8485
42.19688269209613 15.7874
42.22074753323349 15.7914
42.24461429335818 15.8036
42.268669455600495 15.735999999999999
42.292540073217886 15.7589
42.31641261433284 15.752
42.34028708044675 15.7159
42.36435001496739 15.7058
42.38822835065557 15.6797
42.41210861586426 15.5969
42.4359908120986 15.5862
42.46006154323262 15.5817
42.48394762115317 15.5019
42.507835634632315 15.5265
42.531912233047436 15.4857
42.55580413732265 15.4697
42.579697981698 15.4514
42.60359376768525 15.3804
42.62767820545945 15.3345
42.65157789440821 15.2872
42.67547952952185 15.3375
42.699383112316 15.2809
42.72347541395347 15.2436
42.74738291190531 15.1767
42.771292362102166 15.2412
42.795203766063516 15.2524
42.819303956130405 15.192
42.843219287476536 15.1727
42.86713657716324 15.138
42.89105582671383 15.099
42.91516392983864 15.0691
42.939087119032166 15.0789
42.963012272677304 15.0041
42.98693939230129 14.9901
43.01105543317513 14.9485
43.034986504731386 14.9329
43.05891954686589 14.8388
43.08285456110972 14.8765
43.10697856448665 14.8519
43.130917542983475 14.7825
43.15485849820081 14.7894
43.17880143167367 14.7524
43.20293342237094 14.7308
43.226880332449 14.6906
43.25082922540554 14.716
43.27496722682525 14.708
43.29892010567796 14.6661
43.32287497204102 14.6245
43.34683182745632 14.5637
43.370977859791836 14.5024
43.39493871351105 14.5376
43.41890156092628 14.564
43.44286640358341 14.5342
43.46702049182749 14.4393
43.49098934522816 14.3863
43.51496019852649 14.4071
43.5389330532723 14.4285
43.56309522248204 14.3461
43.58707210044314 14.3831
43.61105098451946 14.3493
43.63503187626491 14.2967
43.659202151562134 14.2697
43.68318707902681 14.2297
43.70717401884041 14.2176
43.731162972560874 14.1783
43.75534137913236 14.157
43.779334381108384 14.1701
43.803329401683186 14.1061
43.82732644241872 14.1274
43.8515130055166 14.0971
43.87551410707659 14.0412
43.89951723350145 14.0766
43.923709934595614 14.0094
43.94771713129917 14.0151
43.97172635758096 13.9789
43.99573761501002 13.9663
44.0199385169922 13.9322
44.04395385732619 13.8763
44.067971233533086 13.904000000000002
44.09199064718605 13.8592
44.11619977548961 13.8012
44.14022328470671 13.7483
44.16424883610785 13.7659
44.18827643127035 13.686
44.21249381139513 13.6946
44.236525514814076 13.6556
44.26055926674478 13.6572
44.28459506876863 13.7139
44.3088207262813 13.6077
44.33286064928722 13.5905
44.35690262714919 13.548
44.38094666145278 13.5071
44.4051806219871 13.5611
44.42922879003185 13.5231
44.45327901929361 13.4748
44.477331311362136 13.4429
44.501573600619416 13.4079
44.525630039221795 13.4072
44.54968854541895 13.3834
44.573937102200176 13.3796
44.5979997645541 13.3385
44.622064499300315 13.2613
44.64613130803592 13.3086
44.67038823869318 13.2661
44.69445921643748 13.1818
44.718532272981385 13.18
44.742607409926194 13.1964
44.76687274034801 13.1838
44.79095205918753 13.0983
44.81503346325094 13.1456
44.839116954143876 13.1525
44.86339071028742 13.0841
44.88747839599524 13.0486
44.91156817336837 13.0102
44.93566004401666 13.0364
44.959942251908146 12.9955
44.984038330325966 12.9555
45.00813650686762 12.8884
45.03223678314731 12.889000000000001
45.05652746888232 12.9266
45.08063196592069 12.9087
45.104738567558705 12.8656
45.128847275414856 12.8193
45.15314646515866 12.7921
45.17725940679741 12.7984
45.20137445952892 12.7405
45.22568004865265 12.7802
45.24979934496396 12.7257
45.27392075725247 12.7332
45.29804428714431 12.6747
45.322358426247604 12.6764
45.346486212804315 12.6528
45.370616121861914 12.5779
45.39474815505086 12.5553
45.41907087049246 12.5419
45.4432071734666 12.4634
45.46734560548283 12.475
45.49148616817604 12.5134
45.51581748638564 12.469000000000001
45.5399623320197 12.4564
45.56410931325473 12.3997
45.58825843173002 12.3856
45.61259837920865 12.384
45.636751793816 12.3805
45.66090735060093 12.323
45.68506505120716 12.3051
45.7094136545275 12.2831
45.73357566449271 12.2688
45.75773982322992 12.2669
45.78190613238733 12.2521
45.806263418194064 12.208
45.83043404997326 12.2412
45.85460683713677 12.1416
45.87897065658495 12.1164
45.90314777634752 12.1126
45.92732705646868 12.0705
45.9515084986045 12.0532
45.97588104735473 12.0785
46.00006683541565 12.019
46.02425479047904 12.012
46.04844491420549 11.9844
46.0728262191024 11.9522
46.09702070211635 11.9467
46.12121735879483 11.915999999999999
46.14541619080294 11.8928
46.169806278764455 11.8671
46.194009483459034 11.8706
46.21821486849841 11.8254
46.24242243555223 11.8149
46.266821333570014 11.782
46.29103328674601 11.7545
46.31524742696538 11.7829
46.33946375590237 11.7404
46.36387149104216 11.7108
46.38809221957392 11.6627
46.41231514186606 11.6502
46.436540259597464 11.6378
46.460956858999374 11.6377
46.48518638983522 11.6221
46.509418121166966 11.5785
46.533652054678114 11.5176
46.55807754555709 11.5259
46.58231590571962 11.523
46.60655647313217 11.4878
46.630988654873654 11.4662
46.655233659129024 11.4651
46.67948087571551 11.4052
46.70373030632484 11.425999999999998
46.72817142736393 11.402000000000001
46.752425308428684 11.4051
46.77668140861147 11.3674
46.80093972960865 11.3292
46.82538981736788 11.3146
46.849652602470904 11.2318
46.87391761349769 11.2453
46.8981848521493 11.2697
46.9226439341274 11.2056
46.946915650573224 11.1963
46.97118959976749 11.1469
46.99546578341598 11.1785
47.019933887188216 11.1348
47.04421456235744 11.1071
47.06849747711879 11.0625
47.09278263318286 11.0511
47.11725978640143 11.0276
47.14154944775105 11.0297
47.165841355555656 11.0173
47.1901355115306 10.9825
47.214621741924994 10.969000000000001
47.23892041698887 10.9628
47.26322134538975 10.9257
47.28771440635075 10.889000000000001
47.31201986422527 10.9148
47.33632758061436 10.8702
47.360637557241866 10.8435
47.38513974410611 10.8398
47.40945426407847 10.7905
47.43377104948137 10.7868
47.45809010204344 10.7756
47.48260144275502 10.7675
47.506925052572285 10.6981
47.53125093475548 10.7167
47.55557909103813 10.7127
47.58009961361992 10.6398
47.60443234110732 10.6674
47.62876734791564 10.6493
47.65310463578333 10.6449
47.6776343683373 10.58
47.7019762413987 10.5555
47.72632040075572 10.5625
47.75066684815169 10.5362
47.77520581885936 10.4999
47.799556865477655 10.5014
47.823910205386 10.5158
47.84826584033272 10.4402
47.87281407745551 10.4235
47.89717432569297 10.4201
47.92153687423484 10.4034
47.94609208429692 10.3854
47.97045925671401 10.3515
47.99482873471275 10.3741
48.01920052005013 10.3397
48.04376504619224 10.3277
48.068141469543484 10.3042
48.09252020552573 10.2545
48.11690125590099 10.2207
48.1414751266064 10.2085
48.16586082917454 10.2332
48.19024885144316 10.2121
48.2146391951793 10.1896
48.239222439012764 10.1896
48.26361744916137 10.1381
48.28801478610016 10.1652
48.31241445160131 10.157
48.337007097209366 10.0954
48.36141144338331 10.0714
48.38581812345755 10.0798
48.41022713920929 10.0106
48.434829215320704 10.0253
48.45924292604658 9.98355
48.48365897780325 10.0285
48.50807737237308 9.96898
48.532688907799276 9.92578
48.55711201168574 9.90842
48.581537463754074 9.9318
48.60615611725119 9.92813
48.63058628942721 9.872110000000001
48.65501881516546 9.89284
48.6794536962573 9.86143
48.70408185970339 9.84276
48.72852147531801 9.82364
48.75296345168211 9.774510000000001
48.77740779059232 9.76978
48.80204549302823 9.78227
48.82649458091802 9.72869
48.85094603676547 9.671330000000001
48.87539986237231 9.68158
48.90004713292306 9.7004
48.92450572200832 9.695030000000001
48.94896668628025 9.667
48.97343002754588 9.6539
48.99808689542115 9.60714
49.02255501470614 9.60251
49.04702551642794 9.58808
49.0714984023988 9.58275
49.096164896893235 9.51233
49.120642575466796 9.52021
49.145122643748394 9.49495
49.16960510355558 9.47103
49.19428125404938 9.46455
49.2187685210852 9.43388
49.243258185121555 9.43638
49.26794160167084 9.40339
49.2924360839405 9.388010000000001
49.31693296869764 9.35087
49.34143225776915 9.34562
49.36612538195438 9.32271
49.39062950396021 9.31526
49.41513603578346 9.29579
49.4396449792564 9.2829
49.46434784069503 9.26962
49.488861631846454 9.23137
49.513377840166804 9.21884
49.537896467493745 9.17238
49.56260909589029 9.189960000000001
49.587132585683285 9.18593
49.611658500018365 9.17116
49.636186840738596 9.13723
49.66090926588511 9.14147
49.685442483902584 9.117460000000001
49.70997813385706 9.05358
49.734516217597076 9.082130000000001
49.75924846937352 9.03921
49.7837914452858 9.04149
49.80833686055187 9.01406
49.83288471702571 8.979510000000001
49.85762682540054 8.959430000000001
49.882179588965734 8.93546
49.9067347993235 8.9315
49.93129245833333 8.91798
49.95604445336378 8.92545
49.98060703442832 8.84812
50.005172069746266 8.86159
50.02993150438364 8.893839999999999
50.05450147301533 8.838
50.07907390151433 8.83003
50.10364879174981 8.803469999999999
50.12841816587289 8.81209
50.1529980044635 8.783719999999999
50.17758031042124 8.75537
50.20216508562089 8.75243
50.22694442953363 8.75995
50.25153416817468 8.72665
50.27612638170508 8.6957
50.300721072005196 8.691360000000001
50.325510416102105 8.62952
50.350110084975064 8.642560000000001
50.37471223628208 8.59549
50.39931687190919 8.60138
50.424116246675766 8.59349
50.44872587605249 8.568660000000001
50.47333799543065 8.58897
50.49795260670191 8.54945
50.52276204271512 8.51718
50.54738166295838 8.489889999999999
50.57200378079314 8.508939999999999
50.596628398116835 8.478819999999999
50.62144792604559 8.479339999999999
50.646077567609396 8.43559
50.670709714377715 8.4501
50.69553683636198 8.43344
50.72017401885922 8.39869
50.7448137122895 8.386439999999999
50.76945591856022 8.357339999999999
50.79429318636823 8.359589999999999
50.818940443716784 8.33956
50.84359021965163 8.28796
50.868242516085964 8.29561
50.893089960641895 8.27595
50.917747323549435 8.28474
50.94240721271973 8.23542
50.96706963007175 8.19628
50.99192728239342 8.22207
51.01659478166073 8.20894
51.04126481489051 8.19027
51.06593738400761 8.17715
51.090805275207074 8.18442
51.11548294172845 8.15593
51.14016314993547 8.10427
51.164845901758845 8.11024
51.18972406304274 8.09089
51.21441192780656 8.06012
51.23910234200271 8.02149
51.2637953075678 8.02328
51.288683770237945 8.00756
51.31338186432707 7.98796
51.33808251561888 7.97468
51.362978729967345 7.952260000000001
51.387684521509755 7.93602
51.41239287610203 7.9523
51.437103795691165 7.90775
51.46201036644977 7.8979
51.486726441956634 7.86918
51.51144508832545 7.900989999999999
51.536166307509156 7.87415
51.56108326624387 7.82903
51.58580965706056 7.80168
51.61053862657523 7.8304800000000006
51.635270176746864 7.75714
51.66019755512065 7.800910000000001
51.68493429268881 7.77389
51.70967361681515 7.72655
51.73441552946465 7.74405
51.759353359237934 7.7101
51.7841004750961 7.696610000000001
51.80885018539685 7.6937
51.833602492111254 7.645160000000001
51.8585508051424 7.63876
51.883308330926425 7.62312
51.90806845906181 7.58372
51.932831191525715 7.558210000000001
51.95779001977161 7.57107
51.98255798721516 7.5426
52.00732856494335 7.530539999999999
52.03229530577543 7.517410000000001
52.057071130455945 7.507680000000001
52.081849571391054 7.464580000000001
52.106630630568695 7.46985
52.13160794279417 7.453360000000001
52.15639426492067 7.470110000000001
52.18118321127822 7.45166
52.205974783860896 7.440639999999999
52.23096269971011 7.4110000000000005
52.255759551287994 7.39158
52.280559035098186 7.39805
52.30536115314103 7.39812
52.33035970494467 7.362710000000001
52.35516711807904 7.32225
52.37997717147198 7.28105
52.40478986713005 7.304189999999999
52.42979908731974 7.2944
52.454617094216 7.30191
52.47943774942214 7.251860000000001
52.50426105495102 7.24701
52.529280976059844 7.2156199999999995
52.554109609024096 7.2016
52.57894089837482 7.164810000000001
52.60377484613117 7.162439999999999
52.62880550079408 7.16012
52.65364479223379 7.151489999999999
52.67848674816189 7.116789999999999
52.70352547971946 7.13474
52.72837279155837 7.131539999999999
52.753222773982785 7.0899600000000005
52.778075429022984 7.13744
52.80312495150885 7.0975
52.827982978797436 7.01704
52.85284368481815 7.0239899999999995
52.87770707160767 6.99682
52.90276741793998 7.03246
52.92763619336701 6.96845
52.952507655698504 6.953010000000001
52.977381806977576 6.94946
53.00245301017842 6.928539999999999
53.02733256653592 6.941960000000001
53.052214817996074 6.92069
53.077099766608484 6.90503
53.102181859804446 6.8592
53.127072229988265 6.890610000000001
53.15196530349892 6.80652
53.17686108239249 6.81952
53.20195409881522 6.824510000000001
53.22685531582556 6.80457
53.25175924441303 6.7687800000000005
53.27666588664027 6.78372
53.30176985962693 6.81647
53.3266819565689 6.7664
53.35159677336455 6.71317
53.376514312083096 6.750589999999999
53.40162927507703 6.7320899999999995
53.42655228516116 6.715839999999999
53.45147802340193 6.6996
53.47660125628886 6.69572
53.50153247842639 6.671189999999999
53.52646643496923 6.65402
53.55140312799818 6.6492
53.576537409691696 6.60235
53.60147960336152 6.57115
53.626424539786164 6.5721
53.65137222105307 6.582210000000001
53.67651758529126 6.556039999999999
53.70147078399681 6.50281
53.72642673383343 6.53306
53.75138543689533 6.482
53.776541917524526 6.524780000000001
53.801506154876755 6.50729
53.826473151763246 6.48376
53.851442910284916 6.45751
53.87661054126026 6.46434
53.9015858509782 6.40842
53.92656392866066 6.403580000000001
53.95154477641532 6.39429
53.976723591801296 6.347580000000001
54.00171000771266 6.34812
54.02669920004598 6.38716
54.051691170915745 6.33017
54.076881204886796 6.32435
54.101878760928514 6.31629
54.12687910187696 6.3381
54.152077577768296 6.29018
54.1770835166946 6.255269999999999
54.20209224691339 6.2357
54.22710377055121 6.24193
54.25231352511594 6.22095
54.27733066384342 6.15907
54.30235060239643 6.21304
54.32737334290836 6.20869
54.35259441062629 6.16308
54.377622783395324 6.1115699999999995
54.40265396455061 6.13604
54.42768795623251 6.09115
54.45292037169559 6.09593
54.477960012857906 6.05302
54.50300247099511 6.0208699999999995
54.52804774825457 6.02489
54.55329154616743 5.985
54.57834249018678 5.9612099999999995
54.6033962597977 5.941
54.6284528571545 5.95622
54.653708072335164 5.89208
54.67877035378786 5.88874
54.70383546947698 5.82461
54.72890342156389 5.83591
54.7541700889442 5.86503
54.77924374251975 5.81841
54.8043202390049 5.79166
54.82959552413022 5.72432
54.8546777351945 5.75309
54.87976279569621 5.74562
54.90485070780914 5.780819999999999
54.930137506558005 5.68794
54.95523115074295 5.66899
54.98032765308844 5.635269999999999
55.005427015775496 5.64499
55.03072536339621 5.60542
55.05583047570572 5.58097
55.080938454927676 5.56907
55.10604930325027 5.53083
55.131359235107396 5.57184
55.15647585066083 5.4511400000000005
55.181595341907496 5.477130000000001
55.20671771104285 5.45616
55.232039262617704 5.4515199999999995
55.25716741665048 5.3747
55.28229845518636 5.405819999999999
55.30743238042802 5.33934
55.33276558731939 5.32677
55.357905315183636 5.34126
55.383047936390035 5.246919999999999
55.40819345314859 5.21344
55.433538351073295 5.2331199999999995
55.458689688238415 5.21319
55.483843927614096 5.176069999999999
55.509197623043605 5.15975
55.53435769621134 5.10459
55.55952067826466 5.1029800000000005
55.5846865714265 5.11656
55.61005202069737 5.05805
55.63522376553902 5.06406
55.66039842818645 5.08277
55.68557601087004 5.03655
55.7109532500271 4.95606
55.73613670233794 5.0292
