TT I
1.2716486653135266 7.091410000000001
1.2939594142134223 7.01565
1.3162702121660406 7.20003
1.3385810600174564 7.153560000000001
1.3608919586137629 6.95775
1.383202908801069 6.79293
1.405513911425503 5.82408
1.4278249673332093 6.657939999999999
1.4501343378461518 6.61935
1.4724455028545926 5.97464
1.4947567236847858 5.869
1.517068001182951 6.36705
1.5393793361953272 5.15109
1.5616907295681737 4.986269999999999
1.5840021821477681 4.87411
1.60631369478041 4.69862
1.6286252683124185 5.36499
1.6509369035901333 4.83256
1.6732468618895553 4.90729
1.695558623192809 4.74349
1.7178704487808514 4.39133
1.7401823395001077 4.2464900000000005
1.7625012545597203 5.12795
1.7848028405262486 5.11981
1.8071218901122095 4.26539
1.8294236121921872 4.84676
1.8517427996910911 4.81495
1.8740620574440425 4.52988
1.8963639900671978 4.99201
1.9186833908139995 5.21596
1.9409854680117449 5.29626
1.9633050151394713 4.87024
1.9856246367570705 5.06515
2.0079269371922672 4.9023
2.03024671027244 4.92686
2.0525491637446027 4.713480000000001
2.074869091674931 4.6251
2.097171701569106 4.5635699999999995
2.1194917877373847 4.6214
2.141811954326636 4.94099
2.164114805233074 5.20622
2.186435135143035 6.55938
2.208738150935709 15.1372
2.231058647554722 32.7867
2.2533792288321184 25.4545
2.275682498336085 11.6833
2.298003251406138 6.14801
2.3203066942619714 5.55025
2.3426276225136022 5.25286
2.3649486396617507 5.95291
2.387252348930071 5.90038
2.4095735463442893 5.53602
2.4318774374315884 5.8466
2.4541988185014043 6.8387199999999995
2.476502894794693 6.63775
2.498824462909887 7.34063
2.521146125856138 6.6904699999999995
2.5434504863470337 6.64439
2.5657723414244717 7.515060000000001
2.588076895590662 8.29712
2.610398946189713 8.546330000000001
2.6327210958598384 8.16105
2.6550259469304716 7.980389999999999
2.6773482972090137 7.94561
2.6996533504259 7.9691
2.7219759047039602 8.49602
2.744298562293959 8.21802
2.7666039251246595 8.34897
2.7889267918020164 8.20834
2.8112323652516555 8.06846
2.833555444408179 8.21654
2.8558786311183852 8.25278
2.8781845268938557 8.87148
2.9005079311721484 9.24075
2.9228140460410397 8.98671
2.9451376712799635 9.24333
2.967444008632326 9.62553
2.9897678582247247 10.039
3.0120918213106695 10.3595
3.0343984987899373 10.2011
3.0567226913198637 10.9294
3.079029599759726 11.3036
3.101354025127254 11.7869
3.123678568232338 12.6801
3.145985829517914 12.9154
3.16831061055229 13.7281
3.1906181112775593 14.5792
3.212943133635653 15.0922
3.2352682779763207 15.2832
3.2575761442691227 15.2494
3.2799015350264273 15.6236
3.302209649240067 16.3601
3.3245352898092655 16.8369
3.3468436553365257 17.2334
3.369169549113219 17.6152
3.3914955708171384 18.6755
3.413804319727358 19.2822
3.4361305997334863 19.0683
3.4584396084414553 19.5136
3.4807661501462652 20.294
3.503092824025881 20.9111
3.5254022288463154 21.3587
3.5477291695206588 21.5178
3.5700388426251948 22.7982
3.5923660534916446 24.1536
3.6146934007816114 41.3377
3.637003482731501 101.345
3.6593311053109985 115.57600000000001
3.681641464033634 63.9552
3.7039693653009733 32.2513
3.726297407241705 26.4177
3.7486081875460804 25.9119
3.7709365132734978 26.1995
3.793247578841633 26.491
3.8155761917550093 26.1801
3.8378875459837216 27.0016
3.8602164494827234 27.2923
3.882545499606844 28.3008
3.9048572932539183 28.6508
3.9271866390645718 29.0599
3.9494987298666713 29.9969
3.971828374764527 30.6987
3.9941581705403255 30.6468
4.016470713506008 31.4142
4.038800813471445 32.0813
4.061113662089144 32.2671
4.0834440696459176 33.6018
4.105774632334751 33.744
4.128087945865126 34.7863
4.150418821249301 35.81
4.172732448931298 37.5555
4.195063640413578 39.1912
4.2173775856475215 43.497
4.239709096631102 79.6432
4.262040768704612 275.758
4.284355196706267 380.06300000000005
4.306687193387355 244.33700000000002
4.329001947444346 90.57799999999999
4.35133427213731 49.4752
4.373666762177566 45.0365
4.395982011761091 44.592
4.418314834921175 46.0221
4.44063041906622 55.4284
4.4629635787515625 68.9625
4.4852969080429785 68.2932
4.5076130004776225 55.5068
4.529946671403969 50.5899
4.552263106909177 49.885
4.574597122877047 50.9864
4.596931312711224 51.9605
4.619248269273446 52.7403
4.6415828092605835 53.6677
4.663900117405352 55.2612
4.686235010953232 56.5132
4.708552674085913 57.7458
4.730887924602802 59.0417
4.753223354952695 60.6283
4.775541557023902 61.7276
4.797877349456786 63.1587
4.820195915032126 65.1
4.842532072957498 66.618
4.864868414979744 68.4829
4.88718753227192 70.5965
4.909524244902505 72.5402
4.931843734218147 74.4354
4.954180820867835 76.5914
4.976518095879839 79.71
4.998838149695359 82.5654
5.021175803844231 85.7944
5.043496238205739 88.4904
5.065834274903528 92.7248
5.088172504230693 97.7388
5.1104935158799565 103.28
5.132832132875765 126.06299999999999
5.155153533596801 174.80900000000003
5.1774925416746225 207.4
5.199814334878411 310.842
5.2221537374521505 852.7589999999999
5.244493338631803 2559.48
5.266815727034316 7403.53
5.289155727832427 12856.8
5.311478517248165 9283.43
5.333818921080011 2986.55
5.356159527788849 565.495
5.3784829252032536 186.12599999999998
5.400823940070432 144.398
5.423147747031976 128.11
5.445489173474152 118.464
5.467830807066149 112.43799999999999
5.490155234831516 108.22
5.512497285125229 104.897
5.534822130975162 103.26299999999999
5.557164601388673 101.175
5.579489868738879 98.5335
5.601832762690846 97.7113
5.6241758697774475 97.1263
5.646501775867269 95.9281
5.668845311622074 94.1301
5.691171647754637 93.3831
5.713515615597765 91.8028
5.735859800852677 90.8377
5.758186788542988 90.1661
5.780531411018185 90.7006
5.802858837297399 90.0153
5.825203900414495 89.8002
5.8475491852224 90.0177
5.869877275883075 90.0119
5.892223006467101 91.1125
5.914551544266608 92.2606
5.936897724049891 94.054
5.959244129804903 98.7213
5.981573344815301 112.061
6.0039202049061 181.986
6.026249875609095 392.13
6.04859719346037 857.193
6.070927323278297 2042.9
6.093275102315365 4286.36
6.115623113320588 5108.4
6.137953938319995 3204.54
6.160302415650845 993.105
6.182633708324452 235.87400000000002
6.2049826554078376 113.46
6.227331838745022 92.2684
6.249663839443684 84.5518
6.27201349767565 82.6143
6.294345974611799 90.4182
6.316696111167083 105.212
6.339046488263839 99.0624
6.361379686074702 81.9326
6.383730546639482 72.1395
6.406064229255215 68.8272
6.428415576718203 68.0775
6.450749747566656 67.1882
6.47310158535871 66.3728
6.495453669698332 64.8087
6.517788579421056 64.5176
6.540141159237969 63.5601
6.562476565766648 63.3588
6.5848296444934045 63.1669
6.607182974060425 62.6019
6.6295191323281015 62.7104
6.651872965955752 66.4488
6.6742096296068985 97.4062
6.6965639707294615 153.576
6.71891856698715 156.056
6.741255995248479 102.891
6.763611104154477 70.3792
6.785949046381137 60.9386
6.808304671371482 58.3201
6.8306605557940046 58.3058
6.852999275508618 57.2974
6.875355681171544 57.0087
6.897694923437771 56.6164
6.92005185377892 56.5481
6.9423916220322655 56.7569
6.964749080490181 55.7855
6.987106804399774 55.5761
7.009447368180821 55.863
7.031805625367033 55.303000000000004
7.054146723727803 55.5899
7.076505517631004 55.2086
7.098864581288365 55.4924
7.121206488070854 55.2288
7.143566093607822 54.7446
7.165908543567245 55.2221
7.188268694426048 55.4401
7.2106291193438095 55.7618
7.232972390625943 57.6251
7.255333366030969 72.2207
7.277677189091925 137.151
7.300038718428332 197.84799999999998
7.322400526130865 164.99400000000003
7.344745183422596 97.26
7.367107550224791 63.792
7.389452767901992 56.8938
7.411815697249891 55.3591
7.434161478756298 54.6044
7.456524974096713 54.552
7.478888753837185 54.5326
7.501235387657368 54.6613
7.523599738562711 54.8313
7.545946944825532 54.7508
7.568311870344528 55.1486
7.5906770845765665 55.4278
7.613025156078678 56.8854
7.635390950099687 58.5722
7.657739602662809 57.8041
7.680105979923558 56.1763
7.702472650212829 55.8081
7.724822180948224 55.6424
7.747189439655568 55.8725
7.769539560075357 56.2079
7.791907410653562 56.8365
7.81425812420825 56.3072
7.836626570110925 56.5968
7.858995315087906 57.1981
7.881346924933401 57.8132
7.903716270417482 58.4383
7.926068482028405 58.5761
7.948438431475253 59.2036
7.9708086843180235 59.3014
7.993161805171116 59.9131
8.015532667162402 60.1592
8.037886398416653 61.3369
8.060257873014221 62.0204
8.082629655331942 62.6462
8.104984308787587 63.571999999999996
8.127356708900503 67.4234
8.149711981398308 73.6828
8.172085002766314 76.5879
8.194458336181368 72.5637
8.216814543847752 69.2176
8.23918850371002 68.7866
8.26154533906492 69.738
8.283919928836452 71.206
8.306277395339652 71.8934
8.328652618483376 73.122
8.351028159736202 75.3906
8.373386579575245 77.2033
8.395762759396959 79.1273
8.418121819038275 84.5152
8.440498640894003 99.4042
8.462875785192262 115.109
8.485235811156207 122.97
8.507613602688501 151.971
8.529974277114228 224.82
8.552352719347912 349.108
8.574731488360351 599.654
8.59709314210385 1128.45
8.619472567021075 1811.94
8.64183487789147 2158.59
8.664214962183097 1834.25
8.686577933647762 1028.59
8.708958680784317 380.226
8.731339760774953 164.058
8.753703729764451 111.32700000000001
8.77608547780821 98.5921
8.798450116065078 94.9226
8.820832535634787 91.7506
8.843215292401656 90.5079
8.865580941199045 88.9744
8.887964374703538 88.0066
8.910330701447199 89.0755
8.932714815164482 92.3544
8.955099270424924 91.6436
8.977466620733543 87.9116
8.999851761421976 85.0875
9.022219798361645 83.3428
9.04460562795561 82.844
9.066991803441677 82.4383
9.089360876979615 82.4283
9.111747746589993 82.0987
9.13411751544971 81.2838
9.156505082664324 81.1188
9.178875550323522 81.5187
9.20126381862328 81.8904
9.223652438908596 82.4853
9.246023961427412 81.935
9.26841328802173 81.0777
9.290785518039224 81.5031
9.313175554425882 81.5688
9.335565947154315 81.4403
9.357939245086508 81.8345
9.380330352834827 82.012
9.40270436697103 82.4166
9.425096193225055 82.1158
9.447488380180165 83.052
9.469863475295412 83.1571
9.492256385987508 83.74700000000001
9.514632206018318 84.5256
9.537025843935714 84.65
9.559402392368193 85.4869
9.581796761000229 86.6798
9.604191496441521 87.5761
9.626569144158516 91.4783
9.648964615551032 96.9851
9.671343000390081 99.3893
9.693739211225699 96.6502
9.716135793237463 93.2513
9.738515290448102 92.3551
9.760912617143402 93.291
9.783292860202891 94.2379
9.805690935076182 95.4749
9.828089385495742 96.1248
9.850470754023561 99.0968
9.872869957865444 107.72399999999999
9.89525208097539 124.867
9.917652041736662 140.093
9.940052382417589 137.785
9.962435644102392 135.8
9.984836746950979 161.14600000000002
10.007220771957746 217.345
10.029622640473708 312.127
10.052007432299963 481.225
10.074410069984072 771.9019999999999
10.096813093716005 1242.8
10.119199042482517 1757.55
10.141602840636468 2012.39
10.163989564971628 1621.07
10.186394141051062 906.355
10.208799107559706 405.329
10.231187001965623 191.49900000000002
10.253592751657669 126.336
10.275981430388155 112.96
10.298387966769793 112.81700000000001
10.320794897965431 116.48899999999999
10.343184759907361 115.15
10.36559248305461 108.876
10.387983138083852 103.75200000000001
10.410391656691655 104.78
10.432800574501677 112.955
10.455192425893369 128.03799999999998
10.47760214443012 151.982
10.499994797678786 193.601
10.522405320453982 270.894
10.54479877906917 391.366
10.567210109595656 513.146
10.5896218454736 580.818
10.612016518879773 518.804
10.634429067781074 359.11
10.656824555333241 209.324
10.679237920773568 128.058
10.701651695961992 96.9431
10.724048411481384 88.8417
10.746463008485165 85.756
10.768860546937125 84.7907
10.791275969274796 82.8718
10.81369180576079 81.5133
10.836090585366925 80.7589
10.858507252467449 79.5739
10.88090686379991 78.5857
10.903324365036394 77.9735
10.925724811614439 78.0523
10.948143150509463 79.6315
10.970561909719066 78.9286
10.992963615930844 76.8787
11.015383218085756 74.8989
11.037785768347074 72.9716
11.06020621697282 72.1268
11.082627090322113 72.0177
11.105030913430326 71.7318
11.12745263854165 72.2874
11.149857314510728 76.5074
11.172279894912576 83.7593
11.194702904450653 84.992
11.217108866490921 80.2611
11.239532736615194 75.0708
11.26193956033512 72.6935
11.284364294577085 70.666
11.306789462371718 68.1691
11.329197585398376 66.8276
11.351623622610898 66.733
11.37403261614354 65.699
11.396459526308487 65.6164
11.418869393879497 65.191
11.441297180532617 64.8634
11.463725406927658 64.4062
11.486136592353875 64.3236
11.508565700543707 65.0361
11.530977768845315 67.7194
11.553407762368774 68.5848
11.575838200059769 67.8521
11.598251599479612 65.4815
11.620682927815501 63.8835
11.64309721895548 63.4666
11.665529441478206 62.9599
11.687962112597958 62.5626
11.710377748130886 62.6505
11.732811318753434 62.2783
11.755227854859067 62.6698
11.777662328529495 62.2419
11.800079768750786 62.0988
11.822515149015453 61.7342
11.844950984084935 62.0459
11.867369787303163 62.0128
11.889806534289491 62.1791
11.912226250487029 62.5701
11.934663912939751 62.3384
11.9571020346363 62.302
11.979523127133968 62.2719
12.001962169624331 62.9116
12.024384183972964 63.6884
12.046824150809913 66.1314
12.069264581333726 70.7543
12.091687985297767 76.6479
12.11412934550045 85.3289
12.136553680195208 99.2013
12.158995973632788 121.54299999999999
12.181438735204349 149.174
12.20386447284199 182.998
12.226308172985636 204.731
12.24873485024193 205.449
12.271179492516982 171.59900000000002
12.293607112949127 129.47899999999998
12.316052700916226 100.404
12.338498763250042 81.3234
12.360927805303868 71.1053
12.383374818673879 66.7362
12.405804812803074 64.4164
12.428252780773262 63.8132
12.45070122756722 63.6674
12.473132656675375 63.637
12.49558206341869 64.1747
12.518014453510101 63.964
12.540464823770117 64.1129
12.562915677315177 64.3078
12.58534951575545 65.3718
12.607801338171472 67.6756
12.630236146511358 73.7074
12.652688941369085 79.4207
12.675124723177234 79.8379
12.697578494048786 75.3399
12.720032754458185 70.331
12.742470003354093 67.6847
12.764925245138771 67.3904
12.787363476431278 67.6285
12.809819703166806 67.9723
12.83227642391173 68.6308
12.854716135692716 69.1336
12.877173846755147 70.3376
12.899614549869717 70.3373
12.9220732548287 71.2717
12.94453245827299 71.608
12.966974655289818 72.6393
12.989434858002571 73.44800000000001
13.011878055298721 73.8707
13.034339260862497 74.9668
13.056800969391883 76.0366
13.079245674017244 77.7849
13.101708390774869 79.33
13.12415410463411 85.2969
13.146617833206086 95.6805
13.169064559883248 106.76700000000001
13.191529303857127 120.58
13.213994557076367 141.524
13.236442809902437 177.136
13.258909083908291 229.697
13.28135835851934 296.474
13.30382565690295 371.269
13.326293469022952 426.5
13.348744283242008 426.13800000000003
13.371213125129904 365.56800000000004
13.39366497011003 268.903
13.416134845360597 179.416
13.438605238843131 126.369
13.46105863690397 104.77
13.483530069144786 102.287
13.505984506951902 106.586
13.528456981549432 114.794
13.550929978879088 128.341
13.573385983253365 150.793
13.595860028340867 188.55900000000003
13.618317081455832 241.05200000000002
13.64079217790333 299.366
13.663250283359057 344.55800000000005
13.685726434770173 374.593
13.708203115221277 341.814
13.730662806148091 262.942
13.75314054697177 187.812
13.775601299246777 129.17600000000002
13.798080104050406 97.6975
13.820559442405358 85.2241
13.843021793671388 81.1288
13.865502201420897 79.3642
13.887965623051947 78.8251
13.910447103807167 77.9756
13.932929122629764 76.4123
13.955394156785959 76.108
13.977877254034569 75.1539
14.000343367582113 74.1814
14.022827546871707 73.8973
14.045294743423524 73.1584
14.06778000837062 72.1377
14.090265817715476 72.0755
14.112734645763819 71.8953
14.13522154619454 71.9042
14.157691466286913 72.3107
14.180179461423874 71.8838
14.202668005486178 71.1301
14.22513957064374 70.4037
14.247629214846473 70.0362
14.270101881097517 69.6587
14.29259262906496 70.1646
14.315083930490205 71.0841
14.337558255389705 71.428
14.360050666019726 70.9311
14.382526101071944 69.8604
14.405019624534942 68.8148
14.427513705993134 68.3137
14.449990813291825 68.3698
14.47248601302899 68.1743
14.49496423954951 68.3193
14.517460561197822 68.2341
14.539939910570322 67.9435
14.562437357763558 68.5457
14.58493536931253 69.7381
14.607416409993311 70.9216
14.62991555254159 71.6759
14.652397725157423 71.407
14.674898002342799 70.5603
14.697398848433282 69.9366
14.719882725991326 70.3479
14.74238471217934 70.9319
14.764869730765593 73.5878
14.787372860692983 76.2823
14.809876564079925 80.6994
14.83236330125751 85.9008
14.854868153850365 93.5314
14.877356041159485 106.616
14.899862046604186 124.37
14.922351087688757 149.454
14.944858249632887 178.293
14.967365991421232 206.955
14.989856770231246 221.71599999999998
15.012365673994204 222.248
15.03485761569738 195.217
15.05736768508665 152.607
15.07987833888692 118.708
15.102372032001655 92.374
15.124883856909658 77.3887
15.14737872204565 71.9933
15.169891721717274 70.3647
15.192405310371893 69.9582
15.214901940621196 70.7347
15.237416709527137 70.9526
15.259914520936249 71.1901
15.282430473753607 70.3459
15.304947020131227 69.0079
15.327446610371178 67.6985
15.349964346154254 66.884
15.372465126703139 66.4441
15.394984055556009 65.8902
15.417486030076159 65.9193
15.44000615566487 65.5453
15.462526881230803 65.8687
15.485030653812652 65.9999
15.507552581617434 65.8147
15.530057557334603 65.9022
15.55258069104857 65.5892
15.575104429329837 65.7482
15.597611216864632 65.1251
15.620136166564563 64.9066
15.6426441664095 65.6234
15.665170331202765 67.5895
15.687697105158826 70.0714
15.710206930593545 73.5345
15.732734925158933 77.2947
15.755245972089478 83.023
15.77777519094324 91.3549
15.800287463046663 103.795
15.822817909869592 123.073
15.84534897229804 144.81
15.867863089299354 168.46099999999998
15.890395385222186 186.96200000000002
15.912910736597423 193.342
15.935444269699861 184.50900000000001
15.957978423016485 157.407
15.980495633101265 125.49
16.003031029129367 99.1846
16.02554948280019 78.3305
16.048086125229432 68.475
16.070623392487107 65.619
16.09314371869582 64.6737
16.11568223789321 63.8611
16.13820381691126 62.6607
16.160743591742527 61.3562
16.183283996022084 60.4083
16.205807461423195 59.1199
16.228349126881973 58.6458
16.25087385432698 58.7575
16.27341678466365 58.0754
16.29594277784926 58.0617
16.31848697676433 58.6342
16.341031811604868 58.7576
16.36355971058487 59.3376
16.3861058195587 59.0544
16.40863499352978 57.8947
16.431182380342005 56.6592
16.453730407713202 55.998000000000005
16.476261501364792 55.4729
16.498810812136167 55.0678
16.52134319004079 55.1136
16.54389378792203 54.9614
16.566445031001553 54.9345
16.588979342490088 54.8658
16.61153187824822 54.6587
16.634067483263312 54.4527
16.656621315414416 54.4649
16.679175797408888 54.2841
16.701713349928728 54.3739
16.72426913389191 54.5522
16.74680798922351 54.5332
16.76936507887444 54.8301
16.791905240734874 54.6781
16.814463639794468 54.655
16.837022695210294 54.6604
16.859564824093756 54.9822
16.882125194503903 55.8597
16.904668639217885 56.6385
16.927230328348003 56.9876
16.949792678493612 56.9365
16.972338104193863 56.2378
16.994901778652235 55.4223
17.017448529496576 55.1373
17.040013531998152 55.3817
17.06257920018044 55.7304
17.0851279459922 56.4349
17.107694947817667 56.9767
17.130245028099072 57.8662
17.15281336730298 59.2384
17.17536478578733 60.6967
17.19793446610687 62.8153
17.220504818648422 65.9807
17.243058251703697 69.0492
17.265629950971032 73.9072
17.288184731571736 78.7901
17.310757781306908 82.9135
17.33333150794385 83.8157
17.355888317140174 82.3257
17.37846339986244 77.1464
17.401021565958885 70.6096
17.42359800851343 65.5775
17.44617513265564 61.8086
17.468735341390783 59.676
17.491261035594565 58.6243
17.51396340099364 58.4655
17.536490463869136 58.8753
17.559018209820174 58.7381
17.58154663977963 58.677
17.604251766089718 58.9034
17.626781572227713 59.0587
17.64931206518155 59.3119
17.671843245885103 59.8759
17.69455114821572 60.3805
17.717083712612634 60.4253
17.739616967569667 60.521
17.762150914021706 60.7916
17.78486160749854 60.9555
17.807396945166804 61.4268
17.829932977143503 61.952
17.85246970436452 63.0518
17.875183204129467 64.639
17.897721330097664 66.9389
17.920260154126645 68.7337
17.942799677153296 71.7264
17.9655159983646 75.2611
17.988056927677544 80.3357
18.010598558807683 87.6945
18.033140892692916 97.1003
18.05586005052525 108.553
18.07840379824407 119.57700000000001
18.10094825154059 130.124
18.12366954819864 138.66299999999998
18.146215420998306 139.278
18.16876200220057 130.717
18.191309292745153 117.08
18.214033452627167 103.20700000000001
18.236582170236648 91.554
18.259131600016456 85.7372
18.281681742907335 85.3865
18.304408781233683 89.0222
18.32696035875955 94.6607
18.349512652227624 99.6219
18.372065662579683 104.4
18.394795594587553 105.81299999999999
18.41735004715306 102.3
18.43990521943684 96.2562
18.46246111238171 87.3493
18.485193953325208 77.633
18.507751296070428 70.2338
18.530309362314178 65.8845
18.552868153000343 63.3914
18.57560391815056 61.8518
18.59816416623245 61.2954
18.620725141597372 60.8261
18.643286845190268 60.3745
18.666025549835414 59.9993
18.688588718427933 59.4201
18.711152618092243 59.1759
18.73389353884365 59.1573
18.75645890921984 58.5974
18.77902501351406 58.3223
18.801591852673102 58.1643
18.824335739722738 57.6951
18.846904057212626 57.6436
18.8694731124168 57.3039
18.89204290628315 57.1388
18.914789774966803 57.0461
18.937361054791623 56.9251
18.959933076131318 56.6695
18.982505839934877 56.6454
19.00525570560582 56.715
19.027829963004184 56.5295
19.05040496572238 56.7196
19.072980714710468 56.5839
19.095733592739563 56.4563
19.11831084296757 56.9492
19.140888842324735 57.4719
19.16346759176222 57.6486
19.18622349753803 58.0523
19.208803755869358 58.8421
19.231384767143577 59.8957
19.253966532312948 61.3389
19.276725481241822 63.2894
19.29930876296784 65.7043
19.3218928014549 68.9063
19.34465404436217 72.09100000000001
19.36723960516257 75.0244
19.389825925592426 76.4716
19.412413006605938 75.4448
19.43517731967805 72.0991
19.457765930683355 67.8861
19.48035530514408 63.3679
19.50294544401556 59.4479
19.525712842708348 56.6607
19.54830451925909 55.2193
19.570896963095727 53.9033
19.593490175174704 53.661
19.616260674962184 53.711999999999996
19.638855432416964 53.3834
19.661450960992624 53.4052
19.68404726164677 53.2182
19.706820878021247 53.1202
19.729418731756834 53.2694
19.752017360452857 52.8934
19.77461676506804 53.2182
19.797393513540218 53.0799
19.819994478951667 53.3456
19.84259622316767 53.9251
19.8651987471481 54.2275
19.887978643247177 54.5818
19.91058273574792 54.9388
19.933187610901943 55.6008
19.955969879466828 56.6919
19.97857632894404 58.0905
20.00118356396599 59.6199
20.023791585494575 61.637
20.046577028914875 64.3191
20.069186632506966 66.6319
20.091797025500632 68.4563
20.114408208858933 69.1874
20.137196842715273 69.2819
20.159809615886765 67.8101
20.18242318232135 64.9293
20.20503754298326 63.0056
20.227829382875154 61.9698
20.250445341109344 61.6925
20.27306209647285 62.3397
20.29567964993108 63.6885
20.31847471147704 64.8485
20.34109387027612 65.7328
20.363713830075454 65.5101
20.386334591841646 63.8052
20.409132890679302 61.3322
20.431755265564437 58.0873
20.454378445325528 55.3008
20.477002430930366 53.5673
20.499803982716553 52.4189
20.522429589228004 51.5257
20.54505600449589 51.0045
20.567683229489194 50.8173
20.590488049900088 50.3704
20.61311690359731 49.8664
20.63574656993626 49.5911
20.658553853717297 49.2296
20.681185154618298 49.3773
20.703817271080066 49.2552
20.72645020407368 48.968999999999994
20.749260783967177 48.7281
20.771895359337133 48.8629
20.794530754161617 48.6904
20.817166969412938 48.4165
20.83998086114876 48.6009
20.86261872660049 48.3047
20.885257415405402 48.4495
20.90789692853701 48.273999999999994
20.930714147864748 48.092
20.953355319030678 48.3349
20.97599731745334 48.2518
20.99864014410749 48.1059
21.021460706796564 48.1813
21.044105199328826 48.4425
21.06675052302631 48.5659
21.089396678865015 48.7788
21.112220600704806 49.1337
21.134868430275347 49.3839
21.15751709492456 49.8903
21.180166595629693 50.2295
21.202993892429635 50.7417
21.22564507473034 50.7801
21.24829709602816 51.0106
21.27112693608965 51.1132
21.293780644891275 51.2053
21.316435195634053 50.3378
21.339090589297417 49.7078
21.361923832041875 49.385
21.384580921090404 48.6749
21.407238856007325 48.1315
21.429897637773326 48.1023
21.45273429906592 48.1328
21.475394784108598 48.1256
21.498056118951983 48.0987
21.520718304578022 48.2321
21.543558400304388 48.2211
21.566222297108816 48.3833
21.58888704765135 48.4099
21.61155265291521 48.6825
21.63439619898156 49.0865
21.657063523335786 49.3659
21.67973170537063 49.7937
21.7024007460706 50.3548
21.72524775840385 51.0943
21.747918526116475 51.9451
21.770590155457388 52.9966
21.79326264741238 54.5809
21.816113141960237 56.3474
21.838787368860547 58.428999999999995
21.861462461341976 60.1712
21.884315579735777 62.1879
21.90699241312273 63.2449
21.92967011506078 64.1459
21.95234868653799 63.863
21.9752053151131 63.0552
21.997885635446785 61.1708
22.020566828293532 59.3688
22.04324889464272 57.5216
22.066109049404666 56.3465
22.088792872571794 55.8278
22.111477572219204 55.72
22.1341631493376 55.8696
22.157026846313123 55.7291
22.179714188221507 54.8593
22.202402410582668 54.0637
22.22509151438863 52.5424
22.24795876962584 51.313
22.270649646204486 50.4204
22.293341407213727 49.7156
22.316034053646906 49.0801
22.338904883215342 48.9398
22.36159931041458 48.8037
22.38429462602756 48.8406
22.40699083104897 48.6052
22.429865251039757 48.7147
22.452563244831367 48.7529
22.47526213102522 48.5785
22.49813925616515 48.5204
22.520839937143307 48.4232
22.543541513520587 48.268
22.56624398629403 48.2381
22.589124730075895 48.1792
22.611829005656723 48.4312
22.63453418063466 48.2602
22.657240256008077 48.3192
22.680124634582935 48.5097
22.70283252079775 48.8118
22.725541310413075 48.997
22.74825100442868 49.285
22.771139033969575 49.6844
22.79385054687155 49.8163
22.81656296718292 50.51
22.83927629590484 51.4293
22.862167992606945 52.3286
22.88488314827121 53.6124
22.907599215359284 54.488
22.93031619487366 55.583999999999996
22.953211574954405 56.653
22.975930389478226 57.6044
22.998650119445763 57.772
23.02137076586092 57.2639
23.044269845560063 55.9422
23.06699233506288 54.4969
23.089715744034912 52.7051
23.112617610931565 51.0838
23.135342869061212 49.8216
23.158069049684816 48.7955
23.1807961538087 48.538000000000004
23.20370174880544 48.4961
23.226430710184808 48.5307
23.249160598093425 48.4593
23.271891413539002 48.4294
23.294800752937697 48.4296
23.31753343374794 48.4623
23.340267045128353 48.542
23.36300158808808 49.0355
23.38591468821339 49.2015
23.408651104658304 49.4963
23.431388455719986 50.3377
23.454126742409 51.2724
23.4770436196085 52.257
23.499783787914662 53.3556
23.522524894889884 54.2864
23.54526694154616 55.4922
23.56818761219047 56.8623
23.59093154860734 57.3983
23.613676427751283 57.8077
23.636422250635754 57.0184
23.659346731118656 55.4984
23.68209445191868 53.608999999999995
23.704843119509587 51.4699
23.72759273490623 49.3558
23.750521041644767 48.19
23.77327256312355 47.0618
23.796025035462787 46.3174
23.818956224555475 45.8291
23.841710609113413 45.9221
23.86446594758979 45.551
23.887222241002014 45.1991
23.910157285144578 44.9124
23.932915498962537 45.0133
23.955674670778713 44.8173
23.978434801611975 44.623999999999995
24.001373717286125 44.5238
24.024135776723917 44.5007
24.046898798245582 44.3682
24.06966278287146 44.0783
24.092605586582614 43.9623
24.115371508023642 43.7976
24.1381383956401 43.781000000000006
24.16090625045381 43.7508
24.183852958731244 43.6307
24.206622758582608 43.5701
24.229393528706886 43.3227
24.252165270127392 43.5168
24.27511589952438 43.4665
24.297889594216997 43.2818
24.32066426328598 43.0753
24.34343990775613 43.221000000000004
24.36639447485003 42.95
24.38917208083877 42.9739
24.41195066531332 42.8545
24.43490819850244 42.9012
24.457688750692377 42.76
24.48047028445616 42.7327
24.503252800821233 42.8326
24.526214300784112 42.7594
24.548998793132213 42.8303
24.57178427117417 42.6034
24.59457073593893 42.59
24.617536219319863 42.8809
24.64032466834748 42.7472
24.663114107195035 42.398999999999994
24.685904536893013 42.2697
24.708874020360852 42.2495
24.731666442613744 42.358999999999995
24.754459858818787 42.2168
24.777254270007962 41.9977
24.80022777025625 41.9076
24.82302418230472 41.9143
24.845821592443674 42.0006
24.86862000170663 41.975
24.891597535453727 41.5917
24.914397953892728 42.0408
24.93719937456671 41.9446
24.96000179851076 42.0521
24.98298338249997 42.2239
25.00578782394922 42.4652
25.028593271784167 42.6076
25.05157790644186 42.9599
25.07438537804115 43.0337
25.097193859145293 43.2563
25.120003350792075 43.5172
25.142992065061257 43.9061
25.165803588823465 44.1092
25.18861612625217 44.3425
25.211429678386736 44.4753
25.234422489079968 44.3436
25.257238081693636 44.5343
25.280054692141732 44.7019
25.3028723214652 44.6031
25.325869245420463 44.6795
25.348688923599397 44.7589
25.371509623787006 44.5434
25.394331347025812 44.3213
25.41733240110666 43.9365
25.440156181590016 43.3247
25.46298098826268 42.7785
25.48580682216873 42.2621
25.50881202326435 41.7073
25.53163992281684 41.2689
25.55446885274561 41.0642
25.577298814096377 40.7231
25.600308179121807 40.6554
25.623140214533745 40.6752
25.64597328451537 40.5537
25.66898578564376 40.2612
25.691820936010206 40.2188
25.714657124097695 40.3217
25.737494350954734 40.2917
25.760511045684957 40.1126
25.783350361364224 40.2784
25.806190718969255 40.3307
25.82903211955018 40.4199
25.852053024868923 40.2528
25.874896522722523 40.4493
25.897741066713106 40.3613
25.920586657892454 40.4128
25.943611790812668 40.6151
25.966459487728237 40.7013
25.989308234998564 40.6383
26.01215803367705 40.9907
26.03518741123814 41.1249
26.05803932412957 41.25899999999999
26.080892291600094 41.4002
26.10374631470478 41.3518
26.12677995397268 41.4147
26.14963609978026 41.476000000000006
26.172493304397875 41.0807
26.19535156888223 41.011
26.218389486949604 40.5882
26.241249882640123 40.2298
26.26411134137826 40.05
26.28715248187403 40.0887
26.31001607820869 39.8737
26.3328807407756 39.6545
26.35574647063438 39.8476
26.37879191991473 39.7692
26.401659795896734 39.906
26.424528742360263 39.9076
26.447398760366614 40.0919
26.470448535598294 40.2602
26.49332070826805 40.4754
26.516193955675355 40.7523
26.53906827888316 40.9768
26.562122397260108 41.2724
26.584998883685063 41.5
26.607876449110325 41.6323
26.63075509460056 41.8238
26.65381357334404 42.0321
26.67669439061878 41.8568
26.699576291163382 41.8257
26.722459276044212 41.8646
26.745522132402975 41.4203
26.768407297649354 41.2057
26.791293550442003 40.8374
26.814180891848974 40.6888
26.837248143099337 40.321
26.860137673466657 40.2314
26.88302829566349 39.8469
26.90592001075963 39.7736
26.92899167420566 39.6656
26.951885586870763 39.2716
26.974780595655517 39.0757
26.99785558178161 38.9501
27.020752794605112 38.9137
27.043651106772522 38.7478
27.06655051935668 38.6093
27.089629948036183 38.4342
27.112531573292053 38.4971
27.135434302194138 38.6216
27.158338135817015 38.2866
27.181422024430987 38.361
27.204328079372566 38.189
27.22723524226965 38.354
27.250143514198573 38.3103
27.273231880156334 38.2877
27.296142382065014 38.1674
27.319053996245536 38.0452
27.341966723775965 38.1762
27.365059584515222 38.3448
27.38797455070062 38.3304
27.410890633481237 38.1283
27.433807833936918 38.2349
27.456905206923906 38.4244
27.47982465472398 38.2073
27.502745223449743 38.2795
27.525666914182825 38.4092
27.548768816912457 38.2938
27.571692763693633 38.3007
27.59461783573812 38.1969
27.617723149491244 38.073
27.640650484125285 38.102
27.66357894728264 37.8996
27.686508540048052 37.8027
27.709618414237887 37.7377
27.732550278321757 37.5242
27.755483275279115 37.5767
27.778417406196485 37.5394
27.801531858397514 37.5456
27.824468269376716 37.6213
27.847405817586786 37.5868
27.870344504116094 37.7856
27.893463551932008 37.7804
27.916404527281053 37.9657
27.93934664422563 38.1032
27.962289903855886 38.1805
27.98541356491974 38.3493
28.00835912214229 38.4612
28.03130582533231 38.7158
28.054253675581805 38.8447
28.077381967556104 38.7463
28.100332124185126 38.8327
28.123283431160893 38.6823
28.146235889577238 38.5551
28.169368830154156 38.3308
28.192323603752033 38.1584
28.215279532083304 38.0053
28.238415973016764 37.8052
28.261374223145094 37.5965
28.284333631303806 37.4582
28.307294198589954 37.3679
28.330435319167677 37.0531
28.353398217078915 36.8441
28.376362277420153 36.5623
28.39932750129032 36.3298
28.422473319286713 36.2788
28.44544088262495 36.3198
28.468409612800283 36.0669
28.491379510913497 35.8159
28.51453004413313 35.7623
28.53750229057244 35.7398
28.56047570826344 35.7219
28.583450298308804 35.6499
28.606605564586562 35.4825
28.629582511831156 35.5993
28.65256063474956 35.3641
28.675539934446338 35.4643
28.698699951647605 35.4988
28.72168161743193 35.2623
28.74466446331978 35.2708
28.767648490417624 35.3274
28.790813276438353 35.3189
28.813799678527303 35.3065
28.836787265157085 35.2228
28.859955641890075 35.2686
28.882945610203045 35.3023
28.905936766392035 35.1678
28.928929111566863 35.2391
28.952102288520145 35.1125
28.975097024308607 35.0705
28.998092952423807 34.7873
29.021090073977508 34.6345
29.04426806913204 34.5623
29.067267590245258 34.4205
29.090268308143695 34.3647
29.11327022394099 34.2986
29.13645305530891 34.2628
29.159457379627167 34.3193
29.18246290519685 34.1698
29.20546963313352 34.2017
29.22865731875826 34.2444
29.25166646419296 34.1852
29.27467681535305 34.0319
29.29768837335608 34.2023
29.320880931312562 34.1212
29.34389491580634 34.1026
29.366910110507334 34.0718
29.38992651653503 34.0809
29.41312396492981 34.0403
29.436142806456754 34.0923
29.45916286268059 34.0048
29.48236399319994 33.74
29.50538649169417 33.5328
29.528410208259935 33.571999999999996
29.55143514402014 33.3233
29.574641196749695 33.3063
29.597668583816574 33.135999999999996
29.6206971934585 32.9685
29.64372702680042 32.9467
29.666938019934474 32.9047
29.689970313635285 32.9122
29.713003834422636 32.7546
29.73603858342347 32.7442
29.759254535188578 32.7065
29.78229175361658 32.6238
29.80533020365064 32.6762
29.82836988641968 32.6903
29.85159081507472 32.6313
29.874632976355343 32.5037
29.89767637376955 32.6608
29.920721008448314 32.4715
29.9439469322847 32.5329
29.96699405457564 32.4535
29.9900424175358 32.4036
30.013092022298157 32.3646
30.03632295963995 32.3031
30.059375061131373 32.4031
30.08242840783577 32.4191
30.105483000888153 32.4189
30.128718970092244 32.225
30.151776069006917 32.2164
30.17483441768648 32.2824
30.198074175317235 32.2041
30.221135036724256 32.2574
30.24419715131772 32.11
30.267260520236203 32.0447
30.290505341942243 32.0817
30.313571232750228 32.1718
30.336638381310948 32.1787
30.35970678876503 32.0832
30.38295669299435 32.0884
30.40602763151657 32.073
30.429099832366074 32.009
30.452173296685572 31.8995
30.47542830191959 31.9086
30.498504306502497 31.8956
30.521581577995562 31.9436
30.544660117543582 31.9567
30.56792024229725 32.0432
30.59100133132069 32.0417
30.614083691845494 31.9471
30.637167325018545 32.0197
30.660432587840603 32.0988
30.683518779717886 32.038000000000004
30.70660624769615 32.122
30.729694992924372 32.1144
30.75296541239743 32.1528
30.77605672557558 32.041
30.799149319462742 31.9382
30.8224236211637 31.838
30.845518789950724 31.7299
30.868615242910597 31.6312
30.891712981195973 31.5969
30.91499247215866 31.4061
30.938092794619365 31.3915
30.96119440587579 31.3263
30.984297307082752 31.1765
31.00758200598383 31.0734
31.030687500658694 30.9844
31.053794288760695 30.9344
31.076902371446767 30.8453
31.100192296997445 30.8455
31.12330298246119 30.8041
31.14641496599209 30.7903
31.169528248749216 30.8385
31.19282341969534 30.7995
31.215939314557186 30.789
31.239056512134788 30.815
31.262175013589378 30.8265
31.28547544871168 30.7251
31.30859657161541 30.7539
31.331719001892175 30.6723
31.35484274070538 30.7172
31.378148458819545 30.6828
31.401274828443725 30.7321
31.424402510106933 30.7406
31.447712205419993 30.7791
31.470842524931633 30.5607
31.493974159989783 30.6976
31.51710711176168 30.589000000000002
31.54042212308802 30.6743
31.563557722100917 30.5919
31.586694641341655 30.4488
31.609832881979628 30.3697
31.63315322823208 30.2906
31.656294125521327 30.2176
31.679436347728515 30.135
31.70257989602529 30.1075
31.725905596152327 30.0579
31.74905181052835 29.9294
31.772199354521323 30.1028
31.79534822930507 29.9695
31.818679302290967 29.8932
31.84183085259981 29.9233
31.864983737233473 29.901999999999997
31.88813795736804 30.0146
31.911474422233013 29.9108
31.934631327356435 29.8783
31.9577895715215 29.8439
31.980949155906522 29.8678
32.004291031706956 29.901999999999997
32.027453310562606 29.695999999999998
32.05061693318573 29.7084
32.07396288236386 29.6771
32.09712920658542 29.6494
32.12029687812702 29.4439
32.14346589817093 29.3432
32.166817291729984 29.3713
32.18998902288583 29.2719
32.21316210610336 29.1905
32.23633654256711 29.0886
32.259693399663725 29.0748
32.282870556771144 29.0103
32.30604907069099 29.0777
32.329228942610065 29.0534
32.35259128243769 28.805
32.375773884550505 28.6864
32.398957848235646 28.8451
32.422143174682176 28.7013
32.445511016471215 28.6717
32.468699082679954 28.5873
32.49188851523011 28.4968
32.51507931531304 28.5109
32.538452678331 28.5373
32.56164622776311 28.4418
32.58484114831493 28.4229
32.60803744118015 28.4335
32.631416344731896 28.3865
32.654615396551876 28.2429
32.67781582427913 28.2336
32.701198898634416 28.1468
32.72440209253756 28.1231
32.747606665947124 28.1269
32.77081262006088 27.9492
32.79420126883317 27.9874
32.81740999876112 28.0511
32.840620112999424 27.8856
32.86383161274818 27.8457
32.88722585534586 27.9359
32.91044014056596 27.9015
32.933655814909734 27.8604
32.95687287957963 27.8538
32.98027273544904 27.8061
33.00349259526636 27.7324
33.026713849030116 27.6326
33.04993649794511 27.6242
33.073341986570746 27.6111
33.09656744032826 27.7356
33.11979429286444 27.6101
33.14302254538647 27.615
33.166433686291185 27.5871
33.18966475336992 27.5876
33.212897224069096 27.5342
33.23613109959831 27.4578
33.259547912343415 27.4629
33.2827846121627 27.4722
33.306022720453775 27.3302
33.32926223842861 27.2871
33.352684742614166 27.198
33.37592709463173 27.1449
33.399170859982064 27.1215
33.422597648419426 27.061
33.44584425514446 26.976
33.46909227885668 26.921999999999997
33.4923417207723 26.8402
33.51577423505344 26.9204
33.539026528130385 26.8171
33.56228024307245 26.752
33.585535381098246 26.65
33.60897364093058 26.61
33.63223163992385 26.6168
33.6554910656699 26.5825
33.678751919389796 26.5412
33.702195944520106 26.5284
33.72545966903325 26.463
33.74872482519663 26.3807
33.771991414233746 26.436
33.79544122444841 26.3647
33.81871069412428 26.2291
33.84198160035767 26.1775
33.86525394437455 26.2593
33.88870955949969 26.1846
33.911984794020626 26.1851
33.93526147001624 26.1674
33.958539588715006 26.0667
33.98200102861669 26.0567
34.0052820477047 25.9727
34.02856451319451 25.9335
34.05203033759056 25.8314
34.07531571090147 25.9061
34.09860253431845 25.9039
34.121890809074316 25.8439
34.145362493118924 25.8204
34.16865368561615 25.7557
34.191946333164054 25.69
34.21524043699793 25.6195
34.23871800066799 25.6868
34.26201503218366 25.5725
34.28531352370466 25.570999999999998
34.30861347646881 25.4431
34.33209693978188 25.2982
34.3553998301885 25.3932
34.378704185565205 25.331999999999997
34.402010007152356 25.2579
34.42549939016683 25.2884
34.44880815937748 25.1869
34.472118398533134 25.1752
34.49543010887669 25.1659
34.51892543169198 25.0114
34.54224009966052 25.022
34.56555624255917 25.0541
34.58887386163339 24.9141
34.61237514439016 24.8115
34.6356957311114 24.7652
34.65901779775809 24.8268
34.68252356662995 24.7542
34.705848608458616 24.6987
34.72917513396849 24.665
34.75250314440949 24.6491
34.77601490857862 24.5647
34.799345904259795 24.5658
34.82267838863559 24.6014
34.846012362958525 24.5322
34.869530142679984 24.5254
34.89286711232212 24.4409
34.91620557568269 24.4529
34.93954553401677 24.3467
34.9630693495876 24.3467
34.986412313340814 24.4614
35.00975677584668 24.3041
35.033102738362956 24.2765
35.05663261012228 24.1898
35.0799815881786 24.217
35.10333207003229 24.1539
35.12668405694369 24.1409
35.150220005273056 24.1642
35.17357501786656 24.1284
35.19693153931268 24.0576
35.220289570874385 23.9808
35.24383161619786 24.0217
35.267192683604904 23.986
35.290555264930376 24.0418
35.314101899412165 23.9852
35.33746752422433 23.846999999999998
35.36083466676374 23.9244
35.38420332829803 23.8401
35.407756095629054 23.878
35.43112781085063 23.8321
35.45450104888391 23.7749
35.477875810999194 23.8783
35.50143473172161 23.7127
35.52481255774625 23.8395
35.54819191167777 23.768
35.57157279478914 23.666999999999998
35.595137889488406 23.5686
35.61852184675279 23.553
35.641907337029984 23.5328
35.665294361595684 23.4608
35.68886565090076 23.4908
35.7122557598848 23.412
35.73564740699838 23.3944
35.759040593519934 23.3342
35.78261809810353 23.3707
35.80601437933051 23.2598
35.829412203814705 23.1973
35.85281157283719 23.1031
35.876395313415884 23.1865
35.8997977874528 23.0597
35.92320180988546 23.0997
35.946790244133936 22.9995
35.97019737933222 23.033
35.993606066789866 22.9881
36.01701630779276 22.9465
36.04061101440684 22.92
36.06402437852291 22.8443
36.08743930005611 22.8916
36.1108557802951 22.7711
36.13445678011326 22.7226
36.15787639383515 22.7438
36.18129757014299 22.7234
36.20472031032821 22.69
36.22832762423364 22.5714
36.25175350829375 22.5998
36.275180960119776 22.4626
36.298609981005924 22.4979
36.32222362992669 22.5042
36.34565580510207 22.4823
36.36908955323448 22.4643
36.39252487562093 22.3573
36.416144880530226 22.3463
36.43958336764275 22.3814
36.463023432914625 22.4044
36.486465077645676 22.2802
36.51009145956204 22.2449
36.53353627947859 22.2902
36.55698268276811 22.1851
36.58043067073321 22.1239
36.60406345072071 21.9762
36.62751462435344 22.0396
36.65096738658405 22.0992
36.67460498210655 22.0331
36.69806093788647 22.0032
36.72151848619297 21.9093
36.744977628333636 21.8907
36.76862165890998 21.8489
36.79208400512205 21.8137
36.81554794910557 21.8142
36.83901349217101 21.7575
36.862663978991606 21.7327
36.88613273667352 21.726999999999997
36.90960309738324 21.6765
36.933075062434064 21.5615
36.95673202673572 21.6002
36.98020721697122 21.5433
37.003684015502365 21.5238
37.027162423645365 21.4701
37.050825886711465 21.4643
37.07430753063053 21.4181
37.09779078812467 21.377
37.121275660513014 21.3758
37.144945643673694 21.2932
37.16843376245278 21.288
37.19192350009803 21.3253
37.215414857931435 21.2749
37.239091382563885 21.1746
37.262585997426164 21.1236
37.28608223645736 21.16
37.309763684451696 21.1349
37.33326318851098 21.0654
37.356764320726555 20.9541
37.380267082425526 20.9841
37.40395510942588 21.0115
37.42746114683234 20.905
37.45096881771841 20.8651
37.474478123414166 20.877
37.49817275092816 20.833000000000002
37.52168534303452 20.7739
37.54519957395567 20.7365
37.568715445024665 20.7564
37.592416694607714 20.7225
37.61593586281424 20.736
37.63945667518264 20.791999999999998
37.66297913304891 20.6542
37.68668702630454 20.6122
37.710212792059274 20.5634
37.733740207334854 20.5205
37.757269273470364 20.4762
37.780983832050374 20.3909
37.80451621684926 20.394000000000002
37.82805025654007 20.3802
37.851585952464795 20.3873
37.8753071980695 20.3088
37.89884622345676 20.3196
37.92238690911902 20.254
37.94611318753442 20.1899
37.969657210779765 20.1581
37.99320289834801 20.1616
38.016750251586465 20.0945
38.04048325513017 20.0385
38.06403395679343 20.0137
38.087586328183946 20.0251
38.11114037065203 20.0451
38.13488012115898 20.0397
38.1584375229181 19.9296
38.181996599821 19.8983
38.205557353221124 19.8766
38.229303872575656 19.8094
38.2528679961576 19.8798
38.27643380031219 19.8213
38.30000128639589 19.7497
38.32375459653193 19.7839
38.34732546371299 19.7287
38.37089801690786 19.5965
38.39447225747609 19.5232
38.418232380377425 19.5409
38.441810012983396 19.57
38.46538933705673 19.5745
38.488970353960084 19.5265
38.51273731166058 19.4295
38.536321731567014 19.4052
38.55990784840681 19.3949
38.58367995004091 19.3724
38.60726947812959 19.354
38.63086070726198 19.3419
38.654453638806274 19.3307
38.678232613930824 19.276
38.70182896773327 19.2322
38.72542702806741 19.2031
38.7490267963045 19.2033
38.77281266709232 19.1263
38.79641586862214 19.1139
38.8200207821842 18.9781
38.843627409152944 19.0429
38.86742019782782 18.9856
38.891030269149255 18.9571
38.914642058016156 18.9497
38.938255565806124 18.8933
38.96205529464307 18.8497
38.98567225787121 18.8508
39.00929094417078 18.8066
39.03291135492255 18.8419
39.05671804624804 18.8174
39.080341923549106 18.7111
39.103967529460334 18.6641
39.127594865365744 18.6968
39.15140854155791 18.6509
39.17503935514948 18.6341
39.19867190290282 18.579
39.22249083587951 18.5563
39.24612686969409 18.4815
39.269764641845306 18.4461
39.293404153722804 18.4576
39.317230110864074 18.4105
39.34087311998506 18.3854
39.36451787301696 18.3996
39.388164371352595 18.3781
39.41199737518003 18.2783
39.43564738196752 18.2752
39.45929913825317 18.2475
39.48295264543308 18.2331
39.506792718520884 18.1922
39.530449745387216 18.1134
39.55410852735203 18.1148
39.57776906581474 18.1607
39.60161623079 18.042
39.625280300200025 18.0895
39.64894613032202 18.0216
39.67261372255866 17.945
39.6964680021016 17.9329
39.72013913657293 17.923
39.74381203738292 17.9487
39.76748670593756 17.9551
39.79134812278169 17.8635
39.81502634488497 17.9028
39.83870633896685 17.8092
39.862388106436654 17.785999999999998
39.88625668336918 17.7076
39.90994201572829 17.7403
39.933629125719285 17.6952
39.957503091207826 17.6769
39.9811937746168 17.6674
40.00488623990914 17.5743
40.02858048850006 17.5285
40.05246165409549 17.5539
40.076159487492085 17.4401
40.099859108448875 17.4547
40.123560518384345 17.3832
40.1474489070226 17.4566
40.171153913178564 17.4136
40.194860712584955 17.3882
40.2185693066637 17.2853
40.242464941335314 17.3133
40.26617714307655 17.2815
40.289891143772046 17.2594
40.3136069448471 17.2306
40.33750984859743 17.1956
40.3612292688043 17.2309
40.3849504936829 17.2001
40.40867352466194 17.1346
40.43258372059144 17.0685
40.45631038219906 17.0926
40.48003885420956 17.0703
40.503769138055105 17.0838
40.52768664931955 16.9761
40.55142057531802 16.9629
40.57515631746428 16.9542
40.599079334038514 16.9778
40.62281872700477 16.8411
40.64655994043941 16.8533
40.67030297578061 16.8597
40.69423334835778 16.8339
40.71798004609188 16.7892
40.74172857006355 16.6976
40.76547892171441 16.7329
40.7894166736039 16.6875
40.813170699248566 16.66
40.83692655691388 16.6609
40.86068424804498 16.7003
40.884629402612525 16.6486
40.908390779366385 16.5867
40.932153993938 16.5528
40.95591904777605 16.5324
40.979871628443995 16.4987
41.003640379561936 16.5045
41.02741097430883 16.4417
41.05118341413683 16.3964
41.075143444384416 16.4151
41.098919593177826 16.377
41.1226975914255 16.3582
41.14647744058318 16.3199
41.170444943946755 16.2593
41.19422851378379 16.3126
41.218013938914645 16.2476
41.24198706625173 16.1711
41.26577622087193 16.1816
41.289567235177785 16.0818
41.31336011063129 16.1021
41.337340752422875 16.1099
41.361137369129835 16.0722
41.38493585138705 16.0444
41.40873620066004 15.9981
41.43272438060107 15.9661
41.45652848292052 15.9429
41.48033445666918 15.8702
41.50414230331616 15.9303
41.528138045159764 15.9193
41.551949656675205 15.7907
41.575763145513235 15.7946
41.59957851314666 15.8009
41.62358184070442 15.7442
41.64740098505737 15.7431
41.6712220126409 15.7363
41.69504492493139 15.6867
41.71905586207357 15.6407
41.74288256296395 15.661
41.766711153007456 15.5906
41.79054163368412 15.6442
41.814560204340054 15.6114
41.838394485526365 15.5186
41.86223066180303 15.5485
41.88625497706819 15.4633
41.910094962812 15.4785
41.93393684811168 15.4518
41.95778063445365 15.4044
41.981812625263366 15.4053
42.00566023303407 15.4018
42.029509746323676 15.3227
42.05336116662236 15.306
42.077400857069705 15.3051
42.10125611078846 15.2853
42.12511327600405 15.1882
42.14897235421036 15.1907
42.173019768448455 15.1309
42.19688269209613 15.157
42.22074753323349 15.1671
42.24461429335818 15.1558
42.268669455600495 15.0518
42.292540073217886 15.0766
42.31641261433284 15.0606
42.34028708044675 15.0117
42.36435001496739 14.9303
42.38822835065557 14.9802
42.41210861586426 14.9253
42.4359908120986 14.9408
42.46006154323262 14.8918
42.48394762115317 14.8341
42.507835634632315 14.8417
42.531912233047436 14.8684
42.55580413732265 14.8154
42.579697981698 14.7495
42.60359376768525 14.7351
42.62767820545945 14.7103
42.65157789440821 14.7009
42.67547952952185 14.6625
42.699383112316 14.6412
42.72347541395347 14.5689
42.74738291190531 14.5691
42.771292362102166 14.5281
42.795203766063516 14.547
42.819303956130405 14.5207
42.843219287476536 14.4685
42.86713657716324 14.4658
42.89105582671383 14.4546
42.91516392983864 14.4004
42.939087119032166 14.4112
42.963012272677304 14.4118
42.98693939230129 14.343
43.01105543317513 14.2966
43.034986504731386 14.2682
43.05891954686589 14.2469
43.08285456110972 14.1941
43.10697856448665 14.1652
43.130917542983475 14.1558
43.15485849820081 14.232999999999999
43.17880143167367 14.147
43.20293342237094 14.0943
43.226880332449 14.0846
43.25082922540554 14.0122
43.27496722682525 13.9824
43.29892010567796 13.9629
43.32287497204102 14.0054
43.34683182745632 13.9259
43.370977859791836 13.9029
43.39493871351105 13.9523
43.41890156092628 13.8966
43.44286640358341 13.8601
43.46702049182749 13.8967
43.49098934522816 13.8943
43.51496019852649 13.7829
43.5389330532723 13.7563
43.56309522248204 13.7582
43.58707210044314 13.7547
43.61105098451946 13.6848
43.63503187626491 13.6936
43.659202151562134 13.6224
43.68318707902681 13.6256
43.70717401884041 13.6248
43.731162972560874 13.5751
43.75534137913236 13.5518
43.779334381108384 13.4983
43.803329401683186 13.4696
43.82732644241872 13.4836
43.8515130055166 13.4764
43.87551410707659 13.415999999999999
43.89951723350145 13.4528
43.923709934595614 13.4007
43.94771713129917 13.3877
43.97172635758096 13.335
43.99573761501002 13.3638
44.0199385169922 13.3307
44.04395385732619 13.3187
44.067971233533086 13.3261
44.09199064718605 13.2581
44.11619977548961 13.2158
44.14022328470671 13.1311
44.16424883610785 13.1726
44.18827643127035 13.1549
44.21249381139513 13.1101
44.236525514814076 13.0883
44.26055926674478 13.0951
44.28459506876863 13.0776
44.3088207262813 13.0402
44.33286064928722 12.9852
44.35690262714919 12.9933
44.38094666145278 12.972999999999999
44.4051806219871 12.9766
44.42922879003185 12.9219
44.45327901929361 12.8955
44.477331311362136 12.907
44.501573600619416 12.8105
44.525630039221795 12.8215
44.54968854541895 12.8089
44.573937102200176 12.8012
44.5979997645541 12.7579
44.622064499300315 12.7482
44.64613130803592 12.6783
44.67038823869318 12.703
44.69445921643748 12.6701
44.718532272981385 12.6157
44.742607409926194 12.6265
44.76687274034801 12.581
44.79095205918753 12.568
44.81503346325094 12.5834
44.839116954143876 12.539000000000001
44.86339071028742 12.5208
44.88747839599524 12.4682
44.91156817336837 12.4475
44.93566004401666 12.4235
44.959942251908146 12.4534
44.984038330325966 12.429
45.00813650686762 12.3727
45.03223678314731 12.3652
45.05652746888232 12.3304
45.08063196592069 12.3171
45.104738567558705 12.2685
45.128847275414856 12.2814
45.15314646515866 12.1962
45.17725940679741 12.2464
45.20137445952892 12.1953
45.22568004865265 12.1929
45.24979934496396 12.1939
45.27392075725247 12.1811
45.29804428714431 12.1025
45.322358426247604 12.0934
45.346486212804315 12.0692
45.370616121861914 12.0676
45.39474815505086 12.0454
45.41907087049246 12.0368
45.4432071734666 11.9612
45.46734560548283 11.9818
45.49148616817604 11.9811
45.51581748638564 11.9175
45.5399623320197 11.9034
45.56410931325473 11.8717
45.58825843173002 11.8346
45.61259837920865 11.8476
45.636751793816 11.8459
45.66090735060093 11.7619
45.68506505120716 11.7477
45.7094136545275 11.7359
45.73357566449271 11.7327
45.75773982322992 11.6961
45.78190613238733 11.6841
45.806263418194064 11.6549
45.83043404997326 11.6771
45.85460683713677 11.633
45.87897065658495 11.6066
45.90314777634752 11.5695
45.92732705646868 11.5585
45.9515084986045 11.5753
45.97588104735473 11.505999999999998
46.00006683541565 11.485999999999999
46.02425479047904 11.4941
46.04844491420549 11.5086
46.0728262191024 11.4531
46.09702070211635 11.4401
46.12121735879483 11.4004
46.14541619080294 11.3743
46.169806278764455 11.3758
46.194009483459034 11.3665
46.21821486849841 11.2956
46.24242243555223 11.2616
46.266821333570014 11.2594
46.29103328674601 11.2838
46.31524742696538 11.2803
46.33946375590237 11.2726
46.36387149104216 11.2135
46.38809221957392 11.1924
46.41231514186606 11.1491
46.436540259597464 11.1574
46.460956858999374 11.1223
46.48518638983522 11.1174
46.509418121166966 11.0943
46.533652054678114 11.0946
46.55807754555709 11.0615
46.58231590571962 11.0395
46.60655647313217 11.0291
46.630988654873654 10.9706
46.655233659129024 10.9434
46.67948087571551 10.9623
46.70373030632484 10.9402
46.72817142736393 10.9668
46.752425308428684 10.9058
46.77668140861147 10.8815
46.80093972960865 10.8574
46.82538981736788 10.8372
46.849652602470904 10.8106
46.87391761349769 10.7862
46.8981848521493 10.7797
46.9226439341274 10.7203
46.946915650573224 10.6807
46.97118959976749 10.672
46.99546578341598 10.6611
47.019933887188216 10.6609
47.04421456235744 10.6377
47.06849747711879 10.633
47.09278263318286 10.6279
47.11725978640143 10.5418
47.14154944775105 10.5112
47.165841355555656 10.5164
47.1901355115306 10.5268
47.214621741924994 10.5263
47.23892041698887 10.4743
47.26322134538975 10.4565
47.28771440635075 10.3942
47.31201986422527 10.442
47.33632758061436 10.417
47.360637557241866 10.3982
47.38513974410611 10.3935
47.40945426407847 10.3456
47.43377104948137 10.3534
47.45809010204344 10.322000000000001
47.48260144275502 10.2609
47.506925052572285 10.2447
47.53125093475548 10.2307
47.55557909103813 10.2614
47.58009961361992 10.2306
47.60443234110732 10.2072
47.62876734791564 10.1574
47.65310463578333 10.1415
47.6776343683373 10.1563
47.7019762413987 10.0982
47.72632040075572 10.0922
47.75066684815169 10.0456
47.77520581885936 10.0491
47.799556865477655 10.0311
47.823910205386 10.0538
47.84826584033272 10.0484
47.87281407745551 10.007
47.89717432569297 9.987919999999999
47.92153687423484 9.97513
47.94609208429692 9.97405
47.97045925671401 9.906
47.99482873471275 9.9218
48.01920052005013 9.89184
48.04376504619224 9.87668
48.068141469543484 9.8811
48.09252020552573 9.8653
48.11690125590099 9.862210000000001
48.1414751266064 9.77299
48.16586082917454 9.80817
48.19024885144316 9.76441
48.2146391951793 9.75378
48.239222439012764 9.765080000000001
48.26361744916137 9.7138
48.28801478610016 9.69989
48.31241445160131 9.66699
48.337007097209366 9.61774
48.36141144338331 9.649230000000001
48.38581812345755 9.63983
48.41022713920929 9.63026
48.434829215320704 9.6225
48.45924292604658 9.5871
48.48365897780325 9.58657
48.50807737237308 9.550180000000001
48.532688907799276 9.53629
48.55711201168574 9.4793
48.581537463754074 9.42181
48.60615611725119 9.44236
48.63058628942721 9.44915
48.65501881516546 9.41217
48.6794536962573 9.42858
48.70408185970339 9.4107
48.72852147531801 9.390839999999999
48.75296345168211 9.404110000000001
48.77740779059232 9.38684
48.80204549302823 9.35008
48.82649458091802 9.329880000000001
48.85094603676547 9.29523
48.87539986237231 9.280289999999999
48.90004713292306 9.24648
48.92450572200832 9.266580000000001
48.94896668628025 9.21897
48.97343002754588 9.22515
48.99808689542115 9.21534
49.02255501470614 9.20241
49.04702551642794 9.1514
49.0714984023988 9.12324
49.096164896893235 9.10263
49.120642575466796 9.05286
49.145122643748394 9.05713
49.16960510355558 9.04425
49.19428125404938 9.03306
49.2187685210852 9.03924
49.243258185121555 9.05635
49.26794160167084 9.02833
49.2924360839405 8.959769999999999
49.31693296869764 8.98507
49.34143225776915 8.94458
49.36612538195438 8.919139999999999
49.39062950396021 8.925289999999999
49.41513603578346 8.85548
49.4396449792564 8.87208
49.46434784069503 8.8607
49.488861631846454 8.87082
49.513377840166804 8.88317
49.537896467493745 8.80975
49.56260909589029 8.74355
49.587132585683285 8.77605
49.611658500018365 8.77246
49.636186840738596 8.74103
49.66090926588511 8.738
49.685442483902584 8.698780000000001
49.70997813385706 8.66537
49.734516217597076 8.66031
49.75924846937352 8.65785
49.7837914452858 8.65845
49.80833686055187 8.62588
49.83288471702571 8.60025
49.85762682540054 8.58709
49.882179588965734 8.54914
49.9067347993235 8.540239999999999
49.93129245833333 8.55238
49.95604445336378 8.52393
49.98060703442832 8.51582
50.005172069746266 8.488539999999999
50.02993150438364 8.49057
50.05450147301533 8.4629
50.07907390151433 8.43585
50.10364879174981 8.44956
50.12841816587289 8.44107
50.1529980044635 8.4007
50.17758031042124 8.38067
50.20216508562089 8.382480000000001
50.22694442953363 8.31857
50.25153416817468 8.3352
50.27612638170508 8.31373
50.300721072005196 8.25506
50.325510416102105 8.27661
50.350110084975064 8.2702
50.37471223628208 8.281039999999999
50.39931687190919 8.22146
50.424116246675766 8.1984
50.44872587605249 8.21086
50.47333799543065 8.19364
50.49795260670191 8.14794
50.52276204271512 8.133280000000001
50.54738166295838 8.13397
50.57200378079314 8.10853
50.596628398116835 8.09409
50.62144792604559 8.099
50.646077567609396 8.097560000000001
50.670709714377715 8.06825
50.69553683636198 8.04463
50.72017401885922 8.05603
50.7448137122895 8.00486
50.76945591856022 7.9832399999999994
50.79429318636823 7.98908
50.818940443716784 8.00204
50.84359021965163 7.96771
50.868242516085964 7.9434
50.893089960641895 7.92362
50.917747323549435 7.881239999999999
50.94240721271973 7.92013
50.96706963007175 7.90377
50.99192728239342 7.88548
51.01659478166073 7.86687
51.04126481489051 7.86826
51.06593738400761 7.853219999999999
51.090805275207074 7.798019999999999
51.11548294172845 7.802239999999999
51.14016314993547 7.77084
51.164845901758845 7.7598199999999995
51.18972406304274 7.7481800000000005
51.21441192780656 7.72345
51.23910234200271 7.69612
51.2637953075678 7.67921
51.288683770237945 7.65504
51.31338186432707 7.673989999999999
51.33808251561888 7.598319999999999
51.362978729967345 7.61278
51.387684521509755 7.61678
51.41239287610203 7.60153
51.437103795691165 7.59657
51.46201036644977 7.58533
51.486726441956634 7.523739999999999
51.51144508832545 7.5522800000000005
51.536166307509156 7.550439999999999
51.56108326624387 7.50542
51.58580965706056 7.5083
51.61053862657523 7.50178
51.635270176746864 7.43716
51.66019755512065 7.41431
51.68493429268881 7.40344
51.70967361681515 7.42212
51.73441552946465 7.3876
51.759353359237934 7.40207
51.7841004750961 7.385460000000001
51.80885018539685 7.359939999999999
51.833602492111254 7.31997
51.8585508051424 7.31095
51.883308330926425 7.332319999999999
51.90806845906181 7.28834
51.932831191525715 7.283860000000001
51.95779001977161 7.2660800000000005
51.98255798721516 7.220039999999999
52.00732856494335 7.2241100000000005
52.03229530577543 7.24005
52.057071130455945 7.189989999999999
52.081849571391054 7.176489999999999
52.106630630568695 7.17046
52.13160794279417 7.14965
52.15639426492067 7.16558
52.18118321127822 7.123289999999999
52.205974783860896 7.09104
52.23096269971011 7.076639999999999
52.255759551287994 7.093789999999999
52.280559035098186 7.036810000000001
52.30536115314103 7.05742
52.33035970494467 7.036230000000001
52.35516711807904 7.0043
52.37997717147198 7.025360000000001
52.40478986713005 7.0136199999999995
52.42979908731974 6.9635
52.454617094216 6.963010000000001
52.47943774942214 6.9561399999999995
52.50426105495102 6.93394
52.529280976059844 6.934089999999999
52.554109609024096 6.88589
52.57894089837482 6.88668
52.60377484613117 6.9015699999999995
52.62880550079408 6.886589999999999
52.65364479223379 6.8426100000000005
52.67848674816189 6.821619999999999
52.70352547971946 6.8583300000000005
52.72837279155837 6.8254
52.753222773982785 6.772880000000001
52.778075429022984 6.79097
52.80312495150885 6.78132
52.827982978797436 6.75462
52.85284368481815 6.74712
52.87770707160767 6.71695
52.90276741793998 6.704
52.92763619336701 6.68924
52.952507655698504 6.68765
52.977381806977576 6.675110000000001
53.00245301017842 6.66126
53.02733256653592 6.635619999999999
53.052214817996074 6.6428199999999995
53.077099766608484 6.625960000000001
53.102181859804446 6.62189
53.127072229988265 6.6306
53.15196530349892 6.601380000000001
53.17686108239249 6.555460000000001
53.20195409881522 6.570060000000001
53.22685531582556 6.54389
53.25175924441303 6.54188
53.27666588664027 6.53597
53.30176985962693 6.49908
53.3266819565689 6.47126
53.35159677336455 6.47815
53.376514312083096 6.43386
53.40162927507703 6.48548
53.42655228516116 6.412000000000001
53.45147802340193 6.35652
53.47660125628886 6.40645
53.50153247842639 6.36636
53.52646643496923 6.36985
53.55140312799818 6.38535
53.576537409691696 6.30279
53.60147960336152 6.29597
53.626424539786164 6.28886
53.65137222105307 6.28477
53.67651758529126 6.26154
53.70147078399681 6.25785
53.72642673383343 6.27749
53.75138543689533 6.255319999999999
53.776541917524526 6.23158
53.801506154876755 6.16635
53.826473151763246 6.18633
53.851442910284916 6.18162
53.87661054126026 6.16274
53.9015858509782 6.17628
53.92656392866066 6.14614
53.95154477641532 6.12395
53.976723591801296 6.11172
54.00171000771266 6.1243099999999995
54.02669920004598 6.11792
54.051691170915745 6.11463
54.076881204886796 6.00667
54.101878760928514 6.07405
54.12687910187696 6.0538099999999995
54.152077577768296 6.0493
54.1770835166946 5.997000000000001
54.20209224691339 5.99825
54.22710377055121 5.91202
54.25231352511594 5.9602699999999995
54.27733066384342 5.93602
54.30235060239643 5.94601
54.32737334290836 5.9105300000000005
54.35259441062629 5.88782
54.377622783395324 5.877280000000001
54.40265396455061 5.87253
54.42768795623251 5.85505
54.45292037169559 5.7629
54.477960012857906 5.75913
54.50300247099511 5.81102
54.52804774825457 5.76131
54.55329154616743 5.73626
54.57834249018678 5.69741
54.6033962597977 5.6973
54.6284528571545 5.71552
54.653708072335164 5.66524
54.67877035378786 5.64116
54.70383546947698 5.62565
54.72890342156389 5.63687
54.7541700889442 5.647069999999999
54.77924374251975 5.58406
54.8043202390049 5.52113
54.82959552413022 5.52554
54.8546777351945 5.52427
54.87976279569621 5.4809
54.90485070780914 5.45178
54.930137506558005 5.4358
54.95523115074295 5.4772099999999995
54.98032765308844 5.4164
55.005427015775496 5.45711
55.03072536339621 5.42125
55.05583047570572 5.33939
55.080938454927676 5.32787
55.10604930325027 5.3322
55.131359235107396 5.35921
55.15647585066083 5.3101199999999995
55.181595341907496 5.29157
55.20671771104285 5.2636199999999995
55.232039262617704 5.24493
55.25716741665048 5.21719
55.28229845518636 5.24155
55.30743238042802 5.1798
55.33276558731939 5.12332
55.357905315183636 5.0746199999999995
55.383047936390035 5.091819999999999
55.40819345314859 5.03845
55.433538351073295 5.02441
55.458689688238415 5.07402
55.483843927614096 4.94891
55.509197623043605 4.93938
55.53435769621134 4.940119999999999
55.55952067826466 4.90856
55.5846865714265 4.9253
55.61005202069737 4.91582
55.63522376553902 4.92132
55.66039842818645 4.85364
55.68557601087004 4.83801
55.7109532500271 4.756480000000001
55.73613670233794 4.81895
