TT I
1.2716486653135266 7.43858
1.2939594142134223 7.13095
1.3162702121660406 6.41061
1.3385810600174564 6.634360000000001
1.3608919586137629 6.81467
1.383202908801069 6.77295
1.405513911425503 6.04795
1.4278249673332093 6.46298
1.4501343378461518 5.3084
1.4724455028545926 5.83953
1.4947567236847858 5.49102
1.517068001182951 6.19832
1.5393793361953272 6.4585099999999995
1.5616907295681737 5.9785900000000005
1.5840021821477681 5.04915
1.60631369478041 5.37714
1.6286252683124185 5.11672
1.6509369035901333 4.44126
1.6732468618895553 5.27876
1.695558623192809 5.13075
1.7178704487808514 4.50508
1.7401823395001077 4.7207
1.7625012545597203 5.00885
1.7848028405262486 4.61103
1.8071218901122095 5.04976
1.8294236121921872 4.67264
1.8517427996910911 4.90747
1.8740620574440425 4.66581
1.8963639900671978 4.69873
1.9186833908139995 5.09615
1.9409854680117449 5.11121
1.9633050151394713 4.90771
1.9856246367570705 4.64182
2.0079269371922672 4.555680000000001
2.03024671027244 4.42252
2.0525491637446027 4.68791
2.074869091674931 4.80215
2.097171701569106 4.4278900000000005
2.1194917877373847 5.02566
2.141811954326636 5.51222
2.164114805233074 4.91035
2.186435135143035 6.26409
2.208738150935709 14.9526
2.231058647554722 32.0625
2.2533792288321184 25.8082
2.275682498336085 11.4856
2.298003251406138 5.94303
2.3203066942619714 5.60575
2.3426276225136022 5.77107
2.3649486396617507 6.17326
2.387252348930071 6.385619999999999
2.4095735463442893 6.380319999999999
2.4318774374315884 6.04062
2.4541988185014043 6.3085
2.476502894794693 6.5222
2.498824462909887 6.16613
2.521146125856138 7.25892
2.5434504863470337 7.6445
2.5657723414244717 7.61057
2.588076895590662 8.585560000000001
2.610398946189713 8.40811
2.6327210958598384 7.428489999999999
2.6550259469304716 7.8426100000000005
2.6773482972090137 8.39237
2.6996533504259 8.50395
2.7219759047039602 7.67558
2.744298562293959 8.26345
2.7666039251246595 7.97548
2.7889267918020164 8.58285
2.8112323652516555 8.31006
2.833555444408179 8.693060000000001
2.8558786311183852 8.82947
2.8781845268938557 8.82208
2.9005079311721484 9.29854
2.9228140460410397 8.81971
2.9451376712799635 9.417119999999999
2.967444008632326 9.43936
2.9897678582247247 9.76195
3.0120918213106695 10.5415
3.0343984987899373 10.6996
3.0567226913198637 10.9267
3.079029599759726 11.7614
3.101354025127254 11.9741
3.123678568232338 12.6132
3.145985829517914 12.9078
3.16831061055229 14.0421
3.1906181112775593 14.2809
3.212943133635653 14.6478
3.2352682779763207 15.2952
3.2575761442691227 15.519
3.2799015350264273 15.6976
3.302209649240067 16.1643
3.3245352898092655 16.9607
3.3468436553365257 17.4953
3.369169549113219 18.0296
3.3914955708171384 19.0061
3.413804319727358 19.6782
3.4361305997334863 19.3246
3.4584396084414553 19.7581
3.4807661501462652 20.4708
3.503092824025881 20.5794
3.5254022288463154 20.908
3.5477291695206588 21.8239
3.5700388426251948 23.1432
3.5923660534916446 24.2818
3.6146934007816114 40.3892
3.637003482731501 98.5259
3.6593311053109985 112.384
3.681641464033634 62.7992
3.7039693653009733 31.9811
3.726297407241705 26.6731
3.7486081875460804 25.72
3.7709365132734978 26.2558
3.793247578841633 26.7076
3.8155761917550093 26.8985
3.8378875459837216 27.1965
3.8602164494827234 27.6465
3.882545499606844 28.3226
3.9048572932539183 28.9607
3.9271866390645718 29.164
3.9494987298666713 30.1231
3.971828374764527 30.4593
3.9941581705403255 30.71
4.016470713506008 31.1621
4.038800813471445 31.6956
4.061113662089144 32.853
4.0834440696459176 33.626
4.105774632334751 34.1598
4.128087945865126 34.7868
4.150418821249301 35.7834
4.172732448931298 37.1573
4.195063640413578 38.7142
4.2173775856475215 43.148999999999994
4.239709096631102 78.8192
4.262040768704612 266.615
4.284355196706267 368.648
4.306687193387355 238.94099999999997
4.329001947444346 89.3502
4.35133427213731 49.3651
4.373666762177566 44.5668
4.395982011761091 44.4945
4.418314834921175 45.91
4.44063041906622 54.9872
4.4629635787515625 67.6085
4.4852969080429785 67.2917
4.5076130004776225 55.2676
4.529946671403969 50.3253
4.552263106909177 49.9411
4.574597122877047 50.93
4.596931312711224 51.6856
4.619248269273446 52.6281
4.6415828092605835 53.7
4.663900117405352 54.93600000000001
4.686235010953232 56.1434
4.708552674085913 57.4379
4.730887924602802 58.9284
4.753223354952695 60.351000000000006
4.775541557023902 61.7941
4.797877349456786 63.316
4.820195915032126 65.2071
4.842532072957498 66.3069
4.864868414979744 68.3899
4.88718753227192 70.5284
4.909524244902505 72.2814
4.931843734218147 73.8484
4.954180820867835 76.4331
4.976518095879839 78.9322
4.998838149695359 82.0692
5.021175803844231 85.4628
5.043496238205739 88.7451
5.065834274903528 92.9501
5.088172504230693 97.4577
5.1104935158799565 103.039
5.132832132875765 125.84299999999999
5.155153533596801 172.25599999999997
5.1774925416746225 203.75
5.199814334878411 312.28
5.2221537374521505 862.7919999999999
5.244493338631803 2578.24
5.266815727034316 7501.24
5.289155727832427 12848.1
5.311478517248165 9327.13
5.333818921080011 2997.3
5.356159527788849 566.0269999999999
5.3784829252032536 186.92700000000002
5.400823940070432 143.95600000000002
5.423147747031976 128.156
5.445489173474152 118.07700000000001
5.467830807066149 112.552
5.490155234831516 108.259
5.512497285125229 105.00200000000001
5.534822130975162 103.156
5.557164601388673 101.176
5.579489868738879 98.7297
5.601832762690846 97.7379
5.6241758697774475 97.3997
5.646501775867269 95.9745
5.668845311622074 94.137
5.691171647754637 93.5643
5.713515615597765 92.1552
5.735859800852677 91.5174
5.758186788542988 90.5917
5.780531411018185 90.2545
5.802858837297399 89.6891
5.825203900414495 89.6128
5.8475491852224 89.7577
5.869877275883075 90.7166
5.892223006467101 91.2138
5.914551544266608 92.3503
5.936897724049891 94.6714
5.959244129804903 99.2471
5.981573344815301 111.79700000000001
6.0039202049061 182.94400000000002
6.026249875609095 392.74300000000005
6.04859719346037 864.1519999999999
6.070927323278297 2061.77
6.093275102315365 4310.86
6.115623113320588 5101.53
6.137953938319995 3189.4
6.160302415650845 992.909
6.182633708324452 237.829
6.2049826554078376 114.318
6.227331838745022 92.3667
6.249663839443684 84.8363
6.27201349767565 82.7514
6.294345974611799 89.8163
6.316696111167083 104.132
6.339046488263839 98.4396
6.361379686074702 81.1852
6.383730546639482 71.7358
6.406064229255215 68.5628
6.428415576718203 68.457
6.450749747566656 66.8588
6.47310158535871 65.8487
6.495453669698332 64.9759
6.517788579421056 64.5871
6.540141159237969 63.7933
6.562476565766648 63.1871
6.5848296444934045 62.8981
6.607182974060425 62.3209
6.6295191323281015 62.6865
6.651872965955752 66.7427
6.6742096296068985 96.4987
6.6965639707294615 150.642
6.71891856698715 152.481
6.741255995248479 101.758
6.763611104154477 69.8661
6.785949046381137 60.7218
6.808304671371482 58.6575
6.8306605557940046 58.0368
6.852999275508618 57.1761
6.875355681171544 56.9818
6.897694923437771 56.396
6.92005185377892 56.3369
6.9423916220322655 56.4142
6.964749080490181 55.6233
6.987106804399774 55.7659
7.009447368180821 55.3696
7.031805625367033 54.8311
7.054146723727803 55.4106
7.076505517631004 55.7185
7.098864581288365 55.657
7.121206488070854 55.1371
7.143566093607822 54.7269
7.165908543567245 55.1796
7.188268694426048 55.4179
7.2106291193438095 55.568999999999996
7.232972390625943 56.9408
7.255333366030969 71.303
7.277677189091925 133.56799999999998
7.300038718428332 191.731
7.322400526130865 161.858
7.344745183422596 96.3994
7.367107550224791 63.4355
7.389452767901992 56.7955
7.411815697249891 55.0634
7.434161478756298 54.6425
7.456524974096713 54.3317
7.478888753837185 54.3673
7.501235387657368 54.6179
7.523599738562711 54.3916
7.545946944825532 54.6799
7.568311870344528 54.9116
7.5906770845765665 55.4052
7.613025156078678 56.8651
7.635390950099687 58.4987
7.657739602662809 57.5194
7.680105979923558 55.9933
7.702472650212829 55.8829
7.724822180948224 55.7552
7.747189439655568 55.9232
7.769539560075357 56.3385
7.791907410653562 56.4231
7.81425812420825 56.272
7.836626570110925 56.7519
7.858995315087906 57.6847
7.881346924933401 57.6583
7.903716270417482 57.8938
7.926068482028405 58.4625
7.948438431475253 58.7898
7.9708086843180235 59.7401
7.993161805171116 59.9398
8.015532667162402 60.2395
8.037886398416653 61.4038
8.060257873014221 61.9308
8.082629655331942 62.7414
8.104984308787587 63.6176
8.127356708900503 67.0873
8.149711981398308 73.3576
8.172085002766314 76.4271
8.194458336181368 72.7206
8.216814543847752 69.249
8.23918850371002 69.1053
8.26154533906492 70.0106
8.283919928836452 71.5905
8.306277395339652 72.2887
8.328652618483376 73.3498
8.351028159736202 75.3034
8.373386579575245 77.2849
8.395762759396959 79.4666
8.418121819038275 84.5907
8.440498640894003 98.5958
8.462875785192262 114.412
8.485235811156207 122.429
8.507613602688501 152.445
8.529974277114228 228.06
8.552352719347912 351.56
8.574731488360351 598.116
8.59709314210385 1136.81
8.619472567021075 1818.29
8.64183487789147 2156.99
8.664214962183097 1852.56
8.686577933647762 1043.93
8.708958680784317 387.504
8.731339760774953 165.87900000000002
8.753703729764451 111.60799999999999
8.77608547780821 98.9235
8.798450116065078 95.12100000000001
8.820832535634787 92.0255
8.843215292401656 90.4457
8.865580941199045 88.8206
8.887964374703538 87.9373
8.910330701447199 89.404
8.932714815164482 92.1886
8.955099270424924 91.6107
8.977466620733543 88.1504
8.999851761421976 85.3352
9.022219798361645 83.4198
9.04460562795561 82.8791
9.066991803441677 82.4378
9.089360876979615 82.4855
9.111747746589993 82.196
9.13411751544971 81.2661
9.156505082664324 81.0785
9.178875550323522 81.3225
9.20126381862328 81.7953
9.223652438908596 82.3071
9.246023961427412 82.2524
9.26841328802173 81.2104
9.290785518039224 81.1419
9.313175554425882 81.3575
9.335565947154315 81.3734
9.357939245086508 81.6748
9.380330352834827 82.0377
9.40270436697103 82.0726
9.425096193225055 82.3664
9.447488380180165 83.1032
9.469863475295412 83.3574
9.492256385987508 83.7622
9.514632206018318 84.5681
9.537025843935714 84.7383
9.559402392368193 85.6257
9.581796761000229 86.7069
9.604191496441521 87.56200000000001
9.626569144158516 90.9918
9.648964615551032 96.4058
9.671343000390081 98.9107
9.693739211225699 96.1969
9.716135793237463 93.1996
9.738515290448102 92.115
9.760912617143402 93.0397
9.783292860202891 94.1987
9.805690935076182 95.7031
9.828089385495742 96.4576
9.850470754023561 98.081
9.872869957865444 107.135
9.89525208097539 124.458
9.917652041736662 138.859
9.940052382417589 136.50799999999998
9.962435644102392 135.691
9.984836746950979 161.205
10.007220771957746 218.365
10.029622640473708 314.143
10.052007432299963 484.36800000000005
10.074410069984072 775.095
10.096813093716005 1233.44
10.119199042482517 1765.76
10.141602840636468 1994.44
10.163989564971628 1634.53
10.186394141051062 915.0830000000001
10.208799107559706 408.38
10.231187001965623 192.611
10.253592751657669 127.01299999999999
10.275981430388155 113.684
10.298387966769793 113.09
10.320794897965431 116.07
10.343184759907361 115.71600000000001
10.36559248305461 109.15700000000001
10.387983138083852 103.461
10.410391656691655 104.64299999999999
10.432800574501677 113.177
10.455192425893369 127.90100000000001
10.47760214443012 152.20600000000002
10.499994797678786 194.59400000000002
10.522405320453982 272.22700000000003
10.54479877906917 388.973
10.567210109595656 511.796
10.5896218454736 581.244
10.612016518879773 520.639
10.634429067781074 362.629
10.656824555333241 211.63099999999997
10.679237920773568 128.084
10.701651695961992 96.226
10.724048411481384 88.7442
10.746463008485165 86.3234
10.768860546937125 84.2233
10.791275969274796 82.7304
10.81369180576079 81.5877
10.836090585366925 80.3961
10.858507252467449 79.4011
10.88090686379991 78.2572
10.903324365036394 77.6214
10.925724811614439 77.8736
10.948143150509463 79.4582
10.970561909719066 79.11399999999999
10.992963615930844 77.1486
11.015383218085756 74.7075
11.037785768347074 73.2927
11.06020621697282 72.3873
11.082627090322113 71.9019
11.105030913430326 71.3543
11.12745263854165 71.86399999999999
11.149857314510728 76.3932
11.172279894912576 83.679
11.194702904450653 84.6755
11.217108866490921 80.0182
11.239532736615194 74.8268
11.26193956033512 72.202
11.284364294577085 70.3077
11.306789462371718 67.9436
11.329197585398376 66.9012
11.351623622610898 66.5824
11.37403261614354 65.6812
11.396459526308487 65.5627
11.418869393879497 64.9295
11.441297180532617 64.5959
11.463725406927658 64.1963
11.486136592353875 64.2871
11.508565700543707 65.2315
11.530977768845315 67.3354
11.553407762368774 68.6545
11.575838200059769 67.9884
11.598251599479612 65.8281
11.620682927815501 64.0126
11.64309721895548 63.5281
11.665529441478206 62.8269
11.687962112597958 62.4559
11.710377748130886 62.5796
11.732811318753434 62.6416
11.755227854859067 62.4512
11.777662328529495 62.2844
11.800079768750786 62.1188
11.822515149015453 61.9949
11.844950984084935 62.3238
11.867369787303163 61.9912
11.889806534289491 61.9488
11.912226250487029 62.5066
11.934663912939751 62.7377
11.9571020346363 62.3288
11.979523127133968 62.2219
12.001962169624331 62.7716
12.024384183972964 63.316
12.046824150809913 65.9108
12.069264581333726 70.7791
12.091687985297767 76.5518
12.11412934550045 85.4362
12.136553680195208 99.4016
12.158995973632788 121.766
12.181438735204349 149.83100000000002
12.20386447284199 182.49400000000003
12.226308172985636 202.865
12.24873485024193 202.69400000000002
12.271179492516982 168.662
12.293607112949127 128.436
12.316052700916226 100.1
12.338498763250042 80.8555
12.360927805303868 70.9188
12.383374818673879 66.8383
12.405804812803074 64.4036
12.428252780773262 63.8111
12.45070122756722 63.8489
12.473132656675375 63.7219
12.49558206341869 63.986999999999995
12.518014453510101 63.9375
12.540464823770117 64.1937
12.562915677315177 64.5033
12.58534951575545 65.025
12.607801338171472 67.5047
12.630236146511358 73.3915
12.652688941369085 78.9985
12.675124723177234 79.4408
12.697578494048786 75.3399
12.720032754458185 70.1924
12.742470003354093 67.9967
12.764925245138771 67.436
12.787363476431278 67.5448
12.809819703166806 67.6146
12.83227642391173 68.1909
12.854716135692716 68.9072
12.877173846755147 69.9327
12.899614549869717 70.4606
12.9220732548287 71.1193
12.94453245827299 71.6344
12.966974655289818 72.5127
12.989434858002571 73.1602
13.011878055298721 74.0241
13.034339260862497 74.8891
13.056800969391883 76.1128
13.079245674017244 77.9037
13.101708390774869 79.3944
13.12415410463411 85.0302
13.146617833206086 95.4754
13.169064559883248 106.455
13.191529303857127 120.081
13.213994557076367 141.546
13.236442809902437 177.295
13.258909083908291 231.168
13.28135835851934 298.084
13.30382565690295 373.68199999999996
13.326293469022952 427.778
13.348744283242008 424.26599999999996
13.371213125129904 363.37300000000005
13.39366497011003 267.974
13.416134845360597 180.138
13.438605238843131 126.561
13.46105863690397 105.11200000000001
13.483530069144786 102.40899999999999
13.505984506951902 106.97200000000001
13.528456981549432 115.215
13.550929978879088 128.532
13.573385983253365 151.62
13.595860028340867 189.66299999999998
13.618317081455832 241.515
13.64079217790333 299.96299999999997
13.663250283359057 346.98699999999997
13.685726434770173 374.074
13.708203115221277 342.209
13.730662806148091 264.784
13.75314054697177 189.335
13.775601299246777 129.514
13.798080104050406 97.6335
13.820559442405358 85.2164
13.843021793671388 81.5038
13.865502201420897 79.5725
13.887965623051947 78.8138
13.910447103807167 78.012
13.932929122629764 76.762
13.955394156785959 76.0019
13.977877254034569 75.3276
14.000343367582113 74.4989
14.022827546871707 73.8885
14.045294743423524 73.3154
14.06778000837062 72.5299
14.090265817715476 72.2225
14.112734645763819 72.0705
14.13522154619454 72.0522
14.157691466286913 72.0566
14.180179461423874 71.8715
14.202668005486178 71.2604
14.22513957064374 70.3308
14.247629214846473 70.03699999999999
14.270101881097517 69.6732
14.29259262906496 70.1683
14.315083930490205 71.0727
14.337558255389705 71.2802
14.360050666019726 71.1016
14.382526101071944 69.7575
14.405019624534942 68.8947
14.427513705993134 68.2577
14.449990813291825 68.199
14.47248601302899 68.2403
14.49496423954951 68.3798
14.517460561197822 68.4784
14.539939910570322 68.0421
14.562437357763558 68.656
14.58493536931253 69.5348
14.607416409993311 70.65
14.62991555254159 71.5082
14.652397725157423 71.5283
14.674898002342799 70.5735
14.697398848433282 69.8401
14.719882725991326 70.4374
14.74238471217934 70.95100000000001
14.764869730765593 73.3284
14.787372860692983 76.4568
14.809876564079925 80.5111
14.83236330125751 86.0227
14.854868153850365 94.0198
14.877356041159485 106.791
14.899862046604186 124.63
14.922351087688757 150.067
14.944858249632887 179.0
14.967365991421232 207.62099999999998
14.989856770231246 220.55
15.012365673994204 220.615
15.03485761569738 195.18200000000002
15.05736768508665 152.787
15.07987833888692 118.721
15.102372032001655 92.166
15.124883856909658 77.4391
15.14737872204565 72.2574
15.169891721717274 70.2801
15.192405310371893 70.0626
15.214901940621196 70.6456
15.237416709527137 70.8846
15.259914520936249 70.9696
15.282430473753607 70.2039
15.304947020131227 68.7205
15.327446610371178 67.6637
15.349964346154254 66.9621
15.372465126703139 66.4134
15.394984055556009 66.2278
15.417486030076159 65.8939
15.44000615566487 65.3325
15.462526881230803 65.431
15.485030653812652 65.9459
15.507552581617434 65.8624
15.530057557334603 66.2017
15.55258069104857 65.8126
15.575104429329837 65.7684
15.597611216864632 65.4012
15.620136166564563 65.4374
15.6426441664095 65.9888
15.665170331202765 67.6515
15.687697105158826 70.3448
15.710206930593545 73.6588
15.732734925158933 77.5282
15.755245972089478 83.2759
15.77777519094324 91.8827
15.800287463046663 104.51100000000001
15.822817909869592 123.325
15.84534897229804 145.435
15.867863089299354 168.847
15.890395385222186 186.692
15.912910736597423 193.331
15.935444269699861 184.419
15.957978423016485 156.964
15.980495633101265 125.913
16.003031029129367 99.6379
16.02554948280019 78.48899999999999
16.048086125229432 68.5053
16.070623392487107 65.313
16.09314371869582 64.6788
16.11568223789321 63.81100000000001
16.13820381691126 62.706
16.160743591742527 61.4192
16.183283996022084 60.4423
16.205807461423195 59.335
16.228349126881973 58.8151
16.25087385432698 58.5158
16.27341678466365 58.1034
16.29594277784926 58.0996
16.31848697676433 58.608999999999995
16.341031811604868 58.9298
16.36355971058487 59.3262
16.3861058195587 59.0253
16.40863499352978 57.8812
16.431182380342005 56.6733
16.453730407713202 56.0176
16.476261501364792 55.5948
16.498810812136167 55.1859
16.52134319004079 55.3357
16.54389378792203 55.1205
16.566445031001553 55.041000000000004
16.588979342490088 54.681999999999995
16.61153187824822 54.6393
16.634067483263312 54.4399
16.656621315414416 54.486999999999995
16.679175797408888 54.1495
16.701713349928728 54.2981
16.72426913389191 54.382
16.74680798922351 54.6009
16.76936507887444 54.7386
16.791905240734874 54.8619
16.814463639794468 54.5665
16.837022695210294 54.6308
16.859564824093756 54.8853
16.882125194503903 55.6556
16.904668639217885 56.6971
16.927230328348003 56.729
16.949792678493612 56.8439
16.972338104193863 55.9494
16.994901778652235 55.3837
17.017448529496576 55.2394
17.040013531998152 55.2757
17.06257920018044 55.5998
17.0851279459922 56.4758
17.107694947817667 57.0754
17.130245028099072 57.9714
17.15281336730298 59.2226
17.17536478578733 60.8489
17.19793446610687 62.9715
17.220504818648422 65.75
17.243058251703697 69.1222
17.265629950971032 74.2034
17.288184731571736 78.8938
17.310757781306908 83.5785
17.33333150794385 84.7143
17.355888317140174 83.3246
17.37846339986244 77.7393
17.401021565958885 70.9677
17.42359800851343 65.7405
17.44617513265564 61.9081
17.468735341390783 59.8035
17.491261035594565 58.8212
17.51396340099364 58.5029
17.536490463869136 59.0145
17.559018209820174 58.6624
17.58154663977963 59.0695
17.604251766089718 58.9999
17.626781572227713 59.066
17.64931206518155 59.1889
17.671843245885103 59.8193
17.69455114821572 60.3015
17.717083712612634 60.5528
17.739616967569667 60.4827
17.762150914021706 60.8014
17.78486160749854 60.5859
17.807396945166804 61.3858
17.829932977143503 61.8985
17.85246970436452 63.1039
17.875183204129467 64.9436
17.897721330097664 66.8757
17.920260154126645 69.0724
17.942799677153296 71.7912
17.9655159983646 75.3936
17.988056927677544 80.5678
18.010598558807683 88.1164
18.033140892692916 97.7673
18.05586005052525 109.035
18.07840379824407 120.126
18.10094825154059 130.795
18.12366954819864 138.495
18.146215420998306 138.985
18.16876200220057 130.76
18.191309292745153 117.417
18.214033452627167 103.34899999999999
18.236582170236648 91.6753
18.259131600016456 85.8147
18.281681742907335 85.5028
18.304408781233683 89.4554
18.32696035875955 94.646
18.349512652227624 99.7864
18.372065662579683 104.59700000000001
18.394795594587553 105.876
18.41735004715306 102.85
18.43990521943684 96.399
18.46246111238171 87.3904
18.485193953325208 77.7764
18.507751296070428 70.1464
18.530309362314178 65.7992
18.552868153000343 63.3385
18.57560391815056 62.0389
18.59816416623245 61.3029
18.620725141597372 60.7803
18.643286845190268 60.379
18.666025549835414 60.05
18.688588718427933 59.4356
18.711152618092243 59.2115
18.73389353884365 59.0058
18.75645890921984 58.6049
18.77902501351406 58.3311
18.801591852673102 58.225
18.824335739722738 57.7809
18.846904057212626 57.7153
18.8694731124168 57.4751
18.89204290628315 57.2499
18.914789774966803 57.1792
18.937361054791623 56.8924
18.959933076131318 56.6673
18.982505839934877 56.6331
19.00525570560582 56.5901
19.027829963004184 56.4453
19.05040496572238 56.6531
19.072980714710468 56.7443
19.095733592739563 56.7374
19.11831084296757 56.9584
19.140888842324735 57.2656
19.16346759176222 57.6653
19.18622349753803 58.1385
19.208803755869358 58.888999999999996
19.231384767143577 59.993
19.253966532312948 61.5073
19.276725481241822 63.4409
19.29930876296784 66.0055
19.3218928014549 69.0345
19.34465404436217 72.1701
19.36723960516257 75.2998
19.389825925592426 76.3168
19.412413006605938 75.4016
19.43517731967805 72.196
19.457765930683355 68.0148
19.48035530514408 63.3301
19.50294544401556 59.353
19.525712842708348 56.4893
19.54830451925909 55.1732
19.570896963095727 54.0187
19.593490175174704 53.4788
19.616260674962184 53.4682
19.638855432416964 53.3219
19.661450960992624 53.3442
19.68404726164677 53.1279
19.706820878021247 52.8809
19.729418731756834 53.266999999999996
19.752017360452857 52.9928
19.77461676506804 53.181999999999995
19.797393513540218 53.0674
19.819994478951667 53.2273
19.84259622316767 53.8513
19.8651987471481 54.2613
19.887978643247177 54.4146
19.91058273574792 55.0045
19.933187610901943 55.6091
19.955969879466828 56.5932
19.97857632894404 58.0452
20.00118356396599 59.3676
20.023791585494575 61.6767
20.046577028914875 64.4906
20.069186632506966 66.8164
20.091797025500632 68.7977
20.114408208858933 69.4526
20.137196842715273 69.1726
20.159809615886765 67.9327
20.18242318232135 65.2698
20.20503754298326 63.0625
20.227829382875154 61.9501
20.250445341109344 61.6627
20.27306209647285 62.4101
20.29567964993108 63.5062
20.31847471147704 64.6533
20.34109387027612 65.6181
20.363713830075454 65.3704
20.386334591841646 63.8406
20.409132890679302 61.1279
20.431755265564437 58.2595
20.454378445325528 55.7389
20.477002430930366 53.6079
20.499803982716553 52.3373
20.522429589228004 51.4943
20.54505600449589 50.9615
20.567683229489194 50.7025
20.590488049900088 50.4162
20.61311690359731 49.9937
20.63574656993626 49.7798
20.658553853717297 49.4154
20.681185154618298 49.2679
20.703817271080066 49.2725
20.72645020407368 48.9313
20.749260783967177 48.8181
20.771895359337133 48.6372
20.794530754161617 48.7467
20.817166969412938 48.4822
20.83998086114876 48.5754
20.86261872660049 48.4903
20.885257415405402 48.4343
20.90789692853701 48.2994
20.930714147864748 48.1906
20.953355319030678 48.2498
20.97599731745334 48.281000000000006
20.99864014410749 48.2365
21.021460706796564 48.3037
21.044105199328826 48.4179
21.06675052302631 48.6579
21.089396678865015 48.8002
21.112220600704806 49.1279
21.134868430275347 49.4784
21.15751709492456 49.648
21.180166595629693 50.0854
21.202993892429635 50.6177
21.22564507473034 51.047
21.24829709602816 51.1303
21.27112693608965 51.175
21.293780644891275 51.1387
21.316435195634053 50.4476
21.339090589297417 49.6324
21.361923832041875 49.3406
21.384580921090404 48.5378
21.407238856007325 48.071999999999996
21.429897637773326 48.0293
21.45273429906592 48.0933
21.475394784108598 48.0238
21.498056118951983 47.9383
21.520718304578022 48.0633
21.543558400304388 48.2026
21.566222297108816 48.3823
21.58888704765135 48.3705
21.61155265291521 48.6503
21.63439619898156 49.0599
21.657063523335786 49.2705
21.67973170537063 49.7011
21.7024007460706 50.2422
21.72524775840385 50.9738
21.747918526116475 52.2079
21.770590155457388 53.1831
21.79326264741238 54.7556
21.816113141960237 56.4979
21.838787368860547 58.5353
21.861462461341976 60.2342
21.884315579735777 62.2222
21.90699241312273 63.4174
21.92967011506078 64.1837
21.95234868653799 64.059
21.9752053151131 62.8681
21.997885635446785 61.0883
22.020566828293532 59.2344
22.04324889464272 57.7041
22.066109049404666 56.3929
22.088792872571794 55.8389
22.111477572219204 55.6298
22.1341631493376 55.8636
22.157026846313123 55.6276
22.179714188221507 55.0188
22.202402410582668 54.0025
22.22509151438863 52.615
22.24795876962584 51.383
22.270649646204486 50.2349
22.293341407213727 49.6205
22.316034053646906 49.1271
22.338904883215342 48.8645
22.36159931041458 48.7503
22.38429462602756 48.6816
22.40699083104897 48.6894
22.429865251039757 48.5962
22.452563244831367 48.6433
22.47526213102522 48.4989
22.49813925616515 48.473
22.520839937143307 48.1986
22.543541513520587 48.2847
22.56624398629403 48.2384
22.589124730075895 48.0321
22.611829005656723 48.3271
22.63453418063466 48.148
22.657240256008077 48.4506
22.680124634582935 48.5544
22.70283252079775 48.8439
22.725541310413075 49.0424
22.74825100442868 49.0549
22.771139033969575 49.5849
22.79385054687155 49.8801
22.81656296718292 50.54
22.83927629590484 51.5793
22.862167992606945 52.3227
22.88488314827121 53.5605
22.907599215359284 54.4951
22.93031619487366 55.7749
22.953211574954405 56.6597
22.975930389478226 57.6342
22.998650119445763 57.6422
23.02137076586092 57.0875
23.044269845560063 55.9085
23.06699233506288 54.391000000000005
23.089715744034912 52.6313
23.112617610931565 51.0118
23.135342869061212 49.707
23.158069049684816 49.0434
23.1807961538087 48.5347
23.20370174880544 48.4694
23.226430710184808 48.4762
23.249160598093425 48.5209
23.271891413539002 48.4783
23.294800752937697 48.3521
23.31753343374794 48.6033
23.340267045128353 48.5599
23.36300158808808 48.9302
23.38591468821339 49.2552
23.408651104658304 49.5849
23.431388455719986 50.2351
23.454126742409 50.9599
23.4770436196085 52.138000000000005
23.499783787914662 53.4548
23.522524894889884 54.3138
23.54526694154616 55.5173
23.56818761219047 56.6615
23.59093154860734 57.2074
23.613676427751283 57.7504
23.636422250635754 57.0016
23.659346731118656 55.4394
23.68209445191868 53.6563
23.704843119509587 51.6725
23.72759273490623 49.4012
23.750521041644767 48.1254
23.77327256312355 47.1079
23.796025035462787 46.4388
23.818956224555475 45.908
23.841710609113413 45.7019
23.86446594758979 45.5228
23.887222241002014 45.4117
23.910157285144578 45.0762
23.932915498962537 45.0328
23.955674670778713 44.8571
23.978434801611975 44.6791
24.001373717286125 44.4665
24.024135776723917 44.275
24.046898798245582 44.1776
24.06966278287146 44.1655
24.092605586582614 44.0403
24.115371508023642 43.7632
24.1381383956401 43.8083
24.16090625045381 43.7667
24.183852958731244 43.7723
24.206622758582608 43.6096
24.229393528706886 43.315
24.252165270127392 43.4722
24.27511589952438 43.3208
24.297889594216997 43.1852
24.32066426328598 42.8774
24.34343990775613 43.0452
24.36639447485003 42.9484
24.38917208083877 42.9444
24.41195066531332 42.9368
24.43490819850244 42.92
24.457688750692377 42.7442
24.48047028445616 42.8415
24.503252800821233 42.8741
24.526214300784112 42.9144
24.548998793132213 42.8807
24.57178427117417 42.7232
24.59457073593893 42.7737
24.617536219319863 42.6388
24.64032466834748 42.6279
24.663114107195035 42.5989
24.685904536893013 42.3177
24.708874020360852 42.2389
24.731666442613744 42.2754
24.754459858818787 42.1863
24.777254270007962 41.9213
24.80022777025625 42.045
24.82302418230472 42.0089
24.845821592443674 42.0705
24.86862000170663 41.9368
24.891597535453727 41.7021
24.914397953892728 41.9677
24.93719937456671 41.8837
24.96000179851076 41.9943
24.98298338249997 42.2265
25.00578782394922 42.464
25.028593271784167 42.5413
25.05157790644186 42.9294
25.07438537804115 42.9365
25.097193859145293 43.1847
25.120003350792075 43.3285
25.142992065061257 43.8407
25.165803588823465 43.9955
25.18861612625217 44.3317
25.211429678386736 44.2843
25.234422489079968 44.585
25.257238081693636 44.5778
25.280054692141732 44.6795
25.3028723214652 44.6258
25.325869245420463 44.7259
25.348688923599397 44.7699
25.371509623787006 44.5312
25.394331347025812 44.3358
25.41733240110666 43.8871
25.440156181590016 43.3066
25.46298098826268 42.9235
25.48580682216873 42.2884
25.50881202326435 41.6264
25.53163992281684 41.2008
25.55446885274561 41.0298
25.577298814096377 40.6569
25.600308179121807 40.6146
25.623140214533745 40.5789
25.64597328451537 40.5366
25.66898578564376 40.1923
25.691820936010206 40.3091
25.714657124097695 40.3377
25.737494350954734 40.2195
25.760511045684957 40.2026
25.783350361364224 40.2479
25.806190718969255 40.2492
25.82903211955018 40.4571
25.852053024868923 40.5428
25.874896522722523 40.4526
25.897741066713106 40.2936
25.920586657892454 40.3836
25.943611790812668 40.481
25.966459487728237 40.61
25.989308234998564 40.7168
26.01215803367705 40.966
26.03518741123814 41.1318
26.05803932412957 41.2234
26.080892291600094 41.2284
26.10374631470478 41.4828
26.12677995397268 41.4969
26.14963609978026 41.5134
26.172493304397875 41.1675
26.19535156888223 40.9942
26.218389486949604 40.5883
26.241249882640123 40.3712
26.26411134137826 40.1467
26.28715248187403 40.0171
26.31001607820869 39.8485
26.3328807407756 39.7163
26.35574647063438 39.8722
26.37879191991473 39.8417
26.401659795896734 39.7246
26.424528742360263 39.9387
26.447398760366614 40.0917
26.470448535598294 40.2114
26.49332070826805 40.4865
26.516193955675355 40.8333
26.53906827888316 41.0327
26.562122397260108 41.0485
26.584998883685063 41.4113
26.607876449110325 41.6982
26.63075509460056 41.8576
26.65381357334404 41.9635
26.67669439061878 41.971000000000004
26.699576291163382 42.0032
26.722459276044212 41.7406
26.745522132402975 41.46
26.768407297649354 41.2608
26.791293550442003 40.8873
26.814180891848974 40.6958
26.837248143099337 40.3771
26.860137673466657 40.308
26.88302829566349 40.0267
26.90592001075963 39.84
26.92899167420566 39.6654
26.951885586870763 39.3255
26.974780595655517 39.2277
26.99785558178161 39.1643
27.020752794605112 38.796
27.043651106772522 38.7138
27.06655051935668 38.6126
27.089629948036183 38.5485
27.112531573292053 38.3644
27.135434302194138 38.4765
27.158338135817015 38.3703
27.181422024430987 38.488
27.204328079372566 38.3433
27.22723524226965 38.2876
27.250143514198573 38.2052
27.273231880156334 38.3303
27.296142382065014 38.104
27.319053996245536 38.0904
27.341966723775965 38.1889
27.365059584515222 38.135999999999996
27.38797455070062 38.2158
27.410890633481237 38.1328
27.433807833936918 38.1303
27.456905206923906 38.2669
27.47982465472398 38.1992
27.502745223449743 38.3038
27.525666914182825 38.3663
27.548768816912457 38.3333
27.571692763693633 38.3122
27.59461783573812 38.2146
27.617723149491244 37.9693
27.640650484125285 37.9127
27.66357894728264 37.9098
27.686508540048052 37.8258
27.709618414237887 37.8491
27.732550278321757 37.5686
27.755483275279115 37.5082
27.778417406196485 37.6495
27.801531858397514 37.6708
27.824468269376716 37.5208
27.847405817586786 37.5607
27.870344504116094 37.7417
27.893463551932008 37.794000000000004
27.916404527281053 37.979
27.93934664422563 38.1495
27.962289903855886 38.163000000000004
27.98541356491974 38.4168
28.00835912214229 38.5642
28.03130582533231 38.6955
28.054253675581805 38.8462
28.077381967556104 38.8449
28.100332124185126 38.9094
28.123283431160893 38.8091
28.146235889577238 38.6001
28.169368830154156 38.5065
28.192323603752033 38.2824
28.215279532083304 37.9285
28.238415973016764 37.7582
28.261374223145094 37.6891
28.284333631303806 37.3469
28.307294198589954 37.3607
28.330435319167677 37.0708
28.353398217078915 36.6086
28.376362277420153 36.4759
28.39932750129032 36.3282
28.422473319286713 36.2301
28.44544088262495 36.2825
28.468409612800283 36.0526
28.491379510913497 35.931999999999995
28.51453004413313 35.7691
28.53750229057244 35.7127
28.56047570826344 35.7193
28.583450298308804 35.8025
28.606605564586562 35.4791
28.629582511831156 35.573
28.65256063474956 35.4206
28.675539934446338 35.4353
28.698699951647605 35.4332
28.72168161743193 35.2222
28.74466446331978 35.2947
28.767648490417624 35.1707
28.790813276438353 35.2323
28.813799678527303 35.2324
28.836787265157085 35.2291
28.859955641890075 35.2559
28.882945610203045 35.1904
28.905936766392035 35.155
28.928929111566863 35.1149
28.952102288520145 35.1036
28.975097024308607 35.0129
28.998092952423807 34.8229
29.021090073977508 34.7721
29.04426806913204 34.6483
29.067267590245258 34.4977
29.090268308143695 34.4492
29.11327022394099 34.2851
29.13645305530891 34.1999
29.159457379627167 34.2202
29.18246290519685 34.066
29.20546963313352 34.1771
29.22865731875826 34.1771
29.25166646419296 34.0713
29.27467681535305 33.9901
29.29768837335608 34.1335
29.320880931312562 34.1216
29.34389491580634 34.1124
29.366910110507334 34.0556
29.38992651653503 34.1401
29.41312396492981 34.061
29.436142806456754 34.048
29.45916286268059 33.836999999999996
29.48236399319994 33.7864
29.50538649169417 33.5965
29.528410208259935 33.5968
29.55143514402014 33.4061
29.574641196749695 33.2857
29.597668583816574 33.0893
29.6206971934585 33.0055
29.64372702680042 32.955999999999996
29.666938019934474 32.867
29.689970313635285 32.8012
29.713003834422636 32.7452
29.73603858342347 32.7812
29.759254535188578 32.7477
29.78229175361658 32.5821
29.80533020365064 32.6876
29.82836988641968 32.6033
29.85159081507472 32.6432
29.874632976355343 32.6152
29.89767637376955 32.657
29.920721008448314 32.4487
29.9439469322847 32.394
29.96699405457564 32.2997
29.9900424175358 32.3888
30.013092022298157 32.3689
30.03632295963995 32.2646
30.059375061131373 32.2924
30.08242840783577 32.2397
30.105483000888153 32.345
30.128718970092244 32.2096
30.151776069006917 32.2569
30.17483441768648 32.2092
30.198074175317235 32.1535
30.221135036724256 32.2243
30.24419715131772 32.2705
30.267260520236203 32.1336
30.290505341942243 32.1301
30.313571232750228 32.1975
30.336638381310948 32.1475
30.35970678876503 32.0009
30.38295669299435 31.9639
30.40602763151657 32.0396
30.429099832366074 31.9244
30.452173296685572 31.9355
30.47542830191959 31.9477
30.498504306502497 31.8916
30.521581577995562 31.9736
30.544660117543582 31.9975
30.56792024229725 32.0083
30.59100133132069 31.9019
30.614083691845494 31.9345
30.637167325018545 32.0195
30.660432587840603 32.0053
30.683518779717886 31.9614
30.70660624769615 32.0378
30.729694992924372 32.1127
30.75296541239743 32.0743
30.77605672557558 31.9492
30.799149319462742 31.9808
30.8224236211637 31.7582
30.845518789950724 31.7786
30.868615242910597 31.6826
30.891712981195973 31.4268
30.91499247215866 31.4059
30.938092794619365 31.3893
30.96119440587579 31.3483
30.984297307082752 31.2377
31.00758200598383 31.1622
31.030687500658694 31.1443
31.053794288760695 31.11
31.076902371446767 30.8534
31.100192296997445 30.8891
31.12330298246119 30.9234
31.14641496599209 30.7515
31.169528248749216 30.748
31.19282341969534 30.7243
31.215939314557186 30.8616
31.239056512134788 30.7861
31.262175013589378 30.8467
31.28547544871168 30.7317
31.30859657161541 30.5748
31.331719001892175 30.5823
31.35484274070538 30.7271
31.378148458819545 30.8268
31.401274828443725 30.6857
31.424402510106933 30.746
31.447712205419993 30.7859
31.470842524931633 30.6717
31.493974159989783 30.7902
31.51710711176168 30.6213
31.54042212308802 30.6703
31.563557722100917 30.631999999999998
31.586694641341655 30.3721
31.609832881979628 30.3474
31.63315322823208 30.3178
31.656294125521327 30.2742
31.679436347728515 30.2172
31.70257989602529 30.0759
31.725905596152327 30.1202
31.74905181052835 29.9959
31.772199354521323 30.1026
31.79534822930507 30.008000000000003
31.818679302290967 30.0115
31.84183085259981 29.9768
31.864983737233473 29.8945
31.88813795736804 29.916
31.911474422233013 29.8394
31.934631327356435 29.9719
31.9577895715215 29.9123
31.980949155906522 29.9728
32.004291031706956 29.8561
32.027453310562606 29.7347
32.05061693318573 29.5721
32.07396288236386 29.6482
32.09712920658542 29.6243
32.12029687812702 29.4456
32.14346589817093 29.3772
32.166817291729984 29.3649
32.18998902288583 29.2946
32.21316210610336 29.3331
32.23633654256711 29.1417
32.259693399663725 29.0475
32.282870556771144 28.9033
32.30604907069099 29.0271
32.329228942610065 28.8971
32.35259128243769 28.8512
32.375773884550505 28.8849
32.398957848235646 28.7804
32.422143174682176 28.6655
32.445511016471215 28.5915
32.468699082679954 28.5258
32.49188851523011 28.6094
32.51507931531304 28.4286
32.538452678331 28.4147
32.56164622776311 28.4418
32.58484114831493 28.2962
32.60803744118015 28.4048
32.631416344731896 28.4953
32.654615396551876 28.2548
32.67781582427913 28.2722
32.701198898634416 28.1952
32.72440209253756 28.1914
32.747606665947124 28.1865
32.77081262006088 28.0295
32.79420126883317 28.0789
32.81740999876112 28.0274
32.840620112999424 27.9289
32.86383161274818 27.9506
32.88722585534586 27.9508
32.91044014056596 27.9096
32.933655814909734 27.8866
32.95687287957963 27.8959
32.98027273544904 27.8062
33.00349259526636 27.715999999999998
33.026713849030116 27.7168
33.04993649794511 27.7383
33.073341986570746 27.6083
33.09656744032826 27.5931
33.11979429286444 27.6862
33.14302254538647 27.6779
33.166433686291185 27.6389
33.18966475336992 27.5171
33.212897224069096 27.5045
33.23613109959831 27.5299
33.259547912343415 27.413
33.2827846121627 27.5142
33.306022720453775 27.3213
33.32926223842861 27.2374
33.352684742614166 27.3048
33.37592709463173 27.2655
33.399170859982064 27.1539
33.422597648419426 27.1065
33.44584425514446 27.0232
33.46909227885668 26.9626
33.4923417207723 26.9078
33.51577423505344 26.9148
33.539026528130385 26.8606
33.56228024307245 26.8043
33.585535381098246 26.6926
33.60897364093058 26.6043
33.63223163992385 26.5825
33.6554910656699 26.5656
33.678751919389796 26.5896
33.702195944520106 26.5002
33.72545966903325 26.3924
33.74872482519663 26.3372
33.771991414233746 26.3749
33.79544122444841 26.4063
33.81871069412428 26.2974
33.84198160035767 26.2895
33.86525394437455 26.2453
33.88870955949969 26.1772
33.911984794020626 26.2777
33.93526147001624 26.1108
33.958539588715006 26.156
33.98200102861669 26.0485
34.0052820477047 25.9387
34.02856451319451 25.9102
34.05203033759056 25.8589
34.07531571090147 25.9138
34.09860253431845 25.8619
34.121890809074316 25.765
34.145362493118924 25.8119
34.16865368561615 25.7423
34.191946333164054 25.7285
34.21524043699793 25.7216
34.23871800066799 25.6549
34.26201503218366 25.5609
34.28531352370466 25.5509
34.30861347646881 25.3589
34.33209693978188 25.4064
34.3553998301885 25.4283
34.378704185565205 25.354
34.402010007152356 25.2457
34.42549939016683 25.2548
34.44880815937748 25.2089
34.472118398533134 25.1575
34.49543010887669 25.0939
34.51892543169198 24.9537
34.54224009966052 25.0735
34.56555624255917 25.0615
34.58887386163339 24.9432
34.61237514439016 24.8746
34.6356957311114 24.8492
34.65901779775809 24.8138
34.68252356662995 24.8535
34.705848608458616 24.8269
34.72917513396849 24.759
34.75250314440949 24.7147
34.77601490857862 24.6318
34.799345904259795 24.5328
34.82267838863559 24.5312
34.846012362958525 24.588
34.869530142679984 24.546
34.89286711232212 24.497
34.91620557568269 24.4359
34.93954553401677 24.4803
34.9630693495876 24.3704
34.986412313340814 24.3727
35.00975677584668 24.3818
35.033102738362956 24.228
35.05663261012228 24.2196
35.0799815881786 24.2104
35.10333207003229 24.2539
35.12668405694369 24.1577
35.150220005273056 24.1306
35.17357501786656 24.1429
35.19693153931268 24.0939
35.220289570874385 24.1247
35.24383161619786 24.0628
35.267192683604904 24.043000000000003
35.290555264930376 24.000999999999998
35.314101899412165 24.0472
35.33746752422433 23.9406
35.36083466676374 23.9521
35.38420332829803 23.8737
35.407756095629054 23.9303
35.43112781085063 23.9238
35.45450104888391 23.8211
35.477875810999194 23.8976
35.50143473172161 23.7554
35.52481255774625 23.7947
35.54819191167777 23.656999999999996
35.57157279478914 23.6738
35.595137889488406 23.6286
35.61852184675279 23.6908
35.641907337029984 23.4441
35.665294361595684 23.4751
35.68886565090076 23.4014
35.7122557598848 23.4453
35.73564740699838 23.4668
35.759040593519934 23.3036
35.78261809810353 23.3442
35.80601437933051 23.2437
35.829412203814705 23.2175
35.85281157283719 23.171
35.876395313415884 23.1243
35.8997977874528 23.1106
35.92320180988546 23.066999999999997
35.946790244133936 22.9956
35.97019737933222 22.9791
35.993606066789866 22.9649
36.01701630779276 22.8751
36.04061101440684 22.9297
36.06402437852291 22.9876
36.08743930005611 22.8638
36.1108557802951 22.7616
36.13445678011326 22.6868
36.15787639383515 22.7809
36.18129757014299 22.6902
36.20472031032821 22.5946
36.22832762423364 22.5671
36.25175350829375 22.6077
36.275180960119776 22.5303
36.298609981005924 22.6262
36.32222362992669 22.563000000000002
36.34565580510207 22.4885
36.36908955323448 22.430999999999997
36.39252487562093 22.3768
36.416144880530226 22.3611
36.43958336764275 22.4075
36.463023432914625 22.3139
36.486465077645676 22.2459
36.51009145956204 22.335
36.53353627947859 22.3842
36.55698268276811 22.2441
36.58043067073321 22.1707
36.60406345072071 22.05
36.62751462435344 22.0935
36.65096738658405 22.0921
36.67460498210655 22.0054
36.69806093788647 21.9125
36.72151848619297 21.9015
36.744977628333636 21.991
36.76862165890998 21.9214
36.79208400512205 21.9364
36.81554794910557 21.7755
36.83901349217101 21.7326
36.862663978991606 21.7269
36.88613273667352 21.685
36.90960309738324 21.6982
36.933075062434064 21.7032
36.95673202673572 21.5825
36.98020721697122 21.5519
37.003684015502365 21.4953
37.027162423645365 21.4847
37.050825886711465 21.4412
37.07430753063053 21.389
37.09779078812467 21.3958
37.121275660513014 21.3978
37.144945643673694 21.3264
37.16843376245278 21.2871
37.19192350009803 21.3419
37.215414857931435 21.3057
37.239091382563885 21.176
37.262585997426164 21.2002
37.28608223645736 21.1673
37.309763684451696 21.0593
37.33326318851098 21.0319
37.356764320726555 21.0098
37.380267082425526 21.0558
37.40395510942588 21.026
37.42746114683234 20.9618
37.45096881771841 20.9089
37.474478123414166 20.8953
37.49817275092816 20.8617
37.52168534303452 20.8446
37.54519957395567 20.7725
37.568715445024665 20.8158
37.592416694607714 20.6981
37.61593586281424 20.7131
37.63945667518264 20.7824
37.66297913304891 20.6332
37.68668702630454 20.6076
37.710212792059274 20.5178
37.733740207334854 20.5685
37.757269273470364 20.4561
37.780983832050374 20.4159
37.80451621684926 20.4569
37.82805025654007 20.4289
37.851585952464795 20.3589
37.8753071980695 20.3305
37.89884622345676 20.2943
37.92238690911902 20.2601
37.94611318753442 20.2003
37.969657210779765 20.2176
37.99320289834801 20.2297
38.016750251586465 20.1876
38.04048325513017 20.0839
38.06403395679343 20.0961
38.087586328183946 20.0382
38.11114037065203 20.0597
38.13488012115898 19.9358
38.1584375229181 19.9082
38.181996599821 19.8715
38.205557353221124 19.8806
38.229303872575656 19.8391
38.2528679961576 19.7665
38.27643380031219 19.805999999999997
38.30000128639589 19.7639
38.32375459653193 19.7218
38.34732546371299 19.6957
38.37089801690786 19.5598
38.39447225747609 19.5857
38.418232380377425 19.6006
38.441810012983396 19.5688
38.46538933705673 19.5274
38.488970353960084 19.5037
38.51273731166058 19.4446
38.536321731567014 19.4048
38.55990784840681 19.4447
38.58367995004091 19.3363
38.60726947812959 19.3065
38.63086070726198 19.3569
38.654453638806274 19.3597
38.678232613930824 19.2465
38.70182896773327 19.2181
38.72542702806741 19.183
38.7490267963045 19.1461
38.77281266709232 19.1235
38.79641586862214 19.1059
38.8200207821842 19.0635
38.843627409152944 19.0692
38.86742019782782 19.0001
38.891030269149255 18.9606
38.914642058016156 18.9666
38.938255565806124 18.9447
38.96205529464307 18.9135
38.98567225787121 18.8709
39.00929094417078 18.7964
39.03291135492255 18.8403
39.05671804624804 18.7475
39.080341923549106 18.6969
39.103967529460334 18.6969
39.127594865365744 18.6215
39.15140854155791 18.6024
39.17503935514948 18.6414
39.19867190290282 18.6089
39.22249083587951 18.5351
39.24612686969409 18.535999999999998
39.269764641845306 18.5597
39.293404153722804 18.5538
39.317230110864074 18.4199
39.34087311998506 18.3402
39.36451787301696 18.3347
39.388164371352595 18.3097
39.41199737518003 18.3302
39.43564738196752 18.2754
39.45929913825317 18.3275
39.48295264543308 18.2537
39.506792718520884 18.2138
39.530449745387216 18.1883
39.55410852735203 18.0807
39.57776906581474 18.1203
39.60161623079 18.1091
39.625280300200025 18.065
39.64894613032202 18.0218
39.67261372255866 18.0543
39.6964680021016 17.9293
39.72013913657293 17.9011
39.74381203738292 17.9478
39.76748670593756 17.8211
39.79134812278169 17.8531
39.81502634488497 17.9135
39.83870633896685 17.8366
39.862388106436654 17.7771
39.88625668336918 17.8012
39.90994201572829 17.7511
39.933629125719285 17.702
39.957503091207826 17.6451
39.9811937746168 17.6935
40.00488623990914 17.616
40.02858048850006 17.5598
40.05246165409549 17.5582
40.076159487492085 17.5034
40.099859108448875 17.5878
40.123560518384345 17.4729
40.1474489070226 17.4917
40.171153913178564 17.3699
40.194860712584955 17.3865
40.2185693066637 17.3274
40.242464941335314 17.3197
40.26617714307655 17.3062
40.289891143772046 17.2725
40.3136069448471 17.2973
40.33750984859743 17.2445
40.3612292688043 17.1549
40.3849504936829 17.1026
40.40867352466194 17.148
40.43258372059144 17.1021
40.45631038219906 17.0967
40.48003885420956 16.9717
40.503769138055105 16.9861
40.52768664931955 17.0599
40.55142057531802 16.9697
40.57515631746428 16.9444
40.599079334038514 16.9212
40.62281872700477 16.8885
40.64655994043941 16.9042
40.67030297578061 16.8282
40.69423334835778 16.8027
40.71798004609188 16.7928
40.74172857006355 16.7422
40.76547892171441 16.793
40.7894166736039 16.6817
40.813170699248566 16.6787
40.83692655691388 16.6268
40.86068424804498 16.6106
40.884629402612525 16.5771
40.908390779366385 16.6199
40.932153993938 16.5527
40.95591904777605 16.5466
40.979871628443995 16.555999999999997
41.003640379561936 16.5097
41.02741097430883 16.4828
41.05118341413683 16.4574
41.075143444384416 16.3745
41.098919593177826 16.3805
41.1226975914255 16.3301
41.14647744058318 16.3316
41.170444943946755 16.2875
41.19422851378379 16.2511
41.218013938914645 16.2308
41.24198706625173 16.1693
41.26577622087193 16.1473
41.289567235177785 16.1369
41.31336011063129 16.0983
41.337340752422875 16.082
41.361137369129835 16.0535
41.38493585138705 16.0848
41.40873620066004 16.0043
41.43272438060107 15.9438
41.45652848292052 15.8995
41.48033445666918 15.9211
41.50414230331616 15.8884
41.528138045159764 15.9037
41.551949656675205 15.8494
41.575763145513235 15.7678
41.59957851314666 15.8235
41.62358184070442 15.7516
41.64740098505737 15.7407
41.6712220126409 15.7228
41.69504492493139 15.6733
41.71905586207357 15.673
41.74288256296395 15.6661
41.766711153007456 15.6174
41.79054163368412 15.5979
41.814560204340054 15.5211
41.838394485526365 15.4683
41.86223066180303 15.4944
41.88625497706819 15.4985
41.910094962812 15.4929
41.93393684811168 15.4684
41.95778063445365 15.3599
41.981812625263366 15.3728
42.00566023303407 15.4021
42.029509746323676 15.3472
42.05336116662236 15.3176
42.077400857069705 15.2796
42.10125611078846 15.3168
42.12511327600405 15.2478
42.14897235421036 15.1869
42.173019768448455 15.2114
42.19688269209613 15.1679
42.22074753323349 15.0797
42.24461429335818 15.1334
42.268669455600495 15.1138
42.292540073217886 15.0897
42.31641261433284 15.0119
42.34028708044675 14.982999999999999
42.36435001496739 14.9742
42.38822835065557 14.9364
42.41210861586426 14.9304
42.4359908120986 14.869000000000002
42.46006154323262 14.8603
42.48394762115317 14.8397
42.507835634632315 14.8696
42.531912233047436 14.763
42.55580413732265 14.7534
42.579697981698 14.7571
42.60359376768525 14.706
42.62767820545945 14.6936
42.65157789440821 14.698
42.67547952952185 14.6807
42.699383112316 14.661
42.72347541395347 14.5495
42.74738291190531 14.5314
42.771292362102166 14.6019
42.795203766063516 14.53
42.819303956130405 14.5074
42.843219287476536 14.4582
42.86713657716324 14.4772
42.89105582671383 14.415
42.91516392983864 14.4323
42.939087119032166 14.3988
42.963012272677304 14.3445
42.98693939230129 14.3537
43.01105543317513 14.3217
43.034986504731386 14.2415
43.05891954686589 14.2229
43.08285456110972 14.232000000000001
43.10697856448665 14.2082
43.130917542983475 14.1228
43.15485849820081 14.1125
43.17880143167367 14.0606
43.20293342237094 14.1124
43.226880332449 14.0838
43.25082922540554 14.0247
43.27496722682525 14.0127
43.29892010567796 13.9932
43.32287497204102 14.023
43.34683182745632 13.9695
43.370977859791836 13.9689
43.39493871351105 13.9217
43.41890156092628 13.9273
43.44286640358341 13.8391
43.46702049182749 13.8544
43.49098934522816 13.8308
43.51496019852649 13.754000000000001
43.5389330532723 13.7711
43.56309522248204 13.7444
43.58707210044314 13.6896
43.61105098451946 13.661
43.63503187626491 13.6795
43.659202151562134 13.6254
43.68318707902681 13.6188
43.70717401884041 13.6472
43.731162972560874 13.5602
43.75534137913236 13.5395
43.779334381108384 13.5126
43.803329401683186 13.4832
43.82732644241872 13.4613
43.8515130055166 13.4887
43.87551410707659 13.4102
43.89951723350145 13.4207
43.923709934595614 13.3953
43.94771713129917 13.3831
43.97172635758096 13.3381
43.99573761501002 13.3382
44.0199385169922 13.3433
44.04395385732619 13.2606
44.067971233533086 13.2526
44.09199064718605 13.255999999999998
44.11619977548961 13.2389
44.14022328470671 13.1935
44.16424883610785 13.2021
44.18827643127035 13.1453
44.21249381139513 13.1556
44.236525514814076 13.0871
44.26055926674478 13.0413
44.28459506876863 13.062999999999999
44.3088207262813 13.0149
44.33286064928722 13.020999999999999
44.35690262714919 12.9783
44.38094666145278 12.9425
44.4051806219871 12.9858
44.42922879003185 12.9252
44.45327901929361 12.915999999999999
44.477331311362136 12.8961
44.501573600619416 12.8684
44.525630039221795 12.8471
44.54968854541895 12.821
44.573937102200176 12.8052
44.5979997645541 12.8
44.622064499300315 12.749
44.64613130803592 12.745999999999999
44.67038823869318 12.7059
44.69445921643748 12.6614
44.718532272981385 12.6537
44.742607409926194 12.6423
44.76687274034801 12.5948
44.79095205918753 12.5375
44.81503346325094 12.5979
44.839116954143876 12.5492
44.86339071028742 12.5145
44.88747839599524 12.4656
44.91156817336837 12.4959
44.93566004401666 12.4462
44.959942251908146 12.404000000000002
44.984038330325966 12.3705
45.00813650686762 12.353
45.03223678314731 12.3469
45.05652746888232 12.3073
45.08063196592069 12.3235
45.104738567558705 12.3162
45.128847275414856 12.2776
45.15314646515866 12.2507
45.17725940679741 12.2815
45.20137445952892 12.212
45.22568004865265 12.1855
45.24979934496396 12.1428
45.27392075725247 12.1297
45.29804428714431 12.072000000000001
45.322358426247604 12.0862
45.346486212804315 12.0796
45.370616121861914 12.0688
45.39474815505086 12.0538
45.41907087049246 12.0184
45.4432071734666 11.9866
45.46734560548283 11.99
45.49148616817604 11.9787
45.51581748638564 11.9484
45.5399623320197 11.9317
45.56410931325473 11.8759
45.58825843173002 11.8957
45.61259837920865 11.8011
45.636751793816 11.8256
45.66090735060093 11.8094
45.68506505120716 11.7537
45.7094136545275 11.7529
45.73357566449271 11.7477
45.75773982322992 11.7034
45.78190613238733 11.699000000000002
45.806263418194064 11.6363
45.83043404997326 11.6456
45.85460683713677 11.6152
45.87897065658495 11.6373
45.90314777634752 11.5922
45.92732705646868 11.5599
45.9515084986045 11.5608
45.97588104735473 11.5501
46.00006683541565 11.5213
46.02425479047904 11.4763
46.04844491420549 11.5194
46.0728262191024 11.499
46.09702070211635 11.4369
46.12121735879483 11.4385
46.14541619080294 11.3845
46.169806278764455 11.347999999999999
46.194009483459034 11.3631
46.21821486849841 11.3175
46.24242243555223 11.3204
46.266821333570014 11.2852
46.29103328674601 11.2688
46.31524742696538 11.2736
46.33946375590237 11.2541
46.36387149104216 11.2346
46.38809221957392 11.1643
46.41231514186606 11.1375
46.436540259597464 11.1562
46.460956858999374 11.1208
46.48518638983522 11.0809
46.509418121166966 11.0581
46.533652054678114 11.1005
46.55807754555709 11.0136
46.58231590571962 11.0321
46.60655647313217 10.9921
46.630988654873654 10.9524
46.655233659129024 10.942
46.67948087571551 10.968
46.70373030632484 10.9085
46.72817142736393 10.9252
46.752425308428684 10.9015
46.77668140861147 10.8911
46.80093972960865 10.8226
46.82538981736788 10.7926
46.849652602470904 10.7967
46.87391761349769 10.7712
46.8981848521493 10.7771
46.9226439341274 10.7775
46.946915650573224 10.6882
46.97118959976749 10.6984
46.99546578341598 10.6852
47.019933887188216 10.7052
47.04421456235744 10.6786
47.06849747711879 10.6272
47.09278263318286 10.5959
47.11725978640143 10.581
47.14154944775105 10.569
47.165841355555656 10.5434
47.1901355115306 10.4963
47.214621741924994 10.5351
47.23892041698887 10.5364
47.26322134538975 10.4743
47.28771440635075 10.4466
47.31201986422527 10.4582
47.33632758061436 10.427
47.360637557241866 10.4104
47.38513974410611 10.4062
47.40945426407847 10.3507
47.43377104948137 10.3098
47.45809010204344 10.3107
47.48260144275502 10.322000000000001
47.506925052572285 10.2841
47.53125093475548 10.2591
47.55557909103813 10.2336
47.58009961361992 10.189
47.60443234110732 10.1881
47.62876734791564 10.1686
47.65310463578333 10.145
47.6776343683373 10.1745
47.7019762413987 10.0986
47.72632040075572 10.097000000000001
47.75066684815169 10.1016
47.77520581885936 10.075
47.799556865477655 10.0395
47.823910205386 10.0151
47.84826584033272 9.99455
47.87281407745551 9.97878
47.89717432569297 9.984630000000001
47.92153687423484 9.98953
47.94609208429692 9.97193
47.97045925671401 9.917589999999999
47.99482873471275 9.90657
48.01920052005013 9.893880000000001
48.04376504619224 9.902989999999999
48.068141469543484 9.886510000000001
48.09252020552573 9.8384
48.11690125590099 9.84985
48.1414751266064 9.83135
48.16586082917454 9.76656
48.19024885144316 9.77781
48.2146391951793 9.769160000000001
48.239222439012764 9.729619999999999
48.26361744916137 9.733419999999999
48.28801478610016 9.70998
48.31241445160131 9.702060000000001
48.337007097209366 9.67657
48.36141144338331 9.644639999999999
48.38581812345755 9.61395
48.41022713920929 9.63508
48.434829215320704 9.57876
48.45924292604658 9.55744
48.48365897780325 9.583689999999999
48.50807737237308 9.53904
48.532688907799276 9.55026
48.55711201168574 9.528369999999999
48.581537463754074 9.50103
48.60615611725119 9.44824
48.63058628942721 9.43545
48.65501881516546 9.430819999999999
48.6794536962573 9.4312
48.70408185970339 9.43248
48.72852147531801 9.37715
48.75296345168211 9.359910000000001
48.77740779059232 9.35587
48.80204549302823 9.3699
48.82649458091802 9.34405
48.85094603676547 9.307269999999999
48.87539986237231 9.274519999999999
48.90004713292306 9.254489999999999
48.92450572200832 9.21536
48.94896668628025 9.24507
48.97343002754588 9.22693
48.99808689542115 9.21626
49.02255501470614 9.196860000000001
49.04702551642794 9.1489
49.0714984023988 9.145539999999999
49.096164896893235 9.12434
49.120642575466796 9.10908
49.145122643748394 9.10144
49.16960510355558 9.068610000000001
49.19428125404938 9.037339999999999
49.2187685210852 9.05632
49.243258185121555 9.032789999999999
49.26794160167084 9.01406
49.2924360839405 8.97172
49.31693296869764 8.97374
49.34143225776915 8.9338
49.36612538195438 8.93558
49.39062950396021 8.94104
49.41513603578346 8.87703
49.4396449792564 8.857000000000001
49.46434784069503 8.856060000000001
49.488861631846454 8.82047
49.513377840166804 8.8273
49.537896467493745 8.80607
49.56260909589029 8.74235
49.587132585683285 8.76593
49.611658500018365 8.745339999999999
49.636186840738596 8.76122
49.66090926588511 8.72725
49.685442483902584 8.71258
49.70997813385706 8.699689999999999
49.734516217597076 8.69352
49.75924846937352 8.6851
49.7837914452858 8.63175
49.80833686055187 8.6167
49.83288471702571 8.6081
49.85762682540054 8.62952
49.882179588965734 8.55926
49.9067347993235 8.54668
49.93129245833333 8.54727
49.95604445336378 8.52502
49.98060703442832 8.497810000000001
50.005172069746266 8.49255
50.02993150438364 8.4734
50.05450147301533 8.45836
50.07907390151433 8.42425
50.10364879174981 8.425239999999999
50.12841816587289 8.40479
50.1529980044635 8.40569
50.17758031042124 8.40584
50.20216508562089 8.38527
50.22694442953363 8.35437
50.25153416817468 8.34258
50.27612638170508 8.34849
50.300721072005196 8.32249
50.325510416102105 8.28913
50.350110084975064 8.27546
50.37471223628208 8.261280000000001
50.39931687190919 8.22537
50.424116246675766 8.18928
50.44872587605249 8.21948
50.47333799543065 8.20147
50.49795260670191 8.16031
50.52276204271512 8.17232
50.54738166295838 8.138639999999999
50.57200378079314 8.11642
50.596628398116835 8.13588
50.62144792604559 8.104230000000001
50.646077567609396 8.0723
50.670709714377715 8.09104
50.69553683636198 8.07736
50.72017401885922 8.04438
50.7448137122895 8.037889999999999
50.76945591856022 8.02678
50.79429318636823 7.9742
50.818940443716784 7.96904
50.84359021965163 7.94767
50.868242516085964 7.94212
50.893089960641895 7.93543
50.917747323549435 7.9207399999999994
50.94240721271973 7.89182
50.96706963007175 7.87149
50.99192728239342 7.87328
51.01659478166073 7.870610000000001
51.04126481489051 7.849589999999999
51.06593738400761 7.82472
51.090805275207074 7.82185
51.11548294172845 7.78912
51.14016314993547 7.79207
51.164845901758845 7.7701199999999995
51.18972406304274 7.7450600000000005
51.21441192780656 7.72337
51.23910234200271 7.73123
51.2637953075678 7.71945
51.288683770237945 7.693239999999999
51.31338186432707 7.6704300000000005
51.33808251561888 7.612260000000001
51.362978729967345 7.608169999999999
51.387684521509755 7.63121
51.41239287610203 7.612489999999999
51.437103795691165 7.5884
51.46201036644977 7.566210000000001
51.486726441956634 7.57791
51.51144508832545 7.536510000000001
51.536166307509156 7.56035
51.56108326624387 7.495430000000001
51.58580965706056 7.46899
51.61053862657523 7.45948
51.635270176746864 7.42307
51.66019755512065 7.4253800000000005
51.68493429268881 7.42063
51.70967361681515 7.42581
51.73441552946465 7.401330000000001
51.759353359237934 7.390680000000001
51.7841004750961 7.376760000000001
51.80885018539685 7.32078
51.833602492111254 7.33853
51.8585508051424 7.32338
51.883308330926425 7.292839999999999
51.90806845906181 7.246910000000001
51.932831191525715 7.2927
51.95779001977161 7.25065
51.98255798721516 7.233810000000001
52.00732856494335 7.22243
52.03229530577543 7.2405
52.057071130455945 7.19252
52.081849571391054 7.2350699999999994
52.106630630568695 7.19117
52.13160794279417 7.12742
52.15639426492067 7.1276399999999995
52.18118321127822 7.1353800000000005
52.205974783860896 7.0951699999999995
52.23096269971011 7.07459
52.255759551287994 7.06668
52.280559035098186 7.0594399999999995
52.30536115314103 7.059710000000001
52.33035970494467 7.0411399999999995
52.35516711807904 7.018160000000001
52.37997717147198 7.054130000000001
52.40478986713005 7.004810000000001
52.42979908731974 6.975860000000001
52.454617094216 6.96245
52.47943774942214 6.9409600000000005
52.50426105495102 6.95643
52.529280976059844 6.96281
52.554109609024096 6.9303
52.57894089837482 6.89297
52.60377484613117 6.875310000000001
52.62880550079408 6.871110000000001
52.65364479223379 6.81751
52.67848674816189 6.77407
52.70352547971946 6.839230000000001
52.72837279155837 6.825060000000001
52.753222773982785 6.76019
52.778075429022984 6.80682
52.80312495150885 6.76209
52.827982978797436 6.75713
52.85284368481815 6.730119999999999
52.87770707160767 6.680689999999999
52.90276741793998 6.66395
52.92763619336701 6.68473
52.952507655698504 6.67833
52.977381806977576 6.67288
53.00245301017842 6.64157
53.02733256653592 6.648680000000001
53.052214817996074 6.62033
53.077099766608484 6.607939999999999
53.102181859804446 6.59205
53.127072229988265 6.58593
53.15196530349892 6.6093
53.17686108239249 6.56809
53.20195409881522 6.5591
53.22685531582556 6.53629
53.25175924441303 6.47173
53.27666588664027 6.51881
53.30176985962693 6.47813
53.3266819565689 6.46059
53.35159677336455 6.45956
53.376514312083096 6.42114
53.40162927507703 6.44872
53.42655228516116 6.45573
53.45147802340193 6.39161
53.47660125628886 6.36944
53.50153247842639 6.38804
53.52646643496923 6.3784
53.55140312799818 6.36653
53.576537409691696 6.36457
53.60147960336152 6.36788
53.626424539786164 6.3163599999999995
53.65137222105307 6.2933900000000005
53.67651758529126 6.25312
53.70147078399681 6.22885
53.72642673383343 6.25047
53.75138543689533 6.25177
53.776541917524526 6.23893
53.801506154876755 6.2259400000000005
53.826473151763246 6.24009
53.851442910284916 6.17194
53.87661054126026 6.15425
53.9015858509782 6.18996
53.92656392866066 6.16161
53.95154477641532 6.1408
53.976723591801296 6.14158
54.00171000771266 6.132569999999999
54.02669920004598 6.08248
54.051691170915745 6.058590000000001
54.076881204886796 6.10297
54.101878760928514 6.06974
54.12687910187696 6.03742
54.152077577768296 5.98862
54.1770835166946 6.04896
54.20209224691339 5.9954
54.22710377055121 5.9820199999999994
54.25231352511594 5.9282900000000005
54.27733066384342 5.942080000000001
54.30235060239643 5.95555
54.32737334290836 5.93265
54.35259441062629 5.8688199999999995
54.377622783395324 5.88903
54.40265396455061 5.86252
54.42768795623251 5.84225
54.45292037169559 5.82308
54.477960012857906 5.82216
54.50300247099511 5.81071
54.52804774825457 5.7586900000000005
54.55329154616743 5.7716199999999995
54.57834249018678 5.7522
54.6033962597977 5.72786
54.6284528571545 5.700880000000001
54.653708072335164 5.59914
54.67877035378786 5.661919999999999
54.70383546947698 5.637630000000001
54.72890342156389 5.6035900000000005
54.7541700889442 5.58231
54.77924374251975 5.61319
54.8043202390049 5.52608
54.82959552413022 5.55995
54.8546777351945 5.50865
54.87976279569621 5.4709900000000005
54.90485070780914 5.50138
54.930137506558005 5.4546
54.95523115074295 5.41135
54.98032765308844 5.4468
55.005427015775496 5.42852
55.03072536339621 5.47171
55.05583047570572 5.34783
55.080938454927676 5.3087
55.10604930325027 5.31626
55.131359235107396 5.33933
55.15647585066083 5.28219
55.181595341907496 5.2400400000000005
55.20671771104285 5.20809
55.232039262617704 5.21852
55.25716741665048 5.17593
55.28229845518636 5.18152
55.30743238042802 5.12155
55.33276558731939 5.13845
55.357905315183636 5.13414
55.383047936390035 5.07247
55.40819345314859 5.02091
55.433538351073295 5.06944
55.458689688238415 4.98041
55.483843927614096 4.97264
55.509197623043605 5.02271
55.53435769621134 4.95361
55.55952067826466 4.92419
55.5846865714265 4.9333
55.61005202069737 4.8733
55.63522376553902 4.87779
55.66039842818645 4.84652
55.68557601087004 4.8491
55.7109532500271 4.72185
55.73613670233794 4.83059
