TT I
1.2716486653135266 7.379630000000001
1.2939594142134223 7.5483899999999995
1.3162702121660406 6.5611
1.3385810600174564 6.912839999999999
1.3608919586137629 6.41395
1.383202908801069 5.98479
1.405513911425503 5.51286
1.4278249673332093 6.180219999999999
1.4501343378461518 6.28771
1.4724455028545926 5.74808
1.4947567236847858 6.42298
1.517068001182951 6.37078
1.5393793361953272 5.53106
1.5616907295681737 5.51014
1.5840021821477681 4.95446
1.60631369478041 4.6561
1.6286252683124185 5.64541
1.6509369035901333 4.88436
1.6732468618895553 5.01203
1.695558623192809 4.54709
1.7178704487808514 4.80087
1.7401823395001077 4.97446
1.7625012545597203 4.6457
1.7848028405262486 4.48912
1.8071218901122095 4.842
1.8294236121921872 4.43487
1.8517427996910911 5.4037
1.8740620574440425 5.19585
1.8963639900671978 4.85358
1.9186833908139995 4.62766
1.9409854680117449 4.84463
1.9633050151394713 5.086180000000001
1.9856246367570705 4.8387
2.0079269371922672 4.51566
2.03024671027244 4.170719999999999
2.0525491637446027 4.35693
2.074869091674931 4.73416
2.097171701569106 4.82546
2.1194917877373847 4.76042
2.141811954326636 4.891030000000001
2.164114805233074 5.1071599999999995
2.186435135143035 5.94321
2.208738150935709 13.0026
2.231058647554722 26.3442
2.2533792288321184 20.6601
2.275682498336085 9.26602
2.298003251406138 5.97634
2.3203066942619714 5.30344
2.3426276225136022 5.86367
2.3649486396617507 5.84994
2.387252348930071 6.31417
2.4095735463442893 5.50104
2.4318774374315884 5.957990000000001
2.4541988185014043 6.730919999999999
2.476502894794693 7.07715
2.498824462909887 6.911239999999999
2.521146125856138 6.80058
2.5434504863470337 7.51019
2.5657723414244717 7.742660000000001
2.588076895590662 8.627130000000001
2.610398946189713 8.2137
2.6327210958598384 7.74401
2.6550259469304716 7.824910000000001
2.6773482972090137 8.154069999999999
2.6996533504259 7.870710000000001
2.7219759047039602 7.89102
2.744298562293959 8.180819999999999
2.7666039251246595 8.19748
2.7889267918020164 7.98738
2.8112323652516555 8.06183
2.833555444408179 8.25307
2.8558786311183852 8.62543
2.8781845268938557 8.19877
2.9005079311721484 9.108830000000001
2.9228140460410397 8.61157
2.9451376712799635 8.99245
2.967444008632326 9.1856
2.9897678582247247 10.1662
3.0120918213106695 10.4472
3.0343984987899373 10.7523
3.0567226913198637 11.492
3.079029599759726 11.4306
3.101354025127254 12.0571
3.123678568232338 12.8966
3.145985829517914 12.8371
3.16831061055229 13.5378
3.1906181112775593 14.4527
3.212943133635653 14.6079
3.2352682779763207 15.2505
3.2575761442691227 15.3538
3.2799015350264273 16.2397
3.302209649240067 16.1898
3.3245352898092655 16.6703
3.3468436553365257 17.3151
3.369169549113219 17.6981
3.3914955708171384 18.4559
3.413804319727358 19.1127
3.4361305997334863 18.9878
3.4584396084414553 19.4137
3.4807661501462652 20.1858
3.503092824025881 20.9095
3.5254022288463154 21.239
3.5477291695206588 21.6162
3.5700388426251948 22.1394
3.5923660534916446 23.7123
3.6146934007816114 38.0716
3.637003482731501 84.1204
3.6593311053109985 92.8967
3.681641464033634 54.2431
3.7039693653009733 30.0963
3.726297407241705 25.8641
3.7486081875460804 25.6765
3.7709365132734978 26.0724
3.793247578841633 26.225
3.8155761917550093 26.5329
3.8378875459837216 27.0036
3.8602164494827234 27.2121
3.882545499606844 28.0822
3.9048572932539183 28.9443
3.9271866390645718 29.3661
3.9494987298666713 30.0423
3.971828374764527 30.5834
3.9941581705403255 31.0825
4.016470713506008 31.8437
4.038800813471445 32.3231
4.061113662089144 32.6206
4.0834440696459176 33.1581
4.105774632334751 33.8194
4.128087945865126 35.0968
4.150418821249301 35.7698
4.172732448931298 36.8292
4.195063640413578 38.3982
4.2173775856475215 41.9169
4.239709096631102 73.4267
4.262040768704612 224.84599999999998
4.284355196706267 301.404
4.306687193387355 196.81099999999998
4.329001947444346 79.2625
4.35133427213731 47.7757
4.373666762177566 44.5795
4.395982011761091 44.7672
4.418314834921175 46.1195
4.44063041906622 53.4997
4.4629635787515625 62.8961
4.4852969080429785 63.5963
4.5076130004776225 53.7933
4.529946671403969 50.0597
4.552263106909177 49.7461
4.574597122877047 50.78
4.596931312711224 52.1897
4.619248269273446 53.2415
4.6415828092605835 54.0483
4.663900117405352 55.5894
4.686235010953232 56.6481
4.708552674085913 57.9064
4.730887924602802 59.6681
4.753223354952695 60.6067
4.775541557023902 61.9177
4.797877349456786 63.728
4.820195915032126 65.4863
4.842532072957498 67.1026
4.864868414979744 69.1652
4.88718753227192 70.9488
4.909524244902505 73.2724
4.931843734218147 74.9883
4.954180820867835 77.5558
4.976518095879839 80.5398
4.998838149695359 83.1736
5.021175803844231 86.1546
5.043496238205739 89.2659
5.065834274903528 94.1411
5.088172504230693 98.7579
5.1104935158799565 104.95
5.132832132875765 125.185
5.155153533596801 164.99
5.1774925416746225 197.47400000000002
5.199814334878411 327.613
5.2221537374521505 929.6389999999999
5.244493338631803 2810.06
5.266815727034316 7745.65
5.289155727832427 12587.6
5.311478517248165 8832.76
5.333818921080011 2849.32
5.356159527788849 551.049
5.3784829252032536 184.957
5.400823940070432 143.387
5.423147747031976 128.373
5.445489173474152 118.70700000000001
5.467830807066149 113.448
5.490155234831516 109.039
5.512497285125229 105.111
5.534822130975162 104.072
5.557164601388673 101.45
5.579489868738879 99.0242
5.601832762690846 98.2143
5.6241758697774475 97.2642
5.646501775867269 96.5274
5.668845311622074 95.2201
5.691171647754637 93.5479
5.713515615597765 92.5872
5.735859800852677 91.8576
5.758186788542988 91.162
5.780531411018185 91.3926
5.802858837297399 90.9109
5.825203900414495 91.2821
5.8475491852224 90.8775
5.869877275883075 91.2426
5.892223006467101 92.3939
5.914551544266608 94.0779
5.936897724049891 95.8737
5.959244129804903 100.575
5.981573344815301 115.906
6.0039202049061 195.61900000000003
6.026249875609095 420.309
6.04859719346037 931.123
6.070927323278297 2227.06
6.093275102315365 4530.43
6.115623113320588 5133.9
6.137953938319995 3165.84
6.160302415650845 963.4839999999999
6.182633708324452 234.076
6.2049826554078376 113.874
6.227331838745022 92.3868
6.249663839443684 85.1604
6.27201349767565 82.6195
6.294345974611799 88.16
6.316696111167083 98.4394
6.339046488263839 93.0305
6.361379686074702 78.7896
6.383730546639482 71.4126
6.406064229255215 68.7886
6.428415576718203 68.3685
6.450749747566656 66.9181
6.47310158535871 66.095
6.495453669698332 65.377
6.517788579421056 64.6739
6.540141159237969 63.458
6.562476565766648 63.0493
6.5848296444934045 62.7949
6.607182974060425 62.2861
6.6295191323281015 62.57899999999999
6.651872965955752 65.9667
6.6742096296068985 90.6857
6.6965639707294615 133.87
6.71891856698715 133.005
6.741255995248479 92.18799999999999
6.763611104154477 67.1745
6.785949046381137 59.9063
6.808304671371482 58.3178
6.8306605557940046 57.8507
6.852999275508618 57.3782
6.875355681171544 56.8436
6.897694923437771 56.6227
6.92005185377892 56.6946
6.9423916220322655 56.1221
6.964749080490181 55.4754
6.987106804399774 55.4597
7.009447368180821 55.4589
7.031805625367033 55.1127
7.054146723727803 55.4435
7.076505517631004 54.7493
7.098864581288365 55.2246
7.121206488070854 55.006
7.143566093607822 54.9956
7.165908543567245 55.0549
7.188268694426048 54.8517
7.2106291193438095 55.5204
7.232972390625943 56.7374
7.255333366030969 69.1498
7.277677189091925 119.82
7.300038718428332 163.214
7.322400526130865 136.579
7.344745183422596 86.0365
7.367107550224791 61.2945
7.389452767901992 56.1351
7.411815697249891 55.0022
7.434161478756298 54.4611
7.456524974096713 54.5583
7.478888753837185 54.4232
7.501235387657368 54.536
7.523599738562711 54.5885
7.545946944825532 54.7945
7.568311870344528 55.3674
7.5906770845765665 55.5122
7.613025156078678 56.8135
7.635390950099687 57.879
7.657739602662809 57.0323
7.680105979923558 55.6653
7.702472650212829 56.0034
7.724822180948224 55.7089
7.747189439655568 55.8742
7.769539560075357 55.9188
7.791907410653562 56.3356
7.81425812420825 56.4723
7.836626570110925 56.7684
7.858995315087906 57.3771
7.881346924933401 57.3885
7.903716270417482 58.3337
7.926068482028405 58.9806
7.948438431475253 59.3195
7.9708086843180235 59.4384
7.993161805171116 60.3127
8.015532667162402 60.5076
8.037886398416653 61.5956
8.060257873014221 62.0881
8.082629655331942 62.9622
8.104984308787587 63.8092
8.127356708900503 66.7801
8.149711981398308 72.2923
8.172085002766314 74.3121
8.194458336181368 71.279
8.216814543847752 69.1409
8.23918850371002 69.4531
8.26154533906492 70.0653
8.283919928836452 71.6
8.306277395339652 72.4554
8.328652618483376 73.7014
8.351028159736202 75.6767
8.373386579575245 77.8604
8.395762759396959 79.2018
8.418121819038275 84.4701
8.440498640894003 97.1704
8.462875785192262 110.244
8.485235811156207 120.189
8.507613602688501 155.868
8.529974277114228 235.71200000000002
8.552352719347912 370.712
8.574731488360351 645.2819999999999
8.59709314210385 1175.86
8.619472567021075 1864.56
8.64183487789147 2150.15
8.664214962183097 1786.89
8.686577933647762 965.3330000000001
8.708958680784317 375.879
8.731339760774953 163.763
8.753703729764451 111.205
8.77608547780821 99.3349
8.798450116065078 95.4362
8.820832535634787 92.1308
8.843215292401656 90.8245
8.865580941199045 89.4219
8.887964374703538 88.4328
8.910330701447199 89.7176
8.932714815164482 91.3859
8.955099270424924 90.5522
8.977466620733543 87.4534
8.999851761421976 84.9183
9.022219798361645 83.6591
9.04460562795561 83.2774
9.066991803441677 82.7632
9.089360876979615 82.531
9.111747746589993 82.0271
9.13411751544971 81.6575
9.156505082664324 81.6187
9.178875550323522 81.7916
9.20126381862328 81.9848
9.223652438908596 82.4124
9.246023961427412 82.3885
9.26841328802173 81.9
9.290785518039224 81.6368
9.313175554425882 82.0372
9.335565947154315 82.1414
9.357939245086508 82.898
9.380330352834827 83.0798
9.40270436697103 82.9119
9.425096193225055 82.9773
9.447488380180165 83.7671
9.469863475295412 84.0269
9.492256385987508 84.2413
9.514632206018318 84.8299
9.537025843935714 85.0731
9.559402392368193 86.0877
9.581796761000229 87.0572
9.604191496441521 88.0487
9.626569144158516 91.3854
9.648964615551032 96.0637
9.671343000390081 97.2407
9.693739211225699 95.1852
9.716135793237463 93.1696
9.738515290448102 92.4899
9.760912617143402 93.2411
9.783292860202891 94.6072
9.805690935076182 96.2693
9.828089385495742 97.2457
9.850470754023561 99.524
9.872869957865444 107.014
9.89525208097539 121.476
9.917652041736662 132.974
9.940052382417589 131.56799999999998
9.962435644102392 136.475
9.984836746950979 169.112
10.007220771957746 229.824
10.029622640473708 332.977
10.052007432299963 514.74
10.074410069984072 819.8939999999999
10.096813093716005 1276.77
10.119199042482517 1784.34
10.141602840636468 1974.62
10.163989564971628 1591.5
10.186394141051062 904.421
10.208799107559706 408.72
10.231187001965623 190.247
10.253592751657669 126.462
10.275981430388155 113.385
10.298387966769793 112.241
10.320794897965431 113.713
10.343184759907361 112.969
10.36559248305461 107.62200000000001
10.387983138083852 103.87
10.410391656691655 105.846
10.432800574501677 115.965
10.455192425893369 132.255
10.47760214443012 157.496
10.499994797678786 202.26
10.522405320453982 286.017
10.54479877906917 412.939
10.567210109595656 522.861
10.5896218454736 579.512
10.612016518879773 511.035
10.634429067781074 356.23900000000003
10.656824555333241 205.226
10.679237920773568 125.727
10.701651695961992 96.4727
10.724048411481384 89.1392
10.746463008485165 86.539
10.768860546937125 84.6071
10.791275969274796 83.1412
10.81369180576079 82.2139
10.836090585366925 81.2366
10.858507252467449 79.7369
10.88090686379991 78.6328
10.903324365036394 78.3522
10.925724811614439 78.0491
10.948143150509463 79.0648
10.970561909719066 78.2545
10.992963615930844 76.3489
11.015383218085756 74.6911
11.037785768347074 73.1884
11.06020621697282 72.8044
11.082627090322113 72.4079
11.105030913430326 71.6581
11.12745263854165 72.1482
11.149857314510728 75.6172
11.172279894912576 80.8616
11.194702904450653 81.6059
11.217108866490921 77.5813
11.239532736615194 73.2019
11.26193956033512 71.39
11.284364294577085 69.7377
11.306789462371718 67.7765
11.329197585398376 66.9181
11.351623622610898 66.5808
11.37403261614354 65.7643
11.396459526308487 65.7838
11.418869393879497 65.7225
11.441297180532617 65.0636
11.463725406927658 64.7626
11.486136592353875 64.2189
11.508565700543707 65.1922
11.530977768845315 66.5438
11.553407762368774 67.502
11.575838200059769 66.7567
11.598251599479612 65.0795
11.620682927815501 64.0343
11.64309721895548 63.7909
11.665529441478206 63.0519
11.687962112597958 62.5423
11.710377748130886 62.786
11.732811318753434 62.5478
11.755227854859067 62.8469
11.777662328529495 62.7287
11.800079768750786 62.4438
11.822515149015453 62.2537
11.844950984084935 62.5764
11.867369787303163 62.2041
11.889806534289491 62.1123
11.912226250487029 62.5714
11.934663912939751 62.6488
11.9571020346363 62.5914
11.979523127133968 62.4825
12.001962169624331 63.2455
12.024384183972964 64.1042
12.046824150809913 66.9125
12.069264581333726 71.8677
12.091687985297767 77.5232
12.11412934550045 86.4848
12.136553680195208 102.02799999999999
12.158995973632788 125.04799999999999
12.181438735204349 154.379
12.20386447284199 178.827
12.226308172985636 200.05200000000002
12.24873485024193 196.082
12.271179492516982 161.857
12.293607112949127 124.338
12.316052700916226 96.2725
12.338498763250042 78.0671
12.360927805303868 69.8625
12.383374818673879 66.3246
12.405804812803074 64.3253
12.428252780773262 64.0475
12.45070122756722 64.1696
12.473132656675375 63.7282
12.49558206341869 64.1991
12.518014453510101 64.3507
12.540464823770117 64.4816
12.562915677315177 64.3243
12.58534951575545 65.3189
12.607801338171472 67.2566
12.630236146511358 72.1456
12.652688941369085 76.7117
12.675124723177234 76.831
12.697578494048786 73.5157
12.720032754458185 69.2672
12.742470003354093 67.6974
12.764925245138771 67.8041
12.787363476431278 67.7632
12.809819703166806 68.1134
12.83227642391173 68.6289
12.854716135692716 69.3432
12.877173846755147 70.5578
12.899614549869717 70.4863
12.9220732548287 71.6981
12.94453245827299 71.9975
12.966974655289818 73.1936
12.989434858002571 73.7649
13.011878055298721 74.4732
13.034339260862497 75.5192
13.056800969391883 76.5425
13.079245674017244 78.3728
13.101708390774869 80.4002
13.12415410463411 86.5583
13.146617833206086 97.5241
13.169064559883248 109.012
13.191529303857127 123.60700000000001
13.213994557076367 146.377
13.236442809902437 184.855
13.258909083908291 241.142
13.28135835851934 305.212
13.30382565690295 370.95599999999996
13.326293469022952 419.399
13.348744283242008 411.986
13.371213125129904 353.464
13.39366497011003 262.597
13.416134845360597 176.22400000000002
13.438605238843131 126.411
13.46105863690397 105.678
13.483530069144786 103.98100000000001
13.505984506951902 108.50200000000001
13.528456981549432 118.259
13.550929978879088 132.703
13.573385983253365 157.341
13.595860028340867 197.804
13.618317081455832 249.898
13.64079217790333 303.329
13.663250283359057 347.381
13.685726434770173 366.735
13.708203115221277 331.916
13.730662806148091 258.635
13.75314054697177 184.888
13.775601299246777 128.141
13.798080104050406 97.2908
13.820559442405358 85.0987
13.843021793671388 81.4462
13.865502201420897 79.7029
13.887965623051947 79.2881
13.910447103807167 78.0134
13.932929122629764 76.4698
13.955394156785959 76.3007
13.977877254034569 75.5172
14.000343367582113 74.6178
14.022827546871707 74.1637
14.045294743423524 73.7045
14.06778000837062 72.7992
14.090265817715476 72.4903
14.112734645763819 72.5851
14.13522154619454 72.0766
14.157691466286913 72.2849
14.180179461423874 71.9925
14.202668005486178 71.277
14.22513957064374 70.5783
14.247629214846473 70.1186
14.270101881097517 70.0407
14.29259262906496 70.2858
14.315083930490205 70.8601
14.337558255389705 71.2293
14.360050666019726 71.1278
14.382526101071944 69.7919
14.405019624534942 69.0632
14.427513705993134 68.514
14.449990813291825 68.5642
14.47248601302899 68.2646
14.49496423954951 68.3163
14.517460561197822 68.5606
14.539939910570322 68.2061
14.562437357763558 68.8548
14.58493536931253 69.9412
14.607416409993311 70.6212
14.62991555254159 71.2726
14.652397725157423 70.9024
14.674898002342799 70.8034
14.697398848433282 70.1929
14.719882725991326 70.7244
14.74238471217934 71.5312
14.764869730765593 74.2018
14.787372860692983 77.5281
14.809876564079925 81.9995
14.83236330125751 87.8643
14.854868153850365 96.2854
14.877356041159485 110.352
14.899862046604186 129.037
14.922351087688757 154.766
14.944858249632887 182.13099999999997
14.967365991421232 208.014
14.989856770231246 218.94400000000002
15.012365673994204 214.37900000000002
15.03485761569738 186.52900000000002
15.05736768508665 148.877
15.07987833888692 115.525
15.102372032001655 90.9172
15.124883856909658 77.0822
15.14737872204565 71.932
15.169891721717274 70.1762
15.192405310371893 70.2601
15.214901940621196 70.6685
15.237416709527137 70.7336
15.259914520936249 70.872
15.282430473753607 69.7584
15.304947020131227 68.8692
15.327446610371178 67.6767
15.349964346154254 66.9387
15.372465126703139 66.8562
15.394984055556009 66.3493
15.417486030076159 66.2306
15.44000615566487 65.9416
15.462526881230803 65.8278
15.485030653812652 66.0035
15.507552581617434 65.8534
15.530057557334603 66.1377
15.55258069104857 65.9423
15.575104429329837 65.9485
15.597611216864632 65.6638
15.620136166564563 65.374
15.6426441664095 66.0319
15.665170331202765 68.3501
15.687697105158826 71.5332
15.710206930593545 74.6485
15.732734925158933 78.5844
15.755245972089478 85.1687
15.77777519094324 94.3724
15.800287463046663 107.83200000000001
15.822817909869592 127.85799999999999
15.84534897229804 150.241
15.867863089299354 173.03799999999998
15.890395385222186 188.355
15.912910736597423 191.535
15.935444269699861 181.243
15.957978423016485 153.768
15.980495633101265 123.411
16.003031029129367 97.4312
16.02554948280019 77.6863
16.048086125229432 68.2532
16.070623392487107 65.1577
16.09314371869582 64.3388
16.11568223789321 63.3031
16.13820381691126 62.1784
16.160743591742527 61.376000000000005
16.183283996022084 60.4079
16.205807461423195 59.5001
16.228349126881973 58.6952
16.25087385432698 58.6844
16.27341678466365 58.2932
16.29594277784926 58.181000000000004
16.31848697676433 58.3098
16.341031811604868 58.6583
16.36355971058487 58.8079
16.3861058195587 58.6057
16.40863499352978 57.3244
16.431182380342005 56.6086
16.453730407713202 56.3673
16.476261501364792 55.7441
16.498810812136167 55.3325
16.52134319004079 55.5558
16.54389378792203 55.3961
16.566445031001553 55.3669
16.588979342490088 54.8104
16.61153187824822 54.7706
16.634067483263312 54.739
16.656621315414416 54.7466
16.679175797408888 54.3359
16.701713349928728 54.4403
16.72426913389191 54.8117
16.74680798922351 54.723
16.76936507887444 54.8158
16.791905240734874 54.6977
16.814463639794468 54.5127
16.837022695210294 54.7384
16.859564824093756 55.1088
16.882125194503903 55.701
16.904668639217885 56.1125
16.927230328348003 56.3572
16.949792678493612 56.5292
16.972338104193863 55.9621
16.994901778652235 55.4563
17.017448529496576 55.4517
17.040013531998152 55.3607
17.06257920018044 55.9912
17.0851279459922 56.6871
17.107694947817667 57.6471
17.130245028099072 58.2622
17.15281336730298 59.4755
17.17536478578733 61.2918
17.19793446610687 63.6885
17.220504818648422 66.5999
17.243058251703697 70.1169
17.265629950971032 74.7481
17.288184731571736 79.1084
17.310757781306908 82.5639
17.33333150794385 84.1368
17.355888317140174 81.5999
17.37846339986244 76.2127
17.401021565958885 70.5018
17.42359800851343 65.5083
17.44617513265564 62.0871
17.468735341390783 60.1416
17.491261035594565 58.9595
17.51396340099364 58.6648
17.536490463869136 58.974
17.559018209820174 58.8927
17.58154663977963 58.9828
17.604251766089718 58.9881
17.626781572227713 59.3526
17.64931206518155 59.6214
17.671843245885103 60.1263
17.69455114821572 60.218999999999994
17.717083712612634 60.5724
17.739616967569667 60.74
17.762150914021706 61.0793
17.78486160749854 61.138000000000005
17.807396945166804 61.7016
17.829932977143503 62.3981
17.85246970436452 63.8452
17.875183204129467 65.7014
17.897721330097664 67.6142
17.920260154126645 69.9716
17.942799677153296 73.1728
17.9655159983646 76.9214
17.988056927677544 82.4085
18.010598558807683 90.2716
18.033140892692916 100.1
18.05586005052525 111.336
18.07840379824407 122.698
18.10094825154059 132.335
18.12366954819864 138.787
18.146215420998306 137.27100000000002
18.16876200220057 130.14
18.191309292745153 116.553
18.214033452627167 102.82700000000001
18.236582170236648 92.0555
18.259131600016456 86.8046
18.281681742907335 86.9005
18.304408781233683 91.1307
18.32696035875955 95.6041
18.349512652227624 100.031
18.372065662579683 103.875
18.394795594587553 104.571
18.41735004715306 101.309
18.43990521943684 94.95700000000001
18.46246111238171 86.5292
18.485193953325208 76.8636
18.507751296070428 69.7003
18.530309362314178 65.7883
18.552868153000343 63.3109
18.57560391815056 62.0907
18.59816416623245 61.5495
18.620725141597372 61.1854
18.643286845190268 60.5682
18.666025549835414 60.2304
18.688588718427933 59.7159
18.711152618092243 59.6585
18.73389353884365 59.236000000000004
18.75645890921984 58.8247
18.77902501351406 58.4697
18.801591852673102 58.3739
18.824335739722738 57.7356
18.846904057212626 57.9355
18.8694731124168 57.5382
18.89204290628315 57.4903
18.914789774966803 57.5104
18.937361054791623 56.9948
18.959933076131318 56.92100000000001
18.982505839934877 56.8886
19.00525570560582 56.9142
19.027829963004184 56.7042
19.05040496572238 56.7303
19.072980714710468 56.8541
19.095733592739563 56.7632
19.11831084296757 57.2183
19.140888842324735 57.68899999999999
19.16346759176222 57.8074
19.18622349753803 58.2588
19.208803755869358 59.2103
19.231384767143577 60.4204
19.253966532312948 61.97
19.276725481241822 64.274
19.29930876296784 66.6521
19.3218928014549 69.64
19.34465404436217 73.04
19.36723960516257 75.2028
19.389825925592426 75.9048
19.412413006605938 74.7511
19.43517731967805 71.3299
19.457765930683355 66.9763
19.48035530514408 62.7807
19.50294544401556 59.2122
19.525712842708348 56.5958
19.54830451925909 55.2561
19.570896963095727 54.1753
19.593490175174704 53.8431
19.616260674962184 53.7042
19.638855432416964 53.3667
19.661450960992624 53.5327
19.68404726164677 53.3586
19.706820878021247 53.1601
19.729418731756834 53.3764
19.752017360452857 53.1844
19.77461676506804 53.4246
19.797393513540218 53.49
19.819994478951667 53.718999999999994
19.84259622316767 54.2559
19.8651987471481 54.5643
19.887978643247177 54.8633
19.91058273574792 55.1722
19.933187610901943 56.0264
19.955969879466828 57.1277
19.97857632894404 58.4406
20.00118356396599 60.2731
20.023791585494575 62.4528
20.046577028914875 65.3063
20.069186632506966 67.2511
20.091797025500632 68.883
20.114408208858933 69.6718
20.137196842715273 68.8152
20.159809615886765 67.8974
20.18242318232135 65.2752
20.20503754298326 63.4689
20.227829382875154 62.3041
20.250445341109344 62.3149
20.27306209647285 62.7707
20.29567964993108 63.8148
20.31847471147704 64.8332
20.34109387027612 65.368
20.363713830075454 64.64
20.386334591841646 63.3641
20.409132890679302 60.643
20.431755265564437 58.153
20.454378445325528 55.3435
20.477002430930366 53.5421
20.499803982716553 52.4249
20.522429589228004 51.4577
20.54505600449589 50.8731
20.567683229489194 50.7482
20.590488049900088 50.2639
20.61311690359731 50.2576
20.63574656993626 49.9056
20.658553853717297 49.3751
20.681185154618298 49.4776
20.703817271080066 49.3309
20.72645020407368 49.049
20.749260783967177 48.88399999999999
20.771895359337133 49.051
20.794530754161617 48.7613
20.817166969412938 48.6996
20.83998086114876 48.6286
20.86261872660049 48.6004
20.885257415405402 48.543
20.90789692853701 48.5401
20.930714147864748 48.415
20.953355319030678 48.473
20.97599731745334 48.5547
20.99864014410749 48.2832
21.021460706796564 48.1997
21.044105199328826 48.6049
21.06675052302631 48.8806
21.089396678865015 49.0327
21.112220600704806 49.39
21.134868430275347 49.5781
21.15751709492456 49.8923
21.180166595629693 50.3566
21.202993892429635 50.855
21.22564507473034 50.9964
21.24829709602816 51.2173
21.27112693608965 51.2136
21.293780644891275 51.1479
21.316435195634053 50.5535
21.339090589297417 49.9016
21.361923832041875 49.5712
21.384580921090404 48.8626
21.407238856007325 48.2196
21.429897637773326 48.2745
21.45273429906592 48.2343
21.475394784108598 48.2515
21.498056118951983 48.1216
21.520718304578022 48.2943
21.543558400304388 48.3995
21.566222297108816 48.5685
21.58888704765135 48.6652
21.61155265291521 48.9679
21.63439619898156 49.4429
21.657063523335786 49.5299
21.67973170537063 50.0267
21.7024007460706 50.6935
21.72524775840385 51.4329
21.747918526116475 52.4088
21.770590155457388 53.6572
21.79326264741238 55.3006
21.816113141960237 57.1489
21.838787368860547 58.7888
21.861462461341976 60.8303
21.884315579735777 62.6655
21.90699241312273 63.7246
21.92967011506078 64.2831
21.95234868653799 63.9845
21.9752053151131 62.9492
21.997885635446785 61.043
22.020566828293532 59.3093
22.04324889464272 57.8477
22.066109049404666 56.5556
22.088792872571794 56.019
22.111477572219204 55.9552
22.1341631493376 55.945
22.157026846313123 55.7786
22.179714188221507 55.0195
22.202402410582668 54.0887
22.22509151438863 52.6864
22.24795876962584 51.438
22.270649646204486 50.4435
22.293341407213727 49.6279
22.316034053646906 49.1444
22.338904883215342 48.9099
22.36159931041458 48.8438
22.38429462602756 48.9014
22.40699083104897 48.7752
22.429865251039757 48.6153
22.452563244831367 48.663999999999994
22.47526213102522 48.5583
22.49813925616515 48.5864
22.520839937143307 48.4932
22.543541513520587 48.5445
22.56624398629403 48.3441
22.589124730075895 48.3093
22.611829005656723 48.4254
22.63453418063466 48.4437
22.657240256008077 48.5169
22.680124634582935 48.8074
22.70283252079775 48.8454
22.725541310413075 49.1423
22.74825100442868 49.4701
22.771139033969575 49.9651
22.79385054687155 50.1191
22.81656296718292 51.0026
22.83927629590484 51.855
22.862167992606945 52.9212
22.88488314827121 54.2497
22.907599215359284 55.0688
22.93031619487366 56.1444
22.953211574954405 56.7699
22.975930389478226 57.5331
22.998650119445763 57.5728
23.02137076586092 56.9511
23.044269845560063 55.8716
23.06699233506288 54.2548
23.089715744034912 52.5096
23.112617610931565 51.1674
23.135342869061212 49.9242
23.158069049684816 49.2098
23.1807961538087 48.6391
23.20370174880544 48.6588
23.226430710184808 48.6769
23.249160598093425 48.6186
23.271891413539002 48.6561
23.294800752937697 48.6677
23.31753343374794 48.8512
23.340267045128353 48.7368
23.36300158808808 49.1747
23.38591468821339 49.4878
23.408651104658304 49.9032
23.431388455719986 50.5399
23.454126742409 51.56399999999999
23.4770436196085 52.4395
23.499783787914662 53.8146
23.522524894889884 54.8036
23.54526694154616 55.8066
23.56818761219047 56.7873
23.59093154860734 57.3016
23.613676427751283 57.577
23.636422250635754 56.702
23.659346731118656 55.0693
23.68209445191868 53.4229
23.704843119509587 51.5097
23.72759273490623 49.5875
23.750521041644767 48.2131
23.77327256312355 47.0863
23.796025035462787 46.4536
23.818956224555475 45.9626
23.841710609113413 45.617
23.86446594758979 45.5457
23.887222241002014 45.2808
23.910157285144578 44.9419
23.932915498962537 44.8962
23.955674670778713 44.8387
23.978434801611975 44.6196
24.001373717286125 44.648
24.024135776723917 44.5366
24.046898798245582 44.3964
24.06966278287146 44.4233
24.092605586582614 44.1517
24.115371508023642 44.0184
24.1381383956401 43.8439
24.16090625045381 43.8549
24.183852958731244 43.7937
24.206622758582608 43.7622
24.229393528706886 43.6425
24.252165270127392 43.5773
24.27511589952438 43.4858
24.297889594216997 43.3037
24.32066426328598 43.0791
24.34343990775613 43.1076
24.36639447485003 43.0821
24.38917208083877 42.9324
24.41195066531332 43.0076
24.43490819850244 43.1274
24.457688750692377 42.9443
24.48047028445616 42.7932
24.503252800821233 43.0021
24.526214300784112 42.9222
24.548998793132213 42.918
24.57178427117417 42.8026
24.59457073593893 42.8372
24.617536219319863 42.626999999999995
24.64032466834748 42.7884
24.663114107195035 42.7287
24.685904536893013 42.4961
24.708874020360852 42.3882
24.731666442613744 42.3267
24.754459858818787 42.3419
24.777254270007962 42.0086
24.80022777025625 42.0291
24.82302418230472 41.9619
24.845821592443674 41.928000000000004
24.86862000170663 42.0142
24.891597535453727 41.8797
24.914397953892728 42.0925
24.93719937456671 41.9253
24.96000179851076 42.2908
24.98298338249997 42.4465
25.00578782394922 42.5593
25.028593271784167 42.726000000000006
25.05157790644186 42.9761
25.07438537804115 43.2136
25.097193859145293 43.4147
25.120003350792075 43.6814
25.142992065061257 43.9436
25.165803588823465 44.2594
25.18861612625217 44.4965
25.211429678386736 44.6559
25.234422489079968 44.7085
25.257238081693636 44.4835
25.280054692141732 44.8526
25.3028723214652 44.8163
25.325869245420463 44.6976
25.348688923599397 44.6436
25.371509623787006 44.6149
25.394331347025812 44.3173
25.41733240110666 44.0623
25.440156181590016 43.2472
25.46298098826268 42.9924
25.48580682216873 42.4256
25.50881202326435 41.8451
25.53163992281684 41.3297
25.55446885274561 40.9823
25.577298814096377 40.7794
25.600308179121807 40.659
25.623140214533745 40.717
25.64597328451537 40.6473
25.66898578564376 40.4373
25.691820936010206 40.3306
25.714657124097695 40.3452
25.737494350954734 40.3749
25.760511045684957 40.3846
25.783350361364224 40.3859
25.806190718969255 40.3151
25.82903211955018 40.5141
25.852053024868923 40.5341
25.874896522722523 40.5233
25.897741066713106 40.3584
25.920586657892454 40.4675
25.943611790812668 40.5533
25.966459487728237 40.8288
25.989308234998564 40.9138
26.01215803367705 41.0844
26.03518741123814 41.4285
26.05803932412957 41.5042
26.080892291600094 41.4132
26.10374631470478 41.4406
26.12677995397268 41.5004
26.14963609978026 41.4335
26.172493304397875 41.1123
26.19535156888223 40.9912
26.218389486949604 40.7
26.241249882640123 40.3736
26.26411134137826 40.1325
26.28715248187403 40.2022
26.31001607820869 40.0192
26.3328807407756 39.9126
26.35574647063438 39.8657
26.37879191991473 39.8569
26.401659795896734 39.9057
26.424528742360263 40.1544
26.447398760366614 40.3382
26.470448535598294 40.2761
26.49332070826805 40.6531
26.516193955675355 41.0473
26.53906827888316 41.1349
26.562122397260108 41.3074
26.584998883685063 41.5363
26.607876449110325 41.7956
26.63075509460056 41.9456
26.65381357334404 42.0656
26.67669439061878 41.9898
26.699576291163382 41.9148
26.722459276044212 41.8325
26.745522132402975 41.5125
26.768407297649354 41.328
26.791293550442003 41.0373
26.814180891848974 40.8792
26.837248143099337 40.4243
26.860137673466657 40.3182
26.88302829566349 39.9522
26.90592001075963 39.8889
26.92899167420566 39.6338
26.951885586870763 39.2484
26.974780595655517 39.1537
26.99785558178161 39.1478
27.020752794605112 38.8737
27.043651106772522 38.6597
27.06655051935668 38.7718
27.089629948036183 38.6374
27.112531573292053 38.5548
27.135434302194138 38.6633
27.158338135817015 38.3989
27.181422024430987 38.4262
27.204328079372566 38.3569
27.22723524226965 38.3572
27.250143514198573 38.4243
27.273231880156334 38.5212
27.296142382065014 38.2471
27.319053996245536 38.2557
27.341966723775965 38.3671
27.365059584515222 38.2252
27.38797455070062 38.2633
27.410890633481237 38.1889
27.433807833936918 38.2294
27.456905206923906 38.4155
27.47982465472398 38.4251
27.502745223449743 38.455999999999996
27.525666914182825 38.569
27.548768816912457 38.3914
27.571692763693633 38.2672
27.59461783573812 38.2364
27.617723149491244 38.0217
27.640650484125285 37.9664
27.66357894728264 38.073
27.686508540048052 37.9218
27.709618414237887 37.905
27.732550278321757 37.5893
27.755483275279115 37.7414
27.778417406196485 37.7745
27.801531858397514 37.687
27.824468269376716 37.6499
27.847405817586786 37.763000000000005
27.870344504116094 37.9442
27.893463551932008 38.0232
27.916404527281053 38.1892
27.93934664422563 38.2572
27.962289903855886 38.3878
27.98541356491974 38.6261
28.00835912214229 38.5949
28.03130582533231 38.8707
28.054253675581805 39.0341
28.077381967556104 38.8681
28.100332124185126 38.9169
28.123283431160893 38.8769
28.146235889577238 38.7191
28.169368830154156 38.5743
28.192323603752033 38.4083
28.215279532083304 38.0631
28.238415973016764 37.7307
28.261374223145094 37.8213
28.284333631303806 37.6024
28.307294198589954 37.4968
28.330435319167677 37.0161
28.353398217078915 36.7892
28.376362277420153 36.5232
28.39932750129032 36.3884
28.422473319286713 36.2788
28.44544088262495 36.1982
28.468409612800283 36.0033
28.491379510913497 35.9128
28.51453004413313 35.9075
28.53750229057244 35.7738
28.56047570826344 35.8012
28.583450298308804 35.8456
28.606605564586562 35.4345
28.629582511831156 35.6246
28.65256063474956 35.5261
28.675539934446338 35.6079
28.698699951647605 35.6163
28.72168161743193 35.3674
28.74466446331978 35.3012
28.767648490417624 35.3454
28.790813276438353 35.3088
28.813799678527303 35.2953
28.836787265157085 35.292
28.859955641890075 35.2736
28.882945610203045 35.3489
28.905936766392035 35.2581
28.928929111566863 35.2372
28.952102288520145 35.0455
28.975097024308607 34.9979
28.998092952423807 34.9798
29.021090073977508 34.8339
29.04426806913204 34.8545
29.067267590245258 34.5981
29.090268308143695 34.515
29.11327022394099 34.4672
29.13645305530891 34.2711
29.159457379627167 34.3049
29.18246290519685 34.2311
29.20546963313352 34.2318
29.22865731875826 34.2122
29.25166646419296 34.1916
29.27467681535305 34.0459
29.29768837335608 34.2852
29.320880931312562 34.2304
29.34389491580634 34.2024
29.366910110507334 34.0721
29.38992651653503 34.1875
29.41312396492981 34.166
29.436142806456754 34.0323
29.45916286268059 34.0156
29.48236399319994 33.8592
29.50538649169417 33.7029
29.528410208259935 33.6149
29.55143514402014 33.3917
29.574641196749695 33.2595
29.597668583816574 33.2123
29.6206971934585 33.0193
29.64372702680042 33.1001
29.666938019934474 32.9975
29.689970313635285 32.9392
29.713003834422636 33.0087
29.73603858342347 32.8398
29.759254535188578 32.6695
29.78229175361658 32.7198
29.80533020365064 32.8617
29.82836988641968 32.8098
29.85159081507472 32.728
29.874632976355343 32.6347
29.89767637376955 32.781
29.920721008448314 32.5634
29.9439469322847 32.5249
29.96699405457564 32.5124
29.9900424175358 32.6141
30.013092022298157 32.5592
30.03632295963995 32.413000000000004
30.059375061131373 32.3507
30.08242840783577 32.3878
30.105483000888153 32.4616
30.128718970092244 32.2513
30.151776069006917 32.4062
30.17483441768648 32.3943
30.198074175317235 32.2524
30.221135036724256 32.3348
30.24419715131772 32.2966
30.267260520236203 32.2375
30.290505341942243 32.3499
30.313571232750228 32.2317
30.336638381310948 32.2529
30.35970678876503 32.1425
30.38295669299435 32.0648
30.40602763151657 32.1243
30.429099832366074 32.0016
30.452173296685572 32.006
30.47542830191959 31.9315
30.498504306502497 31.8596
30.521581577995562 32.0177
30.544660117543582 32.0573
30.56792024229725 32.1059
30.59100133132069 32.0253
30.614083691845494 31.9801
30.637167325018545 32.0925
30.660432587840603 32.1401
30.683518779717886 32.1053
30.70660624769615 32.1538
30.729694992924372 32.1973
30.75296541239743 32.1785
30.77605672557558 32.0888
30.799149319462742 31.9627
30.8224236211637 31.7505
30.845518789950724 31.8255
30.868615242910597 31.7428
30.891712981195973 31.6022
30.91499247215866 31.494
30.938092794619365 31.4599
30.96119440587579 31.4248
30.984297307082752 31.3588
31.00758200598383 31.3123
31.030687500658694 31.1656
31.053794288760695 31.0288
31.076902371446767 30.9856
31.100192296997445 31.1413
31.12330298246119 31.0242
31.14641496599209 30.8972
31.169528248749216 30.9368
31.19282341969534 30.8702
31.215939314557186 30.8716
31.239056512134788 30.8518
31.262175013589378 30.7647
31.28547544871168 30.6607
31.30859657161541 30.7017
31.331719001892175 30.8189
31.35484274070538 30.9002
31.378148458819545 30.8346
31.401274828443725 30.7657
31.424402510106933 30.7583
31.447712205419993 30.8607
31.470842524931633 30.631999999999998
31.493974159989783 30.6589
31.51710711176168 30.6698
31.54042212308802 30.7621
31.563557722100917 30.6083
31.586694641341655 30.5753
31.609832881979628 30.4355
31.63315322823208 30.3963
31.656294125521327 30.2907
31.679436347728515 30.2946
31.70257989602529 30.2086
31.725905596152327 30.0766
31.74905181052835 30.0525
31.772199354521323 30.0689
31.79534822930507 30.0318
31.818679302290967 30.1445
31.84183085259981 30.1399
31.864983737233473 30.0383
31.88813795736804 30.1357
31.911474422233013 29.8368
31.934631327356435 29.9065
31.9577895715215 30.0438
31.980949155906522 29.9294
32.004291031706956 29.9233
32.027453310562606 29.8993
32.05061693318573 29.6748
32.07396288236386 29.7507
32.09712920658542 29.6676
32.12029687812702 29.5752
32.14346589817093 29.4508
32.166817291729984 29.4001
32.18998902288583 29.4072
32.21316210610336 29.2463
32.23633654256711 29.1416
32.259693399663725 29.1393
32.282870556771144 29.0927
32.30604907069099 29.0809
32.329228942610065 28.9949
32.35259128243769 28.9248
32.375773884550505 28.8323
32.398957848235646 28.8646
32.422143174682176 28.7765
32.445511016471215 28.6761
32.468699082679954 28.6946
32.49188851523011 28.6129
32.51507931531304 28.5362
32.538452678331 28.5562
32.56164622776311 28.5123
32.58484114831493 28.3998
32.60803744118015 28.4111
32.631416344731896 28.3935
32.654615396551876 28.4084
32.67781582427913 28.2696
32.701198898634416 28.2958
32.72440209253756 28.2735
32.747606665947124 28.2104
32.77081262006088 28.072
32.79420126883317 28.0202
32.81740999876112 28.009
32.840620112999424 27.9637
32.86383161274818 27.8804
32.88722585534586 27.9661
32.91044014056596 27.9402
32.933655814909734 27.8567
32.95687287957963 27.9365
32.98027273544904 27.8598
33.00349259526636 27.7617
33.026713849030116 27.7729
33.04993649794511 27.6612
33.073341986570746 27.6866
33.09656744032826 27.6516
33.11979429286444 27.7071
33.14302254538647 27.7448
33.166433686291185 27.6437
33.18966475336992 27.6481
33.212897224069096 27.5985
33.23613109959831 27.5331
33.259547912343415 27.5094
33.2827846121627 27.5567
33.306022720453775 27.4248
33.32926223842861 27.3404
33.352684742614166 27.3768
33.37592709463173 27.2606
33.399170859982064 27.1218
33.422597648419426 27.1552
33.44584425514446 27.0927
33.46909227885668 27.0118
33.4923417207723 26.9532
33.51577423505344 26.9047
33.539026528130385 26.8244
33.56228024307245 26.8613
33.585535381098246 26.783
33.60897364093058 26.6822
33.63223163992385 26.7351
33.6554910656699 26.619
33.678751919389796 26.5822
33.702195944520106 26.4457
33.72545966903325 26.5145
33.74872482519663 26.4442
33.771991414233746 26.5399
33.79544122444841 26.4272
33.81871069412428 26.3316
33.84198160035767 26.3231
33.86525394437455 26.3259
33.88870955949969 26.2207
33.911984794020626 26.2336
33.93526147001624 26.2742
33.958539588715006 26.1265
33.98200102861669 26.0326
34.0052820477047 26.0037
34.02856451319451 25.9897
34.05203033759056 25.8605
34.07531571090147 25.9193
34.09860253431845 25.9178
34.121890809074316 25.9002
34.145362493118924 25.8945
34.16865368561615 25.7661
34.191946333164054 25.7691
34.21524043699793 25.8456
34.23871800066799 25.7655
34.26201503218366 25.6295
34.28531352370466 25.5576
34.30861347646881 25.5158
34.33209693978188 25.5403
34.3553998301885 25.4842
34.378704185565205 25.3553
34.402010007152356 25.329
34.42549939016683 25.3181
34.44880815937748 25.2133
34.472118398533134 25.1436
34.49543010887669 25.1728
34.51892543169198 25.0434
34.54224009966052 25.0344
34.56555624255917 25.0738
34.58887386163339 24.9829
34.61237514439016 24.8708
34.6356957311114 24.8802
34.65901779775809 24.9253
34.68252356662995 24.8577
34.705848608458616 24.8159
34.72917513396849 24.7806
34.75250314440949 24.7432
34.77601490857862 24.7052
34.799345904259795 24.6851
34.82267838863559 24.6318
34.846012362958525 24.64
34.869530142679984 24.5491
34.89286711232212 24.5167
34.91620557568269 24.5435
34.93954553401677 24.5026
34.9630693495876 24.4011
34.986412313340814 24.471
35.00975677584668 24.4862
35.033102738362956 24.4189
35.05663261012228 24.3202
35.0799815881786 24.3229
35.10333207003229 24.1888
35.12668405694369 24.1839
35.150220005273056 24.1628
35.17357501786656 24.1828
35.19693153931268 24.1457
35.220289570874385 24.0418
35.24383161619786 24.1128
35.267192683604904 24.0684
35.290555264930376 24.034000000000002
35.314101899412165 24.0069
35.33746752422433 24.0399
35.36083466676374 23.9716
35.38420332829803 24.0153
35.407756095629054 24.0118
35.43112781085063 23.9313
35.45450104888391 23.8163
35.477875810999194 23.864
35.50143473172161 23.7094
35.52481255774625 23.8386
35.54819191167777 23.7876
35.57157279478914 23.6644
35.595137889488406 23.6159
35.61852184675279 23.6607
35.641907337029984 23.639
35.665294361595684 23.5014
35.68886565090076 23.471999999999998
35.7122557598848 23.4793
35.73564740699838 23.4674
35.759040593519934 23.3572
35.78261809810353 23.2592
35.80601437933051 23.2782
35.829412203814705 23.239
35.85281157283719 23.1743
35.876395313415884 23.1475
35.8997977874528 23.1288
35.92320180988546 23.1292
35.946790244133936 23.0072
35.97019737933222 23.0438
35.993606066789866 22.9988
36.01701630779276 22.9833
36.04061101440684 22.9851
36.06402437852291 22.8905
36.08743930005611 22.9789
36.1108557802951 22.8649
36.13445678011326 22.8587
36.15787639383515 22.9242
36.18129757014299 22.7426
36.20472031032821 22.7035
36.22832762423364 22.5161
36.25175350829375 22.618000000000002
36.275180960119776 22.5012
36.298609981005924 22.6167
36.32222362992669 22.6315
36.34565580510207 22.5387
36.36908955323448 22.5252
36.39252487562093 22.4176
36.416144880530226 22.3619
36.43958336764275 22.3979
36.463023432914625 22.3781
36.486465077645676 22.3061
36.51009145956204 22.3309
36.53353627947859 22.301
36.55698268276811 22.2197
36.58043067073321 22.2557
36.60406345072071 22.1335
36.62751462435344 22.0969
36.65096738658405 22.1073
36.67460498210655 22.1146
36.69806093788647 22.0219
36.72151848619297 21.9517
36.744977628333636 22.0058
36.76862165890998 21.9186
36.79208400512205 21.8988
36.81554794910557 21.8038
36.83901349217101 21.8016
36.862663978991606 21.7723
36.88613273667352 21.7049
36.90960309738324 21.7225
36.933075062434064 21.7285
36.95673202673572 21.6615
36.98020721697122 21.6293
37.003684015502365 21.5731
37.027162423645365 21.5325
37.050825886711465 21.5041
37.07430753063053 21.4479
37.09779078812467 21.3883
37.121275660513014 21.3778
37.144945643673694 21.386999999999997
37.16843376245278 21.3289
37.19192350009803 21.338
37.215414857931435 21.2904
37.239091382563885 21.2301
37.262585997426164 21.2507
37.28608223645736 21.1874
37.309763684451696 21.1037
37.33326318851098 21.098000000000003
37.356764320726555 21.0896
37.380267082425526 21.0244
37.40395510942588 21.0246
37.42746114683234 20.9566
37.45096881771841 20.9764
37.474478123414166 21.0025
37.49817275092816 20.9628
37.52168534303452 20.8174
37.54519957395567 20.783
37.568715445024665 20.829
37.592416694607714 20.8229
37.61593586281424 20.8313
37.63945667518264 20.7599
37.66297913304891 20.6339
37.68668702630454 20.636999999999997
37.710212792059274 20.5755
37.733740207334854 20.5666
37.757269273470364 20.4946
37.780983832050374 20.4616
37.80451621684926 20.4784
37.82805025654007 20.4239
37.851585952464795 20.4113
37.8753071980695 20.324
37.89884622345676 20.3251
37.92238690911902 20.3112
37.94611318753442 20.173
37.969657210779765 20.225
37.99320289834801 20.1931
38.016750251586465 20.1118
38.04048325513017 20.0984
38.06403395679343 20.0993
38.087586328183946 20.0968
38.11114037065203 20.0378
38.13488012115898 19.9704
38.1584375229181 19.9846
38.181996599821 19.9366
38.205557353221124 19.8556
38.229303872575656 19.8638
38.2528679961576 19.8073
38.27643380031219 19.8253
38.30000128639589 19.7791
38.32375459653193 19.7991
38.34732546371299 19.768
38.37089801690786 19.6788
38.39447225747609 19.5848
38.418232380377425 19.5892
38.441810012983396 19.5982
38.46538933705673 19.6046
38.488970353960084 19.5635
38.51273731166058 19.5023
38.536321731567014 19.4737
38.55990784840681 19.4043
38.58367995004091 19.4569
38.60726947812959 19.3293
38.63086070726198 19.3681
38.654453638806274 19.3676
38.678232613930824 19.3054
38.70182896773327 19.1713
38.72542702806741 19.1079
38.7490267963045 19.2268
38.77281266709232 19.2411
38.79641586862214 19.1647
38.8200207821842 19.0484
38.843627409152944 19.0806
38.86742019782782 19.0734
38.891030269149255 19.0092
38.914642058016156 18.9987
38.938255565806124 18.9564
38.96205529464307 18.9324
38.98567225787121 18.9149
39.00929094417078 18.898
39.03291135492255 18.837
39.05671804624804 18.8042
39.080341923549106 18.7783
39.103967529460334 18.6891
39.127594865365744 18.6796
39.15140854155791 18.7157
39.17503935514948 18.6453
39.19867190290282 18.6045
39.22249083587951 18.5682
39.24612686969409 18.5364
39.269764641845306 18.5865
39.293404153722804 18.5358
39.317230110864074 18.4336
39.34087311998506 18.4
39.36451787301696 18.4608
39.388164371352595 18.3634
39.41199737518003 18.3153
39.43564738196752 18.3037
39.45929913825317 18.3133
39.48295264543308 18.281
39.506792718520884 18.2139
39.530449745387216 18.2253
39.55410852735203 18.1798
39.57776906581474 18.1611
39.60161623079 18.1763
39.625280300200025 18.1149
39.64894613032202 18.0543
39.67261372255866 18.0858
39.6964680021016 18.0821
39.72013913657293 18.0543
39.74381203738292 17.998
39.76748670593756 17.9967
39.79134812278169 17.9692
39.81502634488497 17.8802
39.83870633896685 17.857
39.862388106436654 17.8584
39.88625668336918 17.8012
39.90994201572829 17.7786
39.933629125719285 17.7116
39.957503091207826 17.6715
39.9811937746168 17.7146
40.00488623990914 17.6939
40.02858048850006 17.5535
40.05246165409549 17.5695
40.076159487492085 17.5463
40.099859108448875 17.548
40.123560518384345 17.4825
40.1474489070226 17.5027
40.171153913178564 17.4622
40.194860712584955 17.4072
40.2185693066637 17.393
40.242464941335314 17.3667
40.26617714307655 17.3771
40.289891143772046 17.3212
40.3136069448471 17.2791
40.33750984859743 17.3027
40.3612292688043 17.2805
40.3849504936829 17.2192
40.40867352466194 17.183
40.43258372059144 17.1627
40.45631038219906 17.175
40.48003885420956 17.1212
40.503769138055105 17.0621
40.52768664931955 17.0559
40.55142057531802 17.0548
40.57515631746428 17.0226
40.599079334038514 16.9777
40.62281872700477 16.925
40.64655994043941 16.8979
40.67030297578061 16.906
40.69423334835778 16.8729
40.71798004609188 16.8273
40.74172857006355 16.7995
40.76547892171441 16.8196
40.7894166736039 16.8273
40.813170699248566 16.7016
40.83692655691388 16.6836
40.86068424804498 16.7115
40.884629402612525 16.664
40.908390779366385 16.6627
40.932153993938 16.6203
40.95591904777605 16.5874
40.979871628443995 16.5526
41.003640379561936 16.4732
41.02741097430883 16.4975
41.05118341413683 16.4639
41.075143444384416 16.455
41.098919593177826 16.3974
41.1226975914255 16.3672
41.14647744058318 16.2802
41.170444943946755 16.2866
41.19422851378379 16.3493
41.218013938914645 16.2256
41.24198706625173 16.1754
41.26577622087193 16.1894
41.289567235177785 16.1524
41.31336011063129 16.2074
41.337340752422875 16.1421
41.361137369129835 16.1175
41.38493585138705 16.097
41.40873620066004 16.0421
41.43272438060107 16.0349
41.45652848292052 16.0037
41.48033445666918 15.9233
41.50414230331616 15.9486
41.528138045159764 15.9021
41.551949656675205 15.8549
41.575763145513235 15.7885
41.59957851314666 15.8384
41.62358184070442 15.7866
41.64740098505737 15.7957
41.6712220126409 15.7422
41.69504492493139 15.7543
41.71905586207357 15.6726
41.74288256296395 15.6669
41.766711153007456 15.6201
41.79054163368412 15.5809
41.814560204340054 15.5779
41.838394485526365 15.5962
41.86223066180303 15.5768
41.88625497706819 15.5545
41.910094962812 15.5139
41.93393684811168 15.4811
41.95778063445365 15.4221
41.981812625263366 15.424000000000001
42.00566023303407 15.4042
42.029509746323676 15.2965
42.05336116662236 15.3405
42.077400857069705 15.3349
42.10125611078846 15.205
42.12511327600405 15.2503
42.14897235421036 15.2151
42.173019768448455 15.2232
42.19688269209613 15.1891
42.22074753323349 15.1547
42.24461429335818 15.1426
42.268669455600495 15.1485
42.292540073217886 15.0974
42.31641261433284 15.0591
42.34028708044675 15.0023
42.36435001496739 15.0203
42.38822835065557 15.0096
42.41210861586426 14.9785
42.4359908120986 14.9805
42.46006154323262 14.8931
42.48394762115317 14.8274
42.507835634632315 14.8761
42.531912233047436 14.8216
42.55580413732265 14.7748
42.579697981698 14.7435
42.60359376768525 14.7371
42.62767820545945 14.7302
42.65157789440821 14.7388
42.67547952952185 14.6664
42.699383112316 14.6111
42.72347541395347 14.6656
42.74738291190531 14.579
42.771292362102166 14.6378
42.795203766063516 14.5726
42.819303956130405 14.523
42.843219287476536 14.4789
42.86713657716324 14.532
42.89105582671383 14.5228
42.91516392983864 14.4813
42.939087119032166 14.4175
42.963012272677304 14.3546
42.98693939230129 14.3751
43.01105543317513 14.3342
43.034986504731386 14.3498
43.05891954686589 14.2619
43.08285456110972 14.2486
43.10697856448665 14.2447
43.130917542983475 14.174000000000001
43.15485849820081 14.1707
43.17880143167367 14.1415
43.20293342237094 14.1346
43.226880332449 14.0699
43.25082922540554 14.1126
43.27496722682525 14.073
43.29892010567796 14.0173
43.32287497204102 14.0158
43.34683182745632 13.9476
43.370977859791836 13.9851
43.39493871351105 13.9546
43.41890156092628 13.921
43.44286640358341 13.9168
43.46702049182749 13.8661
43.49098934522816 13.8547
43.51496019852649 13.8098
43.5389330532723 13.8296
43.56309522248204 13.8115
43.58707210044314 13.7495
43.61105098451946 13.6959
43.63503187626491 13.7194
43.659202151562134 13.6879
43.68318707902681 13.6852
43.70717401884041 13.654000000000002
43.731162972560874 13.5502
43.75534137913236 13.557
43.779334381108384 13.5528
43.803329401683186 13.5571
43.82732644241872 13.5057
43.8515130055166 13.5091
43.87551410707659 13.4441
43.89951723350145 13.4877
43.923709934595614 13.4125
43.94771713129917 13.3741
43.97172635758096 13.4207
43.99573761501002 13.3224
44.0199385169922 13.3988
44.04395385732619 13.334000000000001
44.067971233533086 13.2875
44.09199064718605 13.2287
44.11619977548961 13.2207
44.14022328470671 13.2079
44.16424883610785 13.2122
44.18827643127035 13.2027
44.21249381139513 13.1692
44.236525514814076 13.0937
44.26055926674478 13.1086
44.28459506876863 13.1244
44.3088207262813 13.0324
44.33286064928722 13.0454
44.35690262714919 13.0417
44.38094666145278 12.9896
44.4051806219871 12.9811
44.42922879003185 12.9538
44.45327901929361 12.975999999999999
44.477331311362136 12.9144
44.501573600619416 12.8435
44.525630039221795 12.876
44.54968854541895 12.8351
44.573937102200176 12.7664
44.5979997645541 12.8256
44.622064499300315 12.7748
44.64613130803592 12.7519
44.67038823869318 12.7925
44.69445921643748 12.6896
44.718532272981385 12.6011
44.742607409926194 12.6268
44.76687274034801 12.5979
44.79095205918753 12.5065
44.81503346325094 12.6039
44.839116954143876 12.6048
44.86339071028742 12.5108
44.88747839599524 12.5624
44.91156817336837 12.4969
44.93566004401666 12.5279
44.959942251908146 12.4799
44.984038330325966 12.4425
45.00813650686762 12.3658
45.03223678314731 12.345
45.05652746888232 12.3539
45.08063196592069 12.3683
45.104738567558705 12.2708
45.128847275414856 12.3018
45.15314646515866 12.2788
45.17725940679741 12.227
45.20137445952892 12.2182
45.22568004865265 12.2328
45.24979934496396 12.2051
45.27392075725247 12.1781
45.29804428714431 12.1299
45.322358426247604 12.1491
45.346486212804315 12.1167
45.370616121861914 12.1087
45.39474815505086 12.0875
45.41907087049246 11.9927
45.4432071734666 11.9953
45.46734560548283 12.0177
45.49148616817604 12.0269
45.51581748638564 11.9786
45.5399623320197 11.9527
45.56410931325473 11.9338
45.58825843173002 11.8478
45.61259837920865 11.9016
45.636751793816 11.8933
45.66090735060093 11.827
45.68506505120716 11.8146
45.7094136545275 11.7233
45.73357566449271 11.7503
45.75773982322992 11.7248
45.78190613238733 11.7642
45.806263418194064 11.713
45.83043404997326 11.7268
45.85460683713677 11.6205
45.87897065658495 11.6132
45.90314777634752 11.6197
45.92732705646868 11.6139
45.9515084986045 11.5922
45.97588104735473 11.5767
46.00006683541565 11.5395
46.02425479047904 11.5099
46.04844491420549 11.5086
46.0728262191024 11.4668
46.09702070211635 11.4428
46.12121735879483 11.4611
46.14541619080294 11.4256
46.169806278764455 11.4104
46.194009483459034 11.3627
46.21821486849841 11.345
46.24242243555223 11.3294
46.266821333570014 11.3167
46.29103328674601 11.3386
46.31524742696538 11.3158
46.33946375590237 11.2656
46.36387149104216 11.2179
46.38809221957392 11.1742
46.41231514186606 11.1456
46.436540259597464 11.2319
46.460956858999374 11.1627
46.48518638983522 11.1416
46.509418121166966 11.1063
46.533652054678114 11.0879
46.55807754555709 11.0395
46.58231590571962 11.0784
46.60655647313217 11.0755
46.630988654873654 11.0053
46.655233659129024 10.9719
46.67948087571551 10.9698
46.70373030632484 10.913
46.72817142736393 10.9364
46.752425308428684 10.8925
46.77668140861147 10.8673
46.80093972960865 10.8207
46.82538981736788 10.8314
46.849652602470904 10.7735
46.87391761349769 10.7892
46.8981848521493 10.7837
46.9226439341274 10.7352
46.946915650573224 10.7338
46.97118959976749 10.7171
46.99546578341598 10.6928
47.019933887188216 10.7046
47.04421456235744 10.6774
47.06849747711879 10.6572
47.09278263318286 10.6496
47.11725978640143 10.6114
47.14154944775105 10.5651
47.165841355555656 10.542
47.1901355115306 10.5458
47.214621741924994 10.5166
47.23892041698887 10.5305
47.26322134538975 10.5165
47.28771440635075 10.4715
47.31201986422527 10.4764
47.33632758061436 10.4492
47.360637557241866 10.4221
47.38513974410611 10.3951
47.40945426407847 10.3591
47.43377104948137 10.3488
47.45809010204344 10.3467
47.48260144275502 10.3476
47.506925052572285 10.2865
47.53125093475548 10.2669
47.55557909103813 10.2633
47.58009961361992 10.2284
47.60443234110732 10.2054
47.62876734791564 10.1993
47.65310463578333 10.1913
47.6776343683373 10.1528
47.7019762413987 10.1241
47.72632040075572 10.0907
47.75066684815169 10.0831
47.77520581885936 10.0703
47.799556865477655 10.0399
47.823910205386 10.0662
47.84826584033272 10.0353
47.87281407745551 9.979
47.89717432569297 9.97531
47.92153687423484 10.0296
47.94609208429692 9.968060000000001
47.97045925671401 9.931510000000001
47.99482873471275 9.907739999999999
48.01920052005013 9.894730000000001
48.04376504619224 9.881219999999999
48.068141469543484 9.88617
48.09252020552573 9.85093
48.11690125590099 9.80063
48.1414751266064 9.850060000000001
48.16586082917454 9.79824
48.19024885144316 9.77511
48.2146391951793 9.77307
48.239222439012764 9.76849
48.26361744916137 9.71544
48.28801478610016 9.67085
48.31241445160131 9.70067
48.337007097209366 9.66589
48.36141144338331 9.666889999999999
48.38581812345755 9.64016
48.41022713920929 9.63364
48.434829215320704 9.612689999999999
48.45924292604658 9.603660000000001
48.48365897780325 9.61813
48.50807737237308 9.56274
48.532688907799276 9.54593
48.55711201168574 9.514330000000001
48.581537463754074 9.50424
48.60615611725119 9.5011
48.63058628942721 9.50094
48.65501881516546 9.46777
48.6794536962573 9.45914
48.70408185970339 9.44474
48.72852147531801 9.37728
48.75296345168211 9.32762
48.77740779059232 9.364419999999999
48.80204549302823 9.38362
48.82649458091802 9.33042
48.85094603676547 9.31857
48.87539986237231 9.28567
48.90004713292306 9.27997
48.92450572200832 9.29091
48.94896668628025 9.23956
48.97343002754588 9.25333
48.99808689542115 9.2464
49.02255501470614 9.20918
49.04702551642794 9.15405
49.0714984023988 9.1566
49.096164896893235 9.13462
49.120642575466796 9.11894
49.145122643748394 9.099680000000001
49.16960510355558 9.09198
49.19428125404938 9.0627
49.2187685210852 9.05621
49.243258185121555 9.03239
49.26794160167084 8.99652
49.2924360839405 8.97221
49.31693296869764 8.93652
49.34143225776915 8.954839999999999
49.36612538195438 8.94422
49.39062950396021 8.93193
49.41513603578346 8.913110000000001
49.4396449792564 8.93206
49.46434784069503 8.8675
49.488861631846454 8.86592
49.513377840166804 8.826139999999999
49.537896467493745 8.79397
49.56260909589029 8.76866
49.587132585683285 8.78996
49.611658500018365 8.76005
49.636186840738596 8.778369999999999
49.66090926588511 8.74013
49.685442483902584 8.73511
49.70997813385706 8.69957
49.734516217597076 8.67635
49.75924846937352 8.67633
49.7837914452858 8.67875
49.80833686055187 8.61631
49.83288471702571 8.63487
49.85762682540054 8.63377
49.882179588965734 8.58801
49.9067347993235 8.62208
49.93129245833333 8.589210000000001
49.95604445336378 8.56652
49.98060703442832 8.50465
50.005172069746266 8.48957
50.02993150438364 8.51848
50.05450147301533 8.50587
50.07907390151433 8.49265
50.10364879174981 8.47584
50.12841816587289 8.40957
50.1529980044635 8.42185
50.17758031042124 8.42027
50.20216508562089 8.4057
50.22694442953363 8.35421
50.25153416817468 8.31885
50.27612638170508 8.3461
50.300721072005196 8.28443
50.325510416102105 8.29684
50.350110084975064 8.269730000000001
50.37471223628208 8.24967
50.39931687190919 8.2011
50.424116246675766 8.22745
50.44872587605249 8.20677
50.47333799543065 8.19781
50.49795260670191 8.18117
50.52276204271512 8.13594
50.54738166295838 8.15284
50.57200378079314 8.1476
50.596628398116835 8.12445
50.62144792604559 8.12905
50.646077567609396 8.06697
50.670709714377715 8.08779
50.69553683636198 8.08126
50.72017401885922 8.03192
50.7448137122895 8.01746
50.76945591856022 8.02324
50.79429318636823 8.0274
50.818940443716784 8.02481
50.84359021965163 7.964980000000001
50.868242516085964 7.983619999999999
50.893089960641895 7.930510000000001
50.917747323549435 7.943810000000001
50.94240721271973 7.93146
50.96706963007175 7.865660000000001
50.99192728239342 7.886480000000001
51.01659478166073 7.88318
51.04126481489051 7.84974
51.06593738400761 7.84253
51.090805275207074 7.820869999999999
51.11548294172845 7.821110000000001
51.14016314993547 7.785760000000001
51.164845901758845 7.77735
51.18972406304274 7.740410000000001
51.21441192780656 7.712999999999999
51.23910234200271 7.73965
51.2637953075678 7.70534
51.288683770237945 7.68922
51.31338186432707 7.664039999999999
51.33808251561888 7.652430000000001
51.362978729967345 7.65106
51.387684521509755 7.645110000000001
51.41239287610203 7.60717
51.437103795691165 7.585380000000001
51.46201036644977 7.576239999999999
51.486726441956634 7.57653
51.51144508832545 7.53632
51.536166307509156 7.54258
51.56108326624387 7.543080000000001
51.58580965706056 7.513839999999999
51.61053862657523 7.5075899999999995
51.635270176746864 7.4759
51.66019755512065 7.43802
51.68493429268881 7.442660000000001
51.70967361681515 7.41965
51.73441552946465 7.4236
51.759353359237934 7.39845
51.7841004750961 7.335430000000001
51.80885018539685 7.352860000000001
51.833602492111254 7.37298
51.8585508051424 7.376360000000001
51.883308330926425 7.31177
51.90806845906181 7.31473
51.932831191525715 7.27636
51.95779001977161 7.259939999999999
51.98255798721516 7.24895
52.00732856494335 7.2194199999999995
52.03229530577543 7.208139999999999
52.057071130455945 7.184069999999999
52.081849571391054 7.18187
52.106630630568695 7.201639999999999
52.13160794279417 7.12405
52.15639426492067 7.14796
52.18118321127822 7.14775
52.205974783860896 7.0978
52.23096269971011 7.1037
52.255759551287994 7.12185
52.280559035098186 7.08864
52.30536115314103 7.058860000000001
52.33035970494467 7.030819999999999
52.35516711807904 7.05817
52.37997717147198 7.051639999999999
52.40478986713005 6.999230000000001
52.42979908731974 7.00582
52.454617094216 6.97705
52.47943774942214 6.97457
52.50426105495102 6.922860000000001
52.529280976059844 6.96254
52.554109609024096 6.93365
52.57894089837482 6.90318
52.60377484613117 6.883139999999999
52.62880550079408 6.85792
52.65364479223379 6.85464
52.67848674816189 6.84496
52.70352547971946 6.805689999999999
52.72837279155837 6.78424
52.753222773982785 6.8118
52.778075429022984 6.76806
52.80312495150885 6.75662
52.827982978797436 6.761489999999999
52.85284368481815 6.736460000000001
52.87770707160767 6.7088
52.90276741793998 6.717789999999999
52.92763619336701 6.68772
52.952507655698504 6.68226
52.977381806977576 6.702610000000001
53.00245301017842 6.6889
53.02733256653592 6.703119999999999
53.052214817996074 6.636369999999999
53.077099766608484 6.624560000000001
53.102181859804446 6.5908
53.127072229988265 6.60347
53.15196530349892 6.598039999999999
53.17686108239249 6.55318
53.20195409881522 6.584910000000001
53.22685531582556 6.55444
53.25175924441303 6.5044699999999995
53.27666588664027 6.50389
53.30176985962693 6.47583
53.3266819565689 6.46293
53.35159677336455 6.482880000000001
53.376514312083096 6.47663
53.40162927507703 6.45702
53.42655228516116 6.4396
53.45147802340193 6.39114
53.47660125628886 6.41924
53.50153247842639 6.41317
53.52646643496923 6.40081
53.55140312799818 6.38084
53.576537409691696 6.3903
53.60147960336152 6.33044
53.626424539786164 6.31834
53.65137222105307 6.3339099999999995
53.67651758529126 6.32158
53.70147078399681 6.250719999999999
53.72642673383343 6.26368
53.75138543689533 6.27051
53.776541917524526 6.27442
53.801506154876755 6.242319999999999
53.826473151763246 6.20886
53.851442910284916 6.1616800000000005
53.87661054126026 6.1258
53.9015858509782 6.147419999999999
53.92656392866066 6.1405
53.95154477641532 6.10428
53.976723591801296 6.10161
54.00171000771266 6.0946
54.02669920004598 6.13168
54.051691170915745 6.1147
54.076881204886796 6.1086599999999995
54.101878760928514 6.06533
54.12687910187696 6.04686
54.152077577768296 6.06123
54.1770835166946 6.03019
54.20209224691339 6.01345
54.22710377055121 5.96537
54.25231352511594 6.00284
54.27733066384342 5.9345
54.30235060239643 5.945819999999999
54.32737334290836 5.91314
54.35259441062629 5.9271199999999995
54.377622783395324 5.89105
54.40265396455061 5.905869999999999
54.42768795623251 5.88543
54.45292037169559 5.81049
54.477960012857906 5.80333
54.50300247099511 5.78188
54.52804774825457 5.7802
54.55329154616743 5.75265
54.57834249018678 5.67929
54.6033962597977 5.71403
54.6284528571545 5.70047
54.653708072335164 5.67645
54.67877035378786 5.68398
54.70383546947698 5.6607400000000005
54.72890342156389 5.59778
54.7541700889442 5.62296
54.77924374251975 5.64389
54.8043202390049 5.55098
54.82959552413022 5.48895
54.8546777351945 5.54608
54.87976279569621 5.52235
54.90485070780914 5.51971
54.930137506558005 5.43508
54.95523115074295 5.4778400000000005
54.98032765308844 5.4469
55.005427015775496 5.40069
55.03072536339621 5.44985
55.05583047570572 5.40226
55.080938454927676 5.419169999999999
55.10604930325027 5.33849
55.131359235107396 5.31735
55.15647585066083 5.26807
55.181595341907496 5.275919999999999
55.20671771104285 5.21972
55.232039262617704 5.2237599999999995
55.25716741665048 5.20765
55.28229845518636 5.16486
55.30743238042802 5.16139
55.33276558731939 5.12959
55.357905315183636 5.10579
55.383047936390035 5.06738
55.40819345314859 5.1199699999999995
55.433538351073295 5.02732
55.458689688238415 5.03811
55.483843927614096 4.993130000000001
55.509197623043605 4.99401
55.53435769621134 4.94006
55.55952067826466 4.8968300000000005
55.5846865714265 4.88673
55.61005202069737 4.88938
55.63522376553902 4.85744
55.66039842818645 4.85074
55.68557601087004 4.80165
55.7109532500271 4.7926
55.73613670233794 4.79263
