TT I
1.2716486653135266 7.752860000000001
1.2939594142134223 7.44003
1.3162702121660406 6.0559
1.3385810600174564 6.83867
1.3608919586137629 6.708019999999999
1.383202908801069 6.3322199999999995
1.405513911425503 6.5811
1.4278249673332093 6.24851
1.4501343378461518 6.2066099999999995
1.4724455028545926 5.73798
1.4947567236847858 5.60818
1.517068001182951 6.32878
1.5393793361953272 6.3598
1.5616907295681737 5.60481
1.5840021821477681 5.3086199999999995
1.60631369478041 5.42972
1.6286252683124185 5.01207
1.6509369035901333 4.62858
1.6732468618895553 5.21818
1.695558623192809 5.22849
1.7178704487808514 5.341
1.7401823395001077 4.9814
1.7625012545597203 5.117369999999999
1.7848028405262486 5.32214
1.8071218901122095 5.0913900000000005
1.8294236121921872 4.291180000000001
1.8517427996910911 4.88774
1.8740620574440425 5.42256
1.8963639900671978 5.09782
1.9186833908139995 4.95288
1.9409854680117449 4.73693
1.9633050151394713 4.76489
1.9856246367570705 4.3674800000000005
2.0079269371922672 5.08652
2.03024671027244 5.07348
2.0525491637446027 5.21093
2.074869091674931 4.51003
2.097171701569106 4.64326
2.1194917877373847 4.889390000000001
2.141811954326636 5.1085
2.164114805233074 4.43121
2.186435135143035 6.224130000000001
2.208738150935709 13.8595
2.231058647554722 27.989
2.2533792288321184 21.5135
2.275682498336085 10.0863
2.298003251406138 6.2924
2.3203066942619714 5.70482
2.3426276225136022 4.54245
2.3649486396617507 4.52119
2.387252348930071 5.34737
2.4095735463442893 5.38105
2.4318774374315884 4.98131
2.4541988185014043 4.8009699999999995
2.476502894794693 5.4665
2.498824462909887 5.36918
2.521146125856138 5.75705
2.5434504863470337 6.43575
2.5657723414244717 6.61528
2.588076895590662 6.42971
2.610398946189713 6.12979
2.6327210958598384 6.37104
2.6550259469304716 6.782360000000001
2.6773482972090137 7.5046
2.6996533504259 6.8162
2.7219759047039602 7.655930000000001
2.744298562293959 7.14762
2.7666039251246595 7.18693
2.7889267918020164 8.15888
2.8112323652516555 7.854419999999999
2.833555444408179 7.624110000000001
2.8558786311183852 7.90883
2.8781845268938557 8.29931
2.9005079311721484 9.093739999999999
2.9228140460410397 8.88617
2.9451376712799635 9.2812
2.967444008632326 9.37224
2.9897678582247247 9.749889999999999
3.0120918213106695 10.2932
3.0343984987899373 10.468
3.0567226913198637 10.9911
3.079029599759726 11.2183
3.101354025127254 11.7855
3.123678568232338 12.7822
3.145985829517914 13.4267
3.16831061055229 13.7083
3.1906181112775593 13.5992
3.212943133635653 14.8418
3.2352682779763207 15.181
3.2575761442691227 15.133
3.2799015350264273 15.7489
3.302209649240067 16.4403
3.3245352898092655 16.8906
3.3468436553365257 17.9554
3.369169549113219 18.1852
3.3914955708171384 19.0382
3.413804319727358 19.1787
3.4361305997334863 19.469
3.4584396084414553 20.4685
3.4807661501462652 20.7664
3.503092824025881 21.3047
3.5254022288463154 21.649
3.5477291695206588 21.8465
3.5700388426251948 22.9818
3.5923660534916446 24.3674
3.6146934007816114 38.3015
3.637003482731501 89.0552
3.6593311053109985 99.7647
3.681641464033634 58.6352
3.7039693653009733 31.7828
3.726297407241705 26.7251
3.7486081875460804 26.1034
3.7709365132734978 26.6413
3.793247578841633 27.1593
3.8155761917550093 27.3235
3.8378875459837216 27.8344
3.8602164494827234 27.6229
3.882545499606844 29.0532
3.9048572932539183 29.6179
3.9271866390645718 30.1727
3.9494987298666713 30.4124
3.971828374764527 31.2619
3.9941581705403255 31.8098
4.016470713506008 32.5128
4.038800813471445 33.075
4.061113662089144 33.7959
4.0834440696459176 34.5971
4.105774632334751 35.4245
4.128087945865126 35.7947
4.150418821249301 36.9754
4.172732448931298 38.2266
4.195063640413578 40.046
4.2173775856475215 44.141000000000005
4.239709096631102 75.5127
4.262040768704612 234.92
4.284355196706267 319.87
4.306687193387355 210.785
4.329001947444346 84.2618
4.35133427213731 49.9524
4.373666762177566 46.33
4.395982011761091 46.5073
4.418314834921175 47.4407
4.44063041906622 54.6968
4.4629635787515625 65.7912
4.4852969080429785 66.3402
4.5076130004776225 56.1193
4.529946671403969 53.5189
4.552263106909177 53.4212
4.574597122877047 53.3789
4.596931312711224 54.5695
4.619248269273446 55.0924
4.6415828092605835 56.1845
4.663900117405352 57.4972
4.686235010953232 58.6955
4.708552674085913 60.4271
4.730887924602802 61.7503
4.753223354952695 63.6979
4.775541557023902 65.0957
4.797877349456786 66.9825
4.820195915032126 68.2833
4.842532072957498 70.4862
4.864868414979744 72.2832
4.88718753227192 74.8978
4.909524244902505 76.9193
4.931843734218147 78.6282
4.954180820867835 81.1431
4.976518095879839 84.75299999999999
4.998838149695359 88.0438
5.021175803844231 92.3776
5.043496238205739 96.1363
5.065834274903528 101.80799999999999
5.088172504230693 107.845
5.1104935158799565 116.671
5.132832132875765 144.753
5.155153533596801 195.165
5.1774925416746225 249.412
5.199814334878411 527.285
5.2221537374521505 1490.83
5.244493338631803 3352.85
5.266815727034316 6770.53
5.289155727832427 10729.7
5.311478517248165 9562.78
5.333818921080011 4124.55
5.356159527788849 963.8989999999999
5.3784829252032536 267.214
5.400823940070432 176.11599999999999
5.423147747031976 149.365
5.445489173474152 133.477
5.467830807066149 126.249
5.490155234831516 120.74600000000001
5.512497285125229 115.07
5.534822130975162 111.805
5.557164601388673 108.404
5.579489868738879 105.956
5.601832762690846 104.59899999999999
5.6241758697774475 103.816
5.646501775867269 102.62299999999999
5.668845311622074 100.891
5.691171647754637 99.9568
5.713515615597765 98.5519
5.735859800852677 97.8666
5.758186788542988 97.4471
5.780531411018185 98.4739
5.802858837297399 97.7775
5.825203900414495 98.4098
5.8475491852224 99.4893
5.869877275883075 99.8172
5.892223006467101 100.85600000000001
5.914551544266608 102.75200000000001
5.936897724049891 107.23
5.959244129804903 115.51
5.981573344815301 144.485
6.0039202049061 271.992
6.026249875609095 609.382
6.04859719346037 1177.65
6.070927323278297 2113.98
6.093275102315365 3756.8
6.115623113320588 4702.49
6.137953938319995 3739.33
6.160302415650845 1419.11
6.182633708324452 368.30300000000005
6.2049826554078376 148.866
6.227331838745022 107.792
6.249663839443684 95.1209
6.27201349767565 90.0222
6.294345974611799 94.7553
6.316696111167083 105.84
6.339046488263839 100.194
6.361379686074702 84.3695
6.383730546639482 75.9893
6.406064229255215 72.9318
6.428415576718203 72.3869
6.450749747566656 70.7162
6.47310158535871 69.2685
6.495453669698332 68.4663
6.517788579421056 67.5542
6.540141159237969 66.6239
6.562476565766648 66.3099
6.5848296444934045 65.5721
6.607182974060425 65.137
6.6295191323281015 65.3177
6.651872965955752 68.212
6.6742096296068985 93.2217
6.6965639707294615 141.086
6.71891856698715 142.94
6.741255995248479 98.5602
6.763611104154477 70.83800000000001
6.785949046381137 63.0564
6.808304671371482 61.1249
6.8306605557940046 61.0854
6.852999275508618 59.9675
6.875355681171544 59.3628
6.897694923437771 59.4119
6.92005185377892 59.2044
6.9423916220322655 58.6954
6.964749080490181 57.9428
6.987106804399774 57.8146
7.009447368180821 58.218999999999994
7.031805625367033 58.0044
7.054146723727803 57.5244
7.076505517631004 57.0091
7.098864581288365 57.4368
7.121206488070854 57.1598
7.143566093607822 57.3644
7.165908543567245 57.5531
7.188268694426048 57.5778
7.2106291193438095 57.8051
7.232972390625943 58.9668
7.255333366030969 70.7642
7.277677189091925 123.689
7.300038718428332 175.192
7.322400526130865 149.901
7.344745183422596 93.2407
7.367107550224791 64.4852
7.389452767901992 58.7151
7.411815697249891 57.4377
7.434161478756298 56.5586
7.456524974096713 56.413000000000004
7.478888753837185 56.211000000000006
7.501235387657368 56.6671
7.523599738562711 56.6285
7.545946944825532 57.2811
7.568311870344528 57.4181
7.5906770845765665 57.7646
7.613025156078678 59.2036
7.635390950099687 60.3643
7.657739602662809 59.5269
7.680105979923558 58.4088
7.702472650212829 58.5109
7.724822180948224 58.1012
7.747189439655568 58.6425
7.769539560075357 58.5793
7.791907410653562 58.8281
7.81425812420825 58.81
7.836626570110925 59.1258
7.858995315087906 59.9074
7.881346924933401 59.9808
7.903716270417482 60.8522
7.926068482028405 61.1234
7.948438431475253 61.4849
7.9708086843180235 62.0886
7.993161805171116 63.0367
8.015532667162402 63.3706
8.037886398416653 64.0449
8.060257873014221 64.8412
8.082629655331942 65.6689
8.104984308787587 66.547
8.127356708900503 69.8361
8.149711981398308 75.7414
8.172085002766314 78.6137
8.194458336181368 74.9021
8.216814543847752 72.5112
8.23918850371002 72.6821
8.26154533906492 73.3439
8.283919928836452 75.1046
8.306277395339652 75.7346
8.328652618483376 77.2616
8.351028159736202 79.3077
8.373386579575245 82.1518
8.395762759396959 84.3828
8.418121819038275 89.6369
8.440498640894003 103.92299999999999
8.462875785192262 120.425
8.485235811156207 139.048
8.507613602688501 196.317
8.529974277114228 316.972
8.552352719347912 474.76099999999997
8.574731488360351 692.193
8.59709314210385 1064.77
8.619472567021075 1561.37
8.64183487789147 2011.84
8.664214962183097 1987.83
8.686577933647762 1258.28
8.708958680784317 568.893
8.731339760774953 228.734
8.753703729764451 130.971
8.77608547780821 109.524
8.798450116065078 103.25299999999999
8.820832535634787 99.1499
8.843215292401656 96.7898
8.865580941199045 95.1113
8.887964374703538 93.7115
8.910330701447199 94.4961
8.932714815164482 96.4597
8.955099270424924 95.63799999999999
8.977466620733543 92.1237
8.999851761421976 89.3766
9.022219798361645 87.238
9.04460562795561 87.4683
9.066991803441677 86.9847
9.089360876979615 86.7943
9.111747746589993 86.3678
9.13411751544971 85.6385
9.156505082664324 85.5527
9.178875550323522 85.37899999999999
9.20126381862328 85.4602
9.223652438908596 86.5379
9.246023961427412 86.2984
9.26841328802173 85.3219
9.290785518039224 85.5951
9.313175554425882 86.6446
9.335565947154315 86.6747
9.357939245086508 86.975
9.380330352834827 87.0154
9.40270436697103 86.7783
9.425096193225055 86.7212
9.447488380180165 87.7801
9.469863475295412 87.7832
9.492256385987508 88.2779
9.514632206018318 89.1439
9.537025843935714 89.3546
9.559402392368193 90.1166
9.581796761000229 91.6775
9.604191496441521 93.2577
9.626569144158516 96.2546
9.648964615551032 100.554
9.671343000390081 102.29
9.693739211225699 100.42299999999999
9.716135793237463 97.9563
9.738515290448102 97.1362
9.760912617143402 98.2092
9.783292860202891 100.258
9.805690935076182 101.06
9.828089385495742 102.353
9.850470754023561 104.915
9.872869957865444 112.439
9.89525208097539 127.87799999999999
9.917652041736662 141.737
9.940052382417589 143.27200000000002
9.962435644102392 156.457
9.984836746950979 205.262
10.007220771957746 297.439
10.029622640473708 422.332
10.052007432299963 572.104
10.074410069984072 772.8889999999999
10.096813093716005 1093.29
10.119199042482517 1480.89
10.141602840636468 1814.03
10.163989564971628 1727.55
10.186394141051062 1209.97
10.208799107559706 599.9259999999999
10.231187001965623 269.684
10.253592751657669 153.832
10.275981430388155 125.19200000000001
10.298387966769793 121.11
10.320794897965431 122.34
10.343184759907361 120.935
10.36559248305461 115.081
10.387983138083852 111.303
10.410391656691655 114.205
10.432800574501677 129.244
10.455192425893369 153.02200000000002
10.47760214443012 182.929
10.499994797678786 217.989
10.522405320453982 270.997
10.54479877906917 355.355
10.567210109595656 453.222
10.5896218454736 530.266
10.612016518879773 534.899
10.634429067781074 421.44
10.656824555333241 257.987
10.679237920773568 152.689
10.701651695961992 108.38
10.724048411481384 95.7169
10.746463008485165 91.62299999999999
10.768860546937125 89.4756
10.791275969274796 87.3893
10.81369180576079 86.0379
10.836090585366925 84.6347
10.858507252467449 83.5125
10.88090686379991 82.6302
10.903324365036394 82.1913
10.925724811614439 81.8806
10.948143150509463 82.9627
10.970561909719066 82.4374
10.992963615930844 80.4016
11.015383218085756 78.2807
11.037785768347074 76.4589
11.06020621697282 75.8884
11.082627090322113 75.4555
11.105030913430326 75.0834
11.12745263854165 74.9041
11.149857314510728 78.35600000000001
11.172279894912576 84.7391
11.194702904450653 85.7418
11.217108866490921 81.5894
11.239532736615194 77.1626
11.26193956033512 75.0021
11.284364294577085 73.4346
11.306789462371718 71.3226
11.329197585398376 70.1555
11.351623622610898 69.6837
11.37403261614354 69.0453
11.396459526308487 68.891
11.418869393879497 68.4827
11.441297180532617 67.7876
11.463725406927658 67.5028
11.486136592353875 67.3794
11.508565700543707 67.8645
11.530977768845315 69.8658
11.553407762368774 70.8775
11.575838200059769 70.3352
11.598251599479612 67.9354
11.620682927815501 66.7489
11.64309721895548 66.3118
11.665529441478206 65.6936
11.687962112597958 65.8261
11.710377748130886 65.7315
11.732811318753434 65.7726
11.755227854859067 65.6444
11.777662328529495 65.5706
11.800079768750786 65.2299
11.822515149015453 65.4612
11.844950984084935 65.1605
11.867369787303163 64.7907
11.889806534289491 64.943
11.912226250487029 65.4084
11.934663912939751 65.507
11.9571020346363 65.7584
11.979523127133968 65.4231
12.001962169624331 66.5323
12.024384183972964 67.8511
12.046824150809913 72.0191
12.069264581333726 78.9659
12.091687985297767 86.5314
12.11412934550045 95.3699
12.136553680195208 105.949
12.158995973632788 121.15799999999999
12.181438735204349 141.501
12.20386447284199 168.108
12.226308172985636 196.294
12.24873485024193 209.06099999999998
12.271179492516982 189.035
12.293607112949127 155.936
12.316052700916226 114.39399999999999
12.338498763250042 88.7893
12.360927805303868 75.355
12.383374818673879 70.0837
12.405804812803074 67.7355
12.428252780773262 67.105
12.45070122756722 67.1381
12.473132656675375 67.1004
12.49558206341869 67.3342
12.518014453510101 67.1103
12.540464823770117 67.4058
12.562915677315177 67.3539
12.58534951575545 68.0463
12.607801338171472 70.1231
12.630236146511358 75.1427
12.652688941369085 80.6299
12.675124723177234 81.0148
12.697578494048786 77.4301
12.720032754458185 72.60300000000001
12.742470003354093 70.9039
12.764925245138771 70.8103
12.787363476431278 70.4851
12.809819703166806 71.1913
12.83227642391173 71.6982
12.854716135692716 72.6828
12.877173846755147 73.97399999999999
12.899614549869717 73.9032
12.9220732548287 74.4797
12.94453245827299 75.1807
12.966974655289818 76.3434
12.989434858002571 77.441
13.011878055298721 77.8592
13.034339260862497 78.9597
13.056800969391883 80.3624
13.079245674017244 82.664
13.101708390774869 85.1986
13.12415410463411 93.5102
13.146617833206086 108.771
13.169064559883248 125.551
13.191529303857127 143.18
13.213994557076367 161.406
13.236442809902437 186.78799999999998
13.258909083908291 223.308
13.28135835851934 270.928
13.30382565690295 330.126
13.326293469022952 394.56
13.348744283242008 432.83099999999996
13.371213125129904 404.097
13.39366497011003 325.087
13.416134845360597 225.15200000000002
13.438605238843131 152.865
13.46105863690397 120.294
13.483530069144786 116.135
13.505984506951902 123.111
13.528456981549432 135.779
13.550929978879088 148.931
13.573385983253365 164.61700000000002
13.595860028340867 189.554
13.618317081455832 226.5
13.64079217790333 270.33299999999997
13.663250283359057 318.464
13.685726434770173 357.61
13.708203115221277 359.236
13.730662806148091 308.883
13.75314054697177 234.725
13.775601299246777 163.664
13.798080104050406 114.90100000000001
13.820559442405358 93.351
13.843021793671388 86.9629
13.865502201420897 84.1145
13.887965623051947 83.4343
13.910447103807167 81.9534
13.932929122629764 80.7965
13.955394156785959 80.2115
13.977877254034569 79.0691
14.000343367582113 78.3314
14.022827546871707 77.68
14.045294743423524 76.9808
14.06778000837062 76.1765
14.090265817715476 75.945
14.112734645763819 75.6683
14.13522154619454 75.5446
14.157691466286913 75.447
14.180179461423874 75.3248
14.202668005486178 74.6657
14.22513957064374 73.8655
14.247629214846473 73.4623
14.270101881097517 73.0691
14.29259262906496 73.5437
14.315083930490205 74.5142
14.337558255389705 74.52
14.360050666019726 74.2122
14.382526101071944 73.1202
14.405019624534942 72.4318
14.427513705993134 71.7792
14.449990813291825 71.7517
14.47248601302899 71.8338
14.49496423954951 71.82600000000001
14.517460561197822 71.5744
14.539939910570322 71.4448
14.562437357763558 71.8483
14.58493536931253 73.0851
14.607416409993311 74.2175
14.62991555254159 74.6344
14.652397725157423 74.5535
14.674898002342799 73.9251
14.697398848433282 73.4514
14.719882725991326 74.055
14.74238471217934 75.3949
14.764869730765593 79.6082
14.787372860692983 84.3586
14.809876564079925 90.8956
14.83236330125751 97.8417
14.854868153850365 104.99600000000001
14.877356041159485 114.14200000000001
14.899862046604186 126.412
14.922351087688757 144.19799999999998
14.944858249632887 165.956
14.967365991421232 189.717
14.989856770231246 209.53099999999998
15.012365673994204 219.364
15.03485761569738 206.329
15.05736768508665 174.503
15.07987833888692 138.19899999999998
15.102372032001655 106.334
15.124883856909658 85.5849
15.14737872204565 77.2165
15.169891721717274 74.4339
15.192405310371893 73.7612
15.214901940621196 74.0554
15.237416709527137 74.1356
15.259914520936249 74.2459
15.282430473753607 73.3286
15.304947020131227 71.9643
15.327446610371178 71.1377
15.349964346154254 70.2016
15.372465126703139 69.7112
15.394984055556009 69.3414
15.417486030076159 69.2736
15.44000615566487 69.0942
15.462526881230803 69.0455
15.485030653812652 68.9657
15.507552581617434 69.0584
15.530057557334603 68.9256
15.55258069104857 69.0256
15.575104429329837 68.9976
15.597611216864632 68.5909
15.620136166564563 68.7179
15.6426441664095 69.9037
15.665170331202765 73.012
15.687697105158826 77.3557
15.710206930593545 82.2911
15.732734925158933 87.6771
15.755245972089478 92.8775
15.77777519094324 99.3395
15.800287463046663 107.98200000000001
15.822817909869592 120.811
15.84534897229804 136.55
15.867863089299354 155.791
15.890395385222186 174.585
15.912910736597423 190.38099999999997
15.935444269699861 191.303
15.957978423016485 175.453
15.980495633101265 146.637
16.003031029129367 115.61
16.02554948280019 88.9289
16.048086125229432 74.743
16.070623392487107 69.7613
16.09314371869582 67.9266
16.11568223789321 66.7063
16.13820381691126 65.5444
16.160743591742527 64.3015
16.183283996022084 63.3325
16.205807461423195 62.2162
16.228349126881973 61.5169
16.25087385432698 61.5932
16.27341678466365 60.9495
16.29594277784926 60.791000000000004
16.31848697676433 61.0794
16.341031811604868 61.2799
16.36355971058487 61.8927
16.3861058195587 61.5068
16.40863499352978 60.286
16.431182380342005 59.4645
16.453730407713202 58.5845
16.476261501364792 58.0875
16.498810812136167 57.9922
16.52134319004079 57.9032
16.54389378792203 57.995
16.566445031001553 57.5985
16.588979342490088 57.5625
16.61153187824822 57.3696
16.634067483263312 57.3004
16.656621315414416 57.3039
16.679175797408888 56.8389
16.701713349928728 56.8953
16.72426913389191 57.0244
16.74680798922351 57.2836
16.76936507887444 57.2679
16.791905240734874 57.4279
16.814463639794468 57.1854
16.837022695210294 57.0848
16.859564824093756 57.4487
16.882125194503903 58.2816
16.904668639217885 58.9584
16.927230328348003 59.207
16.949792678493612 59.2105
16.972338104193863 58.5046
16.994901778652235 57.863
17.017448529496576 58.0248
17.040013531998152 58.2384
17.06257920018044 58.8021
17.0851279459922 59.802
17.107694947817667 60.8955
17.130245028099072 62.1252
17.15281336730298 63.4765
17.17536478578733 64.5816
17.19793446610687 65.9679
17.220504818648422 68.0245
17.243058251703697 70.1628
17.265629950971032 73.8428
17.288184731571736 77.5619
17.310757781306908 81.7002
17.33333150794385 85.0851
17.355888317140174 85.6731
17.37846339986244 83.5106
17.401021565958885 77.704
17.42359800851343 72.2044
17.44617513265564 67.0095
17.468735341390783 63.843
17.491261035594565 62.2239
17.51396340099364 61.7898
17.536490463869136 61.675
17.559018209820174 61.5034
17.58154663977963 61.9946
17.604251766089718 61.8203
17.626781572227713 62.0465
17.64931206518155 62.2698
17.671843245885103 63.0262
17.69455114821572 63.1939
17.717083712612634 63.5312
17.739616967569667 63.5536
17.762150914021706 63.8456
17.78486160749854 63.6619
17.807396945166804 64.5294
17.829932977143503 65.4094
17.85246970436452 67.1067
17.875183204129467 69.678
17.897721330097664 72.9041
17.920260154126645 76.1146
17.942799677153296 79.1089
17.9655159983646 81.9754
17.988056927677544 85.5506
18.010598558807683 90.3726
18.033140892692916 97.5622
18.05586005052525 105.512
18.07840379824407 115.359
18.10094825154059 126.11200000000001
18.12366954819864 136.739
18.146215420998306 142.97299999999998
18.16876200220057 141.931
18.191309292745153 132.785
18.214033452627167 118.899
18.236582170236648 104.208
18.259131600016456 94.1002
18.281681742907335 89.632
18.304408781233683 90.4779
18.32696035875955 93.7757
18.349512652227624 98.0016
18.372065662579683 103.149
18.394795594587553 106.681
18.41735004715306 106.884
18.43990521943684 103.05799999999999
18.46246111238171 95.7851
18.485193953325208 86.0128
18.507751296070428 76.7715
18.530309362314178 70.6574
18.552868153000343 67.32
18.57560391815056 65.134
18.59816416623245 64.5844
18.620725141597372 63.9838
18.643286845190268 63.6037
18.666025549835414 63.0884
18.688588718427933 62.4563
18.711152618092243 62.3246
18.73389353884365 62.0572
18.75645890921984 61.3931
18.77902501351406 61.2121
18.801591852673102 61.0348
18.824335739722738 60.5869
18.846904057212626 60.6927
18.8694731124168 60.3682
18.89204290628315 60.2078
18.914789774966803 60.0895
18.937361054791623 59.7557
18.959933076131318 59.5623
18.982505839934877 59.455
19.00525570560582 59.478
19.027829963004184 59.3933
19.05040496572238 59.4956
19.072980714710468 59.4553
19.095733592739563 59.7159
19.11831084296757 60.0201
19.140888842324735 60.8559
19.16346759176222 61.2792
19.18622349753803 61.7813
19.208803755869358 62.5319
19.231384767143577 63.1576
19.253966532312948 64.0457
19.276725481241822 65.332
19.29930876296784 67.1716
19.3218928014549 69.7201
19.34465404436217 72.3072
19.36723960516257 75.4874
19.389825925592426 77.8709
19.412413006605938 78.468
19.43517731967805 77.0422
19.457765930683355 73.6088
19.48035530514408 69.1884
19.50294544401556 64.6919
19.525712842708348 60.9351
19.54830451925909 58.5952
19.570896963095727 57.0276
19.593490175174704 56.6557
19.616260674962184 56.5758
19.638855432416964 55.8129
19.661450960992624 55.8357
19.68404726164677 55.8667
19.706820878021247 55.67100000000001
19.729418731756834 55.6921
19.752017360452857 55.5452
19.77461676506804 55.7284
19.797393513540218 55.8499
19.819994478951667 56.3053
19.84259622316767 56.824
19.8651987471481 57.5825
19.887978643247177 57.979
19.91058273574792 58.4795
19.933187610901943 58.9404
19.955969879466828 59.5555
19.97857632894404 60.6925
20.00118356396599 61.5861
20.023791585494575 63.2041
20.046577028914875 65.5212
20.069186632506966 67.804
20.091797025500632 70.0263
20.114408208858933 71.586
20.137196842715273 72.729
20.159809615886765 72.5142
20.18242318232135 70.77199999999999
20.20503754298326 68.17399999999999
20.227829382875154 65.9575
20.250445341109344 64.4693
20.27306209647285 64.0361
20.29567964993108 64.6862
20.31847471147704 65.7021
20.34109387027612 66.7742
20.363713830075454 67.6472
20.386334591841646 67.36399999999999
20.409132890679302 65.75
20.431755265564437 62.7293
20.454378445325528 59.7974
20.477002430930366 57.2334
20.499803982716553 55.4142
20.522429589228004 54.1634
20.54505600449589 53.5431
20.567683229489194 53.4195
20.590488049900088 53.1036
20.61311690359731 52.5347
20.63574656993626 52.2794
20.658553853717297 51.965
20.681185154618298 51.7838
20.703817271080066 51.6839
20.72645020407368 51.2686
20.749260783967177 51.3199
20.771895359337133 51.3041
20.794530754161617 51.1822
20.817166969412938 50.946000000000005
20.83998086114876 50.9375
20.86261872660049 50.8486
20.885257415405402 51.0844
20.90789692853701 50.6673
20.930714147864748 50.5227
20.953355319030678 50.7228
20.97599731745334 50.9713
20.99864014410749 50.7381
21.021460706796564 50.8826
21.044105199328826 51.0205
21.06675052302631 51.3617
21.089396678865015 51.4308
21.112220600704806 51.5499
21.134868430275347 51.7375
21.15751709492456 51.8518
21.180166595629693 52.0681
21.202993892429635 52.4984
21.22564507473034 52.8601
21.24829709602816 53.2284
21.27112693608965 53.5992
21.293780644891275 53.7546
21.316435195634053 53.1642
21.339090589297417 52.5374
21.361923832041875 52.0801
21.384580921090404 51.3075
21.407238856007325 50.7194
21.429897637773326 50.4863
21.45273429906592 50.6729
21.475394784108598 50.5309
21.498056118951983 50.498000000000005
21.520718304578022 50.6031
21.543558400304388 50.7206
21.566222297108816 50.9871
21.58888704765135 51.0958
21.61155265291521 51.43
21.63439619898156 51.9176
21.657063523335786 52.5293
21.67973170537063 53.0147
21.7024007460706 53.5285
21.72524775840385 53.9552
21.747918526116475 54.6988
21.770590155457388 55.4304
21.79326264741238 56.7047
21.816113141960237 58.136
21.838787368860547 59.5642
21.861462461341976 61.2376
21.884315579735777 63.3087
21.90699241312273 64.9436
21.92967011506078 66.4218
21.95234868653799 67.1895
21.9752053151131 66.9663
21.997885635446785 65.7623
22.020566828293532 63.6185
22.04324889464272 61.4445
22.066109049404666 59.3308
22.088792872571794 58.1016
22.111477572219204 57.9906
22.1341631493376 58.033
22.157026846313123 58.0661
22.179714188221507 58.0874
22.202402410582668 57.178999999999995
22.22509151438863 55.9379
22.24795876962584 54.5553
22.270649646204486 53.4789
22.293341407213727 52.622
22.316034053646906 51.7957
22.338904883215342 51.3722
22.36159931041458 51.2459
22.38429462602756 51.2432
22.40699083104897 51.1167
22.429865251039757 51.1028
22.452563244831367 51.0732
22.47526213102522 50.9645
22.49813925616515 50.885
22.520839937143307 50.7334
22.543541513520587 50.7603
22.56624398629403 50.6197
22.589124730075895 50.473
22.611829005656723 50.8156
22.63453418063466 50.7499
22.657240256008077 51.1032
22.680124634582935 51.2555
22.70283252079775 51.7024
22.725541310413075 51.9527
22.74825100442868 52.0961
22.771139033969575 52.6758
22.79385054687155 52.5927
22.81656296718292 53.0311
22.83927629590484 53.5774
22.862167992606945 54.4231
22.88488314827121 55.32899999999999
22.907599215359284 56.0336
22.93031619487366 56.9873
22.953211574954405 58.0694
22.975930389478226 59.1803
22.998650119445763 60.0121
23.02137076586092 60.071000000000005
23.044269845560063 59.3693
23.06699233506288 58.1052
23.089715744034912 56.354
23.112617610931565 54.3529
23.135342869061212 52.9081
23.158069049684816 51.9172
23.1807961538087 51.1926
23.20370174880544 51.1306
23.226430710184808 50.9706
23.249160598093425 51.1159
23.271891413539002 51.05
23.294800752937697 51.2574
23.31753343374794 51.4676
23.340267045128353 51.5289
23.36300158808808 52.0444
23.38591468821339 51.9364
23.408651104658304 52.2978
23.431388455719986 52.6759
23.454126742409 53.1703
23.4770436196085 53.8687
23.499783787914662 55.0812
23.522524894889884 55.6398
23.54526694154616 56.6123
23.56818761219047 57.7616
23.59093154860734 58.7252
23.613676427751283 59.5254
23.636422250635754 59.635
23.659346731118656 58.8817
23.68209445191868 57.1964
23.704843119509587 55.3295
23.72759273490623 53.4491
23.750521041644767 51.4041
23.77327256312355 49.9498
23.796025035462787 49.1157
23.818956224555475 48.3313
23.841710609113413 48.1247
23.86446594758979 47.9
23.887222241002014 47.611999999999995
23.910157285144578 47.318999999999996
23.932915498962537 47.156000000000006
23.955674670778713 47.0398
23.978434801611975 46.8137
24.001373717286125 46.7007
24.024135776723917 46.6835
24.046898798245582 46.5812
24.06966278287146 46.606
24.092605586582614 46.1593
24.115371508023642 45.9927
24.1381383956401 45.8201
24.16090625045381 45.873999999999995
24.183852958731244 45.781000000000006
24.206622758582608 45.6715
24.229393528706886 45.6174
24.252165270127392 45.623000000000005
24.27511589952438 45.4116
24.297889594216997 45.3746
24.32066426328598 45.1537
24.34343990775613 45.333
24.36639447485003 45.0499
24.38917208083877 45.0004
24.41195066531332 44.9233
24.43490819850244 45.0151
24.457688750692377 44.7792
24.48047028445616 44.7086
24.503252800821233 44.8795
24.526214300784112 44.9755
24.548998793132213 44.7527
24.57178427117417 44.7056
24.59457073593893 44.7234
24.617536219319863 44.7947
24.64032466834748 44.8177
24.663114107195035 44.7865
24.685904536893013 44.5026
24.708874020360852 44.4064
24.731666442613744 44.2663
24.754459858818787 44.1925
24.777254270007962 44.1367
24.80022777025625 44.0946
24.82302418230472 44.0077
24.845821592443674 44.0131
24.86862000170663 43.9029
24.891597535453727 43.8653
24.914397953892728 44.2879
24.93719937456671 44.0977
24.96000179851076 44.153
24.98298338249997 44.3638
25.00578782394922 44.5098
25.028593271784167 44.5573
25.05157790644186 44.8896
25.07438537804115 44.9341
25.097193859145293 45.1034
25.120003350792075 45.2822
25.142992065061257 45.5976
25.165803588823465 45.9733
25.18861612625217 46.2581
25.211429678386736 46.3798
25.234422489079968 46.5589
25.257238081693636 46.4314
25.280054692141732 46.5257
25.3028723214652 46.4345
25.325869245420463 46.4858
25.348688923599397 46.5371
25.371509623787006 46.707
25.394331347025812 46.5533
25.41733240110666 46.3345
25.440156181590016 45.7421
25.46298098826268 45.3999
25.48580682216873 44.7745
25.50881202326435 44.0112
25.53163992281684 43.4476
25.55446885274561 43.1844
25.577298814096377 42.9046
25.600308179121807 42.6506
25.623140214533745 42.785
25.64597328451537 42.5735
25.66898578564376 42.2768
25.691820936010206 42.411
25.714657124097695 42.3658
25.737494350954734 42.3051
25.760511045684957 42.202
25.783350361364224 42.3258
25.806190718969255 42.232
25.82903211955018 42.5042
25.852053024868923 42.5298
25.874896522722523 42.3469
25.897741066713106 42.247
25.920586657892454 42.2564
25.943611790812668 42.4108
25.966459487728237 42.5644
25.989308234998564 42.5961
26.01215803367705 42.711000000000006
26.03518741123814 42.8479
26.05803932412957 42.9692
26.080892291600094 43.027
26.10374631470478 43.3469
26.12677995397268 43.4102
26.14963609978026 43.4004
26.172493304397875 43.2616
26.19535156888223 43.1394
26.218389486949604 42.8104
26.241249882640123 42.5066
26.26411134137826 42.2899
26.28715248187403 42.2471
26.31001607820869 41.9861
26.3328807407756 41.7761
26.35574647063438 41.9445
26.37879191991473 41.8754
26.401659795896734 41.9407
26.424528742360263 41.9155
26.447398760366614 42.0068
26.470448535598294 42.1543
26.49332070826805 42.2809
26.516193955675355 42.5495
26.53906827888316 42.8512
26.562122397260108 42.8663
26.584998883685063 43.0665
26.607876449110325 43.3585
26.63075509460056 43.4735
26.65381357334404 43.6421
26.67669439061878 43.7298
26.699576291163382 43.833
26.722459276044212 43.9296
26.745522132402975 43.6947
26.768407297649354 43.3187
26.791293550442003 42.9251
26.814180891848974 42.657
26.837248143099337 42.4328
26.860137673466657 42.1996
26.88302829566349 42.0019
26.90592001075963 41.9587
26.92899167420566 41.6728
26.951885586870763 41.3357
26.974780595655517 41.153
26.99785558178161 40.9928
27.020752794605112 40.7175
27.043651106772522 40.6451
27.06655051935668 40.4543
27.089629948036183 40.5135
27.112531573292053 40.2266
27.135434302194138 40.4238
27.158338135817015 40.2803
27.181422024430987 40.2753
27.204328079372566 40.1704
27.22723524226965 40.2609
27.250143514198573 40.2406
27.273231880156334 40.1355
27.296142382065014 40.105
27.319053996245536 39.9206
27.341966723775965 40.0135
27.365059584515222 40.0351
27.38797455070062 40.1379
27.410890633481237 39.9019
27.433807833936918 39.9224
27.456905206923906 40.1277
27.47982465472398 40.1037
27.502745223449743 40.2505
27.525666914182825 40.2446
27.548768816912457 40.1423
27.571692763693633 40.1512
27.59461783573812 40.0345
27.617723149491244 39.8306
27.640650484125285 39.9121
27.66357894728264 39.7938
27.686508540048052 39.881
27.709618414237887 39.6369
27.732550278321757 39.5871
27.755483275279115 39.4751
27.778417406196485 39.6069
27.801531858397514 39.5474
27.824468269376716 39.5933
27.847405817586786 39.4615
27.870344504116094 39.5374
27.893463551932008 39.5579
27.916404527281053 39.8372
27.93934664422563 39.7741
27.962289903855886 39.8729
27.98541356491974 40.0586
28.00835912214229 40.0954
28.03130582533231 40.4017
28.054253675581805 40.4436
28.077381967556104 40.4563
28.100332124185126 40.5934
28.123283431160893 40.5829
28.146235889577238 40.4074
28.169368830154156 40.3628
28.192323603752033 40.199
28.215279532083304 39.9128
28.238415973016764 39.6363
28.261374223145094 39.51
28.284333631303806 39.2631
28.307294198589954 39.2128
28.330435319167677 38.8576
28.353398217078915 38.5785
28.376362277420153 38.4231
28.39932750129032 38.3572
28.422473319286713 38.1039
28.44544088262495 37.9848
28.468409612800283 37.8565
28.491379510913497 37.409
28.51453004413313 37.4458
28.53750229057244 37.4115
28.56047570826344 37.2204
28.583450298308804 37.4024
28.606605564586562 37.1667
28.629582511831156 37.3094
28.65256063474956 37.192
28.675539934446338 37.2372
28.698699951647605 37.1124
28.72168161743193 36.9679
28.74466446331978 36.9675
28.767648490417624 36.9025
28.790813276438353 36.7777
28.813799678527303 36.8225
28.836787265157085 36.9044
28.859955641890075 36.9236
28.882945610203045 36.8253
28.905936766392035 36.7399
28.928929111566863 36.7334
28.952102288520145 36.6945
28.975097024308607 36.6269
28.998092952423807 36.4815
29.021090073977508 36.3969
29.04426806913204 36.3666
29.067267590245258 36.2081
29.090268308143695 36.1422
29.11327022394099 35.9983
29.13645305530891 35.9599
29.159457379627167 35.8439
29.18246290519685 35.7857
29.20546963313352 35.7305
29.22865731875826 35.7576
29.25166646419296 35.7654
29.27467681535305 35.5605
29.29768837335608 35.5309
29.320880931312562 35.6539
29.34389491580634 35.686
29.366910110507334 35.5843
29.38992651653503 35.6621
29.41312396492981 35.6159
29.436142806456754 35.6047
29.45916286268059 35.4937
29.48236399319994 35.5047
29.50538649169417 35.3446
29.528410208259935 35.2434
29.55143514402014 35.1041
29.574641196749695 34.9728
29.597668583816574 34.7547
29.6206971934585 34.5931
29.64372702680042 34.5489
29.666938019934474 34.5121
29.689970313635285 34.4285
29.713003834422636 34.4126
29.73603858342347 34.3343
29.759254535188578 34.2351
29.78229175361658 34.3161
29.80533020365064 34.3259
29.82836988641968 34.1954
29.85159081507472 34.1471
29.874632976355343 34.1382
29.89767637376955 34.2277
29.920721008448314 34.0237
29.9439469322847 33.9774
29.96699405457564 33.8535
29.9900424175358 33.8948
30.013092022298157 33.8061
30.03632295963995 33.7532
30.059375061131373 33.9096
30.08242840783577 33.8755
30.105483000888153 33.7504
30.128718970092244 33.7366
30.151776069006917 33.8213
30.17483441768648 33.8419
30.198074175317235 33.6503
30.221135036724256 33.7462
30.24419715131772 33.6935
30.267260520236203 33.5896
30.290505341942243 33.7223
30.313571232750228 33.7415
30.336638381310948 33.7124
30.35970678876503 33.7061
30.38295669299435 33.6219
30.40602763151657 33.6116
30.429099832366074 33.5355
30.452173296685572 33.4559
30.47542830191959 33.3725
30.498504306502497 33.3759
30.521581577995562 33.3602
30.544660117543582 33.4755
30.56792024229725 33.4851
30.59100133132069 33.5043
30.614083691845494 33.4044
30.637167325018545 33.5416
30.660432587840603 33.5786
30.683518779717886 33.4678
30.70660624769615 33.5132
30.729694992924372 33.564
30.75296541239743 33.5757
30.77605672557558 33.4431
30.799149319462742 33.4951
30.8224236211637 33.466
30.845518789950724 33.3054
30.868615242910597 33.2005
30.891712981195973 33.0239
30.91499247215866 32.9923
30.938092794619365 32.9602
30.96119440587579 32.9229
30.984297307082752 32.6929
31.00758200598383 32.5474
31.030687500658694 32.5855
31.053794288760695 32.61
31.076902371446767 32.4234
31.100192296997445 32.3539
31.12330298246119 32.3696
31.14641496599209 32.177
31.169528248749216 32.2356
31.19282341969534 32.1565
31.215939314557186 32.2102
31.239056512134788 32.2376
31.262175013589378 32.1149
31.28547544871168 32.0695
31.30859657161541 32.0775
31.331719001892175 32.1066
31.35484274070538 32.1956
31.378148458819545 32.1631
31.401274828443725 32.1583
31.424402510106933 32.1722
31.447712205419993 32.078
31.470842524931633 32.091
31.493974159989783 32.0787
31.51710711176168 32.0544
31.54042212308802 32.2036
31.563557722100917 32.1488
31.586694641341655 31.807
31.609832881979628 31.7902
31.63315322823208 31.7728
31.656294125521327 31.6223
31.679436347728515 31.5711
31.70257989602529 31.5887
31.725905596152327 31.5167
31.74905181052835 31.4309
31.772199354521323 31.488000000000003
31.79534822930507 31.4406
31.818679302290967 31.4183
31.84183085259981 31.4577
31.864983737233473 31.4363
31.88813795736804 31.3269
31.911474422233013 31.2833
31.934631327356435 31.3253
31.9577895715215 31.2208
31.980949155906522 31.2333
32.004291031706956 31.2422
32.027453310562606 31.1457
32.05061693318573 31.185
32.07396288236386 31.159000000000002
32.09712920658542 31.1224
32.12029687812702 30.889
32.14346589817093 30.7705
32.166817291729984 30.8369
32.18998902288583 30.7329
32.21316210610336 30.6658
32.23633654256711 30.5262
32.259693399663725 30.4339
32.282870556771144 30.4007
32.30604907069099 30.4101
32.329228942610065 30.3458
32.35259128243769 30.1993
32.375773884550505 30.1395
32.398957848235646 30.2349
32.422143174682176 30.1107
32.445511016471215 29.9919
32.468699082679954 29.8933
32.49188851523011 29.8665
32.51507931531304 29.9031
32.538452678331 29.8905
32.56164622776311 29.8414
32.58484114831493 29.7251
32.60803744118015 29.6714
32.631416344731896 29.6865
32.654615396551876 29.6034
32.67781582427913 29.6744
32.701198898634416 29.4623
32.72440209253756 29.5106
32.747606665947124 29.4532
32.77081262006088 29.346
32.79420126883317 29.3353
32.81740999876112 29.3279
32.840620112999424 29.289
32.86383161274818 29.2171
32.88722585534586 29.2236
32.91044014056596 29.2522
32.933655814909734 29.1209
32.95687287957963 29.2209
32.98027273544904 29.0335
33.00349259526636 29.0069
33.026713849030116 29.0751
33.04993649794511 29.0248
33.073341986570746 28.9754
33.09656744032826 29.0879
33.11979429286444 29.0328
33.14302254538647 28.9109
33.166433686291185 28.9021
33.18966475336992 28.8737
33.212897224069096 28.7369
33.23613109959831 28.7849
33.259547912343415 28.7451
33.2827846121627 28.82
33.306022720453775 28.7067
33.32926223842861 28.5803
33.352684742614166 28.5968
33.37592709463173 28.4977
33.399170859982064 28.4816
33.422597648419426 28.3926
33.44584425514446 28.2661
33.46909227885668 28.2287
33.4923417207723 28.17
33.51577423505344 28.1752
33.539026528130385 28.1339
33.56228024307245 28.0131
33.585535381098246 27.8596
33.60897364093058 27.8858
33.63223163992385 27.9219
33.6554910656699 27.8074
33.678751919389796 27.8464
33.702195944520106 27.8018
33.72545966903325 27.7357
33.74872482519663 27.6348
33.771991414233746 27.6188
33.79544122444841 27.6237
33.81871069412428 27.5883
33.84198160035767 27.5394
33.86525394437455 27.5407
33.88870955949969 27.4001
33.911984794020626 27.4313
33.93526147001624 27.4442
33.958539588715006 27.2932
33.98200102861669 27.271
34.0052820477047 27.1567
34.02856451319451 27.2063
34.05203033759056 27.0673
34.07531571090147 27.0685
34.09860253431845 27.0222
34.121890809074316 26.9559
34.145362493118924 26.9216
34.16865368561615 26.9287
34.191946333164054 26.8875
34.21524043699793 26.9429
34.23871800066799 26.8623
34.26201503218366 26.776999999999997
34.28531352370466 26.7077
34.30861347646881 26.6312
34.33209693978188 26.636999999999997
34.3553998301885 26.573
34.378704185565205 26.5607
34.402010007152356 26.4636
34.42549939016683 26.4823
34.44880815937748 26.4138
34.472118398533134 26.4082
34.49543010887669 26.3738
34.51892543169198 26.1751
34.54224009966052 26.2831
34.56555624255917 26.1853
34.58887386163339 26.1185
34.61237514439016 26.0358
34.6356957311114 26.000999999999998
34.65901779775809 26.074
34.68252356662995 25.9608
34.705848608458616 25.9483
34.72917513396849 25.9651
34.75250314440949 25.8665
34.77601490857862 25.7465
34.799345904259795 25.7119
34.82267838863559 25.7691
34.846012362958525 25.7125
34.869530142679984 25.6792
34.89286711232212 25.6522
34.91620557568269 25.5717
34.93954553401677 25.5911
34.9630693495876 25.5472
34.986412313340814 25.4761
35.00975677584668 25.5298
35.033102738362956 25.3998
35.05663261012228 25.3426
35.0799815881786 25.3985
35.10333207003229 25.2719
35.12668405694369 25.319000000000003
35.150220005273056 25.3446
35.17357501786656 25.2952
35.19693153931268 25.164
35.220289570874385 25.0861
35.24383161619786 25.1601
35.267192683604904 25.1145
35.290555264930376 25.0561
35.314101899412165 25.0802
35.33746752422433 25.0441
35.36083466676374 24.9806
35.38420332829803 24.9422
35.407756095629054 25.0315
35.43112781085063 24.9445
35.45450104888391 24.9241
35.477875810999194 24.9377
35.50143473172161 24.8951
35.52481255774625 24.9078
35.54819191167777 24.7686
35.57157279478914 24.8249
35.595137889488406 24.7603
35.61852184675279 24.6864
35.641907337029984 24.6272
35.665294361595684 24.6209
35.68886565090076 24.5121
35.7122557598848 24.5448
35.73564740699838 24.5963
35.759040593519934 24.3846
35.78261809810353 24.3758
35.80601437933051 24.2993
35.829412203814705 24.2775
35.85281157283719 24.2135
35.876395313415884 24.2071
35.8997977874528 24.1267
35.92320180988546 24.1385
35.946790244133936 24.0328
35.97019737933222 24.1616
35.993606066789866 24.0855
36.01701630779276 24.0394
36.04061101440684 24.0738
36.06402437852291 24.0132
36.08743930005611 23.9484
36.1108557802951 23.7925
36.13445678011326 23.8455
36.15787639383515 23.7859
36.18129757014299 23.747
36.20472031032821 23.7333
36.22832762423364 23.6192
36.25175350829375 23.6205
36.275180960119776 23.5284
36.298609981005924 23.7
36.32222362992669 23.6804
36.34565580510207 23.5493
36.36908955323448 23.5111
36.39252487562093 23.4022
36.416144880530226 23.3595
36.43958336764275 23.3113
36.463023432914625 23.4141
36.486465077645676 23.2564
36.51009145956204 23.3993
36.53353627947859 23.3882
36.55698268276811 23.2929
36.58043067073321 23.2062
36.60406345072071 23.1441
36.62751462435344 23.1391
36.65096738658405 23.1229
36.67460498210655 23.1477
36.69806093788647 23.0046
36.72151848619297 22.9739
36.744977628333636 22.9529
36.76862165890998 22.8816
36.79208400512205 22.9623
36.81554794910557 22.8446
36.83901349217101 22.7581
36.862663978991606 22.7679
36.88613273667352 22.7398
36.90960309738324 22.708000000000002
36.933075062434064 22.6665
36.95673202673572 22.6596
36.98020721697122 22.6187
37.003684015502365 22.5343
37.027162423645365 22.5072
37.050825886711465 22.4606
37.07430753063053 22.3826
37.09779078812467 22.3874
37.121275660513014 22.315
37.144945643673694 22.2634
37.16843376245278 22.2509
37.19192350009803 22.2539
37.215414857931435 22.2048
37.239091382563885 22.1725
37.262585997426164 22.1317
37.28608223645736 22.1956
37.309763684451696 22.1306
37.33326318851098 22.0929
37.356764320726555 22.0012
37.380267082425526 22.0289
37.40395510942588 22.0223
37.42746114683234 21.9258
37.45096881771841 21.8823
37.474478123414166 21.844
37.49817275092816 21.8741
37.52168534303452 21.8136
37.54519957395567 21.7405
37.568715445024665 21.7665
37.592416694607714 21.7006
37.61593586281424 21.6553
37.63945667518264 21.6782
37.66297913304891 21.6018
37.68668702630454 21.5825
37.710212792059274 21.5437
37.733740207334854 21.5073
37.757269273470364 21.5004
37.780983832050374 21.4155
37.80451621684926 21.3882
37.82805025654007 21.3828
37.851585952464795 21.2432
37.8753071980695 21.274
37.89884622345676 21.2466
37.92238690911902 21.2148
37.94611318753442 21.1348
37.969657210779765 21.1868
37.99320289834801 21.1529
38.016750251586465 21.0935
38.04048325513017 21.0635
38.06403395679343 20.9766
38.087586328183946 20.9263
38.11114037065203 20.8861
38.13488012115898 20.8949
38.1584375229181 20.8876
38.181996599821 20.8061
38.205557353221124 20.805
38.229303872575656 20.7734
38.2528679961576 20.7482
38.27643380031219 20.7374
38.30000128639589 20.6986
38.32375459653193 20.6717
38.34732546371299 20.6012
38.37089801690786 20.5434
38.39447225747609 20.5243
38.418232380377425 20.5227
38.441810012983396 20.5199
38.46538933705673 20.4433
38.488970353960084 20.4825
38.51273731166058 20.4331
38.536321731567014 20.3181
38.55990784840681 20.3002
38.58367995004091 20.2819
38.60726947812959 20.2919
38.63086070726198 20.1969
38.654453638806274 20.171
38.678232613930824 20.1358
38.70182896773327 20.0449
38.72542702806741 20.0874
38.7490267963045 20.0459
38.77281266709232 20.0345
38.79641586862214 20.0226
38.8200207821842 19.8799
38.843627409152944 19.8964
38.86742019782782 19.8654
38.891030269149255 19.8283
38.914642058016156 19.883
38.938255565806124 19.8234
38.96205529464307 19.8196
38.98567225787121 19.7536
39.00929094417078 19.724
39.03291135492255 19.6737
39.05671804624804 19.6209
39.080341923549106 19.5879
39.103967529460334 19.575
39.127594865365744 19.47
39.15140854155791 19.442
39.17503935514948 19.5272
39.19867190290282 19.5055
39.22249083587951 19.45
39.24612686969409 19.3779
39.269764641845306 19.4291
39.293404153722804 19.3128
39.317230110864074 19.2853
39.34087311998506 19.2521
39.36451787301696 19.2767
39.388164371352595 19.164
39.41199737518003 19.1681
39.43564738196752 19.1534
39.45929913825317 19.0665
39.48295264543308 19.1154
39.506792718520884 19.0744
39.530449745387216 19.0266
39.55410852735203 19.0563
39.57776906581474 18.9488
39.60161623079 18.9367
39.625280300200025 18.9235
39.64894613032202 18.9083
39.67261372255866 18.8362
39.6964680021016 18.8199
39.72013913657293 18.8247
39.74381203738292 18.7864
39.76748670593756 18.7741
39.79134812278169 18.7088
39.81502634488497 18.7346
39.83870633896685 18.6727
39.862388106436654 18.611
39.88625668336918 18.6216
39.90994201572829 18.5777
39.933629125719285 18.5048
39.957503091207826 18.5078
39.9811937746168 18.514
40.00488623990914 18.5045
40.02858048850006 18.4653
40.05246165409549 18.3286
40.076159487492085 18.3257
40.099859108448875 18.3668
40.123560518384345 18.2964
40.1474489070226 18.2234
40.171153913178564 18.1921
40.194860712584955 18.2232
40.2185693066637 18.1795
40.242464941335314 18.1349
40.26617714307655 18.1492
40.289891143772046 18.1035
40.3136069448471 18.0719
40.33750984859743 18.046
40.3612292688043 18.0371
40.3849504936829 17.9952
40.40867352466194 17.9938
40.43258372059144 17.8612
40.45631038219906 17.9052
40.48003885420956 17.8525
40.503769138055105 17.7628
40.52768664931955 17.8367
40.55142057531802 17.8037
40.57515631746428 17.7682
40.599079334038514 17.7746
40.62281872700477 17.704
40.64655994043941 17.6509
40.67030297578061 17.6601
40.69423334835778 17.6144
40.71798004609188 17.5709
40.74172857006355 17.4981
40.76547892171441 17.4516
40.7894166736039 17.5474
40.813170699248566 17.4669
40.83692655691388 17.4307
40.86068424804498 17.4736
40.884629402612525 17.4035
40.908390779366385 17.3814
40.932153993938 17.3009
40.95591904777605 17.3249
40.979871628443995 17.2949
41.003640379561936 17.2553
41.02741097430883 17.3018
41.05118341413683 17.225
41.075143444384416 17.2401
41.098919593177826 17.195999999999998
41.1226975914255 17.1479
41.14647744058318 17.0651
41.170444943946755 17.0157
41.19422851378379 17.0687
41.218013938914645 16.9883
41.24198706625173 16.9233
41.26577622087193 16.875999999999998
41.289567235177785 16.8635
41.31336011063129 16.835
41.337340752422875 16.7854
41.361137369129835 16.8611
41.38493585138705 16.8834
41.40873620066004 16.7707
41.43272438060107 16.7776
41.45652848292052 16.7429
41.48033445666918 16.6578
41.50414230331616 16.6054
41.528138045159764 16.6397
41.551949656675205 16.5627
41.575763145513235 16.5857
41.59957851314666 16.5443
41.62358184070442 16.5123
41.64740098505737 16.509
41.6712220126409 16.4283
41.69504492493139 16.4147
41.71905586207357 16.3951
41.74288256296395 16.3779
41.766711153007456 16.3092
41.79054163368412 16.3491
41.814560204340054 16.3405
41.838394485526365 16.3621
41.86223066180303 16.2706
41.88625497706819 16.2174
41.910094962812 16.1695
41.93393684811168 16.127
41.95778063445365 16.0886
41.981812625263366 16.1003
42.00566023303407 16.0842
42.029509746323676 16.0622
42.05336116662236 16.0309
42.077400857069705 16.0088
42.10125611078846 15.9425
42.12511327600405 15.9519
42.14897235421036 15.9354
42.173019768448455 15.9089
42.19688269209613 15.8722
42.22074753323349 15.8394
42.24461429335818 15.7821
42.268669455600495 15.7804
42.292540073217886 15.7452
42.31641261433284 15.770999999999999
42.34028708044675 15.7182
42.36435001496739 15.6949
42.38822835065557 15.6429
42.41210861586426 15.6008
42.4359908120986 15.5873
42.46006154323262 15.5383
42.48394762115317 15.5332
42.507835634632315 15.5609
42.531912233047436 15.4799
42.55580413732265 15.4608
42.579697981698 15.4289
42.60359376768525 15.3548
42.62767820545945 15.3514
42.65157789440821 15.2988
42.67547952952185 15.3573
42.699383112316 15.4055
42.72347541395347 15.2933
42.74738291190531 15.2691
42.771292362102166 15.2374
42.795203766063516 15.2191
42.819303956130405 15.1801
42.843219287476536 15.1523
42.86713657716324 15.0825
42.89105582671383 15.1231
42.91516392983864 15.0829
42.939087119032166 15.0569
42.963012272677304 15.0241
42.98693939230129 14.9745
43.01105543317513 14.969000000000001
43.034986504731386 14.9586
43.05891954686589 14.9407
43.08285456110972 14.9572
43.10697856448665 14.8842
43.130917542983475 14.8373
43.15485849820081 14.8001
43.17880143167367 14.7423
43.20293342237094 14.7794
43.226880332449 14.7489
43.25082922540554 14.7412
43.27496722682525 14.6821
43.29892010567796 14.7017
43.32287497204102 14.6445
43.34683182745632 14.5608
43.370977859791836 14.5794
43.39493871351105 14.6111
43.41890156092628 14.6058
43.44286640358341 14.5264
43.46702049182749 14.5099
43.49098934522816 14.4775
43.51496019852649 14.4414
43.5389330532723 14.3959
43.56309522248204 14.3396
43.58707210044314 14.3643
43.61105098451946 14.2981
43.63503187626491 14.3253
43.659202151562134 14.2717
43.68318707902681 14.3208
43.70717401884041 14.2547
43.731162972560874 14.2018
43.75534137913236 14.1317
43.779334381108384 14.1603
43.803329401683186 14.1093
43.82732644241872 14.1016
43.8515130055166 14.1126
43.87551410707659 14.078
43.89951723350145 14.0173
43.923709934595614 14.0081
43.94771713129917 14.0336
43.97172635758096 14.0123
43.99573761501002 13.929
44.0199385169922 13.9462
44.04395385732619 13.9336
44.067971233533086 13.8906
44.09199064718605 13.8774
44.11619977548961 13.8296
44.14022328470671 13.7579
44.16424883610785 13.7511
44.18827643127035 13.8166
44.21249381139513 13.7752
44.236525514814076 13.7144
44.26055926674478 13.7102
44.28459506876863 13.6676
44.3088207262813 13.6237
44.33286064928722 13.5886
44.35690262714919 13.594000000000001
44.38094666145278 13.5666
44.4051806219871 13.568
44.42922879003185 13.5336
44.45327901929361 13.4868
44.477331311362136 13.468
44.501573600619416 13.4318
44.525630039221795 13.3925
44.54968854541895 13.3654
44.573937102200176 13.3889
44.5979997645541 13.3629
44.622064499300315 13.3175
44.64613130803592 13.2703
44.67038823869318 13.3031
44.69445921643748 13.2206
44.718532272981385 13.1964
44.742607409926194 13.2098
44.76687274034801 13.1743
44.79095205918753 13.1522
44.81503346325094 13.1178
44.839116954143876 13.1466
44.86339071028742 13.0917
44.88747839599524 13.0724
44.91156817336837 13.0856
44.93566004401666 13.0472
44.959942251908146 12.9767
44.984038330325966 12.9567
45.00813650686762 12.9197
45.03223678314731 12.937000000000001
45.05652746888232 12.9052
45.08063196592069 12.8883
45.104738567558705 12.8839
45.128847275414856 12.8562
45.15314646515866 12.8275
45.17725940679741 12.7879
45.20137445952892 12.8018
45.22568004865265 12.7753
45.24979934496396 12.7456
45.27392075725247 12.6494
45.29804428714431 12.6669
45.322358426247604 12.6824
45.346486212804315 12.658
45.370616121861914 12.6085
45.39474815505086 12.6349
45.41907087049246 12.5782
45.4432071734666 12.5124
45.46734560548283 12.5379
45.49148616817604 12.5696
45.51581748638564 12.4722
45.5399623320197 12.4418
45.56410931325473 12.401
45.58825843173002 12.4293
45.61259837920865 12.4099
45.636751793816 12.3811
45.66090735060093 12.3216
45.68506505120716 12.3024
45.7094136545275 12.2689
45.73357566449271 12.2806
45.75773982322992 12.2535
45.78190613238733 12.2777
45.806263418194064 12.1784
45.83043404997326 12.1923
45.85460683713677 12.2048
45.87897065658495 12.1842
45.90314777634752 12.1188
45.92732705646868 12.1242
45.9515084986045 12.1115
45.97588104735473 12.0459
46.00006683541565 12.0533
46.02425479047904 11.9727
46.04844491420549 12.0028
46.0728262191024 11.9889
46.09702070211635 11.9724
46.12121735879483 11.9457
46.14541619080294 11.8903
46.169806278764455 11.9083
46.194009483459034 11.8737
46.21821486849841 11.8286
46.24242243555223 11.790999999999999
46.266821333570014 11.8159
46.29103328674601 11.8141
46.31524742696538 11.8031
46.33946375590237 11.7348
46.36387149104216 11.7201
46.38809221957392 11.6857
46.41231514186606 11.6973
46.436540259597464 11.693
46.460956858999374 11.6389
46.48518638983522 11.6604
46.509418121166966 11.5813
46.533652054678114 11.5921
46.55807754555709 11.5576
46.58231590571962 11.5586
46.60655647313217 11.5069
46.630988654873654 11.5338
46.655233659129024 11.4769
46.67948087571551 11.4784
46.70373030632484 11.4778
46.72817142736393 11.4003
46.752425308428684 11.3764
46.77668140861147 11.3755
46.80093972960865 11.2872
46.82538981736788 11.3196
46.849652602470904 11.3595
46.87391761349769 11.2855
46.8981848521493 11.2722
46.9226439341274 11.1946
46.946915650573224 11.1892
46.97118959976749 11.2266
46.99546578341598 11.1707
47.019933887188216 11.1062
47.04421456235744 11.1392
47.06849747711879 11.1275
47.09278263318286 11.0611
47.11725978640143 11.0212
47.14154944775105 11.0681
47.165841355555656 11.0498
47.1901355115306 10.9854
47.214621741924994 10.9355
47.23892041698887 10.9271
47.26322134538975 10.9147
47.28771440635075 10.9091
47.31201986422527 10.8993
47.33632758061436 10.8902
47.360637557241866 10.867
47.38513974410611 10.8526
47.40945426407847 10.8429
47.43377104948137 10.7807
47.45809010204344 10.7997
47.48260144275502 10.7916
47.506925052572285 10.7554
47.53125093475548 10.6996
47.55557909103813 10.6899
47.58009961361992 10.6607
47.60443234110732 10.6198
47.62876734791564 10.6579
47.65310463578333 10.6423
47.6776343683373 10.5933
47.7019762413987 10.5613
47.72632040075572 10.5335
47.75066684815169 10.5257
47.77520581885936 10.5094
47.799556865477655 10.4945
47.823910205386 10.5124
47.84826584033272 10.4651
47.87281407745551 10.4445
47.89717432569297 10.447000000000001
47.92153687423484 10.4534
47.94609208429692 10.3846
47.97045925671401 10.3833
47.99482873471275 10.343
48.01920052005013 10.335
48.04376504619224 10.3239
48.068141469543484 10.2931
48.09252020552573 10.2492
48.11690125590099 10.2454
48.1414751266064 10.2481
48.16586082917454 10.2588
48.19024885144316 10.2473
48.2146391951793 10.1934
48.239222439012764 10.205
48.26361744916137 10.1792
48.28801478610016 10.1579
48.31241445160131 10.1434
48.337007097209366 10.1012
48.36141144338331 10.1003
48.38581812345755 10.0466
48.41022713920929 10.0501
48.434829215320704 10.008
48.45924292604658 10.0243
48.48365897780325 10.0049
48.50807737237308 9.99125
48.532688907799276 9.97966
48.55711201168574 9.92575
48.581537463754074 9.88654
48.60615611725119 9.930530000000001
48.63058628942721 9.89166
48.65501881516546 9.88422
48.6794536962573 9.84717
48.70408185970339 9.826789999999999
48.72852147531801 9.81783
48.75296345168211 9.76711
48.77740779059232 9.74526
48.80204549302823 9.77876
48.82649458091802 9.73275
48.85094603676547 9.73901
48.87539986237231 9.72674
48.90004713292306 9.69983
48.92450572200832 9.69173
48.94896668628025 9.66784
48.97343002754588 9.65195
48.99808689542115 9.60115
49.02255501470614 9.60919
49.04702551642794 9.54467
49.0714984023988 9.55765
49.096164896893235 9.53766
49.120642575466796 9.539860000000001
49.145122643748394 9.501430000000001
49.16960510355558 9.47507
49.19428125404938 9.43104
49.2187685210852 9.433110000000001
49.243258185121555 9.44092
49.26794160167084 9.42354
49.2924360839405 9.405710000000001
49.31693296869764 9.358460000000001
49.34143225776915 9.35679
49.36612538195438 9.310130000000001
49.39062950396021 9.29487
49.41513603578346 9.30509
49.4396449792564 9.29166
49.46434784069503 9.29457
49.488861631846454 9.25917
49.513377840166804 9.2297
49.537896467493745 9.19619
49.56260909589029 9.18949
49.587132585683285 9.1893
49.611658500018365 9.17992
49.636186840738596 9.147969999999999
49.66090926588511 9.12241
49.685442483902584 9.09804
49.70997813385706 9.09646
49.734516217597076 9.055639999999999
49.75924846937352 9.04577
49.7837914452858 9.04495
49.80833686055187 8.9703
49.83288471702571 8.986
49.85762682540054 8.98658
49.882179588965734 8.98339
49.9067347993235 8.95686
49.93129245833333 8.95337
49.95604445336378 8.90462
49.98060703442832 8.89465
50.005172069746266 8.85977
50.02993150438364 8.86432
50.05450147301533 8.85772
50.07907390151433 8.82573
50.10364879174981 8.82441
50.12841816587289 8.796510000000001
50.1529980044635 8.7739
50.17758031042124 8.76928
50.20216508562089 8.75309
50.22694442953363 8.71764
50.25153416817468 8.71552
50.27612638170508 8.6809
50.300721072005196 8.68351
50.325510416102105 8.66656
50.350110084975064 8.59676
50.37471223628208 8.62142
50.39931687190919 8.640360000000001
50.424116246675766 8.59228
50.44872587605249 8.550239999999999
50.47333799543065 8.57431
50.49795260670191 8.57051
50.52276204271512 8.52392
50.54738166295838 8.52764
50.57200378079314 8.49447
50.596628398116835 8.42127
50.62144792604559 8.45925
50.646077567609396 8.445260000000001
50.670709714377715 8.45307
50.69553683636198 8.4375
50.72017401885922 8.36892
50.7448137122895 8.33959
50.76945591856022 8.35782
50.79429318636823 8.36682
50.818940443716784 8.345369999999999
50.84359021965163 8.31276
50.868242516085964 8.30401
50.893089960641895 8.297939999999999
50.917747323549435 8.28262
50.94240721271973 8.25417
50.96706963007175 8.24213
50.99192728239342 8.20234
51.01659478166073 8.188310000000001
51.04126481489051 8.18465
51.06593738400761 8.1432
51.090805275207074 8.158539999999999
51.11548294172845 8.10571
51.14016314993547 8.10641
51.164845901758845 8.13948
51.18972406304274 8.08905
51.21441192780656 8.09385
51.23910234200271 8.10041
51.2637953075678 8.03551
51.288683770237945 8.04918
51.31338186432707 8.00227
51.33808251561888 7.9985
51.362978729967345 7.975510000000001
51.387684521509755 7.99483
51.41239287610203 7.94918
51.437103795691165 7.89618
51.46201036644977 7.89157
51.486726441956634 7.874569999999999
51.51144508832545 7.91335
51.536166307509156 7.86141
51.56108326624387 7.80933
51.58580965706056 7.802039999999999
51.61053862657523 7.83475
51.635270176746864 7.77642
51.66019755512065 7.76962
51.68493429268881 7.76925
51.70967361681515 7.735530000000001
51.73441552946465 7.71891
51.759353359237934 7.70828
51.7841004750961 7.71276
51.80885018539685 7.692539999999999
51.833602492111254 7.66115
51.8585508051424 7.6349100000000005
51.883308330926425 7.62115
51.90806845906181 7.62597
51.932831191525715 7.627339999999999
51.95779001977161 7.589360000000001
51.98255798721516 7.5716399999999995
52.00732856494335 7.58648
52.03229530577543 7.521960000000001
52.057071130455945 7.480239999999999
52.081849571391054 7.482639999999999
52.106630630568695 7.5132
52.13160794279417 7.47227
52.15639426492067 7.485410000000001
52.18118321127822 7.443339999999999
52.205974783860896 7.41063
52.23096269971011 7.421539999999999
52.255759551287994 7.43358
52.280559035098186 7.34932
52.30536115314103 7.37391
52.33035970494467 7.37692
52.35516711807904 7.36061
52.37997717147198 7.30675
52.40478986713005 7.338210000000001
52.42979908731974 7.27497
52.454617094216 7.261360000000001
52.47943774942214 7.225280000000001
52.50426105495102 7.259869999999999
52.529280976059844 7.26341
52.554109609024096 7.221889999999999
52.57894089837482 7.19826
52.60377484613117 7.169580000000001
52.62880550079408 7.18778
52.65364479223379 7.1441
52.67848674816189 7.12665
52.70352547971946 7.12789
52.72837279155837 7.107480000000001
52.753222773982785 7.08666
52.778075429022984 7.094469999999999
52.80312495150885 7.09203
52.827982978797436 7.05197
52.85284368481815 7.04507
52.87770707160767 6.9979
52.90276741793998 6.988360000000001
52.92763619336701 6.9438
52.952507655698504 6.97964
52.977381806977576 6.96968
53.00245301017842 6.94866
53.02733256653592 6.955589999999999
53.052214817996074 6.88868
53.077099766608484 6.90079
53.102181859804446 6.887560000000001
53.127072229988265 6.9081
53.15196530349892 6.88983
53.17686108239249 6.85027
53.20195409881522 6.82493
53.22685531582556 6.81295
53.25175924441303 6.79869
53.27666588664027 6.81572
53.30176985962693 6.809819999999999
53.3266819565689 6.7819899999999995
53.35159677336455 6.767510000000001
53.376514312083096 6.71467
53.40162927507703 6.71488
53.42655228516116 6.696969999999999
53.45147802340193 6.625380000000001
53.47660125628886 6.69999
53.50153247842639 6.6642600000000005
53.52646643496923 6.64717
53.55140312799818 6.64486
53.576537409691696 6.65826
53.60147960336152 6.575060000000001
53.626424539786164 6.57685
53.65137222105307 6.52918
53.67651758529126 6.53332
53.70147078399681 6.54218
53.72642673383343 6.51946
53.75138543689533 6.4833
53.776541917524526 6.51251
53.801506154876755 6.50896
53.826473151763246 6.486680000000001
53.851442910284916 6.4384
53.87661054126026 6.434019999999999
53.9015858509782 6.40412
53.92656392866066 6.42207
53.95154477641532 6.4091
53.976723591801296 6.3981699999999995
54.00171000771266 6.38427
54.02669920004598 6.39162
54.051691170915745 6.36532
54.076881204886796 6.358619999999999
54.101878760928514 6.300730000000001
54.12687910187696 6.24832
54.152077577768296 6.30436
54.1770835166946 6.2792
54.20209224691339 6.24239
54.22710377055121 6.2249099999999995
54.25231352511594 6.23391
54.27733066384342 6.20435
54.30235060239643 6.19528
54.32737334290836 6.16217
54.35259441062629 6.14494
54.377622783395324 6.1393
54.40265396455061 6.1622
54.42768795623251 6.0730699999999995
54.45292037169559 6.05119
54.477960012857906 6.0384
54.50300247099511 6.04367
54.52804774825457 6.04304
54.55329154616743 5.99894
54.57834249018678 5.95841
54.6033962597977 5.97821
54.6284528571545 5.92765
54.653708072335164 5.95887
54.67877035378786 5.96579
54.70383546947698 5.90476
54.72890342156389 5.87375
54.7541700889442 5.82885
54.77924374251975 5.79356
54.8043202390049 5.77016
54.82959552413022 5.753819999999999
54.8546777351945 5.8147400000000005
54.87976279569621 5.71071
54.90485070780914 5.7224900000000005
54.930137506558005 5.69678
54.95523115074295 5.69543
54.98032765308844 5.66755
55.005427015775496 5.64797
55.03072536339621 5.66211
55.05583047570572 5.60069
55.080938454927676 5.58651
55.10604930325027 5.53011
55.131359235107396 5.55476
55.15647585066083 5.5009
55.181595341907496 5.45256
55.20671771104285 5.49676
55.232039262617704 5.42
55.25716741665048 5.44715
55.28229845518636 5.43421
55.30743238042802 5.33697
55.33276558731939 5.3162
55.357905315183636 5.27763
55.383047936390035 5.26471
55.40819345314859 5.25363
55.433538351073295 5.23735
55.458689688238415 5.21858
55.483843927614096 5.176819999999999
55.509197623043605 5.1334800000000005
55.53435769621134 5.09906
55.55952067826466 5.0808
55.5846865714265 5.06113
55.61005202069737 5.0906400000000005
55.63522376553902 5.099819999999999
55.66039842818645 5.0054300000000005
55.68557601087004 5.00375
55.7109532500271 4.960030000000001
55.73613670233794 4.97086
