TT I
1.2716486653135266 6.85929
1.2939594142134223 6.6294
1.3162702121660406 6.44677
1.3385810600174564 6.48503
1.3608919586137629 6.39941
1.383202908801069 5.65482
1.405513911425503 6.26093
1.4278249673332093 5.99978
1.4501343378461518 5.522880000000001
1.4724455028545926 5.7010000000000005
1.4947567236847858 5.53676
1.517068001182951 6.0307900000000005
1.5393793361953272 5.3869
1.5616907295681737 5.3774
1.5840021821477681 5.15471
1.60631369478041 4.94905
1.6286252683124185 4.8432
1.6509369035901333 4.2857199999999995
1.6732468618895553 4.95481
1.695558623192809 4.29951
1.7178704487808514 4.29915
1.7401823395001077 4.48804
1.7625012545597203 4.24038
1.7848028405262486 4.27463
1.8071218901122095 4.270569999999999
1.8294236121921872 4.05645
1.8517427996910911 3.77929
1.8740620574440425 4.0300199999999995
1.8963639900671978 3.8178300000000003
1.9186833908139995 4.181830000000001
1.9409854680117449 4.6313
1.9633050151394713 4.73416
1.9856246367570705 4.49696
2.0079269371922672 3.8018
2.03024671027244 4.36227
2.0525491637446027 4.025469999999999
2.074869091674931 3.6346300000000005
2.097171701569106 4.33218
2.1194917877373847 4.80072
2.141811954326636 4.54211
2.164114805233074 4.5448
2.186435135143035 4.761419999999999
2.208738150935709 5.172969999999999
2.231058647554722 6.38607
2.2533792288321184 5.68466
2.275682498336085 4.76193
2.298003251406138 5.02254
2.3203066942619714 5.29261
2.3426276225136022 5.5227
2.3649486396617507 5.6494599999999995
2.387252348930071 5.664630000000001
2.4095735463442893 5.689369999999999
2.4318774374315884 5.84735
2.4541988185014043 6.30437
2.476502894794693 6.91639
2.498824462909887 7.11419
2.521146125856138 7.477239999999999
2.5434504863470337 6.6791100000000005
2.5657723414244717 7.966469999999999
2.588076895590662 8.33267
2.610398946189713 8.28975
2.6327210958598384 8.11697
2.6550259469304716 8.17009
2.6773482972090137 8.727889999999999
2.6996533504259 8.51431
2.7219759047039602 8.8323
2.744298562293959 8.42388
2.7666039251246595 8.21365
2.7889267918020164 8.2691
2.8112323652516555 8.51484
2.833555444408179 8.59897
2.8558786311183852 8.29888
2.8781845268938557 8.46524
2.9005079311721484 8.98423
2.9228140460410397 8.54781
2.9451376712799635 9.454039999999999
2.967444008632326 9.77745
2.9897678582247247 10.037
3.0120918213106695 10.7547
3.0343984987899373 11.1675
3.0567226913198637 11.435
3.079029599759726 11.7778
3.101354025127254 12.5789
3.123678568232338 12.8289
3.145985829517914 12.8874
3.16831061055229 13.3821
3.1906181112775593 14.0314
3.212943133635653 14.5762
3.2352682779763207 15.1321
3.2575761442691227 14.8702
3.2799015350264273 15.4523
3.302209649240067 15.9275
3.3245352898092655 15.9932
3.3468436553365257 16.7155
3.369169549113219 16.8859
3.3914955708171384 18.0114
3.413804319727358 18.0675
3.4361305997334863 18.3764
3.4584396084414553 18.8625
3.4807661501462652 19.1645
3.503092824025881 19.8053
3.5254022288463154 20.2342
3.5477291695206588 20.2748
3.5700388426251948 20.8977
3.5923660534916446 21.1743
3.6146934007816114 22.855999999999998
3.637003482731501 27.948
3.6593311053109985 30.296
3.681641464033634 26.7571
3.7039693653009733 24.1707
3.726297407241705 23.9267
3.7486081875460804 23.706
3.7709365132734978 24.4724
3.793247578841633 24.7749
3.8155761917550093 25.1863
3.8378875459837216 25.6849
3.8602164494827234 25.9571
3.882545499606844 26.9389
3.9048572932539183 27.5288
3.9271866390645718 27.8679
3.9494987298666713 28.2247
3.971828374764527 28.6521
3.9941581705403255 28.8274
4.016470713506008 29.5171
4.038800813471445 30.2531
4.061113662089144 31.1922
4.0834440696459176 31.4734
4.105774632334751 31.3705
4.128087945865126 32.4053
4.150418821249301 32.6862
4.172732448931298 33.5426
4.195063640413578 34.5016
4.2173775856475215 35.7877
4.239709096631102 38.3387
4.262040768704612 52.4959
4.284355196706267 64.0607
4.306687193387355 56.8517
4.329001947444346 44.3047
4.35133427213731 40.9474
4.373666762177566 40.9512
4.395982011761091 41.2327
4.418314834921175 42.0826
4.44063041906622 43.0875
4.4629635787515625 44.6546
4.4852969080429785 46.2805
4.5076130004776225 46.3712
4.529946671403969 46.6839
4.552263106909177 47.2012
4.574597122877047 48.794
4.596931312711224 49.8733
4.619248269273446 50.7791
4.6415828092605835 51.3765
4.663900117405352 52.903
4.686235010953232 54.0554
4.708552674085913 55.461000000000006
4.730887924602802 56.7194
4.753223354952695 57.8126
4.775541557023902 59.5781
4.797877349456786 61.1847
4.820195915032126 62.6754
4.842532072957498 63.8104
4.864868414979744 65.9412
4.88718753227192 68.0958
4.909524244902505 69.8708
4.931843734218147 71.5557
4.954180820867835 74.4151
4.976518095879839 77.17399999999999
4.998838149695359 79.2265
5.021175803844231 82.61399999999999
5.043496238205739 85.7819
5.065834274903528 90.1499
5.088172504230693 93.6752
5.1104935158799565 97.5716
5.132832132875765 104.985
5.155153533596801 117.92
5.1774925416746225 137.472
5.199814334878411 231.752
5.2221537374521505 789.408
5.244493338631803 2467.86
5.266815727034316 7152.45
5.289155727832427 13509.5
5.311478517248165 9528.06
5.333818921080011 3276.74
5.356159527788849 692.2410000000001
5.3784829252032536 216.546
5.400823940070432 146.91299999999998
5.423147747031976 124.64
5.445489173474152 114.18799999999999
5.467830807066149 108.70700000000001
5.490155234831516 104.199
5.512497285125229 101.17200000000001
5.534822130975162 99.3286
5.557164601388673 97.3105
5.579489868738879 94.9538
5.601832762690846 93.4006
5.6241758697774475 91.8972
5.646501775867269 91.7205
5.668845311622074 90.4529
5.691171647754637 89.4214
5.713515615597765 88.7662
5.735859800852677 87.8474
5.758186788542988 86.9247
5.780531411018185 87.1447
5.802858837297399 86.3347
5.825203900414495 86.3152
5.8475491852224 86.7466
5.869877275883075 86.8873
5.892223006467101 87.9381
5.914551544266608 88.5217
5.936897724049891 90.6264
5.959244129804903 94.5938
5.981573344815301 106.572
6.0039202049061 162.425
6.026249875609095 390.13599999999997
6.04859719346037 883.237
6.070927323278297 2046.17
6.093275102315365 4604.29
6.115623113320588 5693.96
6.137953938319995 3555.26
6.160302415650845 1058.87
6.182633708324452 239.326
6.2049826554078376 109.387
6.227331838745022 87.3868
6.249663839443684 79.967
6.27201349767565 75.6034
6.294345974611799 73.9256
6.316696111167083 73.1017
6.339046488263839 71.7235
6.361379686074702 68.7193
6.383730546639482 66.5235
6.406064229255215 65.0395
6.428415576718203 64.4769
6.450749747566656 63.349
6.47310158535871 62.3057
6.495453669698332 61.968
6.517788579421056 60.8052
6.540141159237969 59.8744
6.562476565766648 59.5108
6.5848296444934045 58.9237
6.607182974060425 58.3785
6.6295191323281015 57.7945
6.651872965955752 57.8227
6.6742096296068985 58.4498
6.6965639707294615 62.9355
6.71891856698715 64.4068
6.741255995248479 60.4923
6.763611104154477 56.7379
6.785949046381137 55.1886
6.808304671371482 54.283
6.8306605557940046 54.0724
6.852999275508618 53.9593
6.875355681171544 53.7874
6.897694923437771 53.6
6.92005185377892 53.5007
6.9423916220322655 53.1518
6.964749080490181 52.2127
6.987106804399774 52.2781
7.009447368180821 52.2594
7.031805625367033 52.0383
7.054146723727803 52.0158
7.076505517631004 52.0992
7.098864581288365 52.3041
7.121206488070854 51.8325
7.143566093607822 51.5368
7.165908543567245 51.1494
7.188268694426048 51.3252
7.2106291193438095 51.0957
7.232972390625943 51.4139
7.255333366030969 51.9747
7.277677189091925 56.0433
7.300038718428332 61.9605
7.322400526130865 61.2346
7.344745183422596 55.772
7.367107550224791 52.1087
7.389452767901992 51.6023
7.411815697249891 51.4465
7.434161478756298 51.1142
7.456524974096713 51.3833
7.478888753837185 51.5958
7.501235387657368 53.1015
7.523599738562711 59.8128
7.545946944825532 72.0217
7.568311870344528 76.0788
7.5906770845765665 66.9668
7.613025156078678 57.1863
7.635390950099687 53.8424
7.657739602662809 52.7341
7.680105979923558 52.5983
7.702472650212829 52.5785
7.724822180948224 52.8872
7.747189439655568 53.0402
7.769539560075357 53.1353
7.791907410653562 53.5682
7.81425812420825 53.593
7.836626570110925 53.7515
7.858995315087906 54.5645
7.881346924933401 54.9908
7.903716270417482 55.475
7.926068482028405 55.4558
7.948438431475253 56.3432
7.9708086843180235 56.5648
7.993161805171116 57.1912
8.015532667162402 57.6206
8.037886398416653 58.6398
8.060257873014221 58.8731
8.082629655331942 59.585
8.104984308787587 60.3291
8.127356708900503 60.9446
8.149711981398308 61.9003
8.172085002766314 63.0373
8.194458336181368 63.8666
8.216814543847752 64.6853
8.23918850371002 65.6446
8.26154533906492 66.5496
8.283919928836452 68.0392
8.306277395339652 69.1894
8.328652618483376 69.9965
8.351028159736202 71.9278
8.373386579575245 73.7473
8.395762759396959 75.3281
8.418121819038275 77.7529
8.440498640894003 81.2033
8.462875785192262 86.2037
8.485235811156207 94.0808
8.507613602688501 127.845
8.529974277114228 226.75599999999997
8.552352719347912 365.267
8.574731488360351 606.466
8.59709314210385 1075.38
8.619472567021075 1827.3
8.64183487789147 2252.67
8.664214962183097 1961.65
8.686577933647762 1098.33
8.708958680784317 411.754
8.731339760774953 174.88
8.753703729764451 109.36
8.77608547780821 94.6219
8.798450116065078 90.992
8.820832535634787 88.3064
8.843215292401656 87.0106
8.865580941199045 85.3671
8.887964374703538 84.1566
8.910330701447199 83.22399999999999
8.932714815164482 82.9055
8.955099270424924 82.3627
8.977466620733543 81.4579
8.999851761421976 80.6043
9.022219798361645 80.0556
9.04460562795561 79.9026
9.066991803441677 79.4666
9.089360876979615 79.3003
9.111747746589993 79.3737
9.13411751544971 79.1017
9.156505082664324 78.8431
9.178875550323522 79.5103
9.20126381862328 82.1786
9.223652438908596 93.0194
9.246023961427412 111.18799999999999
9.26841328802173 118.413
9.290785518039224 106.18
9.313175554425882 90.5763
9.335565947154315 81.9166
9.357939245086508 80.0858
9.380330352834827 79.9368
9.40270436697103 80.0861
9.425096193225055 79.3979
9.447488380180165 80.3306
9.469863475295412 80.6045
9.492256385987508 81.1371
9.514632206018318 81.4224
9.537025843935714 81.7343
9.559402392368193 82.2893
9.581796761000229 83.2777
9.604191496441521 83.5756
9.626569144158516 84.3983
9.648964615551032 85.4879
9.671343000390081 86.7238
9.693739211225699 87.0014
9.716135793237463 87.7244
9.738515290448102 88.0461
9.760912617143402 88.9628
9.783292860202891 90.11399999999999
9.805690935076182 91.4728
9.828089385495742 92.2216
9.850470754023561 93.5494
9.872869957865444 95.5373
9.89525208097539 99.1467
9.917652041736662 102.676
9.940052382417589 105.86
9.962435644102392 114.788
9.984836746950979 146.754
10.007220771957746 225.00900000000001
10.029622640473708 343.36
10.052007432299963 508.485
10.074410069984072 767.416
10.096813093716005 1194.17
10.119199042482517 1751.85
10.141602840636468 2090.94
10.163989564971628 1669.94
10.186394141051062 995.622
10.208799107559706 438.334
10.231187001965623 199.81799999999998
10.253592751657669 124.8
10.275981430388155 107.536
10.298387966769793 103.084
10.320794897965431 101.698
10.343184759907361 100.39200000000001
10.36559248305461 98.97200000000001
10.387983138083852 97.5716
10.410391656691655 98.4547
10.432800574501677 107.435
10.455192425893369 129.039
10.47760214443012 159.286
10.499994797678786 199.655
10.522405320453982 266.598
10.54479877906917 375.93300000000005
10.567210109595656 505.374
10.5896218454736 587.761
10.612016518879773 548.408
10.634429067781074 379.235
10.656824555333241 223.49
10.679237920773568 141.154
10.701651695961992 105.083
10.724048411481384 93.5443
10.746463008485165 86.9047
10.768860546937125 82.7315
10.791275969274796 80.1476
10.81369180576079 78.9162
10.836090585366925 77.6885
10.858507252467449 76.3529
10.88090686379991 75.4334
10.903324365036394 74.3319
10.925724811614439 73.1789
10.948143150509463 73.207
10.970561909719066 72.4348
10.992963615930844 71.3501
11.015383218085756 70.3815
11.037785768347074 69.4838
11.06020621697282 69.3927
11.082627090322113 68.7708
11.105030913430326 68.2128
11.12745263854165 67.5044
11.149857314510728 66.9079
11.172279894912576 67.6314
11.194702904450653 67.332
11.217108866490921 66.0375
11.239532736615194 65.4145
11.26193956033512 65.3239
11.284364294577085 64.7608
11.306789462371718 63.8885
11.329197585398376 63.6087
11.351623622610898 63.7234
11.37403261614354 62.7622
11.396459526308487 62.5782
11.418869393879497 62.6402
11.441297180532617 62.156000000000006
11.463725406927658 61.766000000000005
11.486136592353875 61.6187
11.508565700543707 60.7921
11.530977768845315 61.06100000000001
11.553407762368774 60.8435
11.575838200059769 61.0916
11.598251599479612 60.6797
11.620682927815501 60.4495
11.64309721895548 60.4529
11.665529441478206 60.1157
11.687962112597958 59.8961
11.710377748130886 59.9281
11.732811318753434 59.7925
11.755227854859067 60.1146
11.777662328529495 59.4322
11.800079768750786 59.7096
11.822515149015453 59.4267
11.844950984084935 59.9519
11.867369787303163 59.9134
11.889806534289491 60.2545
11.912226250487029 62.2279
11.934663912939751 65.8849
11.9571020346363 69.2215
11.979523127133968 69.5072
12.001962169624331 67.2051
12.024384183972964 64.2931
12.046824150809913 64.6973
12.069264581333726 69.5113
12.091687985297767 76.38
12.11412934550045 85.4161
12.136553680195208 98.4405
12.158995973632788 118.43799999999999
12.181438735204349 147.159
12.20386447284199 178.455
12.226308172985636 207.149
12.24873485024193 214.183
12.271179492516982 180.033
12.293607112949127 133.28799999999998
12.316052700916226 96.7728
12.338498763250042 73.4122
12.360927805303868 64.5249
12.383374818673879 61.7432
12.405804812803074 60.9455
12.428252780773262 60.8408
12.45070122756722 61.0201
12.473132656675375 60.8665
12.49558206341869 61.4121
12.518014453510101 61.3679
12.540464823770117 61.2787
12.562915677315177 61.3819
12.58534951575545 61.9232
12.607801338171472 61.6829
12.630236146511358 62.4514
12.652688941369085 63.6344
12.675124723177234 64.1552
12.697578494048786 64.1948
12.720032754458185 64.1611
12.742470003354093 63.8749
12.764925245138771 64.5217
12.787363476431278 64.6228
12.809819703166806 65.0657
12.83227642391173 65.65100000000001
12.854716135692716 66.3401
12.877173846755147 67.4005
12.899614549869717 67.5765
12.9220732548287 68.5918
12.94453245827299 68.965
12.966974655289818 69.8457
12.989434858002571 70.7781
13.011878055298721 71.5015
13.034339260862497 72.497
13.056800969391883 74.0711
13.079245674017244 76.7741
13.101708390774869 78.304
13.12415410463411 82.6727
13.146617833206086 92.3957
13.169064559883248 107.225
13.191529303857127 124.289
13.213994557076367 146.142
13.236442809902437 177.988
13.258909083908291 226.49599999999998
13.28135835851934 289.336
13.30382565690295 362.949
13.326293469022952 428.014
13.348744283242008 440.949
13.371213125129904 378.023
13.39366497011003 278.235
13.416134845360597 183.747
13.438605238843131 126.795
13.46105863690397 102.249
13.483530069144786 98.573
13.505984506951902 106.31700000000001
13.528456981549432 119.07700000000001
13.550929978879088 134.471
13.573385983253365 154.958
13.595860028340867 187.092
13.618317081455832 235.39
13.64079217790333 293.538
13.663250283359057 354.69699999999995
13.685726434770173 390.181
13.708203115221277 361.463
13.730662806148091 288.249
13.75314054697177 205.713
13.775601299246777 138.16
13.798080104050406 100.225
13.820559442405358 84.4775
13.843021793671388 79.3259
13.865502201420897 77.3085
13.887965623051947 76.8957
13.910447103807167 75.7001
13.932929122629764 74.5692
13.955394156785959 74.1896
13.977877254034569 73.3931
14.000343367582113 72.1945
14.022827546871707 71.4618
14.045294743423524 71.0911
14.06778000837062 70.5867
14.090265817715476 70.8291
14.112734645763819 71.8636
14.13522154619454 73.86
14.157691466286913 75.9515
14.180179461423874 76.1084
14.202668005486178 73.929
14.22513957064374 70.8213
14.247629214846473 68.7609
14.270101881097517 67.8639
14.29259262906496 67.3921
14.315083930490205 67.3411
14.337558255389705 67.17699999999999
14.360050666019726 67.0225
14.382526101071944 66.8309
14.405019624534942 66.567
14.427513705993134 66.3097
14.449990813291825 66.436
14.47248601302899 66.2638
14.49496423954951 66.2216
14.517460561197822 66.3492
14.539939910570322 65.8004
14.562437357763558 65.9437
14.58493536931253 66.3781
14.607416409993311 66.5004
14.62991555254159 67.0733
14.652397725157423 66.9501
14.674898002342799 67.0967
14.697398848433282 67.3487
14.719882725991326 68.3171
14.74238471217934 68.6033
14.764869730765593 70.3868
14.787372860692983 74.0826
14.809876564079925 80.7213
14.83236330125751 88.098
14.854868153850365 96.7913
14.877356041159485 108.71
14.899862046604186 124.464
14.922351087688757 146.923
14.944858249632887 177.737
14.967365991421232 207.69
14.989856770231246 226.378
15.012365673994204 227.88400000000001
15.03485761569738 199.917
15.05736768508665 160.47899999999998
15.07987833888692 121.88
15.102372032001655 93.3731
15.124883856909658 77.012
15.14737872204565 70.6193
15.169891721717274 68.5718
15.192405310371893 67.7818
15.214901940621196 67.0605
15.237416709527137 66.4887
15.259914520936249 66.2917
15.282430473753607 65.5752
15.304947020131227 65.0098
15.327446610371178 64.6936
15.349964346154254 64.2631
15.372465126703139 64.2869
15.394984055556009 63.9787
15.417486030076159 64.0945
15.44000615566487 63.714
15.462526881230803 63.4301
15.485030653812652 63.2714
15.507552581617434 63.1572
15.530057557334603 63.4234
15.55258069104857 63.4271
15.575104429329837 63.5948
15.597611216864632 62.9967
15.620136166564563 63.3166
15.6426441664095 63.7616
15.665170331202765 64.8794
15.687697105158826 68.32300000000001
15.710206930593545 73.3061
15.732734925158933 78.9384
15.755245972089478 85.6706
15.77777519094324 93.4578
15.800287463046663 104.685
15.822817909869592 121.441
15.84534897229804 142.707
15.867863089299354 168.50599999999997
15.890395385222186 189.665
15.912910736597423 200.66099999999997
15.935444269699861 191.108
15.957978423016485 167.08700000000002
15.980495633101265 132.196
16.003031029129367 102.625
16.02554948280019 81.0257
16.048086125229432 69.2862
16.070623392487107 64.8631
16.09314371869582 62.9267
16.11568223789321 61.2075
16.13820381691126 59.7023
16.160743591742527 58.776
16.183283996022084 58.1942
16.205807461423195 57.2592
16.228349126881973 56.7868
16.25087385432698 56.8365
16.27341678466365 56.208999999999996
16.29594277784926 55.9248
16.31848697676433 55.4047
16.341031811604868 54.9723
16.36355971058487 54.9656
16.3861058195587 54.9079
16.40863499352978 54.3732
16.431182380342005 54.2465
16.453730407713202 53.9779
16.476261501364792 53.5052
16.498810812136167 53.3054
16.52134319004079 53.5094
16.54389378792203 53.4142
16.566445031001553 53.306999999999995
16.588979342490088 53.0342
16.61153187824822 52.8239
16.634067483263312 52.6935
16.656621315414416 52.681999999999995
16.679175797408888 52.3514
16.701713349928728 52.4066
16.72426913389191 52.7261
16.74680798922351 52.693999999999996
16.76936507887444 52.5654
16.791905240734874 52.3806
16.814463639794468 52.5338
16.837022695210294 52.7159
16.859564824093756 52.9641
16.882125194503903 53.0635
16.904668639217885 53.5646
16.927230328348003 53.8643
16.949792678493612 54.1957
16.972338104193863 54.2127
16.994901778652235 53.9365
17.017448529496576 53.7337
17.040013531998152 53.8243
17.06257920018044 54.0123
17.0851279459922 54.70399999999999
17.107694947817667 55.7447
17.130245028099072 56.8345
17.15281336730298 58.1316
17.17536478578733 59.9849
17.19793446610687 62.0912
17.220504818648422 64.4707
17.243058251703697 67.7032
17.265629950971032 72.1373
17.288184731571736 77.2833
17.310757781306908 81.7444
17.33333150794385 82.6013
17.355888317140174 82.6232
17.37846339986244 78.4074
17.401021565958885 71.5366
17.42359800851343 65.3577
17.44617513265564 61.31399999999999
17.468735341390783 58.715
17.491261035594565 57.402
17.51396340099364 57.0151
17.536490463869136 57.0048
17.559018209820174 57.0557
17.58154663977963 57.2099
17.604251766089718 57.3291
17.626781572227713 57.4141
17.64931206518155 57.6221
17.671843245885103 58.0027
17.69455114821572 58.1468
17.717083712612634 58.4661
17.739616967569667 59.0664
17.762150914021706 59.8054
17.78486160749854 60.0654
17.807396945166804 60.8652
17.829932977143503 61.118
17.85246970436452 61.7239
17.875183204129467 63.5281
17.897721330097664 66.3545
17.920260154126645 69.4548
17.942799677153296 72.7432
17.9655159983646 76.6297
17.988056927677544 81.3354
18.010598558807683 88.1711
18.033140892692916 97.1102
18.05586005052525 108.60700000000001
18.07840379824407 120.975
18.10094825154059 132.453
18.12366954819864 142.062
18.146215420998306 143.658
18.16876200220057 136.884
18.191309292745153 122.598
18.214033452627167 108.088
18.236582170236648 95.0645
18.259131600016456 87.7984
18.281681742907335 85.3505
18.304408781233683 88.5306
18.32696035875955 94.0043
18.349512652227624 98.9619
18.372065662579683 104.664
18.394795594587553 106.831
18.41735004715306 104.03
18.43990521943684 97.8926
18.46246111238171 89.01
18.485193953325208 78.8401
18.507751296070428 70.8768
18.530309362314178 65.5331
18.552868153000343 62.7573
18.57560391815056 61.2314
18.59816416623245 60.7596
18.620725141597372 59.881
18.643286845190268 59.2703
18.666025549835414 58.7159
18.688588718427933 58.0141
18.711152618092243 58.0651
18.73389353884365 57.6088
18.75645890921984 57.3438
18.77902501351406 56.9878
18.801591852673102 56.9176
18.824335739722738 56.6418
18.846904057212626 56.308
18.8694731124168 55.8979
18.89204290628315 56.0473
18.914789774966803 55.6359
18.937361054791623 55.4959
18.959933076131318 55.3196
18.982505839934877 55.2011
19.00525570560582 55.2755
19.027829963004184 54.9136
19.05040496572238 54.8958
19.072980714710468 54.9049
19.095733592739563 55.0143
19.11831084296757 55.1519
19.140888842324735 55.7516
19.16346759176222 56.3025
19.18622349753803 56.833
19.208803755869358 57.8723
19.231384767143577 59.023999999999994
19.253966532312948 60.4289
19.276725481241822 62.4398
19.29930876296784 65.3889
19.3218928014549 68.9498
19.34465404436217 71.8518
19.36723960516257 74.6254
19.389825925592426 76.0122
19.412413006605938 75.1044
19.43517731967805 72.2093
19.457765930683355 67.73899999999999
19.48035530514408 62.9923
19.50294544401556 59.1315
19.525712842708348 55.9182
19.54830451925909 54.1883
19.570896963095727 52.907
19.593490175174704 52.2985
19.616260674962184 52.3779
19.638855432416964 51.9573
19.661450960992624 52.0396
19.68404726164677 51.8694
19.706820878021247 51.6425
19.729418731756834 51.9479
19.752017360452857 51.6136
19.77461676506804 51.8925
19.797393513540218 51.8728
19.819994478951667 51.9697
19.84259622316767 52.6612
19.8651987471481 53.0129
19.887978643247177 53.5228
19.91058273574792 54.1428
19.933187610901943 54.8314
19.955969879466828 55.8513
19.97857632894404 57.3207
20.00118356396599 58.7668
20.023791585494575 60.8606
20.046577028914875 63.7695
20.069186632506966 66.3995
20.091797025500632 68.7064
20.114408208858933 70.1479
20.137196842715273 70.3214
20.159809615886765 68.6965
20.18242318232135 66.169
20.20503754298326 63.843999999999994
20.227829382875154 62.1183
20.250445341109344 61.42
20.27306209647285 61.9443
20.29567964993108 63.4443
20.31847471147704 64.3803
20.34109387027612 65.345
20.363713830075454 65.4173
20.386334591841646 63.8064
20.409132890679302 61.1583
20.431755265564437 58.0866
20.454378445325528 55.0034
20.477002430930366 52.6665
20.499803982716553 50.9145
20.522429589228004 49.9872
20.54505600449589 49.3694
20.567683229489194 49.2436
20.590488049900088 48.9439
20.61311690359731 48.6973
20.63574656993626 48.4801
20.658553853717297 48.2569
20.681185154618298 48.2114
20.703817271080066 48.1684
20.72645020407368 47.9156
20.749260783967177 47.8725
20.771895359337133 47.9604
20.794530754161617 47.9093
20.817166969412938 48.0079
20.83998086114876 47.7194
20.86261872660049 47.4815
20.885257415405402 47.4052
20.90789692853701 47.2611
20.930714147864748 47.1757
20.953355319030678 47.1383
20.97599731745334 47.3082
20.99864014410749 47.1224
21.021460706796564 47.1064
21.044105199328826 47.3352
21.06675052302631 47.7037
21.089396678865015 47.7938
21.112220600704806 48.0851
21.134868430275347 48.3721
21.15751709492456 48.5522
21.180166595629693 48.7662
21.202993892429635 49.4787
21.22564507473034 49.9243
21.24829709602816 50.2761
21.27112693608965 50.5101
21.293780644891275 50.6194
21.316435195634053 49.8592
21.339090589297417 49.0713
21.361923832041875 48.6216
21.384580921090404 47.7772
21.407238856007325 47.3344
21.429897637773326 47.2545
21.45273429906592 47.0913
21.475394784108598 47.1319
21.498056118951983 47.2738
21.520718304578022 47.3097
21.543558400304388 47.4057
21.566222297108816 47.4057
21.58888704765135 47.2404
21.61155265291521 47.5781
21.63439619898156 48.2072
21.657063523335786 48.6137
21.67973170537063 49.2307
21.7024007460706 49.8001
21.72524775840385 50.6633
21.747918526116475 51.6128
21.770590155457388 52.4706
21.79326264741238 53.9697
21.816113141960237 55.7507
21.838787368860547 57.7931
21.861462461341976 60.1343
21.884315579735777 62.6327
21.90699241312273 64.5309
21.92967011506078 65.1302
21.95234868653799 65.1145
21.9752053151131 63.8411
21.997885635446785 61.8265
22.020566828293532 59.6778
22.04324889464272 57.6083
22.066109049404666 56.0893
22.088792872571794 55.7029
22.111477572219204 55.6115
22.1341631493376 55.9834
22.157026846313123 56.0129
22.179714188221507 55.2733
22.202402410582668 54.1621
22.22509151438863 52.618
22.24795876962584 50.9922
22.270649646204486 49.7704
22.293341407213727 49.0844
22.316034053646906 48.2759
22.338904883215342 47.938
22.36159931041458 47.8921
22.38429462602756 47.6478
22.40699083104897 47.2806
22.429865251039757 47.2532
22.452563244831367 47.4555
22.47526213102522 47.4515
22.49813925616515 47.4371
22.520839937143307 47.1968
22.543541513520587 47.3477
22.56624398629403 47.3047
22.589124730075895 47.2081
22.611829005656723 47.3951
22.63453418063466 47.2546
22.657240256008077 47.5763
22.680124634582935 47.736999999999995
22.70283252079775 48.0981
22.725541310413075 48.56
22.74825100442868 48.9046
22.771139033969575 49.3223
22.79385054687155 49.6422
22.81656296718292 50.2302
22.83927629590484 50.9006
22.862167992606945 51.9468
22.88488314827121 53.1851
22.907599215359284 54.4643
22.93031619487366 55.7006
22.953211574954405 56.7596
22.975930389478226 57.4865
22.998650119445763 57.8604
23.02137076586092 57.3638
23.044269845560063 56.1461
23.06699233506288 54.5137
23.089715744034912 52.6256
23.112617610931565 50.8643
23.135342869061212 49.4878
23.158069049684816 48.4908
23.1807961538087 47.8866
23.20370174880544 47.763000000000005
23.226430710184808 47.7435
23.249160598093425 47.5807
23.271891413539002 47.6351
23.294800752937697 47.7203
23.31753343374794 48.2135
23.340267045128353 48.3869
23.36300158808808 48.842
23.38591468821339 49.1517
23.408651104658304 49.7253
23.431388455719986 50.1116
23.454126742409 50.9097
23.4770436196085 51.9153
23.499783787914662 53.2529
23.522524894889884 54.375
23.54526694154616 55.6632
23.56818761219047 57.1326
23.59093154860734 57.8055
23.613676427751283 58.1961
23.636422250635754 57.6448
23.659346731118656 56.207
23.68209445191868 54.1868
23.704843119509587 51.924
23.72759273490623 49.8249
23.750521041644767 48.0039
23.77327256312355 46.8067
23.796025035462787 45.8706
23.818956224555475 45.2874
23.841710609113413 44.8782
23.86446594758979 44.7854
23.887222241002014 44.6518
23.910157285144578 44.1787
23.932915498962537 44.1803
23.955674670778713 44.1225
23.978434801611975 43.9344
24.001373717286125 43.795
24.024135776723917 43.6216
24.046898798245582 43.4437
24.06966278287146 43.3791
24.092605586582614 43.2447
24.115371508023642 43.0979
24.1381383956401 42.8109
24.16090625045381 42.9186
24.183852958731244 42.7722
24.206622758582608 42.7268
24.229393528706886 42.4787
24.252165270127392 42.5125
24.27511589952438 42.4575
24.297889594216997 42.2559
24.32066426328598 42.1479
24.34343990775613 42.1457
24.36639447485003 42.1002
24.38917208083877 42.0541
24.41195066531332 42.0181
24.43490819850244 42.0222
24.457688750692377 41.9449
24.48047028445616 41.8248
24.503252800821233 41.8916
24.526214300784112 42.1427
24.548998793132213 42.026
24.57178427117417 41.93600000000001
24.59457073593893 42.0493
24.617536219319863 41.9644
24.64032466834748 42.0687
24.663114107195035 41.8795
24.685904536893013 41.6954
24.708874020360852 41.5446
24.731666442613744 41.4294
24.754459858818787 41.4316
24.777254270007962 41.3651
24.80022777025625 41.1787
24.82302418230472 41.1819
24.845821592443674 41.1542
24.86862000170663 41.1595
24.891597535453727 41.0325
24.914397953892728 41.3741
24.93719937456671 41.3332
24.96000179851076 41.3365
24.98298338249997 41.4373
25.00578782394922 41.7078
25.028593271784167 41.9808
25.05157790644186 42.3046
25.07438537804115 42.4285
25.097193859145293 42.76
25.120003350792075 43.0869
25.142992065061257 43.4636
25.165803588823465 43.7716
25.18861612625217 43.9171
25.211429678386736 44.0945
25.234422489079968 44.1425
25.257238081693636 44.3521
25.280054692141732 44.3333
25.3028723214652 44.3402
25.325869245420463 44.4513
25.348688923599397 44.5104
25.371509623787006 44.4497
25.394331347025812 44.1885
25.41733240110666 43.7436
25.440156181590016 43.0537
25.46298098826268 42.4886
25.48580682216873 41.9076
25.50881202326435 41.1062
25.53163992281684 40.6907
25.55446885274561 40.3253
25.577298814096377 40.0231
25.600308179121807 39.9276
25.623140214533745 40.0407
25.64597328451537 39.7771
25.66898578564376 39.71
25.691820936010206 39.5834
25.714657124097695 39.6412
25.737494350954734 39.6419
25.760511045684957 39.5018
25.783350361364224 39.6966
25.806190718969255 39.5973
25.82903211955018 39.727
25.852053024868923 39.8383
25.874896522722523 39.8109
25.897741066713106 39.714
25.920586657892454 39.8982
25.943611790812668 40.077
25.966459487728237 40.195
25.989308234998564 40.1978
26.01215803367705 40.53
26.03518741123814 40.6302
26.05803932412957 40.8133
26.080892291600094 40.9258
26.10374631470478 40.963
26.12677995397268 41.1351
26.14963609978026 41.2259
26.172493304397875 40.81
26.19535156888223 40.6355
26.218389486949604 40.2296
26.241249882640123 39.9574
26.26411134137826 39.6232
26.28715248187403 39.5433
26.31001607820869 39.2256
26.3328807407756 39.1601
26.35574647063438 39.2518
26.37879191991473 39.3505
26.401659795896734 39.2496
26.424528742360263 39.4935
26.447398760366614 39.7094
26.470448535598294 39.788000000000004
26.49332070826805 39.949
26.516193955675355 40.3034
26.53906827888316 40.397
26.562122397260108 40.6333
26.584998883685063 41.1601
26.607876449110325 41.4378
26.63075509460056 41.605
26.65381357334404 41.7328
26.67669439061878 41.8521
26.699576291163382 41.8591
26.722459276044212 41.6485
26.745522132402975 41.3468
26.768407297649354 41.0654
26.791293550442003 40.6836
26.814180891848974 40.4359
26.837248143099337 40.1386
26.860137673466657 39.8869
26.88302829566349 39.709
26.90592001075963 39.611999999999995
26.92899167420566 39.3308
26.951885586870763 39.0422
26.974780595655517 38.8547
26.99785558178161 38.7955
27.020752794605112 38.3964
27.043651106772522 38.1675
27.06655051935668 38.1315
27.089629948036183 37.9498
27.112531573292053 38.0371
27.135434302194138 38.0044
27.158338135817015 37.8098
27.181422024430987 37.8793
27.204328079372566 37.8507
27.22723524226965 37.8052
27.250143514198573 37.8445
27.273231880156334 37.8012
27.296142382065014 37.6838
27.319053996245536 37.6571
27.341966723775965 37.6046
27.365059584515222 37.7076
27.38797455070062 37.7656
27.410890633481237 37.6125
27.433807833936918 37.6669
27.456905206923906 37.8438
27.47982465472398 37.8323
27.502745223449743 38.0326
27.525666914182825 38.0114
27.548768816912457 37.9984
27.571692763693633 37.8438
27.59461783573812 37.7956
27.617723149491244 37.7073
27.640650484125285 37.4746
27.66357894728264 37.3833
27.686508540048052 37.364000000000004
27.709618414237887 37.3277
27.732550278321757 37.1839
27.755483275279115 37.1924
27.778417406196485 37.2136
27.801531858397514 37.2257
27.824468269376716 37.0802
27.847405817586786 37.0907
27.870344504116094 37.3205
27.893463551932008 37.4421
27.916404527281053 37.6443
27.93934664422563 37.8221
27.962289903855886 37.9472
27.98541356491974 38.1505
28.00835912214229 38.29
28.03130582533231 38.6039
28.054253675581805 38.7473
28.077381967556104 38.6837
28.100332124185126 38.7745
28.123283431160893 38.6338
28.146235889577238 38.555
28.169368830154156 38.2927
28.192323603752033 38.0455
28.215279532083304 37.9036
28.238415973016764 37.725
28.261374223145094 37.5241
28.284333631303806 37.3003
28.307294198589954 37.1408
28.330435319167677 36.7457
28.353398217078915 36.5136
28.376362277420153 36.2312
28.39932750129032 36.063
28.422473319286713 35.7693
28.44544088262495 35.8618
28.468409612800283 35.5848
28.491379510913497 35.2894
28.51453004413313 35.1767
28.53750229057244 35.2713
28.56047570826344 35.1964
28.583450298308804 35.2141
28.606605564586562 35.0656
28.629582511831156 35.0773
28.65256063474956 34.9514
28.675539934446338 34.8876
28.698699951647605 34.974000000000004
28.72168161743193 34.9361
28.74466446331978 34.8055
28.767648490417624 34.7441
28.790813276438353 34.8123
28.813799678527303 34.7925
28.836787265157085 34.812
28.859955641890075 34.7411
28.882945610203045 34.768
28.905936766392035 34.6387
28.928929111566863 34.6285
28.952102288520145 34.679
28.975097024308607 34.4131
28.998092952423807 34.3243
29.021090073977508 34.3827
29.04426806913204 34.2227
29.067267590245258 33.9739
29.090268308143695 33.9648
29.11327022394099 33.9288
29.13645305530891 33.7782
29.159457379627167 33.7424
29.18246290519685 33.6435
29.20546963313352 33.6495
29.22865731875826 33.6827
29.25166646419296 33.78
29.27467681535305 33.5626
29.29768837335608 33.6811
29.320880931312562 33.6683
29.34389491580634 33.5673
29.366910110507334 33.5855
29.38992651653503 33.718
29.41312396492981 33.6737
29.436142806456754 33.5556
29.45916286268059 33.5212
29.48236399319994 33.4107
29.50538649169417 33.2161
29.528410208259935 33.1492
29.55143514402014 32.9721
29.574641196749695 32.7396
29.597668583816574 32.7191
29.6206971934585 32.4957
29.64372702680042 32.4887
29.666938019934474 32.39
29.689970313635285 32.2354
29.713003834422636 32.2606
29.73603858342347 32.2857
29.759254535188578 32.2699
29.78229175361658 32.1782
29.80533020365064 32.1789
29.82836988641968 32.1699
29.85159081507472 31.9714
29.874632976355343 31.9915
29.89767637376955 32.1898
29.920721008448314 31.9779
29.9439469322847 31.9904
29.96699405457564 31.9028
29.9900424175358 32.0293
30.013092022298157 31.8741
30.03632295963995 31.8218
30.059375061131373 31.9145
30.08242840783577 31.884
30.105483000888153 31.8648
30.128718970092244 31.7709
30.151776069006917 31.7153
30.17483441768648 31.8128
30.198074175317235 31.7718
30.221135036724256 31.8216
30.24419715131772 31.8277
30.267260520236203 31.6923
30.290505341942243 31.8124
30.313571232750228 31.7707
30.336638381310948 31.7533
30.35970678876503 31.709
30.38295669299435 31.6579
30.40602763151657 31.5856
30.429099832366074 31.6525
30.452173296685572 31.4779
30.47542830191959 31.4673
30.498504306502497 31.3406
30.521581577995562 31.5075
30.544660117543582 31.5485
30.56792024229725 31.6164
30.59100133132069 31.6186
30.614083691845494 31.5802
30.637167325018545 31.7024
30.660432587840603 31.7244
30.683518779717886 31.6896
30.70660624769615 31.7745
30.729694992924372 31.7918
30.75296541239743 31.839000000000002
30.77605672557558 31.7311
30.799149319462742 31.7015
30.8224236211637 31.6397
30.845518789950724 31.5542
30.868615242910597 31.4368
30.891712981195973 31.1777
30.91499247215866 31.1268
30.938092794619365 31.0089
30.96119440587579 30.9709
30.984297307082752 30.8537
31.00758200598383 30.7345
31.030687500658694 30.6967
31.053794288760695 30.6729
31.076902371446767 30.5102
31.100192296997445 30.6697
31.12330298246119 30.5908
31.14641496599209 30.4495
31.169528248749216 30.4132
31.19282341969534 30.4477
31.215939314557186 30.3855
31.239056512134788 30.4836
31.262175013589378 30.3194
31.28547544871168 30.2675
31.30859657161541 30.2284
31.331719001892175 30.3278
31.35484274070538 30.4379
31.378148458819545 30.3823
31.401274828443725 30.3302
31.424402510106933 30.283
31.447712205419993 30.4201
31.470842524931633 30.4667
31.493974159989783 30.3995
31.51710711176168 30.3018
31.54042212308802 30.3187
31.563557722100917 30.3153
31.586694641341655 30.1234
31.609832881979628 30.0989
31.63315322823208 30.0204
31.656294125521327 29.8726
31.679436347728515 29.8249
31.70257989602529 29.7221
31.725905596152327 29.6803
31.74905181052835 29.6359
31.772199354521323 29.6505
31.79534822930507 29.6514
31.818679302290967 29.6628
31.84183085259981 29.6598
31.864983737233473 29.6113
31.88813795736804 29.6665
31.911474422233013 29.601
31.934631327356435 29.7269
31.9577895715215 29.6716
31.980949155906522 29.6893
32.004291031706956 29.4762
32.027453310562606 29.4102
32.05061693318573 29.3178
32.07396288236386 29.3662
32.09712920658542 29.3309
32.12029687812702 29.2274
32.14346589817093 29.0817
32.166817291729984 29.0169
32.18998902288583 29.0598
32.21316210610336 28.9783
32.23633654256711 28.7865
32.259693399663725 28.7011
32.282870556771144 28.6566
32.30604907069099 28.7101
32.329228942610065 28.6666
32.35259128243769 28.5303
32.375773884550505 28.4683
32.398957848235646 28.4306
32.422143174682176 28.3296
32.445511016471215 28.284000000000002
32.468699082679954 28.2689
32.49188851523011 28.1178
32.51507931531304 28.079
32.538452678331 28.1576
32.56164622776311 28.0272
32.58484114831493 27.8668
32.60803744118015 28.0039
32.631416344731896 27.9613
32.654615396551876 27.9713
32.67781582427913 27.916999999999998
32.701198898634416 27.7531
32.72440209253756 27.7901
32.747606665947124 27.7507
32.77081262006088 27.6629
32.79420126883317 27.7272
32.81740999876112 27.6145
32.840620112999424 27.5113
32.86383161274818 27.4845
32.88722585534586 27.5301
32.91044014056596 27.5832
32.933655814909734 27.5401
32.95687287957963 27.4999
32.98027273544904 27.4116
33.00349259526636 27.4124
33.026713849030116 27.4423
33.04993649794511 27.41
33.073341986570746 27.3712
33.09656744032826 27.4291
33.11979429286444 27.3396
33.14302254538647 27.3857
33.166433686291185 27.3049
33.18966475336992 27.2405
33.212897224069096 27.195
33.23613109959831 27.1288
33.259547912343415 27.1268
33.2827846121627 27.1938
33.306022720453775 27.098000000000003
33.32926223842861 26.9815
33.352684742614166 27.0149
33.37592709463173 26.9444
33.399170859982064 26.8627
33.422597648419426 26.8068
33.44584425514446 26.6099
33.46909227885668 26.5974
33.4923417207723 26.4686
33.51577423505344 26.5812
33.539026528130385 26.4832
33.56228024307245 26.5141
33.585535381098246 26.2766
33.60897364093058 26.284000000000002
33.63223163992385 26.3543
33.6554910656699 26.3364
33.678751919389796 26.1534
33.702195944520106 26.0572
33.72545966903325 26.1491
33.74872482519663 26.0993
33.771991414233746 26.0918
33.79544122444841 25.9151
33.81871069412428 25.9061
33.84198160035767 25.9307
33.86525394437455 26.0305
33.88870955949969 25.8794
33.911984794020626 25.853
33.93526147001624 25.8491
33.958539588715006 25.7423
33.98200102861669 25.635
34.0052820477047 25.6359
34.02856451319451 25.6029
34.05203033759056 25.473000000000003
34.07531571090147 25.5319
34.09860253431845 25.5028
34.121890809074316 25.4453
34.145362493118924 25.5182
34.16865368561615 25.3228
34.191946333164054 25.3584
34.21524043699793 25.2866
34.23871800066799 25.1765
34.26201503218366 25.1455
34.28531352370466 25.1871
34.30861347646881 25.1607
34.33209693978188 25.1186
34.3553998301885 25.0595
34.378704185565205 24.9603
34.402010007152356 24.9103
34.42549939016683 24.9646
34.44880815937748 24.7567
34.472118398533134 24.7935
34.49543010887669 24.7845
34.51892543169198 24.6075
34.54224009966052 24.6365
34.56555624255917 24.6866
34.58887386163339 24.596
34.61237514439016 24.5352
34.6356957311114 24.4123
34.65901779775809 24.4893
34.68252356662995 24.4896
34.705848608458616 24.4753
34.72917513396849 24.3112
34.75250314440949 24.4035
34.77601490857862 24.2683
34.799345904259795 24.2296
34.82267838863559 24.2182
34.846012362958525 24.2584
34.869530142679984 24.1876
34.89286711232212 24.1229
34.91620557568269 24.1676
34.93954553401677 24.1382
34.9630693495876 24.0626
34.986412313340814 23.9991
35.00975677584668 24.0547
35.033102738362956 23.9702
35.05663261012228 23.9207
35.0799815881786 23.9173
35.10333207003229 23.814
35.12668405694369 23.8255
35.150220005273056 23.7754
35.17357501786656 23.8563
35.19693153931268 23.8259
35.220289570874385 23.7073
35.24383161619786 23.6568
35.267192683604904 23.6596
35.290555264930376 23.6623
35.314101899412165 23.6132
35.33746752422433 23.6078
35.36083466676374 23.5974
35.38420332829803 23.5316
35.407756095629054 23.5992
35.43112781085063 23.5853
35.45450104888391 23.5464
35.477875810999194 23.6032
35.50143473172161 23.5166
35.52481255774625 23.4945
35.54819191167777 23.4575
35.57157279478914 23.4919
35.595137889488406 23.3617
35.61852184675279 23.3521
35.641907337029984 23.2453
35.665294361595684 23.3146
35.68886565090076 23.2225
35.7122557598848 23.1354
35.73564740699838 23.1769
35.759040593519934 23.0896
35.78261809810353 23.0113
35.80601437933051 22.9671
35.829412203814705 22.8938
35.85281157283719 22.8578
35.876395313415884 22.8918
35.8997977874528 22.7648
35.92320180988546 22.7381
35.946790244133936 22.7584
35.97019737933222 22.8175
35.993606066789866 22.7117
36.01701630779276 22.6687
36.04061101440684 22.5583
36.06402437852291 22.6538
36.08743930005611 22.581
36.1108557802951 22.5265
36.13445678011326 22.5172
36.15787639383515 22.5263
36.18129757014299 22.4315
36.20472031032821 22.3756
36.22832762423364 22.326
36.25175350829375 22.2709
36.275180960119776 22.2692
36.298609981005924 22.3064
36.32222362992669 22.2729
36.34565580510207 22.3227
36.36908955323448 22.1957
36.39252487562093 22.0249
36.416144880530226 22.1166
36.43958336764275 22.0093
36.463023432914625 22.0986
36.486465077645676 21.9492
36.51009145956204 22.0027
36.53353627947859 21.9688
36.55698268276811 22.0204
36.58043067073321 21.9451
36.60406345072071 21.7706
36.62751462435344 21.7885
36.65096738658405 21.8257
36.67460498210655 21.763
36.69806093788647 21.7995
36.72151848619297 21.6442
36.744977628333636 21.6527
36.76862165890998 21.6218
36.79208400512205 21.6161
36.81554794910557 21.5171
36.83901349217101 21.4991
36.862663978991606 21.5096
36.88613273667352 21.4667
36.90960309738324 21.5097
36.933075062434064 21.3395
36.95673202673572 21.3083
36.98020721697122 21.301
37.003684015502365 21.2225
37.027162423645365 21.229
37.050825886711465 21.3039
37.07430753063053 21.1785
37.09779078812467 21.1114
37.121275660513014 21.0975
37.144945643673694 21.0132
37.16843376245278 21.0637
37.19192350009803 21.0493
37.215414857931435 20.9807
37.239091382563885 20.9089
37.262585997426164 20.8996
37.28608223645736 20.9112
37.309763684451696 20.8813
37.33326318851098 20.7899
37.356764320726555 20.7697
37.380267082425526 20.798000000000002
37.40395510942588 20.7393
37.42746114683234 20.6989
37.45096881771841 20.6441
37.474478123414166 20.6821
37.49817275092816 20.6132
37.52168534303452 20.5906
37.54519957395567 20.4885
37.568715445024665 20.4857
37.592416694607714 20.402
37.61593586281424 20.5038
37.63945667518264 20.5026
37.66297913304891 20.3033
37.68668702630454 20.2649
37.710212792059274 20.2309
37.733740207334854 20.2172
37.757269273470364 20.2338
37.780983832050374 20.1176
37.80451621684926 20.1584
37.82805025654007 20.1825
37.851585952464795 20.0586
37.8753071980695 20.0467
37.89884622345676 19.9909
37.92238690911902 19.9566
37.94611318753442 19.9097
37.969657210779765 19.9522
37.99320289834801 19.8661
38.016750251586465 19.8882
38.04048325513017 19.7695
38.06403395679343 19.732
38.087586328183946 19.7615
38.11114037065203 19.6998
38.13488012115898 19.7588
38.1584375229181 19.6779
38.181996599821 19.5901
38.205557353221124 19.5698
38.229303872575656 19.5502
38.2528679961576 19.5386
38.27643380031219 19.5123
38.30000128639589 19.4892
38.32375459653193 19.4623
38.34732546371299 19.4911
38.37089801690786 19.3955
38.39447225747609 19.2762
38.418232380377425 19.305999999999997
38.441810012983396 19.3533
38.46538933705673 19.3138
38.488970353960084 19.3131
38.51273731166058 19.2676
38.536321731567014 19.1348
38.55990784840681 19.0729
38.58367995004091 19.1191
38.60726947812959 19.0515
38.63086070726198 19.0612
38.654453638806274 19.0532
38.678232613930824 18.9454
38.70182896773327 18.979
38.72542702806741 18.9039
38.7490267963045 18.9122
38.77281266709232 18.92
38.79641586862214 18.8597
38.8200207821842 18.7812
38.843627409152944 18.836
38.86742019782782 18.7989
38.891030269149255 18.7499
38.914642058016156 18.7075
38.938255565806124 18.7116
38.96205529464307 18.6712
38.98567225787121 18.6282
39.00929094417078 18.5745
39.03291135492255 18.5739
39.05671804624804 18.5424
39.080341923549106 18.5247
39.103967529460334 18.4375
39.127594865365744 18.4184
39.15140854155791 18.3965
39.17503935514948 18.3656
39.19867190290282 18.3778
39.22249083587951 18.3581
39.24612686969409 18.3178
39.269764641845306 18.2949
39.293404153722804 18.2253
39.317230110864074 18.137
39.34087311998506 18.070999999999998
39.36451787301696 18.1071
39.388164371352595 18.0163
39.41199737518003 18.0297
39.43564738196752 18.0736
39.45929913825317 18.0166
39.48295264543308 17.9652
39.506792718520884 17.8822
39.530449745387216 17.9204
39.55410852735203 17.9117
39.57776906581474 17.9048
39.60161623079 17.8691
39.625280300200025 17.8128
39.64894613032202 17.7654
39.67261372255866 17.7764
39.6964680021016 17.6941
39.72013913657293 17.7796
39.74381203738292 17.6961
39.76748670593756 17.7148
39.79134812278169 17.6892
39.81502634488497 17.6387
39.83870633896685 17.5592
39.862388106436654 17.4911
39.88625668336918 17.5491
39.90994201572829 17.539
39.933629125719285 17.4694
39.957503091207826 17.4076
39.9811937746168 17.4553
40.00488623990914 17.4103
40.02858048850006 17.3674
40.05246165409549 17.2984
40.076159487492085 17.2643
40.099859108448875 17.291
40.123560518384345 17.2536
40.1474489070226 17.2037
40.171153913178564 17.1652
40.194860712584955 17.1393
40.2185693066637 17.1546
40.242464941335314 17.0989
40.26617714307655 17.1233
40.289891143772046 17.0032
40.3136069448471 17.0502
40.33750984859743 17.0078
40.3612292688043 16.9817
40.3849504936829 16.9359
40.40867352466194 16.8782
40.43258372059144 16.8502
40.45631038219906 16.9041
40.48003885420956 16.8905
40.503769138055105 16.7818
40.52768664931955 16.8384
40.55142057531802 16.7866
40.57515631746428 16.7532
40.599079334038514 16.7047
40.62281872700477 16.6785
40.64655994043941 16.7086
40.67030297578061 16.646
40.69423334835778 16.5698
40.71798004609188 16.5928
40.74172857006355 16.5589
40.76547892171441 16.5487
40.7894166736039 16.4992
40.813170699248566 16.4211
40.83692655691388 16.4378
40.86068424804498 16.5097
40.884629402612525 16.4319
40.908390779366385 16.4211
40.932153993938 16.3728
40.95591904777605 16.2945
40.979871628443995 16.2641
41.003640379561936 16.2685
41.02741097430883 16.2324
41.05118341413683 16.2542
41.075143444384416 16.205
41.098919593177826 16.1854
41.1226975914255 16.1523
41.14647744058318 16.0621
41.170444943946755 16.0935
41.19422851378379 16.0471
41.218013938914645 15.9892
41.24198706625173 15.9274
41.26577622087193 15.9816
41.289567235177785 15.9473
41.31336011063129 15.8282
41.337340752422875 15.8607
41.361137369129835 15.8735
41.38493585138705 15.8369
41.40873620066004 15.8176
41.43272438060107 15.7456
41.45652848292052 15.6646
41.48033445666918 15.6943
41.50414230331616 15.7068
41.528138045159764 15.6352
41.551949656675205 15.5959
41.575763145513235 15.633
41.59957851314666 15.6051
41.62358184070442 15.5948
41.64740098505737 15.5204
41.6712220126409 15.5228
41.69504492493139 15.5084
41.71905586207357 15.4191
41.74288256296395 15.4122
41.766711153007456 15.4249
41.79054163368412 15.3748
41.814560204340054 15.380999999999998
41.838394485526365 15.3511
41.86223066180303 15.3152
41.88625497706819 15.2981
41.910094962812 15.2905
41.93393684811168 15.209000000000001
41.95778063445365 15.1938
41.981812625263366 15.1788
42.00566023303407 15.1796
42.029509746323676 15.1453
42.05336116662236 15.0741
42.077400857069705 15.1305
42.10125611078846 15.1116
42.12511327600405 15.0708
42.14897235421036 14.9981
42.173019768448455 14.9776
42.19688269209613 14.9778
42.22074753323349 14.9406
42.24461429335818 14.8795
42.268669455600495 14.8548
42.292540073217886 14.8577
42.31641261433284 14.8099
42.34028708044675 14.8268
42.36435001496739 14.8331
42.38822835065557 14.767999999999999
42.41210861586426 14.7166
42.4359908120986 14.7099
42.46006154323262 14.6479
42.48394762115317 14.6545
42.507835634632315 14.6594
42.531912233047436 14.6176
42.55580413732265 14.6044
42.579697981698 14.5409
42.60359376768525 14.5172
42.62767820545945 14.4899
42.65157789440821 14.5294
42.67547952952185 14.4297
42.699383112316 14.4215
42.72347541395347 14.369000000000002
42.74738291190531 14.3678
42.771292362102166 14.3492
42.795203766063516 14.3168
42.819303956130405 14.2712
42.843219287476536 14.2423
42.86713657716324 14.2684
42.89105582671383 14.2571
42.91516392983864 14.2622
42.939087119032166 14.2246
42.963012272677304 14.1716
42.98693939230129 14.1424
43.01105543317513 14.1461
43.034986504731386 14.1296
43.05891954686589 14.075
43.08285456110972 14.0915
43.10697856448665 14.0307
43.130917542983475 13.9158
43.15485849820081 14.0104
43.17880143167367 13.9496
43.20293342237094 13.8837
43.226880332449 13.8942
43.25082922540554 13.866
43.27496722682525 13.8079
43.29892010567796 13.8248
43.32287497204102 13.8404
43.34683182745632 13.7583
43.370977859791836 13.6765
43.39493871351105 13.7495
43.41890156092628 13.7711
43.44286640358341 13.7179
43.46702049182749 13.6967
43.49098934522816 13.6175
43.51496019852649 13.5836
43.5389330532723 13.6533
43.56309522248204 13.5661
43.58707210044314 13.5409
43.61105098451946 13.4691
43.63503187626491 13.5048
43.659202151562134 13.4061
43.68318707902681 13.5019
43.70717401884041 13.4299
43.731162972560874 13.4036
43.75534137913236 13.3728
43.779334381108384 13.3235
43.803329401683186 13.3519
43.82732644241872 13.3484
43.8515130055166 13.2626
43.87551410707659 13.2465
43.89951723350145 13.2725
43.923709934595614 13.2288
43.94771713129917 13.2081
43.97172635758096 13.2604
43.99573761501002 13.1844
44.0199385169922 13.1515
44.04395385732619 13.0853
44.067971233533086 13.0621
44.09199064718605 13.0202
44.11619977548961 13.0049
44.14022328470671 12.9684
44.16424883610785 12.9962
44.18827643127035 12.9452
44.21249381139513 12.9406
44.236525514814076 12.8975
44.26055926674478 12.8467
44.28459506876863 12.937000000000001
44.3088207262813 12.8134
44.33286064928722 12.7929
44.35690262714919 12.8211
44.38094666145278 12.7602
44.4051806219871 12.8
44.42922879003185 12.7502
44.45327901929361 12.7083
44.477331311362136 12.6609
44.501573600619416 12.6778
44.525630039221795 12.632
44.54968854541895 12.6736
44.573937102200176 12.6157
44.5979997645541 12.5731
44.622064499300315 12.5425
44.64613130803592 12.5122
44.67038823869318 12.5533
44.69445921643748 12.4965
44.718532272981385 12.4674
44.742607409926194 12.4313
44.76687274034801 12.4392
44.79095205918753 12.3682
44.81503346325094 12.3449
44.839116954143876 12.3705
44.86339071028742 12.3797
44.88747839599524 12.3286
44.91156817336837 12.3175
44.93566004401666 12.2987
44.959942251908146 12.2643
44.984038330325966 12.2501
45.00813650686762 12.1971
45.03223678314731 12.1924
45.05652746888232 12.1385
45.08063196592069 12.1332
45.104738567558705 12.1222
45.128847275414856 12.0725
45.15314646515866 12.0221
45.17725940679741 12.0462
45.20137445952892 12.042
45.22568004865265 11.9954
45.24979934496396 11.9977
45.27392075725247 11.9993
45.29804428714431 11.9696
45.322358426247604 11.9357
45.346486212804315 11.9359
45.370616121861914 11.9287
45.39474815505086 11.8981
45.41907087049246 11.8634
45.4432071734666 11.8302
45.46734560548283 11.8437
45.49148616817604 11.7992
45.51581748638564 11.7606
45.5399623320197 11.7203
45.56410931325473 11.7162
45.58825843173002 11.6941
45.61259837920865 11.6844
45.636751793816 11.7352
45.66090735060093 11.6593
45.68506505120716 11.6195
45.7094136545275 11.5845
45.73357566449271 11.5937
45.75773982322992 11.5571
45.78190613238733 11.533
45.806263418194064 11.5147
45.83043404997326 11.4716
45.85460683713677 11.4763
45.87897065658495 11.4937
45.90314777634752 11.4413
45.92732705646868 11.4291
45.9515084986045 11.3881
45.97588104735473 11.3699
46.00006683541565 11.3688
46.02425479047904 11.3202
46.04844491420549 11.3284
46.0728262191024 11.3227
46.09702070211635 11.2743
46.12121735879483 11.2861
46.14541619080294 11.2448
46.169806278764455 11.2585
46.194009483459034 11.1936
46.21821486849841 11.1798
46.24242243555223 11.1584
46.266821333570014 11.1594
46.29103328674601 11.1005
46.31524742696538 11.1472
46.33946375590237 11.0598
46.36387149104216 11.0444
46.38809221957392 11.008
46.41231514186606 11.0282
46.436540259597464 10.988
46.460956858999374 10.985
46.48518638983522 10.9711
46.509418121166966 10.942
46.533652054678114 10.912
46.55807754555709 10.9045
46.58231590571962 10.8949
46.60655647313217 10.8716
46.630988654873654 10.8392
46.655233659129024 10.79
46.67948087571551 10.7975
46.70373030632484 10.7528
46.72817142736393 10.7773
46.752425308428684 10.7647
46.77668140861147 10.7265
46.80093972960865 10.6373
46.82538981736788 10.6986
46.849652602470904 10.6532
46.87391761349769 10.6472
46.8981848521493 10.6362
46.9226439341274 10.6018
46.946915650573224 10.5706
46.97118959976749 10.575
46.99546578341598 10.5372
47.019933887188216 10.5404
47.04421456235744 10.5249
47.06849747711879 10.4896
47.09278263318286 10.4677
47.11725978640143 10.4497
47.14154944775105 10.4197
47.165841355555656 10.431
47.1901355115306 10.4171
47.214621741924994 10.3838
47.23892041698887 10.3381
47.26322134538975 10.3074
47.28771440635075 10.2619
47.31201986422527 10.2878
47.33632758061436 10.2998
47.360637557241866 10.2683
47.38513974410611 10.2329
47.40945426407847 10.2228
47.43377104948137 10.2238
47.45809010204344 10.1711
47.48260144275502 10.1666
47.506925052572285 10.1738
47.53125093475548 10.1124
47.55557909103813 10.1099
47.58009961361992 10.1024
47.60443234110732 10.0738
47.62876734791564 10.0326
47.65310463578333 9.99868
47.6776343683373 10.0523
47.7019762413987 9.9554
47.72632040075572 9.948369999999999
47.75066684815169 9.91949
47.77520581885936 9.915460000000001
47.799556865477655 9.9291
47.823910205386 9.9081
47.84826584033272 9.91087
47.87281407745551 9.84333
47.89717432569297 9.84954
47.92153687423484 9.80793
47.94609208429692 9.808589999999999
47.97045925671401 9.79753
47.99482873471275 9.77298
48.01920052005013 9.76332
48.04376504619224 9.7492
48.068141469543484 9.73438
48.09252020552573 9.70218
48.11690125590099 9.680480000000001
48.1414751266064 9.6728
48.16586082917454 9.66239
48.19024885144316 9.63584
48.2146391951793 9.631680000000001
48.239222439012764 9.61468
48.26361744916137 9.57216
48.28801478610016 9.57843
48.31241445160131 9.559560000000001
48.337007097209366 9.53013
48.36141144338331 9.53065
48.38581812345755 9.50205
48.41022713920929 9.49002
48.434829215320704 9.45964
48.45924292604658 9.4587
48.48365897780325 9.42429
48.50807737237308 9.40313
48.532688907799276 9.3897
48.55711201168574 9.374319999999999
48.581537463754074 9.344710000000001
48.60615611725119 9.35127
48.63058628942721 9.32869
48.65501881516546 9.326260000000001
48.6794536962573 9.34026
48.70408185970339 9.292110000000001
48.72852147531801 9.24198
48.75296345168211 9.22523
48.77740779059232 9.22697
48.80204549302823 9.240110000000001
48.82649458091802 9.1877
48.85094603676547 9.17437
48.87539986237231 9.134910000000001
48.90004713292306 9.12711
48.92450572200832 9.09796
48.94896668628025 9.09018
48.97343002754588 9.0601
48.99808689542115 9.04894
49.02255501470614 9.05193
49.04702551642794 9.047930000000001
49.0714984023988 9.01511
49.096164896893235 9.017710000000001
49.120642575466796 8.966569999999999
49.145122643748394 8.955210000000001
49.16960510355558 8.94629
49.19428125404938 8.914069999999999
49.2187685210852 8.8974
49.243258185121555 8.918389999999999
49.26794160167084 8.877410000000001
49.2924360839405 8.85858
49.31693296869764 8.831430000000001
49.34143225776915 8.85025
49.36612538195438 8.79338
49.39062950396021 8.76543
49.41513603578346 8.73375
49.4396449792564 8.7305
49.46434784069503 8.75875
49.488861631846454 8.7135
49.513377840166804 8.732660000000001
49.537896467493745 8.71358
49.56260909589029 8.65724
49.587132585683285 8.6785
49.611658500018365 8.68171
49.636186840738596 8.65801
49.66090926588511 8.617569999999999
49.685442483902584 8.611410000000001
49.70997813385706 8.56814
49.734516217597076 8.54443
49.75924846937352 8.53449
49.7837914452858 8.52426
49.80833686055187 8.516119999999999
49.83288471702571 8.496189999999999
49.85762682540054 8.4802
49.882179588965734 8.46528
49.9067347993235 8.460180000000001
49.93129245833333 8.41182
49.95604445336378 8.404530000000001
49.98060703442832 8.394060000000001
50.005172069746266 8.3527
50.02993150438364 8.34568
50.05450147301533 8.36513
50.07907390151433 8.33951
50.10364879174981 8.30799
50.12841816587289 8.285
50.1529980044635 8.293560000000001
50.17758031042124 8.258289999999999
50.20216508562089 8.26628
50.22694442953363 8.19712
50.25153416817468 8.1996
50.27612638170508 8.22278
50.300721072005196 8.15099
50.325510416102105 8.15691
50.350110084975064 8.14307
50.37471223628208 8.11988
50.39931687190919 8.13596
50.424116246675766 8.1428
50.44872587605249 8.10308
50.47333799543065 8.082889999999999
50.49795260670191 8.056000000000001
50.52276204271512 8.04429
50.54738166295838 8.06072
50.57200378079314 8.03812
50.596628398116835 8.008339999999999
50.62144792604559 7.99305
50.646077567609396 7.9536
50.670709714377715 7.9733600000000004
50.69553683636198 7.93572
50.72017401885922 7.91861
50.7448137122895 7.92767
50.76945591856022 7.88778
50.79429318636823 7.89067
50.818940443716784 7.88775
50.84359021965163 7.844760000000001
50.868242516085964 7.8472800000000005
50.893089960641895 7.825889999999999
50.917747323549435 7.795439999999999
50.94240721271973 7.80934
50.96706963007175 7.76364
50.99192728239342 7.718489999999999
51.01659478166073 7.76739
51.04126481489051 7.712510000000001
51.06593738400761 7.7074
51.090805275207074 7.70333
51.11548294172845 7.68785
51.14016314993547 7.705239999999999
51.164845901758845 7.692189999999999
51.18972406304274 7.66295
51.21441192780656 7.63048
51.23910234200271 7.624619999999999
51.2637953075678 7.606380000000001
51.288683770237945 7.589810000000001
51.31338186432707 7.56521
51.33808251561888 7.54178
51.362978729967345 7.5268
51.387684521509755 7.55468
51.41239287610203 7.49476
51.437103795691165 7.49223
51.46201036644977 7.48204
51.486726441956634 7.41047
51.51144508832545 7.45407
51.536166307509156 7.38745
51.56108326624387 7.403060000000001
51.58580965706056 7.40182
51.61053862657523 7.397
51.635270176746864 7.336710000000001
51.66019755512065 7.319489999999999
51.68493429268881 7.338430000000001
51.70967361681515 7.321689999999999
51.73441552946465 7.31185
51.759353359237934 7.2826699999999995
51.7841004750961 7.2922
51.80885018539685 7.24878
51.833602492111254 7.22549
51.8585508051424 7.21978
51.883308330926425 7.218710000000001
51.90806845906181 7.13979
51.932831191525715 7.1258
51.95779001977161 7.151160000000001
51.98255798721516 7.15838
52.00732856494335 7.10001
52.03229530577543 7.08846
52.057071130455945 7.080010000000001
52.081849571391054 7.0532699999999995
52.106630630568695 7.07447
52.13160794279417 7.05152
52.15639426492067 7.02235
52.18118321127822 7.0418199999999995
52.205974783860896 7.01474
52.23096269971011 6.95817
52.255759551287994 6.95776
52.280559035098186 6.977
52.30536115314103 6.96125
52.33035970494467 6.98147
52.35516711807904 6.90532
52.37997717147198 6.91542
52.40478986713005 6.9057699999999995
52.42979908731974 6.88462
52.454617094216 6.86035
52.47943774942214 6.869669999999999
52.50426105495102 6.87097
52.529280976059844 6.81048
52.554109609024096 6.79581
52.57894089837482 6.82555
52.60377484613117 6.769410000000001
52.62880550079408 6.782719999999999
52.65364479223379 6.78154
52.67848674816189 6.716019999999999
52.70352547971946 6.69447
52.72837279155837 6.69613
52.753222773982785 6.68617
52.778075429022984 6.728330000000001
52.80312495150885 6.70574
52.827982978797436 6.66666
52.85284368481815 6.660639999999999
52.87770707160767 6.58581
52.90276741793998 6.607880000000001
52.92763619336701 6.57083
52.952507655698504 6.590789999999999
52.977381806977576 6.56047
53.00245301017842 6.55842
53.02733256653592 6.561660000000001
53.052214817996074 6.55583
53.077099766608484 6.53923
53.102181859804446 6.50795
53.127072229988265 6.52278
53.15196530349892 6.4993099999999995
53.17686108239249 6.4518699999999995
53.20195409881522 6.42173
53.22685531582556 6.41265
53.25175924441303 6.41619
53.27666588664027 6.39935
53.30176985962693 6.37689
53.3266819565689 6.3955400000000004
53.35159677336455 6.371230000000001
53.376514312083096 6.3076
53.40162927507703 6.37556
53.42655228516116 6.3354099999999995
53.45147802340193 6.31644
53.47660125628886 6.322019999999999
53.50153247842639 6.25979
53.52646643496923 6.22904
53.55140312799818 6.2164
53.576537409691696 6.2666900000000005
53.60147960336152 6.2394
53.626424539786164 6.20081
53.65137222105307 6.20908
53.67651758529126 6.21689
53.70147078399681 6.17896
53.72642673383343 6.17877
53.75138543689533 6.14579
53.776541917524526 6.16523
53.801506154876755 6.12544
53.826473151763246 6.09664
53.851442910284916 6.07817
53.87661054126026 6.06122
53.9015858509782 6.09813
53.92656392866066 6.08166
53.95154477641532 6.08685
53.976723591801296 6.04707
54.00171000771266 6.0326900000000006
54.02669920004598 6.030880000000001
54.051691170915745 5.97687
54.076881204886796 5.95144
54.101878760928514 5.97618
54.12687910187696 5.98412
54.152077577768296 5.92739
54.1770835166946 5.93623
54.20209224691339 5.891859999999999
54.22710377055121 5.86041
54.25231352511594 5.87033
54.27733066384342 5.84229
54.30235060239643 5.82571
54.32737334290836 5.78266
54.35259441062629 5.79702
54.377622783395324 5.77882
54.40265396455061 5.78585
54.42768795623251 5.77682
54.45292037169559 5.70805
54.477960012857906 5.71692
54.50300247099511 5.72727
54.52804774825457 5.69335
54.55329154616743 5.6777
54.57834249018678 5.6816699999999996
54.6033962597977 5.66369
54.6284528571545 5.65163
54.653708072335164 5.60721
54.67877035378786 5.56515
54.70383546947698 5.54188
54.72890342156389 5.58146
54.7541700889442 5.54053
54.77924374251975 5.56864
54.8043202390049 5.54059
54.82959552413022 5.48896
54.8546777351945 5.4042
54.87976279569621 5.37706
54.90485070780914 5.41426
54.930137506558005 5.40555
54.95523115074295 5.41983
54.98032765308844 5.34914
55.005427015775496 5.332380000000001
55.03072536339621 5.35149
55.05583047570572 5.29528
55.080938454927676 5.25689
55.10604930325027 5.2310300000000005
55.131359235107396 5.23888
55.15647585066083 5.18689
55.181595341907496 5.10864
55.20671771104285 5.131880000000001
55.232039262617704 5.15753
55.25716741665048 5.10175
55.28229845518636 5.16525
55.30743238042802 5.05025
55.33276558731939 5.06837
55.357905315183636 5.00887
55.383047936390035 5.01735
55.40819345314859 4.9798
55.433538351073295 4.9595400000000005
55.458689688238415 4.949
55.483843927614096 4.891780000000001
55.509197623043605 4.92131
55.53435769621134 4.84028
55.55952067826466 4.84499
55.5846865714265 4.86086
55.61005202069737 4.87488
55.63522376553902 4.86459
55.66039842818645 4.78604
55.68557601087004 4.7965800000000005
55.7109532500271 4.71478
55.73613670233794 4.7093
