TT I
1.2716486653135266 6.86955
1.2939594142134223 6.8341199999999995
1.3162702121660406 6.39926
1.3385810600174564 6.47127
1.3608919586137629 6.0611
1.383202908801069 6.23025
1.405513911425503 5.73226
1.4278249673332093 6.40484
1.4501343378461518 5.82443
1.4724455028545926 6.22733
1.4947567236847858 5.91061
1.517068001182951 5.82055
1.5393793361953272 5.5538300000000005
1.5616907295681737 5.0794
1.5840021821477681 5.11415
1.60631369478041 5.28625
1.6286252683124185 5.30006
1.6509369035901333 5.01311
1.6732468618895553 5.5919300000000005
1.695558623192809 4.66001
1.7178704487808514 5.10544
1.7401823395001077 5.03911
1.7625012545597203 4.84922
1.7848028405262486 4.43521
1.8071218901122095 5.127269999999999
1.8294236121921872 4.7721599999999995
1.8517427996910911 4.508430000000001
1.8740620574440425 5.0734900000000005
1.8963639900671978 4.8485
1.9186833908139995 5.09169
1.9409854680117449 4.89624
1.9633050151394713 4.95725
1.9856246367570705 4.68625
2.0079269371922672 4.27682
2.03024671027244 4.5473099999999995
2.0525491637446027 4.50849
2.074869091674931 4.76124
2.097171701569106 5.01035
2.1194917877373847 4.98485
2.141811954326636 4.5556
2.164114805233074 5.23196
2.186435135143035 5.90872
2.208738150935709 14.2995
2.231058647554722 29.7696
2.2533792288321184 23.2519
2.275682498336085 10.6791
2.298003251406138 6.37744
2.3203066942619714 5.76806
2.3426276225136022 5.28791
2.3649486396617507 5.58507
2.387252348930071 6.11865
2.4095735463442893 5.80071
2.4318774374315884 6.6172699999999995
2.4541988185014043 7.03725
2.476502894794693 7.77635
2.498824462909887 7.596139999999999
2.521146125856138 7.986280000000001
2.5434504863470337 7.26415
2.5657723414244717 8.06719
2.588076895590662 8.950510000000001
2.610398946189713 8.5507
2.6327210958598384 8.20169
2.6550259469304716 7.95885
2.6773482972090137 8.372589999999999
2.6996533504259 8.2801
2.7219759047039602 9.07135
2.744298562293959 8.5603
2.7666039251246595 8.08677
2.7889267918020164 8.56616
2.8112323652516555 8.89269
2.833555444408179 9.10391
2.8558786311183852 8.91957
2.8781845268938557 9.38419
2.9005079311721484 9.41511
2.9228140460410397 9.321019999999999
2.9451376712799635 9.157969999999999
2.967444008632326 9.03508
2.9897678582247247 9.86524
3.0120918213106695 10.5653
3.0343984987899373 10.7744
3.0567226913198637 11.1393
3.079029599759726 12.29
3.101354025127254 12.2338
3.123678568232338 13.556
3.145985829517914 13.1992
3.16831061055229 14.0222
3.1906181112775593 14.8474
3.212943133635653 14.892000000000001
3.2352682779763207 15.073
3.2575761442691227 14.9731
3.2799015350264273 15.7955
3.302209649240067 16.2211
3.3245352898092655 16.836
3.3468436553365257 17.4709
3.369169549113219 17.5597
3.3914955708171384 18.7085
3.413804319727358 18.8947
3.4361305997334863 19.0487
3.4584396084414553 19.6614
3.4807661501462652 20.1712
3.503092824025881 20.9781
3.5254022288463154 21.2596
3.5477291695206588 21.5915
3.5700388426251948 22.1721
3.5923660534916446 23.554000000000002
3.6146934007816114 39.5639
3.637003482731501 91.1863
3.6593311053109985 102.98700000000001
3.681641464033634 59.1433
3.7039693653009733 31.3378
3.726297407241705 26.0753
3.7486081875460804 25.9218
3.7709365132734978 26.0512
3.793247578841633 26.1794
3.8155761917550093 26.3253
3.8378875459837216 26.9804
3.8602164494827234 27.639
3.882545499606844 28.546
3.9048572932539183 29.0399
3.9271866390645718 29.2916
3.9494987298666713 29.6865
3.971828374764527 30.2015
3.9941581705403255 30.3397
4.016470713506008 31.079
4.038800813471445 32.3238
4.061113662089144 32.5321
4.0834440696459176 33.4235
4.105774632334751 34.0171
4.128087945865126 34.5064
4.150418821249301 35.4794
4.172732448931298 36.5686
4.195063640413578 38.2288
4.2173775856475215 42.7179
4.239709096631102 75.6507
4.262040768704612 248.86700000000002
4.284355196706267 335.059
4.306687193387355 219.40099999999998
4.329001947444346 84.5948
4.35133427213731 48.0229
4.373666762177566 44.3517
4.395982011761091 44.2234
4.418314834921175 45.1531
4.44063041906622 53.854
4.4629635787515625 65.2646
4.4852969080429785 65.0882
4.5076130004776225 53.7921
4.529946671403969 49.7001
4.552263106909177 49.626000000000005
4.574597122877047 50.3081
4.596931312711224 51.6598
4.619248269273446 52.1525
4.6415828092605835 52.9478
4.663900117405352 54.5745
4.686235010953232 55.7662
4.708552674085913 57.1396
4.730887924602802 58.6933
4.753223354952695 59.848
4.775541557023902 61.3278
4.797877349456786 62.5407
4.820195915032126 64.4508
4.842532072957498 66.1553
4.864868414979744 68.1978
4.88718753227192 69.9151
4.909524244902505 71.5089
4.931843734218147 73.0756
4.954180820867835 76.0939
4.976518095879839 78.6652
4.998838149695359 81.3634
5.021175803844231 84.7989
5.043496238205739 87.2373
5.065834274903528 91.4099
5.088172504230693 95.1372
5.1104935158799565 100.77799999999999
5.132832132875765 121.43700000000001
5.155153533596801 163.53
5.1774925416746225 191.363
5.199814334878411 274.659
5.2221537374521505 728.216
5.244493338631803 2326.07
5.266815727034316 7468.54
5.289155727832427 13359.6
5.311478517248165 8987.44
5.333818921080011 2775.88
5.356159527788849 511.62
5.3784829252032536 172.421
5.400823940070432 137.048
5.423147747031976 123.406
5.445489173474152 115.238
5.467830807066149 110.23899999999999
5.490155234831516 106.529
5.512497285125229 103.149
5.534822130975162 102.171
5.557164601388673 99.4821
5.579489868738879 96.2455
5.601832762690846 95.7255
5.6241758697774475 95.5361
5.646501775867269 94.7272
5.668845311622074 93.3356
5.691171647754637 92.2652
5.713515615597765 91.0027
5.735859800852677 89.3742
5.758186788542988 89.102
5.780531411018185 88.8533
5.802858837297399 88.5675
5.825203900414495 88.4443
5.8475491852224 88.4385
5.869877275883075 89.1089
5.892223006467101 90.1804
5.914551544266608 90.7195
5.936897724049891 92.3706
5.959244129804903 95.7056
5.981573344815301 107.62899999999999
6.0039202049061 168.037
6.026249875609095 354.22900000000004
6.04859719346037 797.085
6.070927323278297 2079.65
6.093275102315365 4566.94
6.115623113320588 5308.21
6.137953938319995 3172.33
6.160302415650845 915.0219999999999
6.182633708324452 214.35
6.2049826554078376 107.45299999999999
6.227331838745022 88.8339
6.249663839443684 82.5207
6.27201349767565 80.9505
6.294345974611799 87.5458
6.316696111167083 99.9058
6.339046488263839 94.5147
6.361379686074702 79.2918
6.383730546639482 70.8109
6.406064229255215 67.9111
6.428415576718203 66.7896
6.450749747566656 65.7797
6.47310158535871 64.9718
6.495453669698332 64.2582
6.517788579421056 63.7117
6.540141159237969 62.9211
6.562476565766648 62.231
6.5848296444934045 61.812
6.607182974060425 61.5891
6.6295191323281015 61.7424
6.651872965955752 65.4707
6.6742096296068985 92.8709
6.6965639707294615 142.07299999999998
6.71891856698715 142.108
6.741255995248479 96.0557
6.763611104154477 68.0189
6.785949046381137 59.5458
6.808304671371482 57.6742
6.8306605557940046 57.1913
6.852999275508618 56.6115
6.875355681171544 56.4098
6.897694923437771 56.3288
6.92005185377892 56.0635
6.9423916220322655 55.918
6.964749080490181 55.1343
6.987106804399774 55.0465
7.009447368180821 55.1695
7.031805625367033 54.7005
7.054146723727803 54.6741
7.076505517631004 54.5828
7.098864581288365 54.6603
7.121206488070854 54.1524
7.143566093607822 53.8129
7.165908543567245 54.2916
7.188268694426048 54.9654
7.2106291193438095 54.9512
7.232972390625943 56.3556
7.255333366030969 70.1776
7.277677189091925 127.383
7.300038718428332 176.99400000000003
7.322400526130865 148.592
7.344745183422596 90.6829
7.367107550224791 61.2847
7.389452767901992 55.6525
7.411815697249891 54.5569
7.434161478756298 53.6601
7.456524974096713 53.6605
7.478888753837185 53.3376
7.501235387657368 53.8191
7.523599738562711 53.7569
7.545946944825532 53.8659
7.568311870344528 54.4025
7.5906770845765665 54.63
7.613025156078678 56.1978
7.635390950099687 57.6016
7.657739602662809 56.6662
7.680105979923558 55.0616
7.702472650212829 55.1414
7.724822180948224 54.8547
7.747189439655568 55.1443
7.769539560075357 54.9505
7.791907410653562 55.7159
7.81425812420825 55.5909
7.836626570110925 55.8887
7.858995315087906 56.7639
7.881346924933401 56.6456
7.903716270417482 57.1363
7.926068482028405 57.4553
7.948438431475253 58.3661
7.9708086843180235 58.7985
7.993161805171116 59.633
8.015532667162402 59.6238
8.037886398416653 60.3985
8.060257873014221 61.0986
8.082629655331942 61.7543
8.104984308787587 62.4938
8.127356708900503 66.225
8.149711981398308 72.0664
8.172085002766314 74.1696
8.194458336181368 71.2361
8.216814543847752 68.3449
8.23918850371002 68.2847
8.26154533906492 68.7178
8.283919928836452 70.1632
8.306277395339652 71.2235
8.328652618483376 72.7816
8.351028159736202 74.1981
8.373386579575245 76.1296
8.395762759396959 78.2223
8.418121819038275 82.9215
8.440498640894003 96.4123
8.462875785192262 109.96799999999999
8.485235811156207 117.135
8.507613602688501 141.619
8.529974277114228 211.09599999999998
8.552352719347912 325.944
8.574731488360351 568.665
8.59709314210385 1121.26
8.619472567021075 1895.01
8.64183487789147 2276.5
8.664214962183097 1825.37
8.686577933647762 922.107
8.708958680784317 349.626
8.731339760774953 158.793
8.753703729764451 107.65100000000001
8.77608547780821 96.3599
8.798450116065078 92.9265
8.820832535634787 90.3668
8.843215292401656 88.9844
8.865580941199045 87.8044
8.887964374703538 86.9696
8.910330701447199 88.01799999999999
8.932714815164482 90.9269
8.955099270424924 90.1853
8.977466620733543 86.8024
8.999851761421976 83.7152
9.022219798361645 82.1475
9.04460562795561 81.6264
9.066991803441677 81.4702
9.089360876979615 81.1989
9.111747746589993 81.0125
9.13411751544971 80.3725
9.156505082664324 80.1903
9.178875550323522 80.7463
9.20126381862328 81.0425
9.223652438908596 81.4505
9.246023961427412 80.7537
9.26841328802173 80.2686
9.290785518039224 80.32300000000001
9.313175554425882 80.6764
9.335565947154315 80.8863
9.357939245086508 80.8386
9.380330352834827 81.1676
9.40270436697103 81.5572
9.425096193225055 81.0823
9.447488380180165 82.2832
9.469863475295412 82.4299
9.492256385987508 82.7934
9.514632206018318 83.4217
9.537025843935714 83.51799999999999
9.559402392368193 84.0217
9.581796761000229 85.4411
9.604191496441521 86.5624
9.626569144158516 90.1407
9.648964615551032 94.7571
9.671343000390081 96.9071
9.693739211225699 94.7063
9.716135793237463 91.7933
9.738515290448102 91.115
9.760912617143402 91.9369
9.783292860202891 93.0138
9.805690935076182 94.4112
9.828089385495742 95.0562
9.850470754023561 97.4854
9.872869957865444 105.469
9.89525208097539 121.057
9.917652041736662 133.171
9.940052382417589 131.226
9.962435644102392 131.468
9.984836746950979 154.255
10.007220771957746 205.795
10.029622640473708 294.086
10.052007432299963 467.41900000000004
10.074410069984072 761.416
10.096813093716005 1257.31
10.119199042482517 1773.62
10.141602840636468 2004.5
10.163989564971628 1529.17
10.186394141051062 841.2260000000001
10.208799107559706 362.69699999999995
10.231187001965623 177.09400000000002
10.253592751657669 121.961
10.275981430388155 110.35
10.298387966769793 110.51299999999999
10.320794897965431 113.271
10.343184759907361 112.007
10.36559248305461 106.595
10.387983138083852 101.774
10.410391656691655 102.54799999999999
10.432800574501677 110.272
10.455192425893369 122.773
10.47760214443012 146.334
10.499994797678786 189.55
10.522405320453982 269.616
10.54479877906917 401.228
10.567210109595656 522.727
10.5896218454736 585.5409999999999
10.612016518879773 498.62199999999996
10.634429067781074 343.434
10.656824555333241 196.19400000000002
10.679237920773568 120.8
10.701651695961992 94.4732
10.724048411481384 87.3103
10.746463008485165 84.7537
10.768860546937125 83.1787
10.791275969274796 81.5725
10.81369180576079 80.5133
10.836090585366925 79.5326
10.858507252467449 78.3944
10.88090686379991 77.1926
10.903324365036394 76.9701
10.925724811614439 76.991
10.948143150509463 78.3919
10.970561909719066 77.5956
10.992963615930844 75.7488
11.015383218085756 73.5536
11.037785768347074 71.915
11.06020621697282 71.3144
11.082627090322113 71.0353
11.105030913430326 70.389
11.12745263854165 71.0988
11.149857314510728 75.0112
11.172279894912576 81.2478
11.194702904450653 82.0382
11.217108866490921 77.8524
11.239532736615194 73.5652
11.26193956033512 70.8686
11.284364294577085 69.1949
11.306789462371718 67.4426
11.329197585398376 65.8058
11.351623622610898 65.9595
11.37403261614354 64.9654
11.396459526308487 64.9072
11.418869393879497 64.5354
11.441297180532617 63.7946
11.463725406927658 63.7178
11.486136592353875 63.7544
11.508565700543707 64.1723
11.530977768845315 66.2471
11.553407762368774 67.3566
11.575838200059769 66.4758
11.598251599479612 64.5459
11.620682927815501 62.8152
11.64309721895548 62.1778
11.665529441478206 61.9633
11.687962112597958 61.5586
11.710377748130886 61.7488
11.732811318753434 61.8446
11.755227854859067 61.8455
11.777662328529495 61.7329
11.800079768750786 61.5845
11.822515149015453 61.2482
11.844950984084935 61.4961
11.867369787303163 60.9547
11.889806534289491 61.0119
11.912226250487029 61.3478
11.934663912939751 61.4242
11.9571020346363 61.5753
11.979523127133968 61.2535
12.001962169624331 62.1083
12.024384183972964 62.722
12.046824150809913 64.8956
12.069264581333726 69.1461
12.091687985297767 74.6365
12.11412934550045 83.2088
12.136553680195208 98.0456
12.158995973632788 122.266
12.181438735204349 153.372
12.20386447284199 188.47299999999998
12.226308172985636 207.174
12.24873485024193 198.50400000000002
12.271179492516982 162.76
12.293607112949127 123.665
12.316052700916226 95.2022
12.338498763250042 77.3094
12.360927805303868 69.1748
12.383374818673879 65.6612
12.405804812803074 63.4161
12.428252780773262 63.0953
12.45070122756722 62.8633
12.473132656675375 62.8561
12.49558206341869 63.1304
12.518014453510101 62.9514
12.540464823770117 63.3433
12.562915677315177 63.4596
12.58534951575545 64.2745
12.607801338171472 66.3946
12.630236146511358 72.1395
12.652688941369085 77.0397
12.675124723177234 77.0323
12.697578494048786 73.0072
12.720032754458185 68.8058
12.742470003354093 66.9154
12.764925245138771 66.7458
12.787363476431278 66.4529
12.809819703166806 66.7403
12.83227642391173 67.5913
12.854716135692716 68.2348
12.877173846755147 69.3907
12.899614549869717 69.5641
12.9220732548287 70.1818
12.94453245827299 70.7797
12.966974655289818 71.7667
12.989434858002571 72.2383
13.011878055298721 73.0513
13.034339260862497 74.0856
13.056800969391883 75.1696
13.079245674017244 76.857
13.101708390774869 78.2028
13.12415410463411 83.4804
13.146617833206086 92.8535
13.169064559883248 103.425
13.191529303857127 116.697
13.213994557076367 137.586
13.236442809902437 174.067
13.258909083908291 232.174
13.28135835851934 304.447
13.30382565690295 380.19800000000004
13.326293469022952 435.82
13.348744283242008 428.528
13.371213125129904 347.94199999999995
13.39366497011003 247.227
13.416134845360597 166.834
13.438605238843131 119.777
13.46105863690397 101.031
13.483530069144786 99.5205
13.505984506951902 103.34
13.528456981549432 112.12100000000001
13.550929978879088 126.015
13.573385983253365 148.71200000000002
13.595860028340867 188.363
13.618317081455832 245.75599999999997
13.64079217790333 310.27099999999996
13.663250283359057 360.07599999999996
13.685726434770173 374.756
13.708203115221277 329.798
13.730662806148091 251.271
13.75314054697177 176.885
13.775601299246777 123.54700000000001
13.798080104050406 94.7165
13.820559442405358 83.7122
13.843021793671388 79.9036
13.865502201420897 78.6167
13.887965623051947 77.678
13.910447103807167 76.5365
13.932929122629764 75.4758
13.955394156785959 75.2501
13.977877254034569 74.257
14.000343367582113 73.4536
14.022827546871707 72.6193
14.045294743423524 72.0498
14.06778000837062 71.6403
14.090265817715476 71.3021
14.112734645763819 71.1246
14.13522154619454 70.9057
14.157691466286913 71.0035
14.180179461423874 70.9542
14.202668005486178 70.1721
14.22513957064374 69.348
14.247629214846473 69.039
14.270101881097517 68.8421
14.29259262906496 69.0692
14.315083930490205 70.1072
14.337558255389705 70.2606
14.360050666019726 69.9264
14.382526101071944 68.6851
14.405019624534942 67.779
14.427513705993134 67.4514
14.449990813291825 67.4564
14.47248601302899 67.1341
14.49496423954951 67.21300000000001
14.517460561197822 67.3991
14.539939910570322 67.1995
14.562437357763558 67.3792
14.58493536931253 68.7194
14.607416409993311 69.7143
14.62991555254159 70.457
14.652397725157423 70.1695
14.674898002342799 69.5165
14.697398848433282 68.585
14.719882725991326 69.3268
14.74238471217934 69.6875
14.764869730765593 71.8771
14.787372860692983 74.6128
14.809876564079925 78.8831
14.83236330125751 83.8809
14.854868153850365 91.3421
14.877356041159485 105.117
14.899862046604186 124.12100000000001
14.922351087688757 151.00799999999998
14.944858249632887 183.398
14.967365991421232 212.207
14.989856770231246 227.417
15.012365673994204 217.015
15.03485761569738 184.949
15.05736768508665 146.791
15.07987833888692 111.39
15.102372032001655 87.8593
15.124883856909658 75.0476
15.14737872204565 70.7244
15.169891721717274 69.1207
15.192405310371893 69.063
15.214901940621196 69.2898
15.237416709527137 69.6624
15.259914520936249 69.6919
15.282430473753607 68.8753
15.304947020131227 67.8112
15.327446610371178 66.7237
15.349964346154254 65.9575
15.372465126703139 65.727
15.394984055556009 65.2318
15.417486030076159 65.0324
15.44000615566487 64.6695
15.462526881230803 64.6525
15.485030653812652 64.889
15.507552581617434 64.9924
15.530057557334603 64.9798
15.55258069104857 64.8679
15.575104429329837 64.7919
15.597611216864632 64.2756
15.620136166564563 64.3108
15.6426441664095 65.0005
15.665170331202765 66.2629
15.687697105158826 68.7059
15.710206930593545 71.9214
15.732734925158933 75.7055
15.755245972089478 81.22800000000001
15.77777519094324 89.9313
15.800287463046663 102.816
15.822817909869592 123.458
15.84534897229804 147.562
15.867863089299354 173.718
15.890395385222186 192.049
15.912910736597423 197.52599999999998
15.935444269699861 180.984
15.957978423016485 151.233
15.980495633101265 119.898
16.003031029129367 93.9961
16.02554948280019 75.9574
16.048086125229432 67.0998
16.070623392487107 64.2095
16.09314371869582 63.3988
16.11568223789321 62.3849
16.13820381691126 61.361999999999995
16.160743591742527 60.2412
16.183283996022084 59.3247
16.205807461423195 58.4298
16.228349126881973 57.7399
16.25087385432698 57.8721
16.27341678466365 57.3227
16.29594277784926 57.2112
16.31848697676433 57.64
16.341031811604868 57.9061
16.36355971058487 58.3474
16.3861058195587 57.9298
16.40863499352978 56.5396
16.431182380342005 55.5718
16.453730407713202 55.0746
16.476261501364792 54.6854
16.498810812136167 54.3719
16.52134319004079 54.5674
16.54389378792203 54.301
16.566445031001553 54.141000000000005
16.588979342490088 54.0795
16.61153187824822 53.8587
16.634067483263312 53.7122
16.656621315414416 53.4321
16.679175797408888 53.4003
16.701713349928728 53.5549
16.72426913389191 53.6812
16.74680798922351 53.7203
16.76936507887444 53.7923
16.791905240734874 54.0806
16.814463639794468 53.808
16.837022695210294 53.6192
16.859564824093756 54.2332
16.882125194503903 55.0335
16.904668639217885 55.7358
16.927230328348003 55.7321
16.949792678493612 55.8982
16.972338104193863 55.108000000000004
16.994901778652235 54.5347
17.017448529496576 54.3675
17.040013531998152 54.5537
17.06257920018044 54.702
17.0851279459922 55.4626
17.107694947817667 56.0913
17.130245028099072 56.9532
17.15281336730298 58.2425
17.17536478578733 59.7924
17.19793446610687 62.0207
17.220504818648422 64.8491
17.243058251703697 68.5795
17.265629950971032 73.4263
17.288184731571736 78.1604
17.310757781306908 82.4421
17.33333150794385 82.9395
17.355888317140174 80.3964
17.37846339986244 74.8141
17.401021565958885 68.8287
17.42359800851343 63.7324
17.44617513265564 60.47
17.468735341390783 58.6159
17.491261035594565 57.8839
17.51396340099364 57.6234
17.536490463869136 57.7749
17.559018209820174 57.6529
17.58154663977963 58.0072
17.604251766089718 58.0578
17.626781572227713 58.0447
17.64931206518155 58.5594
17.671843245885103 59.146
17.69455114821572 59.486999999999995
17.717083712612634 59.7247
17.739616967569667 59.7548
17.762150914021706 59.7655
17.78486160749854 59.8104
17.807396945166804 60.4048
17.829932977143503 60.7901
17.85246970436452 62.0492
17.875183204129467 63.8498
17.897721330097664 65.6966
17.920260154126645 67.9145
17.942799677153296 70.6696
17.9655159983646 74.1422
17.988056927677544 79.2942
18.010598558807683 86.8265
18.033140892692916 97.6966
18.05586005052525 110.285
18.07840379824407 122.49
18.10094825154059 132.518
18.12366954819864 138.561
18.146215420998306 135.863
18.16876200220057 125.02
18.191309292745153 111.88799999999999
18.214033452627167 99.1574
18.236582170236648 88.4002
18.259131600016456 83.6793
18.281681742907335 84.3492
18.304408781233683 89.094
18.32696035875955 95.1454
18.349512652227624 100.089
18.372065662579683 104.98700000000001
18.394795594587553 105.87
18.41735004715306 101.288
18.43990521943684 94.0429
18.46246111238171 84.4806
18.485193953325208 75.6563
18.507751296070428 68.5433
18.530309362314178 64.5526
18.552868153000343 62.2752
18.57560391815056 60.9616
18.59816416623245 60.4008
18.620725141597372 59.8787
18.643286845190268 59.4868
18.666025549835414 59.2201
18.688588718427933 58.724
18.711152618092243 58.6246
18.73389353884365 58.218
18.75645890921984 57.8516
18.77902501351406 57.5139
18.801591852673102 57.5492
18.824335739722738 56.8685
18.846904057212626 56.8875
18.8694731124168 56.6802
18.89204290628315 56.6775
18.914789774966803 56.4042
18.937361054791623 55.9429
18.959933076131318 55.7611
18.982505839934877 55.8887
19.00525570560582 55.9142
19.027829963004184 55.6359
19.05040496572238 55.9199
19.072980714710468 55.76
19.095733592739563 55.7045
19.11831084296757 56.0075
19.140888842324735 56.4586
19.16346759176222 56.6168
19.18622349753803 57.2507
19.208803755869358 57.9962
19.231384767143577 59.0093
19.253966532312948 60.5075
19.276725481241822 62.7307
19.29930876296784 65.40100000000001
19.3218928014549 68.831
19.34465404436217 71.9868
19.36723960516257 75.0299
19.389825925592426 75.2327
19.412413006605938 73.9488
19.43517731967805 70.2245
19.457765930683355 65.8836
19.48035530514408 61.3587
19.50294544401556 57.8829
19.525712842708348 55.3279
19.54830451925909 53.8827
19.570896963095727 53.0999
19.593490175174704 52.7432
19.616260674962184 52.7862
19.638855432416964 52.6035
19.661450960992624 52.773
19.68404726164677 52.4418
19.706820878021247 52.251999999999995
19.729418731756834 52.5177
19.752017360452857 52.1656
19.77461676506804 52.4504
19.797393513540218 52.5167
19.819994478951667 52.5857
19.84259622316767 53.1371
19.8651987471481 53.4461
19.887978643247177 53.7315
19.91058273574792 54.0209
19.933187610901943 54.8103
19.955969879466828 55.9896
19.97857632894404 57.4197
20.00118356396599 59.0909
20.023791585494575 61.3682
20.046577028914875 64.316
20.069186632506966 66.6895
20.091797025500632 68.2925
20.114408208858933 68.7328
20.137196842715273 68.2309
20.159809615886765 66.2286
20.18242318232135 63.6684
20.20503754298326 61.931000000000004
20.227829382875154 60.7881
20.250445341109344 61.0624
20.27306209647285 62.0013
20.29567964993108 63.3057
20.31847471147704 64.1866
20.34109387027612 65.0522
20.363713830075454 64.39699999999999
20.386334591841646 62.4175
20.409132890679302 59.8982
20.431755265564437 57.0033
20.454378445325528 54.2397
20.477002430930366 52.6188
20.499803982716553 51.5252
20.522429589228004 50.8667
20.54505600449589 50.3731
20.567683229489194 49.8638
20.590488049900088 49.5507
20.61311690359731 49.3485
20.63574656993626 49.0553
20.658553853717297 48.7227
20.681185154618298 48.6835
20.703817271080066 48.5061
20.72645020407368 48.2012
20.749260783967177 48.0129
20.771895359337133 48.1353
20.794530754161617 47.927
20.817166969412938 47.9232
20.83998086114876 47.8824
20.86261872660049 47.8455
20.885257415405402 47.891999999999996
20.90789692853701 47.6354
20.930714147864748 47.4997
20.953355319030678 47.5716
20.97599731745334 47.5648
20.99864014410749 47.3968
21.021460706796564 47.5891
21.044105199328826 47.9067
21.06675052302631 48.0319
21.089396678865015 48.1283
21.112220600704806 48.3625
21.134868430275347 48.655
21.15751709492456 49.0633
21.180166595629693 49.5124
21.202993892429635 50.0916
21.22564507473034 50.4761
21.24829709602816 50.552
21.27112693608965 50.467
21.293780644891275 50.35
21.316435195634053 49.68899999999999
21.339090589297417 48.8894
21.361923832041875 48.4851
21.384580921090404 47.7776
21.407238856007325 47.4934
21.429897637773326 47.4511
21.45273429906592 47.3435
21.475394784108598 47.3603
21.498056118951983 47.2974
21.520718304578022 47.5381
21.543558400304388 47.4437
21.566222297108816 47.73
21.58888704765135 47.7215
21.61155265291521 47.861999999999995
21.63439619898156 48.3587
21.657063523335786 48.5461
21.67973170537063 49.0696
21.7024007460706 49.5093
21.72524775840385 50.1526
21.747918526116475 51.2374
21.770590155457388 52.4581
21.79326264741238 54.1413
21.816113141960237 55.9374
21.838787368860547 57.998000000000005
21.861462461341976 59.9582
21.884315579735777 62.1177
21.90699241312273 63.2375
21.92967011506078 63.5568
21.95234868653799 63.1312
21.9752053151131 61.6681
21.997885635446785 59.5828
22.020566828293532 58.1486
22.04324889464272 56.605
22.066109049404666 55.5909
22.088792872571794 55.1567
22.111477572219204 55.2108
22.1341631493376 55.2072
22.157026846313123 54.7577
22.179714188221507 54.1352
22.202402410582668 53.0547
22.22509151438863 51.5243
22.24795876962584 50.2434
22.270649646204486 49.4174
22.293341407213727 48.8328
22.316034053646906 48.4336
22.338904883215342 48.3363
22.36159931041458 48.2078
22.38429462602756 47.9898
22.40699083104897 47.926
22.429865251039757 47.9111
22.452563244831367 47.9194
22.47526213102522 47.8204
22.49813925616515 47.5358
22.520839937143307 47.6218
22.543541513520587 47.7427
22.56624398629403 47.6573
22.589124730075895 47.526
22.611829005656723 47.6274
22.63453418063466 47.5301
22.657240256008077 47.6941
22.680124634582935 47.8493
22.70283252079775 48.0616
22.725541310413075 48.2911
22.74825100442868 48.4036
22.771139033969575 49.0157
22.79385054687155 49.1328
22.81656296718292 49.8401
22.83927629590484 50.6984
22.862167992606945 51.8684
22.88488314827121 53.1588
22.907599215359284 54.2777
22.93031619487366 55.4327
22.953211574954405 56.4611
22.975930389478226 56.9042
22.998650119445763 56.8637
23.02137076586092 56.1643
23.044269845560063 54.9934
23.06699233506288 53.2979
23.089715744034912 51.5342
23.112617610931565 49.9695
23.135342869061212 48.876999999999995
23.158069049684816 48.318999999999996
23.1807961538087 47.8463
23.20370174880544 47.8313
23.226430710184808 47.6647
23.249160598093425 47.6107
23.271891413539002 47.5844
23.294800752937697 47.7081
23.31753343374794 47.9725
23.340267045128353 47.9813
23.36300158808808 48.2281
23.38591468821339 48.5012
23.408651104658304 48.9304
23.431388455719986 49.5517
23.454126742409 50.5272
23.4770436196085 51.5317
23.499783787914662 53.0521
23.522524894889884 54.215
23.54526694154616 55.4453
23.56818761219047 56.4037
23.59093154860734 56.6841
23.613676427751283 56.946999999999996
23.636422250635754 55.9664
23.659346731118656 54.3443
23.68209445191868 52.2974
23.704843119509587 50.4125
23.72759273490623 48.6827
23.750521041644767 47.2941
23.77327256312355 46.2932
23.796025035462787 45.7643
23.818956224555475 45.2924
23.841710609113413 45.1388
23.86446594758979 44.6317
23.887222241002014 44.5784
23.910157285144578 44.2892
23.932915498962537 44.4103
23.955674670778713 44.1224
23.978434801611975 44.1095
24.001373717286125 43.983000000000004
24.024135776723917 43.788999999999994
24.046898798245582 43.5758
24.06966278287146 43.4729
24.092605586582614 43.4235
24.115371508023642 43.2553
24.1381383956401 43.3241
24.16090625045381 43.1058
24.183852958731244 43.076
24.206622758582608 42.9197
24.229393528706886 42.8668
24.252165270127392 42.9356
24.27511589952438 42.821999999999996
24.297889594216997 42.6022
24.32066426328598 42.5857
24.34343990775613 42.4815
24.36639447485003 42.4454
24.38917208083877 42.3372
24.41195066531332 42.2299
24.43490819850244 42.2388
24.457688750692377 42.1529
24.48047028445616 42.1537
24.503252800821233 42.2702
24.526214300784112 42.3462
24.548998793132213 42.3184
24.57178427117417 42.1176
24.59457073593893 42.2905
24.617536219319863 42.1186
24.64032466834748 42.0897
24.663114107195035 41.9538
24.685904536893013 41.7793
24.708874020360852 41.8099
24.731666442613744 41.6887
24.754459858818787 41.681999999999995
24.777254270007962 41.4753
24.80022777025625 41.2866
24.82302418230472 41.2963
24.845821592443674 41.358999999999995
24.86862000170663 41.4189
24.891597535453727 41.1518
24.914397953892728 41.3126
24.93719937456671 41.3686
24.96000179851076 41.3903
24.98298338249997 41.6684
25.00578782394922 41.8521
25.028593271784167 41.9476
25.05157790644186 42.2712
25.07438537804115 42.4681
25.097193859145293 42.6329
25.120003350792075 42.9038
25.142992065061257 43.2284
25.165803588823465 43.3762
25.18861612625217 43.646
25.211429678386736 43.7332
25.234422489079968 43.7578
25.257238081693636 43.905
25.280054692141732 44.2319
25.3028723214652 44.2433
25.325869245420463 44.2949
25.348688923599397 44.2537
25.371509623787006 44.0808
25.394331347025812 43.8762
25.41733240110666 43.2022
25.440156181590016 42.5822
25.46298098826268 41.9503
25.48580682216873 41.4213
25.50881202326435 40.9468
25.53163992281684 40.8119
25.55446885274561 40.4387
25.577298814096377 40.1787
25.600308179121807 40.0231
25.623140214533745 40.0697
25.64597328451537 39.8929
25.66898578564376 39.7963
25.691820936010206 39.6876
25.714657124097695 39.6336
25.737494350954734 39.6773
25.760511045684957 39.6767
25.783350361364224 39.6748
25.806190718969255 39.713
25.82903211955018 39.8181
25.852053024868923 39.8639
25.874896522722523 39.8364
25.897741066713106 39.8517
25.920586657892454 39.8334
25.943611790812668 39.9184
25.966459487728237 40.1658
25.989308234998564 40.1579
26.01215803367705 40.5756
26.03518741123814 40.8527
26.05803932412957 40.8576
26.080892291600094 40.881
26.10374631470478 40.8953
26.12677995397268 40.9935
26.14963609978026 40.8291
26.172493304397875 40.4799
26.19535156888223 40.355
26.218389486949604 39.9748
26.241249882640123 39.6528
26.26411134137826 39.5074
26.28715248187403 39.4959
26.31001607820869 39.35
26.3328807407756 39.1017
26.35574647063438 39.25
26.37879191991473 39.1384
26.401659795896734 39.2227
26.424528742360263 39.4272
26.447398760366614 39.4839
26.470448535598294 39.7336
26.49332070826805 39.7912
26.516193955675355 40.253
26.53906827888316 40.6249
26.562122397260108 40.7549
26.584998883685063 40.9777
26.607876449110325 41.215
26.63075509460056 41.3358
26.65381357334404 41.5899
26.67669439061878 41.4391
26.699576291163382 41.2951
26.722459276044212 41.0846
26.745522132402975 40.7007
26.768407297649354 40.6684
26.791293550442003 40.2296
26.814180891848974 40.1968
26.837248143099337 39.8145
26.860137673466657 39.7432
26.88302829566349 39.4598
26.90592001075963 39.1998
26.92899167420566 39.0346
26.951885586870763 38.6357
26.974780595655517 38.4267
26.99785558178161 38.4184
27.020752794605112 38.2901
27.043651106772522 38.1996
27.06655051935668 38.1291
27.089629948036183 37.9705
27.112531573292053 37.9066
27.135434302194138 38.0193
27.158338135817015 37.8092
27.181422024430987 37.9644
27.204328079372566 37.6381
27.22723524226965 37.7851
27.250143514198573 37.8256
27.273231880156334 37.6549
27.296142382065014 37.6703
27.319053996245536 37.626
27.341966723775965 37.6932
27.365059584515222 37.7707
27.38797455070062 37.7266
27.410890633481237 37.6321
27.433807833936918 37.5641
27.456905206923906 37.6035
27.47982465472398 37.6908
27.502745223449743 37.8819
27.525666914182825 37.9569
27.548768816912457 37.8397
27.571692763693633 37.7168
27.59461783573812 37.6567
27.617723149491244 37.5376
27.640650484125285 37.4485
27.66357894728264 37.3844
27.686508540048052 37.3267
27.709618414237887 37.1595
27.732550278321757 37.1468
27.755483275279115 37.1015
27.778417406196485 37.0638
27.801531858397514 37.0839
27.824468269376716 37.0271
27.847405817586786 36.9849
27.870344504116094 37.0844
27.893463551932008 37.4492
27.916404527281053 37.551
27.93934664422563 37.6267
27.962289903855886 37.7263
27.98541356491974 37.9981
28.00835912214229 38.1154
28.03130582533231 38.2284
28.054253675581805 38.4468
28.077381967556104 38.2972
28.100332124185126 38.3429
28.123283431160893 38.1549
28.146235889577238 38.0069
28.169368830154156 37.7839
28.192323603752033 37.7389
28.215279532083304 37.4311
28.238415973016764 37.1984
28.261374223145094 37.0089
28.284333631303806 36.9405
28.307294198589954 36.7228
28.330435319167677 36.4086
28.353398217078915 36.1678
28.376362277420153 35.9868
28.39932750129032 35.9084
28.422473319286713 35.7619
28.44544088262495 35.6835
28.468409612800283 35.5486
28.491379510913497 35.4238
28.51453004413313 35.3268
28.53750229057244 35.2176
28.56047570826344 35.1303
28.583450298308804 35.2501
28.606605564586562 34.981
28.629582511831156 35.0484
28.65256063474956 34.7664
28.675539934446338 34.903
28.698699951647605 34.9688
28.72168161743193 34.7865
28.74466446331978 34.7644
28.767648490417624 34.7755
28.790813276438353 34.875
28.813799678527303 34.689
28.836787265157085 34.7492
28.859955641890075 34.7521
28.882945610203045 34.7635
28.905936766392035 34.6317
28.928929111566863 34.6721
28.952102288520145 34.6752
28.975097024308607 34.4216
28.998092952423807 34.387
29.021090073977508 34.1837
29.04426806913204 34.2641
29.067267590245258 34.0231
29.090268308143695 33.9128
29.11327022394099 33.9343
29.13645305530891 33.6898
29.159457379627167 33.7054
29.18246290519685 33.6346
29.20546963313352 33.7236
29.22865731875826 33.7795
29.25166646419296 33.6523
29.27467681535305 33.5553
29.29768837335608 33.7049
29.320880931312562 33.6031
29.34389491580634 33.633
29.366910110507334 33.6252
29.38992651653503 33.6313
29.41312396492981 33.6495
29.436142806456754 33.6082
29.45916286268059 33.3963
29.48236399319994 33.2674
29.50538649169417 33.2254
29.528410208259935 33.1229
29.55143514402014 32.8547
29.574641196749695 32.8197
29.597668583816574 32.7026
29.6206971934585 32.5358
29.64372702680042 32.5377
29.666938019934474 32.466
29.689970313635285 32.4149
29.713003834422636 32.4085
29.73603858342347 32.2775
29.759254535188578 32.2051
29.78229175361658 32.2438
29.80533020365064 32.2032
29.82836988641968 32.2004
29.85159081507472 32.1859
29.874632976355343 32.0907
29.89767637376955 32.0074
29.920721008448314 31.9968
29.9439469322847 31.8821
29.96699405457564 32.0087
29.9900424175358 32.0742
30.013092022298157 31.9285
30.03632295963995 31.8744
30.059375061131373 31.9384
30.08242840783577 32.0136
30.105483000888153 31.9159
30.128718970092244 31.8218
30.151776069006917 31.7561
30.17483441768648 31.8058
30.198074175317235 31.7282
30.221135036724256 31.9118
30.24419715131772 31.729
30.267260520236203 31.656999999999996
30.290505341942243 31.698
30.313571232750228 31.7142
30.336638381310948 31.6895
30.35970678876503 31.6219
30.38295669299435 31.555999999999997
30.40602763151657 31.5574
30.429099832366074 31.6021
30.452173296685572 31.4924
30.47542830191959 31.4034
30.498504306502497 31.4337
30.521581577995562 31.4444
30.544660117543582 31.6274
30.56792024229725 31.5288
30.59100133132069 31.5858
30.614083691845494 31.6729
30.637167325018545 31.6834
30.660432587840603 31.5663
30.683518779717886 31.6198
30.70660624769615 31.6472
30.729694992924372 31.6362
30.75296541239743 31.5865
30.77605672557558 31.5194
30.799149319462742 31.535
30.8224236211637 31.3818
30.845518789950724 31.225
30.868615242910597 31.1762
30.891712981195973 31.0578
30.91499247215866 31.0229
30.938092794619365 31.0318
30.96119440587579 30.9024
30.984297307082752 30.7943
31.00758200598383 30.7942
31.030687500658694 30.5541
31.053794288760695 30.559
31.076902371446767 30.5908
31.100192296997445 30.5976
31.12330298246119 30.3965
31.14641496599209 30.3148
31.169528248749216 30.4407
31.19282341969534 30.3395
31.215939314557186 30.3214
31.239056512134788 30.3296
31.262175013589378 30.3401
31.28547544871168 30.2281
31.30859657161541 30.2368
31.331719001892175 30.2805
31.35484274070538 30.3712
31.378148458819545 30.3536
31.401274828443725 30.3319
31.424402510106933 30.3387
31.447712205419993 30.3697
31.470842524931633 30.301
31.493974159989783 30.3021
31.51710711176168 30.1803
31.54042212308802 30.283
31.563557722100917 30.2887
31.586694641341655 30.096
31.609832881979628 29.9253
31.63315322823208 29.8528
31.656294125521327 29.7847
31.679436347728515 29.6775
31.70257989602529 29.5996
31.725905596152327 29.7315
31.74905181052835 29.5467
31.772199354521323 29.5625
31.79534822930507 29.5867
31.818679302290967 29.6007
31.84183085259981 29.5832
31.864983737233473 29.6409
31.88813795736804 29.6063
31.911474422233013 29.443
31.934631327356435 29.579
31.9577895715215 29.5383
31.980949155906522 29.483
32.004291031706956 29.3578
32.027453310562606 29.2878
32.05061693318573 29.205
32.07396288236386 29.2278
32.09712920658542 29.217
32.12029687812702 29.0343
32.14346589817093 28.9363
32.166817291729984 29.0254
32.18998902288583 28.9651
32.21316210610336 28.8396
32.23633654256711 28.7468
32.259693399663725 28.6305
32.282870556771144 28.5504
32.30604907069099 28.6588
32.329228942610065 28.5597
32.35259128243769 28.485
32.375773884550505 28.4137
32.398957848235646 28.4157
32.422143174682176 28.3574
32.445511016471215 28.2485
32.468699082679954 28.2017
32.49188851523011 28.1956
32.51507931531304 28.0849
32.538452678331 28.1267
32.56164622776311 28.0186
32.58484114831493 27.9555
32.60803744118015 28.0392
32.631416344731896 28.0257
32.654615396551876 27.910999999999998
32.67781582427913 27.8406
32.701198898634416 27.8136
32.72440209253756 27.7369
32.747606665947124 27.7428
32.77081262006088 27.6275
32.79420126883317 27.5793
32.81740999876112 27.656
32.840620112999424 27.5317
32.86383161274818 27.4791
32.88722585534586 27.4695
32.91044014056596 27.5136
32.933655814909734 27.4829
32.95687287957963 27.5132
32.98027273544904 27.4019
33.00349259526636 27.3433
33.026713849030116 27.4387
33.04993649794511 27.3117
33.073341986570746 27.331999999999997
33.09656744032826 27.329
33.11979429286444 27.3544
33.14302254538647 27.2139
33.166433686291185 27.1305
33.18966475336992 27.0389
33.212897224069096 27.0557
33.23613109959831 27.1144
33.259547912343415 27.0569
33.2827846121627 27.1731
33.306022720453775 27.0264
33.32926223842861 26.8814
33.352684742614166 26.9056
33.37592709463173 26.924
33.399170859982064 26.8204
33.422597648419426 26.6906
33.44584425514446 26.6158
33.46909227885668 26.6535
33.4923417207723 26.5178
33.51577423505344 26.5721
33.539026528130385 26.4026
33.56228024307245 26.3637
33.585535381098246 26.3152
33.60897364093058 26.2066
33.63223163992385 26.2511
33.6554910656699 26.2317
33.678751919389796 26.1533
33.702195944520106 26.0623
33.72545966903325 26.1053
33.74872482519663 25.9909
33.771991414233746 25.9776
33.79544122444841 25.9392
33.81871069412428 25.8952
33.84198160035767 25.9061
33.86525394437455 25.8757
33.88870955949969 25.8123
33.911984794020626 25.8822
33.93526147001624 25.7855
33.958539588715006 25.7591
33.98200102861669 25.6648
34.0052820477047 25.5595
34.02856451319451 25.6243
34.05203033759056 25.5392
34.07531571090147 25.5104
34.09860253431845 25.4513
34.121890809074316 25.4261
34.145362493118924 25.4092
34.16865368561615 25.2966
34.191946333164054 25.2886
34.21524043699793 25.295
34.23871800066799 25.2612
34.26201503218366 25.2413
34.28531352370466 25.2046
34.30861347646881 25.0581
34.33209693978188 25.0391
34.3553998301885 25.0596
34.378704185565205 25.0045
34.402010007152356 24.9088
34.42549939016683 25.016
34.44880815937748 24.8581
34.472118398533134 24.7535
34.49543010887669 24.8102
34.51892543169198 24.6753
34.54224009966052 24.7029
34.56555624255917 24.6802
34.58887386163339 24.5619
34.61237514439016 24.5507
34.6356957311114 24.5382
34.65901779775809 24.4917
34.68252356662995 24.5119
34.705848608458616 24.4125
34.72917513396849 24.4397
34.75250314440949 24.3876
34.77601490857862 24.3506
34.799345904259795 24.1805
34.82267838863559 24.1989
34.846012362958525 24.1499
34.869530142679984 24.1797
34.89286711232212 24.0875
34.91620557568269 24.0702
34.93954553401677 24.1159
34.9630693495876 23.9985
34.986412313340814 24.0114
35.00975677584668 24.023000000000003
35.033102738362956 23.9628
35.05663261012228 23.8901
35.0799815881786 23.9793
35.10333207003229 23.82
35.12668405694369 23.8798
35.150220005273056 23.871
35.17357501786656 23.7083
35.19693153931268 23.7348
35.220289570874385 23.6955
35.24383161619786 23.6446
35.267192683604904 23.741999999999997
35.290555264930376 23.7283
35.314101899412165 23.6093
35.33746752422433 23.6496
35.36083466676374 23.6578
35.38420332829803 23.573
35.407756095629054 23.596
35.43112781085063 23.5092
35.45450104888391 23.4029
35.477875810999194 23.4901
35.50143473172161 23.3806
35.52481255774625 23.4215
35.54819191167777 23.4041
35.57157279478914 23.344
35.595137889488406 23.2937
35.61852184675279 23.2348
35.641907337029984 23.1453
35.665294361595684 23.1314
35.68886565090076 23.108
35.7122557598848 23.0807
35.73564740699838 23.1002
35.759040593519934 23.0171
35.78261809810353 22.8984
35.80601437933051 22.8986
35.829412203814705 22.9628
35.85281157283719 22.8573
35.876395313415884 22.9172
35.8997977874528 22.8066
35.92320180988546 22.7536
35.946790244133936 22.6887
35.97019737933222 22.6793
35.993606066789866 22.6595
36.01701630779276 22.6817
36.04061101440684 22.6007
36.06402437852291 22.4665
36.08743930005611 22.5217
36.1108557802951 22.5109
36.13445678011326 22.4548
36.15787639383515 22.4222
36.18129757014299 22.4677
36.20472031032821 22.3866
36.22832762423364 22.29
36.25175350829375 22.1954
36.275180960119776 22.2385
36.298609981005924 22.3069
36.32222362992669 22.1914
36.34565580510207 22.2258
36.36908955323448 22.0904
36.39252487562093 22.0707
36.416144880530226 22.0463
36.43958336764275 22.0161
36.463023432914625 22.0386
36.486465077645676 21.8824
36.51009145956204 21.9722
36.53353627947859 21.9591
36.55698268276811 21.9236
36.58043067073321 21.8533
36.60406345072071 21.7178
36.62751462435344 21.7127
36.65096738658405 21.7591
36.67460498210655 21.7937
36.69806093788647 21.6816
36.72151848619297 21.5887
36.744977628333636 21.644000000000002
36.76862165890998 21.5642
36.79208400512205 21.5109
36.81554794910557 21.5844
36.83901349217101 21.4828
36.862663978991606 21.401
36.88613273667352 21.4576
36.90960309738324 21.403000000000002
36.933075062434064 21.351
36.95673202673572 21.3737
36.98020721697122 21.2959
37.003684015502365 21.2708
37.027162423645365 21.2477
37.050825886711465 21.2101
37.07430753063053 21.1216
37.09779078812467 21.0743
37.121275660513014 21.0518
37.144945643673694 21.0534
37.16843376245278 20.975
37.19192350009803 21.0281
37.215414857931435 20.9999
37.239091382563885 20.9728
37.262585997426164 20.8965
37.28608223645736 20.923000000000002
37.309763684451696 20.8933
37.33326318851098 20.8079
37.356764320726555 20.7467
37.380267082425526 20.7335
37.40395510942588 20.6891
37.42746114683234 20.6206
37.45096881771841 20.6027
37.474478123414166 20.6555
37.49817275092816 20.6199
37.52168534303452 20.5589
37.54519957395567 20.4539
37.568715445024665 20.451
37.592416694607714 20.4231
37.61593586281424 20.4206
37.63945667518264 20.3685
37.66297913304891 20.3063
37.68668702630454 20.3317
37.710212792059274 20.2825
37.733740207334854 20.2531
37.757269273470364 20.2062
37.780983832050374 20.1569
37.80451621684926 20.169
37.82805025654007 20.1734
37.851585952464795 20.0516
37.8753071980695 20.0402
37.89884622345676 19.9541
37.92238690911902 19.9503
37.94611318753442 19.9639
37.969657210779765 19.8579
37.99320289834801 19.8816
38.016750251586465 19.8302
38.04048325513017 19.7737
38.06403395679343 19.7124
38.087586328183946 19.7294
38.11114037065203 19.6829
38.13488012115898 19.7111
38.1584375229181 19.6985
38.181996599821 19.6119
38.205557353221124 19.5842
38.229303872575656 19.5864
38.2528679961576 19.5396
38.27643380031219 19.5083
38.30000128639589 19.4802
38.32375459653193 19.5025
38.34732546371299 19.4579
38.37089801690786 19.3419
38.39447225747609 19.2316
38.418232380377425 19.2648
38.441810012983396 19.3353
38.46538933705673 19.2561
38.488970353960084 19.2728
38.51273731166058 19.1841
38.536321731567014 19.1642
38.55990784840681 19.1505
38.58367995004091 19.0564
38.60726947812959 18.9948
38.63086070726198 19.0771
38.654453638806274 19.0424
38.678232613930824 18.9967
38.70182896773327 18.9615
38.72542702806741 18.9214
38.7490267963045 18.8637
38.77281266709232 18.820999999999998
38.79641586862214 18.7907
38.8200207821842 18.7205
38.843627409152944 18.7982
38.86742019782782 18.8025
38.891030269149255 18.7166
38.914642058016156 18.7267
38.938255565806124 18.6586
38.96205529464307 18.596
38.98567225787121 18.6006
39.00929094417078 18.5911
39.03291135492255 18.5926
39.05671804624804 18.476
39.080341923549106 18.4722
39.103967529460334 18.5096
39.127594865365744 18.3809
39.15140854155791 18.3672
39.17503935514948 18.3991
39.19867190290282 18.3756
39.22249083587951 18.3082
39.24612686969409 18.3219
39.269764641845306 18.3263
39.293404153722804 18.2954
39.317230110864074 18.1656
39.34087311998506 18.1101
39.36451787301696 18.12
39.388164371352595 18.0958
39.41199737518003 18.0921
39.43564738196752 18.0437
39.45929913825317 18.019000000000002
39.48295264543308 17.9111
39.506792718520884 17.9161
39.530449745387216 17.8674
39.55410852735203 17.88
39.57776906581474 17.838
39.60161623079 17.7946
39.625280300200025 17.8412
39.64894613032202 17.7208
39.67261372255866 17.7878
39.6964680021016 17.7497
39.72013913657293 17.7023
39.74381203738292 17.7077
39.76748670593756 17.6654
39.79134812278169 17.6603
39.81502634488497 17.5803
39.83870633896685 17.5143
39.862388106436654 17.5772
39.88625668336918 17.519000000000002
39.90994201572829 17.5577
39.933629125719285 17.4823
39.957503091207826 17.4249
39.9811937746168 17.4751
40.00488623990914 17.3637
40.02858048850006 17.2935
40.05246165409549 17.2567
40.076159487492085 17.2715
40.099859108448875 17.2789
40.123560518384345 17.219
40.1474489070226 17.1678
40.171153913178564 17.1321
40.194860712584955 17.1746
40.2185693066637 17.1701
40.242464941335314 17.0538
40.26617714307655 17.0477
40.289891143772046 17.0609
40.3136069448471 16.9921
40.33750984859743 16.9891
40.3612292688043 16.9527
40.3849504936829 16.9114
40.40867352466194 16.9258
40.43258372059144 16.8011
40.45631038219906 16.8576
40.48003885420956 16.8784
40.503769138055105 16.8027
40.52768664931955 16.7851
40.55142057531802 16.7895
40.57515631746428 16.7167
40.599079334038514 16.7155
40.62281872700477 16.6285
40.64655994043941 16.5861
40.67030297578061 16.6572
40.69423334835778 16.5435
40.71798004609188 16.5266
40.74172857006355 16.4649
40.76547892171441 16.5343
40.7894166736039 16.5006
40.813170699248566 16.437
40.83692655691388 16.3729
40.86068424804498 16.503
40.884629402612525 16.4585
40.908390779366385 16.3804
40.932153993938 16.3098
40.95591904777605 16.2923
40.979871628443995 16.3167
41.003640379561936 16.2375
41.02741097430883 16.2074
41.05118341413683 16.187
41.075143444384416 16.1705
41.098919593177826 16.1958
41.1226975914255 16.1535
41.14647744058318 16.0743
41.170444943946755 16.0436
41.19422851378379 16.0363
41.218013938914645 16.0271
41.24198706625173 15.9316
41.26577622087193 15.9606
41.289567235177785 15.8763
41.31336011063129 15.8341
41.337340752422875 15.9088
41.361137369129835 15.8434
41.38493585138705 15.8394
41.40873620066004 15.7773
41.43272438060107 15.7908
41.45652848292052 15.761
41.48033445666918 15.7468
41.50414230331616 15.7353
41.528138045159764 15.661
41.551949656675205 15.5748
41.575763145513235 15.623
41.59957851314666 15.6365
41.62358184070442 15.5753
41.64740098505737 15.5225
41.6712220126409 15.4743
41.69504492493139 15.5165
41.71905586207357 15.4788
41.74288256296395 15.4425
41.766711153007456 15.4181
41.79054163368412 15.4107
41.814560204340054 15.3138
41.838394485526365 15.3154
41.86223066180303 15.3073
41.88625497706819 15.3129
41.910094962812 15.2578
41.93393684811168 15.21
41.95778063445365 15.1768
41.981812625263366 15.1478
42.00566023303407 15.1181
42.029509746323676 15.0929
42.05336116662236 15.1042
42.077400857069705 15.0272
42.10125611078846 15.0403
42.12511327600405 15.0279
42.14897235421036 15.0025
42.173019768448455 14.9681
42.19688269209613 14.9778
42.22074753323349 14.9313
42.24461429335818 14.8885
42.268669455600495 14.859000000000002
42.292540073217886 14.8539
42.31641261433284 14.8746
42.34028708044675 14.7784
42.36435001496739 14.7542
42.38822835065557 14.7961
42.41210861586426 14.7609
42.4359908120986 14.7476
42.46006154323262 14.6964
42.48394762115317 14.6807
42.507835634632315 14.6628
42.531912233047436 14.6057
42.55580413732265 14.6364
42.579697981698 14.5761
42.60359376768525 14.5276
42.62767820545945 14.5239
42.65157789440821 14.5348
42.67547952952185 14.4447
42.699383112316 14.4947
42.72347541395347 14.4107
42.74738291190531 14.3371
42.771292362102166 14.4009
42.795203766063516 14.3407
42.819303956130405 14.3342
42.843219287476536 14.3075
42.86713657716324 14.2641
42.89105582671383 14.2723
42.91516392983864 14.2661
42.939087119032166 14.1813
42.963012272677304 14.1946
42.98693939230129 14.1375
43.01105543317513 14.0897
43.034986504731386 14.1054
43.05891954686589 14.0758
43.08285456110972 14.0569
43.10697856448665 14.0266
43.130917542983475 13.9772
43.15485849820081 13.9718
43.17880143167367 13.9025
43.20293342237094 13.9224
43.226880332449 13.9085
43.25082922540554 13.9208
43.27496722682525 13.8306
43.29892010567796 13.8161
43.32287497204102 13.8202
43.34683182745632 13.7544
43.370977859791836 13.7601
43.39493871351105 13.7347
43.41890156092628 13.7127
43.44286640358341 13.6913
43.46702049182749 13.654000000000002
43.49098934522816 13.664000000000001
43.51496019852649 13.6388
43.5389330532723 13.6774
43.56309522248204 13.5706
43.58707210044314 13.54
43.61105098451946 13.5308
43.63503187626491 13.5034
43.659202151562134 13.4399
43.68318707902681 13.4345
43.70717401884041 13.4403
43.731162972560874 13.3797
43.75534137913236 13.4096
43.779334381108384 13.3526
43.803329401683186 13.3461
43.82732644241872 13.3265
43.8515130055166 13.296
43.87551410707659 13.2536
43.89951723350145 13.2577
43.923709934595614 13.205
43.94771713129917 13.1739
43.97172635758096 13.1876
43.99573761501002 13.1641
44.0199385169922 13.1377
44.04395385732619 13.0991
44.067971233533086 13.0882
44.09199064718605 13.0761
44.11619977548961 13.0378
44.14022328470671 13.0095
44.16424883610785 13.0492
44.18827643127035 13.0086
44.21249381139513 13.0246
44.236525514814076 12.9486
44.26055926674478 12.9026
44.28459506876863 12.9274
44.3088207262813 12.8689
44.33286064928722 12.8633
44.35690262714919 12.8304
44.38094666145278 12.7848
44.4051806219871 12.8113
44.42922879003185 12.7462
44.45327901929361 12.7312
44.477331311362136 12.7235
44.501573600619416 12.6717
44.525630039221795 12.6715
44.54968854541895 12.6843
44.573937102200176 12.629000000000001
44.5979997645541 12.5885
44.622064499300315 12.5802
44.64613130803592 12.5563
44.67038823869318 12.5573
44.69445921643748 12.4991
44.718532272981385 12.4165
44.742607409926194 12.4568
44.76687274034801 12.4022
44.79095205918753 12.3836
44.81503346325094 12.3388
44.839116954143876 12.3567
44.86339071028742 12.3671
44.88747839599524 12.3389
44.91156817336837 12.3411
44.93566004401666 12.3105
44.959942251908146 12.2584
44.984038330325966 12.1753
45.00813650686762 12.2245
45.03223678314731 12.2092
45.05652746888232 12.1612
45.08063196592069 12.1516
45.104738567558705 12.1692
45.128847275414856 12.1138
45.15314646515866 12.072000000000001
45.17725940679741 12.0535
45.20137445952892 12.052
45.22568004865265 12.0178
45.24979934496396 12.0022
45.27392075725247 11.9962
45.29804428714431 11.9614
45.322358426247604 11.9364
45.346486212804315 11.8898
45.370616121861914 11.8751
45.39474815505086 11.8909
45.41907087049246 11.8494
45.4432071734666 11.808
45.46734560548283 11.8343
45.49148616817604 11.835999999999999
45.51581748638564 11.7622
45.5399623320197 11.7687
45.56410931325473 11.713
45.58825843173002 11.7189
45.61259837920865 11.6441
45.636751793816 11.6907
45.66090735060093 11.6609
45.68506505120716 11.6432
45.7094136545275 11.5805
45.73357566449271 11.5644
45.75773982322992 11.5936
45.78190613238733 11.5551
45.806263418194064 11.4756
45.83043404997326 11.5135
45.85460683713677 11.5317
45.87897065658495 11.484000000000002
45.90314777634752 11.4268
45.92732705646868 11.4399
45.9515084986045 11.4696
45.97588104735473 11.4066
46.00006683541565 11.3844
46.02425479047904 11.3704
46.04844491420549 11.3523
46.0728262191024 11.3393
46.09702070211635 11.2975
46.12121735879483 11.3054
46.14541619080294 11.2377
46.169806278764455 11.2315
46.194009483459034 11.1864
46.21821486849841 11.207
46.24242243555223 11.1564
46.266821333570014 11.1419
46.29103328674601 11.1032
46.31524742696538 11.0699
46.33946375590237 11.0825
46.36387149104216 11.095
46.38809221957392 11.0069
46.41231514186606 11.0184
46.436540259597464 11.0038
46.460956858999374 10.9713
46.48518638983522 10.954
46.509418121166966 10.9501
46.533652054678114 10.9204
46.55807754555709 10.9038
46.58231590571962 10.9238
46.60655647313217 10.8807
46.630988654873654 10.8435
46.655233659129024 10.8124
46.67948087571551 10.7937
46.70373030632484 10.7418
46.72817142736393 10.7616
46.752425308428684 10.7235
46.77668140861147 10.7551
46.80093972960865 10.7114
46.82538981736788 10.6734
46.849652602470904 10.6761
46.87391761349769 10.6153
46.8981848521493 10.5804
46.9226439341274 10.5916
46.946915650573224 10.5718
46.97118959976749 10.5432
46.99546578341598 10.524000000000001
47.019933887188216 10.5025
47.04421456235744 10.4883
47.06849747711879 10.4217
47.09278263318286 10.4117
47.11725978640143 10.4429
47.14154944775105 10.4305
47.165841355555656 10.4072
47.1901355115306 10.3917
47.214621741924994 10.3626
47.23892041698887 10.364
47.26322134538975 10.2808
47.28771440635075 10.284
47.31201986422527 10.2998
47.33632758061436 10.2539
47.360637557241866 10.2592
47.38513974410611 10.2285
47.40945426407847 10.2558
47.43377104948137 10.2046
47.45809010204344 10.187000000000001
47.48260144275502 10.1595
47.506925052572285 10.0885
47.53125093475548 10.0456
47.55557909103813 10.1049
47.58009961361992 10.0807
47.60443234110732 10.0603
47.62876734791564 10.0439
47.65310463578333 10.0209
47.6776343683373 10.0138
47.7019762413987 10.0189
47.72632040075572 9.96795
47.75066684815169 9.95983
47.77520581885936 9.908660000000001
47.799556865477655 9.91363
47.823910205386 9.92148
47.84826584033272 9.880460000000001
47.87281407745551 9.82525
47.89717432569297 9.8873
47.92153687423484 9.81855
47.94609208429692 9.79313
47.97045925671401 9.79092
47.99482873471275 9.72054
48.01920052005013 9.75123
48.04376504619224 9.75098
48.068141469543484 9.77031
48.09252020552573 9.68746
48.11690125590099 9.698310000000001
48.1414751266064 9.69899
48.16586082917454 9.657869999999999
48.19024885144316 9.62982
48.2146391951793 9.61388
48.239222439012764 9.63231
48.26361744916137 9.59447
48.28801478610016 9.55037
48.31241445160131 9.52507
48.337007097209366 9.54082
48.36141144338331 9.51627
48.38581812345755 9.48651
48.41022713920929 9.47514
48.434829215320704 9.44003
48.45924292604658 9.44325
48.48365897780325 9.49358
48.50807737237308 9.44289
48.532688907799276 9.410219999999999
48.55711201168574 9.40965
48.581537463754074 9.37766
48.60615611725119 9.371089999999999
48.63058628942721 9.34441
48.65501881516546 9.30602
48.6794536962573 9.29681
48.70408185970339 9.25351
48.72852147531801 9.26677
48.75296345168211 9.28084
48.77740779059232 9.20824
48.80204549302823 9.240680000000001
48.82649458091802 9.20704
48.85094603676547 9.17884
48.87539986237231 9.1399
48.90004713292306 9.14348
48.92450572200832 9.12305
48.94896668628025 9.09274
48.97343002754588 9.087589999999999
48.99808689542115 9.06119
49.02255501470614 9.060789999999999
49.04702551642794 9.050980000000001
49.0714984023988 9.025210000000001
49.096164896893235 9.01172
49.120642575466796 8.9972
49.145122643748394 8.963989999999999
49.16960510355558 8.94944
49.19428125404938 8.9154
49.2187685210852 8.8849
49.243258185121555 8.89852
49.26794160167084 8.87889
49.2924360839405 8.87697
49.31693296869764 8.81701
49.34143225776915 8.819360000000001
49.36612538195438 8.77261
49.39062950396021 8.82211
49.41513603578346 8.79523
49.4396449792564 8.76752
49.46434784069503 8.72663
49.488861631846454 8.7479
49.513377840166804 8.72833
49.537896467493745 8.69427
49.56260909589029 8.62256
49.587132585683285 8.665519999999999
49.611658500018365 8.62779
49.636186840738596 8.60368
49.66090926588511 8.62839
49.685442483902584 8.571860000000001
49.70997813385706 8.56428
49.734516217597076 8.56217
49.75924846937352 8.561010000000001
49.7837914452858 8.54738
49.80833686055187 8.48664
49.83288471702571 8.46544
49.85762682540054 8.44145
49.882179588965734 8.45178
49.9067347993235 8.41455
49.93129245833333 8.43052
49.95604445336378 8.41815
49.98060703442832 8.39265
50.005172069746266 8.421510000000001
50.02993150438364 8.39387
50.05450147301533 8.39149
50.07907390151433 8.34966
50.10364879174981 8.33
50.12841816587289 8.32409
50.1529980044635 8.297189999999999
50.17758031042124 8.25925
50.20216508562089 8.262030000000001
50.22694442953363 8.21757
50.25153416817468 8.22517
50.27612638170508 8.19624
50.300721072005196 8.1796
50.325510416102105 8.207880000000001
50.350110084975064 8.1741
50.37471223628208 8.15105
50.39931687190919 8.13536
50.424116246675766 8.11577
50.44872587605249 8.0735
50.47333799543065 8.094339999999999
50.49795260670191 8.07195
50.52276204271512 8.037410000000001
50.54738166295838 8.05678
50.57200378079314 8.04082
50.596628398116835 7.978439999999999
50.62144792604559 7.99195
50.646077567609396 8.00883
50.670709714377715 7.98071
50.69553683636198 7.903510000000001
50.72017401885922 7.92231
50.7448137122895 7.93841
50.76945591856022 7.92967
50.79429318636823 7.90114
50.818940443716784 7.881069999999999
50.84359021965163 7.83668
50.868242516085964 7.8421199999999995
50.893089960641895 7.800680000000001
50.917747323549435 7.78637
50.94240721271973 7.78224
50.96706963007175 7.74896
50.99192728239342 7.70785
51.01659478166073 7.75635
51.04126481489051 7.6997800000000005
51.06593738400761 7.71347
51.090805275207074 7.6937
51.11548294172845 7.6803
51.14016314993547 7.661410000000001
51.164845901758845 7.6565
51.18972406304274 7.645989999999999
51.21441192780656 7.60825
51.23910234200271 7.626010000000001
51.2637953075678 7.5569
51.288683770237945 7.57216
51.31338186432707 7.55129
51.33808251561888 7.56866
51.362978729967345 7.528989999999999
51.387684521509755 7.496060000000001
51.41239287610203 7.493119999999999
51.437103795691165 7.45741
51.46201036644977 7.47726
51.486726441956634 7.4499699999999995
51.51144508832545 7.4422
51.536166307509156 7.37993
51.56108326624387 7.34922
51.58580965706056 7.39007
51.61053862657523 7.343660000000001
51.635270176746864 7.35991
51.66019755512065 7.359089999999999
51.68493429268881 7.349080000000001
51.70967361681515 7.31187
51.73441552946465 7.28103
51.759353359237934 7.2931
51.7841004750961 7.2983
51.80885018539685 7.2991600000000005
51.833602492111254 7.24538
51.8585508051424 7.2335
51.883308330926425 7.22095
51.90806845906181 7.20666
51.932831191525715 7.17506
51.95779001977161 7.14906
51.98255798721516 7.142239999999999
52.00732856494335 7.134239999999999
52.03229530577543 7.12776
52.057071130455945 7.08529
52.081849571391054 7.1070899999999995
52.106630630568695 7.08332
52.13160794279417 7.041010000000001
52.15639426492067 7.045489999999999
52.18118321127822 7.06365
52.205974783860896 7.005439999999999
52.23096269971011 7.0171600000000005
52.255759551287994 6.96135
52.280559035098186 6.96172
52.30536115314103 6.96062
52.33035970494467 6.9505300000000005
52.35516711807904 6.901330000000001
52.37997717147198 6.92059
52.40478986713005 6.909660000000001
52.42979908731974 6.87326
52.454617094216 6.8607
52.47943774942214 6.87127
52.50426105495102 6.8663
52.529280976059844 6.84753
52.554109609024096 6.85526
52.57894089837482 6.81743
52.60377484613117 6.76313
52.62880550079408 6.7807
52.65364479223379 6.73026
52.67848674816189 6.714460000000001
52.70352547971946 6.72503
52.72837279155837 6.69163
52.753222773982785 6.67426
52.778075429022984 6.69303
52.80312495150885 6.682760000000001
52.827982978797436 6.695539999999999
52.85284368481815 6.64003
52.87770707160767 6.63013
52.90276741793998 6.61954
52.92763619336701 6.6189100000000005
52.952507655698504 6.61867
52.977381806977576 6.603330000000001
53.00245301017842 6.612080000000001
53.02733256653592 6.61643
53.052214817996074 6.54106
53.077099766608484 6.51309
53.102181859804446 6.50474
53.127072229988265 6.51467
53.15196530349892 6.50066
53.17686108239249 6.51957
53.20195409881522 6.4541900000000005
53.22685531582556 6.43012
53.25175924441303 6.41058
53.27666588664027 6.4092
53.30176985962693 6.39646
53.3266819565689 6.42174
53.35159677336455 6.40817
53.376514312083096 6.39923
53.40162927507703 6.3108699999999995
53.42655228516116 6.288530000000001
53.45147802340193 6.3135
53.47660125628886 6.33141
53.50153247842639 6.31936
53.52646643496923 6.30253
53.55140312799818 6.2975900000000005
53.576537409691696 6.259930000000001
53.60147960336152 6.21699
53.626424539786164 6.22384
53.65137222105307 6.23298
53.67651758529126 6.197
53.70147078399681 6.1758
53.72642673383343 6.163130000000001
53.75138543689533 6.14438
53.776541917524526 6.1860599999999994
53.801506154876755 6.15679
53.826473151763246 6.17049
53.851442910284916 6.10395
53.87661054126026 6.0778
53.9015858509782 6.08625
53.92656392866066 6.09473
53.95154477641532 6.0582400000000005
53.976723591801296 6.01645
54.00171000771266 6.0248099999999996
54.02669920004598 6.04245
54.051691170915745 5.99035
54.076881204886796 5.9717199999999995
54.101878760928514 5.9705
54.12687910187696 5.92333
54.152077577768296 5.90905
54.1770835166946 5.93864
54.20209224691339 5.9332400000000005
54.22710377055121 5.88742
54.25231352511594 5.89899
54.27733066384342 5.864240000000001
54.30235060239643 5.8586800000000006
54.32737334290836 5.86365
54.35259441062629 5.75074
54.377622783395324 5.78547
54.40265396455061 5.82337
54.42768795623251 5.79844
54.45292037169559 5.77107
54.477960012857906 5.73365
54.50300247099511 5.7407
54.52804774825457 5.69503
54.55329154616743 5.68424
54.57834249018678 5.66679
54.6033962597977 5.616169999999999
54.6284528571545 5.641719999999999
54.653708072335164 5.5923099999999994
54.67877035378786 5.59243
54.70383546947698 5.5788400000000005
54.72890342156389 5.52846
54.7541700889442 5.50049
54.77924374251975 5.51058
54.8043202390049 5.46911
54.82959552413022 5.46159
54.8546777351945 5.471830000000001
54.87976279569621 5.40414
54.90485070780914 5.44905
54.930137506558005 5.45009
54.95523115074295 5.45553
54.98032765308844 5.37833
55.005427015775496 5.33383
55.03072536339621 5.30502
55.05583047570572 5.27959
55.080938454927676 5.31933
55.10604930325027 5.27309
55.131359235107396 5.28005
55.15647585066083 5.20945
55.181595341907496 5.21886
55.20671771104285 5.1831
55.232039262617704 5.1628300000000005
55.25716741665048 5.16155
55.28229845518636 5.12332
55.30743238042802 5.0414699999999995
55.33276558731939 5.05704
55.357905315183636 5.06149
55.383047936390035 5.01497
55.40819345314859 4.98653
55.433538351073295 4.99354
55.458689688238415 4.95258
55.483843927614096 4.8877
55.509197623043605 4.8753
55.53435769621134 4.89699
55.55952067826466 4.84909
55.5846865714265 4.78977
55.61005202069737 4.7997
55.63522376553902 4.86465
55.66039842818645 4.82308
55.68557601087004 4.7599
55.7109532500271 4.66642
55.73613670233794 4.6952300000000005
