TT I
1.2716486653135266 6.36154
1.2939594142134223 6.69515
1.3162702121660406 6.2529900000000005
1.3385810600174564 6.584630000000001
1.3608919586137629 6.50281
1.383202908801069 6.1115900000000005
1.405513911425503 5.99102
1.4278249673332093 5.99638
1.4501343378461518 5.77491
1.4724455028545926 5.57705
1.4947567236847858 6.02312
1.517068001182951 5.25523
1.5393793361953272 5.4479
1.5616907295681737 5.11214
1.5840021821477681 4.82143
1.60631369478041 5.10719
1.6286252683124185 5.1206
1.6509369035901333 4.24808
1.6732468618895553 4.46126
1.695558623192809 4.25215
1.7178704487808514 4.72079
1.7401823395001077 4.5990400000000005
1.7625012545597203 4.16022
1.7848028405262486 4.26835
1.8071218901122095 4.1258300000000006
1.8294236121921872 3.7923400000000003
1.8517427996910911 4.14027
1.8740620574440425 4.38636
1.8963639900671978 4.390569999999999
1.9186833908139995 4.18825
1.9409854680117449 4.07715
1.9633050151394713 4.20057
1.9856246367570705 4.03672
2.0079269371922672 4.46293
2.03024671027244 3.5629199999999996
2.0525491637446027 4.0555
2.074869091674931 4.214930000000001
2.097171701569106 4.16642
2.1194917877373847 4.884869999999999
2.141811954326636 4.5991
2.164114805233074 4.35004
2.186435135143035 4.27176
2.208738150935709 4.8571800000000005
2.231058647554722 6.43498
2.2533792288321184 6.1554
2.275682498336085 5.24867
2.298003251406138 4.96109
2.3203066942619714 4.74958
2.3426276225136022 5.45408
2.3649486396617507 5.7416599999999995
2.387252348930071 5.38743
2.4095735463442893 6.27516
2.4318774374315884 6.023619999999999
2.4541988185014043 6.732480000000001
2.476502894794693 7.286289999999999
2.498824462909887 8.00798
2.521146125856138 6.91207
2.5434504863470337 6.869739999999999
2.5657723414244717 7.74683
2.588076895590662 7.9508
2.610398946189713 7.989739999999999
2.6327210958598384 8.03421
2.6550259469304716 7.73808
2.6773482972090137 8.548680000000001
2.6996533504259 8.67233
2.7219759047039602 8.651710000000001
2.744298562293959 8.20399
2.7666039251246595 8.637839999999999
2.7889267918020164 8.47611
2.8112323652516555 8.18413
2.833555444408179 8.400360000000001
2.8558786311183852 8.27469
2.8781845268938557 8.85271
2.9005079311721484 9.20509
2.9228140460410397 9.0297
2.9451376712799635 9.13837
2.967444008632326 9.36474
2.9897678582247247 9.490839999999999
3.0120918213106695 10.139
3.0343984987899373 10.0548
3.0567226913198637 11.1929
3.079029599759726 12.1334
3.101354025127254 12.026
3.123678568232338 12.35
3.145985829517914 13.0828
3.16831061055229 13.2536
3.1906181112775593 13.3881
3.212943133635653 14.200999999999999
3.2352682779763207 14.1917
3.2575761442691227 14.5864
3.2799015350264273 15.2238
3.302209649240067 15.7035
3.3245352898092655 15.9954
3.3468436553365257 16.5366
3.369169549113219 16.8116
3.3914955708171384 17.5116
3.413804319727358 18.1084
3.4361305997334863 18.1599
3.4584396084414553 18.8743
3.4807661501462652 19.3864
3.503092824025881 19.6255
3.5254022288463154 19.7519
3.5477291695206588 20.1674
3.5700388426251948 20.422
3.5923660534916446 20.7913
3.6146934007816114 22.1754
3.637003482731501 27.34
3.6593311053109985 29.4086
3.681641464033634 26.1297
3.7039693653009733 24.1203
3.726297407241705 24.0726
3.7486081875460804 23.9483
3.7709365132734978 24.5647
3.793247578841633 25.4833
3.8155761917550093 25.4929
3.8378875459837216 25.3526
3.8602164494827234 25.5483
3.882545499606844 26.6483
3.9048572932539183 27.2105
3.9271866390645718 27.2928
3.9494987298666713 28.3637
3.971828374764527 29.0485
3.9941581705403255 29.7177
4.016470713506008 29.5923
4.038800813471445 30.8774
4.061113662089144 30.5641
4.0834440696459176 31.3603
4.105774632334751 31.6781
4.128087945865126 32.5431
4.150418821249301 32.9786
4.172732448931298 33.7996
4.195063640413578 34.3005
4.2173775856475215 35.9323
4.239709096631102 37.7118
4.262040768704612 51.4366
4.284355196706267 63.1178
4.306687193387355 56.1291
4.329001947444346 43.8724
4.35133427213731 40.772
4.373666762177566 40.4095
4.395982011761091 41.3344
4.418314834921175 41.7645
4.44063041906622 43.0318
4.4629635787515625 44.8269
4.4852969080429785 46.2326
4.5076130004776225 46.4135
4.529946671403969 46.5535
4.552263106909177 47.0616
4.574597122877047 48.175
4.596931312711224 50.2319
4.619248269273446 50.5091
4.6415828092605835 51.6466
4.663900117405352 52.9114
4.686235010953232 53.931000000000004
4.708552674085913 55.6907
4.730887924602802 56.5515
4.753223354952695 57.8431
4.775541557023902 59.6328
4.797877349456786 61.2414
4.820195915032126 63.1577
4.842532072957498 64.4738
4.864868414979744 65.8294
4.88718753227192 68.3705
4.909524244902505 69.7878
4.931843734218147 71.6392
4.954180820867835 74.2516
4.976518095879839 76.9134
4.998838149695359 79.4153
5.021175803844231 82.773
5.043496238205739 85.9757
5.065834274903528 89.4411
5.088172504230693 93.3964
5.1104935158799565 97.6414
5.132832132875765 105.095
5.155153533596801 118.165
5.1774925416746225 137.431
5.199814334878411 230.55
5.2221537374521505 814.3789999999999
5.244493338631803 2542.84
5.266815727034316 7288.43
5.289155727832427 13823.5
5.311478517248165 9918.77
5.333818921080011 3332.64
5.356159527788849 655.5830000000001
5.3784829252032536 200.03099999999998
5.400823940070432 142.167
5.423147747031976 122.97
5.445489173474152 113.677
5.467830807066149 108.48899999999999
5.490155234831516 104.796
5.512497285125229 101.079
5.534822130975162 99.9856
5.557164601388673 97.5854
5.579489868738879 94.585
5.601832762690846 93.8119
5.6241758697774475 92.48100000000001
5.646501775867269 91.8002
5.668845311622074 90.7454
5.691171647754637 89.51299999999999
5.713515615597765 88.4501
5.735859800852677 87.6598
5.758186788542988 86.8761
5.780531411018185 86.8594
5.802858837297399 86.3302
5.825203900414495 86.40799999999999
5.8475491852224 86.1821
5.869877275883075 87.1038
5.892223006467101 88.0132
5.914551544266608 89.0154
5.936897724049891 90.8511
5.959244129804903 95.2236
5.981573344815301 106.098
6.0039202049061 163.532
6.026249875609095 392.616
6.04859719346037 889.885
6.070927323278297 2046.79
6.093275102315365 4481.52
6.115623113320588 5511.93
6.137953938319995 3575.36
6.160302415650845 1088.05
6.182633708324452 241.97299999999998
6.2049826554078376 108.712
6.227331838745022 86.7943
6.249663839443684 79.7312
6.27201349767565 75.8455
6.294345974611799 73.7947
6.316696111167083 72.9768
6.339046488263839 72.0444
6.361379686074702 68.5781
6.383730546639482 66.8804
6.406064229255215 65.3981
6.428415576718203 64.597
6.450749747566656 63.6029
6.47310158535871 62.6627
6.495453669698332 61.7954
6.517788579421056 61.3682
6.540141159237969 60.3788
6.562476565766648 59.0629
6.5848296444934045 58.8394
6.607182974060425 58.5008
6.6295191323281015 57.8189
6.651872965955752 57.7096
6.6742096296068985 58.8107
6.6965639707294615 62.8677
6.71891856698715 64.187
6.741255995248479 60.0978
6.763611104154477 56.6236
6.785949046381137 55.339
6.808304671371482 54.5153
6.8306605557940046 54.4274
6.852999275508618 53.908
6.875355681171544 53.6061
6.897694923437771 53.68
6.92005185377892 53.5231
6.9423916220322655 53.3597
6.964749080490181 52.7545
6.987106804399774 52.1839
7.009447368180821 52.4406
7.031805625367033 51.9844
7.054146723727803 52.3568
7.076505517631004 52.192
7.098864581288365 52.1923
7.121206488070854 51.6298
7.143566093607822 51.5686
7.165908543567245 51.9337
7.188268694426048 51.294
7.2106291193438095 50.8441
7.232972390625943 51.3169
7.255333366030969 51.8239
7.277677189091925 55.3658
7.300038718428332 61.5949
7.322400526130865 60.8638
7.344745183422596 55.5339
7.367107550224791 52.4306
7.389452767901992 51.7729
7.411815697249891 51.656000000000006
7.434161478756298 51.0312
7.456524974096713 51.3505
7.478888753837185 51.2884
7.501235387657368 52.5708
7.523599738562711 57.128
7.545946944825532 65.577
7.568311870344528 69.3609
7.5906770845765665 62.7549
7.613025156078678 55.6326
7.635390950099687 53.521
7.657739602662809 53.0738
7.680105979923558 52.8464
7.702472650212829 53.2877
7.724822180948224 52.8884
7.747189439655568 53.2712
7.769539560075357 53.3304
7.791907410653562 53.5765
7.81425812420825 53.92100000000001
7.836626570110925 53.9281
7.858995315087906 54.7062
7.881346924933401 55.0112
7.903716270417482 55.6646
7.926068482028405 55.742
7.948438431475253 56.5244
7.9708086843180235 56.6448
7.993161805171116 57.3116
8.015532667162402 57.6041
8.037886398416653 58.7071
8.060257873014221 59.2146
8.082629655331942 59.7804
8.104984308787587 60.5459
8.127356708900503 61.2643
8.149711981398308 62.0733
8.172085002766314 63.4118
8.194458336181368 63.793
8.216814543847752 64.8533
8.23918850371002 65.8048
8.26154533906492 66.7303
8.283919928836452 68.2274
8.306277395339652 69.2874
8.328652618483376 70.3709
8.351028159736202 72.0556
8.373386579575245 73.8468
8.395762759396959 75.35300000000001
8.418121819038275 78.0498
8.440498640894003 81.7659
8.462875785192262 86.7345
8.485235811156207 94.3754
8.507613602688501 128.77
8.529974277114228 232.894
8.552352719347912 381.811
8.574731488360351 623.5369999999999
8.59709314210385 1108.84
8.619472567021075 1855.47
8.64183487789147 2337.37
8.664214962183097 2020.7
8.686577933647762 1119.8
8.708958680784317 416.64599999999996
8.731339760774953 170.15900000000002
8.753703729764451 108.066
8.77608547780821 94.7629
8.798450116065078 91.0843
8.820832535634787 88.649
8.843215292401656 87.3418
8.865580941199045 85.8537
8.887964374703538 84.4679
8.910330701447199 83.6321
8.932714815164482 82.8348
8.955099270424924 82.2634
8.977466620733543 81.6056
8.999851761421976 81.2614
9.022219798361645 80.3812
9.04460562795561 80.2697
9.066991803441677 79.6604
9.089360876979615 79.8856
9.111747746589993 79.4281
9.13411751544971 79.2262
9.156505082664324 78.9181
9.178875550323522 79.2447
9.20126381862328 81.211
9.223652438908596 88.7892
9.246023961427412 101.975
9.26841328802173 106.624
9.290785518039224 98.736
9.313175554425882 87.12200000000001
9.335565947154315 81.0848
9.357939245086508 79.5503
9.380330352834827 79.8101
9.40270436697103 79.9211
9.425096193225055 79.8815
9.447488380180165 80.8256
9.469863475295412 80.5229
9.492256385987508 81.3377
9.514632206018318 81.6523
9.537025843935714 81.7756
9.559402392368193 82.316
9.581796761000229 83.4494
9.604191496441521 83.5247
9.626569144158516 84.8517
9.648964615551032 85.73299999999999
9.671343000390081 86.35799999999999
9.693739211225699 87.5123
9.716135793237463 88.1745
9.738515290448102 88.413
9.760912617143402 89.575
9.783292860202891 90.569
9.805690935076182 91.5004
9.828089385495742 92.5457
9.850470754023561 94.3088
9.872869957865444 96.2128
9.89525208097539 99.3602
9.917652041736662 102.88600000000001
9.940052382417589 106.33200000000001
9.962435644102392 115.238
9.984836746950979 147.215
10.007220771957746 228.16299999999998
10.029622640473708 350.593
10.052007432299963 522.25
10.074410069984072 776.9730000000001
10.096813093716005 1203.94
10.119199042482517 1764.41
10.141602840636468 2106.83
10.163989564971628 1733.08
10.186394141051062 1017.05
10.208799107559706 448.01099999999997
10.231187001965623 199.158
10.253592751657669 124.75299999999999
10.275981430388155 107.32799999999999
10.298387966769793 103.15
10.320794897965431 102.16799999999999
10.343184759907361 101.14200000000001
10.36559248305461 99.2668
10.387983138083852 97.6775
10.410391656691655 98.8864
10.432800574501677 107.926
10.455192425893369 130.30100000000002
10.47760214443012 162.885
10.499994797678786 205.30900000000003
10.522405320453982 275.459
10.54479877906917 389.11400000000003
10.567210109595656 513.125
10.5896218454736 595.75
10.612016518879773 572.448
10.634429067781074 405.52
10.656824555333241 241.208
10.679237920773568 143.687
10.701651695961992 103.675
10.724048411481384 92.1635
10.746463008485165 85.8013
10.768860546937125 82.4797
10.791275969274796 79.7122
10.81369180576079 78.8198
10.836090585366925 77.7187
10.858507252467449 76.7053
10.88090686379991 75.6896
10.903324365036394 74.7272
10.925724811614439 73.5425
10.948143150509463 73.5895
10.970561909719066 72.59100000000001
10.992963615930844 71.4896
11.015383218085756 70.5301
11.037785768347074 69.803
11.06020621697282 69.4651
11.082627090322113 69.1854
11.105030913430326 68.3897
11.12745263854165 67.9661
11.149857314510728 67.03
11.172279894912576 67.7364
11.194702904450653 67.6582
11.217108866490921 66.3678
11.239532736615194 65.7643
11.26193956033512 65.0984
11.284364294577085 65.1346
11.306789462371718 64.2663
11.329197585398376 63.857
11.351623622610898 64.0348
11.37403261614354 63.2571
11.396459526308487 63.3015
11.418869393879497 62.5719
11.441297180532617 62.1846
11.463725406927658 62.0519
11.486136592353875 61.8626
11.508565700543707 61.2754
11.530977768845315 61.7241
11.553407762368774 61.5122
11.575838200059769 61.3653
11.598251599479612 61.067
11.620682927815501 60.8195
11.64309721895548 60.6823
11.665529441478206 60.2936
11.687962112597958 60.196000000000005
11.710377748130886 60.1863
11.732811318753434 59.9224
11.755227854859067 60.0509
11.777662328529495 59.8831
11.800079768750786 59.9423
11.822515149015453 59.8206
11.844950984084935 60.0874
11.867369787303163 60.198
11.889806534289491 60.2424
11.912226250487029 61.6941
11.934663912939751 64.0764
11.9571020346363 66.5737
11.979523127133968 66.9946
12.001962169624331 65.5253
12.024384183972964 63.3809
12.046824150809913 64.2017
12.069264581333726 69.4727
12.091687985297767 77.3709
12.11412934550045 86.8018
12.136553680195208 100.10600000000001
12.158995973632788 121.62100000000001
12.181438735204349 147.63
12.20386447284199 181.425
12.226308172985636 200.715
12.24873485024193 210.1
12.271179492516982 178.58599999999998
12.293607112949127 133.653
12.316052700916226 95.9664
12.338498763250042 73.9829
12.360927805303868 64.6759
12.383374818673879 62.3845
12.405804812803074 61.3166
12.428252780773262 61.1888
12.45070122756722 61.3332
12.473132656675375 61.0375
12.49558206341869 61.5387
12.518014453510101 61.4626
12.540464823770117 61.6872
12.562915677315177 61.7838
12.58534951575545 62.3348
12.607801338171472 62.0229
12.630236146511358 62.9264
12.652688941369085 63.861000000000004
12.675124723177234 64.1025
12.697578494048786 64.4232
12.720032754458185 64.1224
12.742470003354093 64.2032
12.764925245138771 64.6302
12.787363476431278 64.7953
12.809819703166806 65.4232
12.83227642391173 66.0367
12.854716135692716 66.8834
12.877173846755147 67.6431
12.899614549869717 68.1587
12.9220732548287 68.9846
12.94453245827299 69.3041
12.966974655289818 70.6202
12.989434858002571 71.3509
13.011878055298721 71.8922
13.034339260862497 72.7786
13.056800969391883 74.413
13.079245674017244 76.684
13.101708390774869 78.4861
13.12415410463411 82.4614
13.146617833206086 92.3617
13.169064559883248 108.39
13.191529303857127 127.34
13.213994557076367 150.183
13.236442809902437 183.50799999999998
13.258909083908291 232.239
13.28135835851934 295.251
13.30382565690295 372.459
13.326293469022952 441.767
13.348744283242008 448.75
13.371213125129904 380.964
13.39366497011003 279.457
13.416134845360597 183.012
13.438605238843131 127.046
13.46105863690397 102.539
13.483530069144786 99.2147
13.505984506951902 107.725
13.528456981549432 121.11200000000001
13.550929978879088 137.2
13.573385983253365 158.282
13.595860028340867 190.72799999999998
13.618317081455832 238.93400000000003
13.64079217790333 299.685
13.663250283359057 358.33099999999996
13.685726434770173 388.917
13.708203115221277 362.80800000000005
13.730662806148091 287.909
13.75314054697177 205.06400000000002
13.775601299246777 137.53799999999998
13.798080104050406 99.9104
13.820559442405358 84.5831
13.843021793671388 79.8514
13.865502201420897 77.6347
13.887965623051947 77.0641
13.910447103807167 75.7842
13.932929122629764 74.5067
13.955394156785959 74.375
13.977877254034569 73.5985
14.000343367582113 72.8745
14.022827546871707 72.2109
14.045294743423524 71.4363
14.06778000837062 70.8089
14.090265817715476 70.8465
14.112734645763819 71.4567
14.13522154619454 73.0349
14.157691466286913 74.278
14.180179461423874 74.2472
14.202668005486178 72.5455
14.22513957064374 70.4151
14.247629214846473 68.7649
14.270101881097517 67.8358
14.29259262906496 67.5683
14.315083930490205 67.5367
14.337558255389705 67.275
14.360050666019726 67.274
14.382526101071944 66.8838
14.405019624534942 66.6331
14.427513705993134 66.4057
14.449990813291825 66.4031
14.47248601302899 66.2117
14.49496423954951 66.5406
14.517460561197822 66.4178
14.539939910570322 66.3173
14.562437357763558 66.3778
14.58493536931253 66.7097
14.607416409993311 66.6941
14.62991555254159 67.1625
14.652397725157423 67.2097
14.674898002342799 67.3327
14.697398848433282 67.6663
14.719882725991326 68.6513
14.74238471217934 68.8805
14.764869730765593 70.8194
14.787372860692983 74.6225
14.809876564079925 81.2439
14.83236330125751 89.4863
14.854868153850365 98.4097
14.877356041159485 111.634
14.899862046604186 127.16
14.922351087688757 150.405
14.944858249632887 180.13299999999998
14.967365991421232 210.168
14.989856770231246 230.06900000000002
15.012365673994204 228.34900000000002
15.03485761569738 200.48
15.05736768508665 158.393
15.07987833888692 120.98299999999999
15.102372032001655 94.1793
15.124883856909658 77.2624
15.14737872204565 71.0464
15.169891721717274 68.4034
15.192405310371893 67.8513
15.214901940621196 67.4839
15.237416709527137 66.5992
15.259914520936249 66.4123
15.282430473753607 65.7672
15.304947020131227 65.2325
15.327446610371178 64.9051
15.349964346154254 64.7088
15.372465126703139 64.7847
15.394984055556009 64.3725
15.417486030076159 64.3016
15.44000615566487 63.7225
15.462526881230803 63.9351
15.485030653812652 63.6414
15.507552581617434 63.3867
15.530057557334603 63.4781
15.55258069104857 63.5436
15.575104429329837 63.9162
15.597611216864632 63.6565
15.620136166564563 63.6853
15.6426441664095 63.985
15.665170331202765 65.3379
15.687697105158826 68.82300000000001
15.710206930593545 74.3493
15.732734925158933 80.4637
15.755245972089478 87.4573
15.77777519094324 95.7235
15.800287463046663 106.88799999999999
15.822817909869592 124.329
15.84534897229804 144.34
15.867863089299354 169.53099999999998
15.890395385222186 191.128
15.912910736597423 202.128
15.935444269699861 195.44299999999998
15.957978423016485 168.64
15.980495633101265 134.784
16.003031029129367 104.236
16.02554948280019 81.2473
16.048086125229432 69.2383
16.070623392487107 64.3645
16.09314371869582 62.6088
16.11568223789321 61.071999999999996
16.13820381691126 59.6164
16.160743591742527 58.9922
16.183283996022084 58.565
16.205807461423195 57.3166
16.228349126881973 56.9914
16.25087385432698 57.1504
16.27341678466365 56.2925
16.29594277784926 56.0134
16.31848697676433 55.7211
16.341031811604868 55.2162
16.36355971058487 55.3969
16.3861058195587 55.2035
16.40863499352978 54.5142
16.431182380342005 54.3788
16.453730407713202 54.0223
16.476261501364792 53.9522
16.498810812136167 53.7357
16.52134319004079 53.6303
16.54389378792203 53.4641
16.566445031001553 53.4563
16.588979342490088 53.412
16.61153187824822 53.1062
16.634067483263312 53.0805
16.656621315414416 53.0141
16.679175797408888 52.6458
16.701713349928728 52.7272
16.72426913389191 52.9115
16.74680798922351 52.8234
16.76936507887444 52.8785
16.791905240734874 52.7904
16.814463639794468 52.7371
16.837022695210294 52.7214
16.859564824093756 52.9512
16.882125194503903 53.0641
16.904668639217885 53.586000000000006
16.927230328348003 53.926
16.949792678493612 54.2932
16.972338104193863 54.173
16.994901778652235 53.7848
17.017448529496576 53.8463
17.040013531998152 54.0815
17.06257920018044 54.2188
17.0851279459922 54.8575
17.107694947817667 56.1287
17.130245028099072 57.2159
17.15281336730298 59.0283
17.17536478578733 60.4943
17.19793446610687 62.3987
17.220504818648422 65.1773
17.243058251703697 68.0253
17.265629950971032 72.4993
17.288184731571736 77.8598
17.310757781306908 82.539
17.33333150794385 84.052
17.355888317140174 83.3291
17.37846339986244 79.2366
17.401021565958885 72.5614
17.42359800851343 66.0211
17.44617513265564 61.669
17.468735341390783 59.1428
17.491261035594565 57.64
17.51396340099364 57.3376
17.536490463869136 57.2695
17.559018209820174 57.3427
17.58154663977963 57.4648
17.604251766089718 57.5015
17.626781572227713 57.7881
17.64931206518155 58.104
17.671843245885103 58.3323
17.69455114821572 58.43600000000001
17.717083712612634 58.8674
17.739616967569667 59.4103
17.762150914021706 60.1517
17.78486160749854 60.2728
17.807396945166804 60.7432
17.829932977143503 61.0515
17.85246970436452 61.8993
17.875183204129467 63.7568
17.897721330097664 66.7341
17.920260154126645 70.0926
17.942799677153296 73.8252
17.9655159983646 77.9321
17.988056927677544 83.0124
18.010598558807683 89.3239
18.033140892692916 98.1743
18.05586005052525 109.14299999999999
18.07840379824407 121.59899999999999
18.10094825154059 132.732
18.12366954819864 142.664
18.146215420998306 144.68
18.16876200220057 138.388
18.191309292745153 124.26799999999999
18.214033452627167 108.79299999999999
18.236582170236648 96.1425
18.259131600016456 88.5997
18.281681742907335 86.4127
18.304408781233683 89.1422
18.32696035875955 94.6371
18.349512652227624 99.9385
18.372065662579683 105.389
18.394795594587553 107.415
18.41735004715306 104.445
18.43990521943684 98.5849
18.46246111238171 88.8944
18.485193953325208 78.6586
18.507751296070428 70.6007
18.530309362314178 65.5815
18.552868153000343 62.9607
18.57560391815056 61.4206
18.59816416623245 60.7247
18.620725141597372 60.0723
18.643286845190268 59.706
18.666025549835414 59.0692
18.688588718427933 58.3466
18.711152618092243 58.2119
18.73389353884365 58.0364
18.75645890921984 57.5259
18.77902501351406 57.135
18.801591852673102 57.2306
18.824335739722738 56.5597
18.846904057212626 56.5494
18.8694731124168 56.3183
18.89204290628315 56.1881
18.914789774966803 55.8357
18.937361054791623 55.7962
18.959933076131318 55.5513
18.982505839934877 55.4017
19.00525570560582 55.6428
19.027829963004184 55.1658
19.05040496572238 55.3367
19.072980714710468 55.1365
19.095733592739563 54.975
19.11831084296757 55.1853
19.140888842324735 56.0009
19.16346759176222 56.4868
19.18622349753803 57.0533
19.208803755869358 58.2536
19.231384767143577 59.5108
19.253966532312948 60.9175
19.276725481241822 62.9657
19.29930876296784 65.5262
19.3218928014549 68.9004
19.34465404436217 72.0844
19.36723960516257 74.6956
19.389825925592426 75.7619
19.412413006605938 75.0876
19.43517731967805 72.2951
19.457765930683355 67.7924
19.48035530514408 63.2393
19.50294544401556 59.3297
19.525712842708348 56.1948
19.54830451925909 54.4539
19.570896963095727 53.1299
19.593490175174704 52.6297
19.616260674962184 52.5251
19.638855432416964 52.3956
19.661450960992624 52.5124
19.68404726164677 52.0354
19.706820878021247 51.9496
19.729418731756834 52.1035
19.752017360452857 51.766000000000005
19.77461676506804 52.0755
19.797393513540218 52.1592
19.819994478951667 52.2776
19.84259622316767 52.9147
19.8651987471481 53.4853
19.887978643247177 53.8492
19.91058273574792 54.5447
19.933187610901943 55.2973
19.955969879466828 56.498999999999995
19.97857632894404 57.9512
20.00118356396599 59.0984
20.023791585494575 61.3426
20.046577028914875 63.9785
20.069186632506966 66.6695
20.091797025500632 69.3175
20.114408208858933 70.6385
20.137196842715273 71.0752
20.159809615886765 69.5043
20.18242318232135 66.9136
20.20503754298326 64.1454
20.227829382875154 62.5847
20.250445341109344 61.6666
20.27306209647285 62.1842
20.29567964993108 63.6502
20.31847471147704 64.544
20.34109387027612 65.7211
20.363713830075454 65.5529
20.386334591841646 64.2623
20.409132890679302 61.8255
20.431755265564437 58.2343
20.454378445325528 55.3092
20.477002430930366 52.8634
20.499803982716553 51.2738
20.522429589228004 50.2023
20.54505600449589 49.5334
20.567683229489194 49.3085
20.590488049900088 49.2529
20.61311690359731 48.9697
20.63574656993626 48.8622
20.658553853717297 48.357
20.681185154618298 48.4704
20.703817271080066 48.2918
20.72645020407368 48.0128
20.749260783967177 48.1751
20.771895359337133 48.2867
20.794530754161617 48.2084
20.817166969412938 48.1905
20.83998086114876 47.9837
20.86261872660049 47.6461
20.885257415405402 47.4461
20.90789692853701 47.4383
20.930714147864748 47.4543
20.953355319030678 47.3181
20.97599731745334 47.5943
20.99864014410749 47.5182
21.021460706796564 47.4544
21.044105199328826 47.8028
21.06675052302631 47.8549
21.089396678865015 48.18899999999999
21.112220600704806 48.2942
21.134868430275347 48.7319
21.15751709492456 48.7886
21.180166595629693 49.31100000000001
21.202993892429635 49.7414
21.22564507473034 50.2151
21.24829709602816 50.6586
21.27112693608965 50.7627
21.293780644891275 50.7888
21.316435195634053 49.9127
21.339090589297417 49.3526
21.361923832041875 48.7007
21.384580921090404 48.0702
21.407238856007325 47.3237
21.429897637773326 47.3985
21.45273429906592 47.4791
21.475394784108598 47.5817
21.498056118951983 47.1621
21.520718304578022 47.3705
21.543558400304388 47.544
21.566222297108816 47.6914
21.58888704765135 47.6692
21.61155265291521 48.0155
21.63439619898156 48.5542
21.657063523335786 48.9392
21.67973170537063 49.7299
21.7024007460706 50.3115
21.72524775840385 51.1394
21.747918526116475 52.0708
21.770590155457388 53.1794
21.79326264741238 54.4952
21.816113141960237 56.3716
21.838787368860547 58.2292
21.861462461341976 60.6049
21.884315579735777 62.9756
21.90699241312273 64.8619
21.92967011506078 65.6579
21.95234868653799 65.5142
21.9752053151131 64.3483
21.997885635446785 62.5345
22.020566828293532 60.0824
22.04324889464272 58.0051
22.066109049404666 56.4284
22.088792872571794 55.9783
22.111477572219204 56.0277
22.1341631493376 56.2911
22.157026846313123 56.0979
22.179714188221507 55.7435
22.202402410582668 54.4121
22.22509151438863 52.7373
22.24795876962584 51.3438
22.270649646204486 50.106
22.293341407213727 49.1724
22.316034053646906 48.5063
22.338904883215342 48.0509
22.36159931041458 48.0379
22.38429462602756 47.7969
22.40699083104897 47.7093
22.429865251039757 47.5371
22.452563244831367 47.6198
22.47526213102522 47.7205
22.49813925616515 47.657
22.520839937143307 47.4293
22.543541513520587 47.6445
22.56624398629403 47.604
22.589124730075895 47.6106
22.611829005656723 47.7099
22.63453418063466 47.6892
22.657240256008077 47.9754
22.680124634582935 48.0167
22.70283252079775 48.3477
22.725541310413075 48.663999999999994
22.74825100442868 49.0694
22.771139033969575 49.7738
22.79385054687155 49.8904
22.81656296718292 50.6481
22.83927629590484 51.4824
22.862167992606945 52.408
22.88488314827121 53.5464
22.907599215359284 54.5851
22.93031619487366 55.9321
22.953211574954405 56.8619
22.975930389478226 57.8493
22.998650119445763 58.1893
23.02137076586092 57.4125
23.044269845560063 56.2827
23.06699233506288 54.8646
23.089715744034912 52.9077
23.112617610931565 51.288999999999994
23.135342869061212 49.9033
23.158069049684816 48.7127
23.1807961538087 48.0937
23.20370174880544 47.8355
23.226430710184808 47.9865
23.249160598093425 47.9507
23.271891413539002 47.9056
23.294800752937697 47.982
23.31753343374794 48.4419
23.340267045128353 48.66
23.36300158808808 49.0698
23.38591468821339 49.4725
23.408651104658304 49.9769
23.431388455719986 50.6007
23.454126742409 51.2896
23.4770436196085 52.3203
23.499783787914662 53.5734
23.522524894889884 54.6021
23.54526694154616 55.8797
23.56818761219047 57.4558
23.59093154860734 58.3322
23.613676427751283 58.6929
23.636422250635754 58.1891
23.659346731118656 56.4192
23.68209445191868 54.4633
23.704843119509587 52.1824
23.72759273490623 50.231
23.750521041644767 48.355
23.77327256312355 47.0125
23.796025035462787 46.1046
23.818956224555475 45.6349
23.841710609113413 45.1944
23.86446594758979 44.8386
23.887222241002014 44.745
23.910157285144578 44.3996
23.932915498962537 44.2596
23.955674670778713 44.2739
23.978434801611975 44.1247
24.001373717286125 43.9052
24.024135776723917 43.8377
24.046898798245582 43.8451
24.06966278287146 43.6202
24.092605586582614 43.364
24.115371508023642 43.3118
24.1381383956401 43.2
24.16090625045381 43.1535
24.183852958731244 43.0547
24.206622758582608 42.8543
24.229393528706886 42.542
24.252165270127392 42.7236
24.27511589952438 42.8286
24.297889594216997 42.6483
24.32066426328598 42.4851
24.34343990775613 42.5295
24.36639447485003 42.3479
24.38917208083877 42.1737
24.41195066531332 42.2806
24.43490819850244 42.3084
24.457688750692377 42.1725
24.48047028445616 42.1931
24.503252800821233 42.2561
24.526214300784112 42.2157
24.548998793132213 42.2398
24.57178427117417 42.2131
24.59457073593893 42.2262
24.617536219319863 42.1976
24.64032466834748 42.23
24.663114107195035 42.1076
24.685904536893013 41.7433
24.708874020360852 41.7443
24.731666442613744 41.6175
24.754459858818787 41.6196
24.777254270007962 41.4329
24.80022777025625 41.288000000000004
24.82302418230472 41.3202
24.845821592443674 41.483999999999995
24.86862000170663 41.3478
24.891597535453727 41.2619
24.914397953892728 41.4393
24.93719937456671 41.4467
24.96000179851076 41.77
24.98298338249997 41.873000000000005
25.00578782394922 42.0615
25.028593271784167 42.1728
25.05157790644186 42.4835
25.07438537804115 42.674
25.097193859145293 43.0824
25.120003350792075 43.4353
25.142992065061257 43.8457
25.165803588823465 44.1313
25.18861612625217 44.381
25.211429678386736 44.4453
25.234422489079968 44.5187
25.257238081693636 44.4289
25.280054692141732 44.68600000000001
25.3028723214652 44.7732
25.325869245420463 44.858000000000004
25.348688923599397 44.7969
25.371509623787006 44.7308
25.394331347025812 44.4671
25.41733240110666 44.1027
25.440156181590016 43.5081
25.46298098826268 42.7834
25.48580682216873 42.2287
25.50881202326435 41.5267
25.53163992281684 40.9094
25.55446885274561 40.5966
25.577298814096377 40.2706
25.600308179121807 40.1348
25.623140214533745 40.1882
25.64597328451537 40.1182
25.66898578564376 39.7886
25.691820936010206 39.9005
25.714657124097695 39.7874
25.737494350954734 39.717
25.760511045684957 39.6221
25.783350361364224 39.7299
25.806190718969255 39.7065
25.82903211955018 39.8968
25.852053024868923 39.9713
25.874896522722523 40.0408
25.897741066713106 40.0358
25.920586657892454 40.1069
25.943611790812668 40.1961
25.966459487728237 40.3705
25.989308234998564 40.4148
26.01215803367705 40.8387
26.03518741123814 40.9737
26.05803932412957 41.2351
26.080892291600094 41.1764
26.10374631470478 41.1723
26.12677995397268 41.4048
26.14963609978026 41.5714
26.172493304397875 41.0901
26.19535156888223 40.8957
26.218389486949604 40.4534
26.241249882640123 40.0334
26.26411134137826 39.7356
26.28715248187403 39.7318
26.31001607820869 39.5142
26.3328807407756 39.4526
26.35574647063438 39.4814
26.37879191991473 39.6034
26.401659795896734 39.5382
26.424528742360263 39.8278
26.447398760366614 39.8965
26.470448535598294 40.07
26.49332070826805 40.167
26.516193955675355 40.5062
26.53906827888316 40.77
26.562122397260108 40.8956
26.584998883685063 41.4115
26.607876449110325 41.7727
26.63075509460056 41.9774
26.65381357334404 42.1145
26.67669439061878 42.2266
26.699576291163382 42.0756
26.722459276044212 41.9434
26.745522132402975 41.6385
26.768407297649354 41.3701
26.791293550442003 40.9138
26.814180891848974 40.6768
26.837248143099337 40.2882
26.860137673466657 40.2407
26.88302829566349 39.9098
26.90592001075963 39.7983
26.92899167420566 39.576
26.951885586870763 39.2349
26.974780595655517 38.9466
26.99785558178161 38.8964
27.020752794605112 38.6314
27.043651106772522 38.4599
27.06655051935668 38.3421
27.089629948036183 38.2089
27.112531573292053 38.1006
27.135434302194138 38.3019
27.158338135817015 38.0225
27.181422024430987 37.9703
27.204328079372566 37.9582
27.22723524226965 38.0747
27.250143514198573 38.1283
27.273231880156334 38.0197
27.296142382065014 37.957
27.319053996245536 37.7749
27.341966723775965 37.933
27.365059584515222 38.0034
27.38797455070062 38.0558
27.410890633481237 37.9051
27.433807833936918 38.0158
27.456905206923906 38.0326
27.47982465472398 37.9929
27.502745223449743 38.1554
27.525666914182825 38.2419
27.548768816912457 38.1219
27.571692763693633 38.1138
27.59461783573812 37.9616
27.617723149491244 37.8508
27.640650484125285 37.7127
27.66357894728264 37.6462
27.686508540048052 37.6467
27.709618414237887 37.5638
27.732550278321757 37.4294
27.755483275279115 37.4655
27.778417406196485 37.5115
27.801531858397514 37.3741
27.824468269376716 37.3013
27.847405817586786 37.3538
27.870344504116094 37.5916
27.893463551932008 37.7217
27.916404527281053 37.9277
27.93934664422563 38.0444
27.962289903855886 38.1146
27.98541356491974 38.5074
28.00835912214229 38.7263
28.03130582533231 38.8099
28.054253675581805 39.0774
28.077381967556104 39.0316
28.100332124185126 39.0858
28.123283431160893 38.8969
28.146235889577238 38.7046
28.169368830154156 38.5372
28.192323603752033 38.3454
28.215279532083304 38.01
28.238415973016764 37.8598
28.261374223145094 37.8157
28.284333631303806 37.5331
28.307294198589954 37.3082
28.330435319167677 36.896
28.353398217078915 36.7106
28.376362277420153 36.3043
28.39932750129032 36.2216
28.422473319286713 35.97
28.44544088262495 36.0118
28.468409612800283 35.7444
28.491379510913497 35.5867
28.51453004413313 35.4082
28.53750229057244 35.4142
28.56047570826344 35.3908
28.583450298308804 35.4838
28.606605564586562 35.2429
28.629582511831156 35.3324
28.65256063474956 35.1636
28.675539934446338 35.1843
28.698699951647605 35.217
28.72168161743193 34.9901
28.74466446331978 35.0646
28.767648490417624 35.0289
28.790813276438353 34.9448
28.813799678527303 35.0025
28.836787265157085 34.9506
28.859955641890075 34.9208
28.882945610203045 34.9092
28.905936766392035 34.8293
28.928929111566863 34.8688
28.952102288520145 34.721
28.975097024308607 34.7528
28.998092952423807 34.6119
29.021090073977508 34.4454
29.04426806913204 34.3688
29.067267590245258 34.2251
29.090268308143695 34.1568
29.11327022394099 34.1732
29.13645305530891 33.9908
29.159457379627167 33.8923
29.18246290519685 33.7036
29.20546963313352 33.7539
29.22865731875826 33.8164
29.25166646419296 33.7746
29.27467681535305 33.754
29.29768837335608 33.8557
29.320880931312562 33.881
29.34389491580634 33.7833
29.366910110507334 33.7819
29.38992651653503 33.8402
29.41312396492981 33.8957
29.436142806456754 33.621
29.45916286268059 33.683
29.48236399319994 33.625
29.50538649169417 33.5043
29.528410208259935 33.3229
29.55143514402014 33.0513
29.574641196749695 33.0344
29.597668583816574 32.8605
29.6206971934585 32.7026
29.64372702680042 32.7578
29.666938019934474 32.5914
29.689970313635285 32.4316
29.713003834422636 32.4969
29.73603858342347 32.4631
29.759254535188578 32.3388
29.78229175361658 32.2985
29.80533020365064 32.4909
29.82836988641968 32.4478
29.85159081507472 32.2557
29.874632976355343 32.1553
29.89767637376955 32.2923
29.920721008448314 32.1464
29.9439469322847 32.0985
29.96699405457564 32.1678
29.9900424175358 32.2251
30.013092022298157 32.0582
30.03632295963995 31.9588
30.059375061131373 32.0829
30.08242840783577 32.1378
30.105483000888153 31.9459
30.128718970092244 31.9876
30.151776069006917 31.9515
30.17483441768648 32.048
30.198074175317235 32.0457
30.221135036724256 32.0021
30.24419715131772 31.9212
30.267260520236203 31.8606
30.290505341942243 31.9844
30.313571232750228 32.0202
30.336638381310948 31.9384
30.35970678876503 31.8623
30.38295669299435 31.7977
30.40602763151657 31.795
30.429099832366074 31.6795
30.452173296685572 31.7559
30.47542830191959 31.6973
30.498504306502497 31.6444
30.521581577995562 31.7239
30.544660117543582 31.7746
30.56792024229725 31.8327
30.59100133132069 31.8628
30.614083691845494 31.7863
30.637167325018545 31.9412
30.660432587840603 31.9813
30.683518779717886 31.945999999999998
30.70660624769615 31.9697
30.729694992924372 31.9673
30.75296541239743 32.0479
30.77605672557558 31.8665
30.799149319462742 31.9124
30.8224236211637 31.8367
30.845518789950724 31.7439
30.868615242910597 31.6645
30.891712981195973 31.3892
30.91499247215866 31.2741
30.938092794619365 31.2358
30.96119440587579 31.1828
30.984297307082752 31.1451
31.00758200598383 31.0391
31.030687500658694 30.914
31.053794288760695 30.9094
31.076902371446767 30.8198
31.100192296997445 30.8094
31.12330298246119 30.7176
31.14641496599209 30.639
31.169528248749216 30.5506
31.19282341969534 30.6278
31.215939314557186 30.5685
31.239056512134788 30.5581
31.262175013589378 30.4957
31.28547544871168 30.6379
31.30859657161541 30.4939
31.331719001892175 30.5705
31.35484274070538 30.6179
31.378148458819545 30.566999999999997
31.401274828443725 30.6734
31.424402510106933 30.5612
31.447712205419993 30.5646
31.470842524931633 30.5539
31.493974159989783 30.6107
31.51710711176168 30.4967
31.54042212308802 30.6299
31.563557722100917 30.5923
31.586694641341655 30.346
31.609832881979628 30.2558
31.63315322823208 30.2306
31.656294125521327 30.0663
31.679436347728515 30.0326
31.70257989602529 29.9801
31.725905596152327 29.8726
31.74905181052835 29.783
31.772199354521323 29.8558
31.79534822930507 29.8166
31.818679302290967 29.8436
31.84183085259981 29.8894
31.864983737233473 29.875
31.88813795736804 29.8063
31.911474422233013 29.7879
31.934631327356435 29.861
31.9577895715215 29.8493
31.980949155906522 29.7471
32.004291031706956 29.8211
32.027453310562606 29.6815
32.05061693318573 29.5018
32.07396288236386 29.5305
32.09712920658542 29.4225
32.12029687812702 29.2771
32.14346589817093 29.2481
32.166817291729984 29.2143
32.18998902288583 29.1798
32.21316210610336 29.1488
32.23633654256711 29.0143
32.259693399663725 28.9867
32.282870556771144 28.8754
32.30604907069099 28.9054
32.329228942610065 28.7562
32.35259128243769 28.7064
32.375773884550505 28.5685
32.398957848235646 28.604
32.422143174682176 28.529
32.445511016471215 28.4677
32.468699082679954 28.3629
32.49188851523011 28.331999999999997
32.51507931531304 28.2962
32.538452678331 28.2647
32.56164622776311 28.1878
32.58484114831493 28.1011
32.60803744118015 28.1862
32.631416344731896 28.2393
32.654615396551876 28.0934
32.67781582427913 28.0686
32.701198898634416 27.9866
32.72440209253756 27.9904
32.747606665947124 27.9808
32.77081262006088 27.8089
32.79420126883317 27.8451
32.81740999876112 27.8134
32.840620112999424 27.7435
32.86383161274818 27.6834
32.88722585534586 27.7457
32.91044014056596 27.8052
32.933655814909734 27.6887
32.95687287957963 27.7118
32.98027273544904 27.5672
33.00349259526636 27.5993
33.026713849030116 27.5504
33.04993649794511 27.5124
33.073341986570746 27.5414
33.09656744032826 27.5048
33.11979429286444 27.4981
33.14302254538647 27.4873
33.166433686291185 27.4512
33.18966475336992 27.5013
33.212897224069096 27.2772
33.23613109959831 27.3224
33.259547912343415 27.2578
33.2827846121627 27.3598
33.306022720453775 27.2993
33.32926223842861 27.1363
33.352684742614166 27.1189
33.37592709463173 27.1209
33.399170859982064 27.0412
33.422597648419426 26.9507
33.44584425514446 26.8302
33.46909227885668 26.8005
33.4923417207723 26.6575
33.51577423505344 26.7281
33.539026528130385 26.715
33.56228024307245 26.6247
33.585535381098246 26.4384
33.60897364093058 26.4258
33.63223163992385 26.4425
33.6554910656699 26.3842
33.678751919389796 26.3596
33.702195944520106 26.2708
33.72545966903325 26.2887
33.74872482519663 26.2729
33.771991414233746 26.1955
33.79544122444841 26.0984
33.81871069412428 25.9443
33.84198160035767 26.02
33.86525394437455 26.1304
33.88870955949969 25.9736
33.911984794020626 25.9663
33.93526147001624 25.9415
33.958539588715006 25.9576
33.98200102861669 25.8625
34.0052820477047 25.8091
34.02856451319451 25.7549
34.05203033759056 25.7451
34.07531571090147 25.6442
34.09860253431845 25.6028
34.121890809074316 25.533
34.145362493118924 25.5828
34.16865368561615 25.497
34.191946333164054 25.5632
34.21524043699793 25.4366
34.23871800066799 25.4417
34.26201503218366 25.3517
34.28531352370466 25.3692
34.30861347646881 25.2583
34.33209693978188 25.256999999999998
34.3553998301885 25.2672
34.378704185565205 25.1671
34.402010007152356 25.1148
34.42549939016683 25.1225
34.44880815937748 24.9721
34.472118398533134 25.0005
34.49543010887669 25.0067
34.51892543169198 24.843000000000004
34.54224009966052 24.8445
34.56555624255917 24.8698
34.58887386163339 24.7734
34.61237514439016 24.6853
34.6356957311114 24.614
34.65901779775809 24.6286
34.68252356662995 24.5887
34.705848608458616 24.5442
34.72917513396849 24.5567
34.75250314440949 24.4835
34.77601490857862 24.4289
34.799345904259795 24.3516
34.82267838863559 24.3633
34.846012362958525 24.3615
34.869530142679984 24.3606
34.89286711232212 24.3101
34.91620557568269 24.2999
34.93954553401677 24.2233
34.9630693495876 24.1698
34.986412313340814 24.2471
35.00975677584668 24.2265
35.033102738362956 24.1527
35.05663261012228 24.0808
35.0799815881786 24.0893
35.10333207003229 24.0738
35.12668405694369 23.9489
35.150220005273056 23.9394
35.17357501786656 23.925
35.19693153931268 23.9105
35.220289570874385 23.9243
35.24383161619786 23.8543
35.267192683604904 23.7911
35.290555264930376 23.8996
35.314101899412165 23.8459
35.33746752422433 23.8713
35.36083466676374 23.8001
35.38420332829803 23.8003
35.407756095629054 23.7769
35.43112781085063 23.7551
35.45450104888391 23.7525
35.477875810999194 23.6365
35.50143473172161 23.6129
35.52481255774625 23.6856
35.54819191167777 23.5375
35.57157279478914 23.491
35.595137889488406 23.4629
35.61852184675279 23.3885
35.641907337029984 23.3911
35.665294361595684 23.3998
35.68886565090076 23.3512
35.7122557598848 23.2677
35.73564740699838 23.2487
35.759040593519934 23.2584
35.78261809810353 23.1803
35.80601437933051 23.0218
35.829412203814705 23.0755
35.85281157283719 22.9504
35.876395313415884 23.0391
35.8997977874528 22.913
35.92320180988546 22.9078
35.946790244133936 22.8138
35.97019737933222 22.8567
35.993606066789866 22.9085
36.01701630779276 22.840999999999998
36.04061101440684 22.7635
36.06402437852291 22.7888
36.08743930005611 22.7211
36.1108557802951 22.6881
36.13445678011326 22.5869
36.15787639383515 22.5991
36.18129757014299 22.5522
36.20472031032821 22.5821
36.22832762423364 22.5273
36.25175350829375 22.4907
36.275180960119776 22.4482
36.298609981005924 22.4791
36.32222362992669 22.3923
36.34565580510207 22.3652
36.36908955323448 22.3709
36.39252487562093 22.2728
36.416144880530226 22.2343
36.43958336764275 22.2308
36.463023432914625 22.2014
36.486465077645676 22.0791
36.51009145956204 22.1731
36.53353627947859 22.2375
36.55698268276811 22.1117
36.58043067073321 22.1047
36.60406345072071 21.9567
36.62751462435344 21.9107
36.65096738658405 21.8592
36.67460498210655 21.9548
36.69806093788647 21.9495
36.72151848619297 21.8314
36.744977628333636 21.8776
36.76862165890998 21.7143
36.79208400512205 21.7644
36.81554794910557 21.7823
36.83901349217101 21.6758
36.862663978991606 21.6382
36.88613273667352 21.6151
36.90960309738324 21.5262
36.933075062434064 21.4389
36.95673202673572 21.4526
36.98020721697122 21.4045
37.003684015502365 21.3259
37.027162423645365 21.3284
37.050825886711465 21.3505
37.07430753063053 21.2668
37.09779078812467 21.1814
37.121275660513014 21.2022
37.144945643673694 21.2058
37.16843376245278 21.19
37.19192350009803 21.1655
37.215414857931435 21.1229
37.239091382563885 21.0643
37.262585997426164 21.0374
37.28608223645736 20.9998
37.309763684451696 20.9813
37.33326318851098 20.8808
37.356764320726555 20.8883
37.380267082425526 20.8978
37.40395510942588 20.8279
37.42746114683234 20.7786
37.45096881771841 20.7555
37.474478123414166 20.7347
37.49817275092816 20.6761
37.52168534303452 20.7331
37.54519957395567 20.5673
37.568715445024665 20.5656
37.592416694607714 20.5151
37.61593586281424 20.5571
37.63945667518264 20.5996
37.66297913304891 20.506999999999998
37.68668702630454 20.4961
37.710212792059274 20.4298
37.733740207334854 20.3875
37.757269273470364 20.3758
37.780983832050374 20.3126
37.80451621684926 20.2818
37.82805025654007 20.2288
37.851585952464795 20.1791
37.8753071980695 20.1032
37.89884622345676 20.1386
37.92238690911902 20.1757
37.94611318753442 20.034000000000002
37.969657210779765 20.0325
37.99320289834801 20.0089
38.016750251586465 19.9557
38.04048325513017 19.9452
38.06403395679343 19.964000000000002
38.087586328183946 19.8728
38.11114037065203 19.8987
38.13488012115898 19.819000000000003
38.1584375229181 19.7968
38.181996599821 19.748
38.205557353221124 19.7665
38.229303872575656 19.6862
38.2528679961576 19.6629
38.27643380031219 19.644000000000002
38.30000128639589 19.5631
38.32375459653193 19.6332
38.34732546371299 19.5863
38.37089801690786 19.4714
38.39447225747609 19.4256
38.418232380377425 19.4836
38.441810012983396 19.3944
38.46538933705673 19.339000000000002
38.488970353960084 19.3649
38.51273731166058 19.3311
38.536321731567014 19.2237
38.55990784840681 19.2385
38.58367995004091 19.1943
38.60726947812959 19.1507
38.63086070726198 19.2223
38.654453638806274 19.2497
38.678232613930824 19.114
38.70182896773327 19.0555
38.72542702806741 19.0361
38.7490267963045 19.0631
38.77281266709232 18.9783
38.79641586862214 19.0438
38.8200207821842 18.8782
38.843627409152944 18.8856
38.86742019782782 18.8783
38.891030269149255 18.7462
38.914642058016156 18.7507
38.938255565806124 18.7551
38.96205529464307 18.7164
38.98567225787121 18.7224
39.00929094417078 18.7349
39.03291135492255 18.6702
39.05671804624804 18.6184
39.080341923549106 18.5631
39.103967529460334 18.5107
39.127594865365744 18.4959
39.15140854155791 18.451
39.17503935514948 18.4572
39.19867190290282 18.4668
39.22249083587951 18.4196
39.24612686969409 18.4215
39.269764641845306 18.3708
39.293404153722804 18.2618
39.317230110864074 18.2563
39.34087311998506 18.1998
39.36451787301696 18.2639
39.388164371352595 18.1548
39.41199737518003 18.1696
39.43564738196752 18.1605
39.45929913825317 18.1235
39.48295264543308 18.1435
39.506792718520884 18.0808
39.530449745387216 18.0378
39.55410852735203 18.0478
39.57776906581474 17.9654
39.60161623079 17.9419
39.625280300200025 17.951
39.64894613032202 17.8925
39.67261372255866 17.812
39.6964680021016 17.802
39.72013913657293 17.8051
39.74381203738292 17.7983
39.76748670593756 17.8131
39.79134812278169 17.7829
39.81502634488497 17.6966
39.83870633896685 17.6853
39.862388106436654 17.6485
39.88625668336918 17.6315
39.90994201572829 17.6115
39.933629125719285 17.5381
39.957503091207826 17.5602
39.9811937746168 17.5719
40.00488623990914 17.4833
40.02858048850006 17.4873
40.05246165409549 17.4124
40.076159487492085 17.3381
40.099859108448875 17.3933
40.123560518384345 17.3454
40.1474489070226 17.3296
40.171153913178564 17.2762
40.194860712584955 17.2463
40.2185693066637 17.2106
40.242464941335314 17.1879
40.26617714307655 17.1702
40.289891143772046 17.1191
40.3136069448471 17.1471
40.33750984859743 17.1376
40.3612292688043 17.1146
40.3849504936829 17.095
40.40867352466194 17.0377
40.43258372059144 16.9932
40.45631038219906 16.9755
40.48003885420956 16.9765
40.503769138055105 16.9199
40.52768664931955 16.8883
40.55142057531802 16.8656
40.57515631746428 16.8011
40.599079334038514 16.8257
40.62281872700477 16.7235
40.64655994043941 16.8238
40.67030297578061 16.7629
40.69423334835778 16.7464
40.71798004609188 16.6141
40.74172857006355 16.5685
40.76547892171441 16.6157
40.7894166736039 16.5625
40.813170699248566 16.5566
40.83692655691388 16.5033
40.86068424804498 16.5269
40.884629402612525 16.5037
40.908390779366385 16.4753
40.932153993938 16.4554
40.95591904777605 16.4455
40.979871628443995 16.4107
41.003640379561936 16.4009
41.02741097430883 16.3559
41.05118341413683 16.3535
41.075143444384416 16.2829
41.098919593177826 16.248
41.1226975914255 16.2576
41.14647744058318 16.2181
41.170444943946755 16.1709
41.19422851378379 16.1123
41.218013938914645 16.1123
41.24198706625173 16.1038
41.26577622087193 16.0702
41.289567235177785 16.0272
41.31336011063129 16.0052
41.337340752422875 16.0006
41.361137369129835 15.9481
41.38493585138705 15.9114
41.40873620066004 15.8869
41.43272438060107 15.8853
41.45652848292052 15.8483
41.48033445666918 15.8263
41.50414230331616 15.7985
41.528138045159764 15.8004
41.551949656675205 15.7412
41.575763145513235 15.7107
41.59957851314666 15.679
41.62358184070442 15.6706
41.64740098505737 15.6339
41.6712220126409 15.614
41.69504492493139 15.5949
41.71905586207357 15.5536
41.74288256296395 15.5594
41.766711153007456 15.4927
41.79054163368412 15.4431
41.814560204340054 15.4594
41.838394485526365 15.4622
41.86223066180303 15.3756
41.88625497706819 15.3446
41.910094962812 15.3499
41.93393684811168 15.3809
41.95778063445365 15.2789
41.981812625263366 15.210999999999999
42.00566023303407 15.2473
42.029509746323676 15.2019
42.05336116662236 15.2269
42.077400857069705 15.2461
42.10125611078846 15.1571
42.12511327600405 15.0679
42.14897235421036 15.0579
42.173019768448455 15.0476
42.19688269209613 15.0675
42.22074753323349 15.0224
42.24461429335818 14.9604
42.268669455600495 14.9477
42.292540073217886 14.9526
42.31641261433284 14.9068
42.34028708044675 14.9092
42.36435001496739 14.9094
42.38822835065557 14.8926
42.41210861586426 14.8371
42.4359908120986 14.8327
42.46006154323262 14.7509
42.48394762115317 14.7129
42.507835634632315 14.7724
42.531912233047436 14.7077
42.55580413732265 14.6555
42.579697981698 14.5882
42.60359376768525 14.5738
42.62767820545945 14.6064
42.65157789440821 14.6011
42.67547952952185 14.5776
42.699383112316 14.5615
42.72347541395347 14.4721
42.74738291190531 14.4493
42.771292362102166 14.4661
42.795203766063516 14.3811
42.819303956130405 14.3587
42.843219287476536 14.3737
42.86713657716324 14.3579
42.89105582671383 14.3308
42.91516392983864 14.333
42.939087119032166 14.318
42.963012272677304 14.2848
42.98693939230129 14.2354
43.01105543317513 14.2158
43.034986504731386 14.1827
43.05891954686589 14.1158
43.08285456110972 14.1185
43.10697856448665 14.1153
43.130917542983475 14.077
43.15485849820081 14.0555
43.17880143167367 14.0245
43.20293342237094 14.023
43.226880332449 13.9699
43.25082922540554 13.9629
43.27496722682525 13.8808
43.29892010567796 13.828
43.32287497204102 13.8701
43.34683182745632 13.8458
43.370977859791836 13.8378
43.39493871351105 13.8422
43.41890156092628 13.8231
43.44286640358341 13.7547
43.46702049182749 13.7639
43.49098934522816 13.6945
43.51496019852649 13.6824
43.5389330532723 13.6676
43.56309522248204 13.6032
43.58707210044314 13.6128
43.61105098451946 13.5632
43.63503187626491 13.5607
43.659202151562134 13.5393
43.68318707902681 13.5862
43.70717401884041 13.5138
43.731162972560874 13.5005
43.75534137913236 13.4639
43.779334381108384 13.3794
43.803329401683186 13.4453
43.82732644241872 13.3982
43.8515130055166 13.3768
43.87551410707659 13.3313
43.89951723350145 13.3387
43.923709934595614 13.3041
43.94771713129917 13.2885
43.97172635758096 13.2769
43.99573761501002 13.1996
44.0199385169922 13.2403
44.04395385732619 13.209000000000001
44.067971233533086 13.1745
44.09199064718605 13.1214
44.11619977548961 13.0891
44.14022328470671 13.0327
44.16424883610785 13.127
44.18827643127035 13.0758
44.21249381139513 13.0215
44.236525514814076 12.9552
44.26055926674478 12.9402
44.28459506876863 12.9764
44.3088207262813 12.9366
44.33286064928722 12.9079
44.35690262714919 12.919
44.38094666145278 12.9137
44.4051806219871 12.8645
44.42922879003185 12.7563
44.45327901929361 12.754000000000001
44.477331311362136 12.7975
44.501573600619416 12.7365
44.525630039221795 12.696
44.54968854541895 12.7155
44.573937102200176 12.6878
44.5979997645541 12.6928
44.622064499300315 12.6567
44.64613130803592 12.6534
44.67038823869318 12.6249
44.69445921643748 12.6006
44.718532272981385 12.5558
44.742607409926194 12.5181
44.76687274034801 12.5013
44.79095205918753 12.462
44.81503346325094 12.4751
44.839116954143876 12.4549
44.86339071028742 12.4479
44.88747839599524 12.3819
44.91156817336837 12.378
44.93566004401666 12.3785
44.959942251908146 12.3714
44.984038330325966 12.3446
45.00813650686762 12.3162
45.03223678314731 12.2689
45.05652746888232 12.2086
45.08063196592069 12.1939
45.104738567558705 12.2049
45.128847275414856 12.1411
45.15314646515866 12.116
45.17725940679741 12.1554
45.20137445952892 12.1315
45.22568004865265 12.1298
45.24979934496396 12.0687
45.27392075725247 12.0381
45.29804428714431 12.0099
45.322358426247604 12.0413
45.346486212804315 11.9769
45.370616121861914 11.9216
45.39474815505086 11.932
45.41907087049246 11.9265
45.4432071734666 11.9282
45.46734560548283 11.8948
45.49148616817604 11.8854
45.51581748638564 11.8431
45.5399623320197 11.7821
45.56410931325473 11.7812
45.58825843173002 11.7959
45.61259837920865 11.7615
45.636751793816 11.7767
45.66090735060093 11.7254
45.68506505120716 11.682
45.7094136545275 11.6739
45.73357566449271 11.6393
45.75773982322992 11.65
45.78190613238733 11.6211
45.806263418194064 11.5482
45.83043404997326 11.5796
45.85460683713677 11.5551
45.87897065658495 11.5586
45.90314777634752 11.5363
45.92732705646868 11.4767
45.9515084986045 11.4488
45.97588104735473 11.399000000000001
46.00006683541565 11.4152
46.02425479047904 11.3775
46.04844491420549 11.3929
46.0728262191024 11.3299
46.09702070211635 11.3853
46.12121735879483 11.3521
46.14541619080294 11.3533
46.169806278764455 11.3142
46.194009483459034 11.2648
46.21821486849841 11.2633
46.24242243555223 11.251
46.266821333570014 11.2198
46.29103328674601 11.1607
46.31524742696538 11.1318
46.33946375590237 11.1424
46.36387149104216 11.1172
46.38809221957392 11.0688
46.41231514186606 11.0731
46.436540259597464 11.0978
46.460956858999374 11.0564
46.48518638983522 11.0503
46.509418121166966 10.9965
46.533652054678114 10.9742
46.55807754555709 10.9619
46.58231590571962 10.9602
46.60655647313217 10.9317
46.630988654873654 10.856
46.655233659129024 10.8893
46.67948087571551 10.8758
46.70373030632484 10.8522
46.72817142736393 10.8309
46.752425308428684 10.8174
46.77668140861147 10.7684
46.80093972960865 10.7436
46.82538981736788 10.7139
46.849652602470904 10.6869
46.87391761349769 10.6891
46.8981848521493 10.6967
46.9226439341274 10.6852
46.946915650573224 10.6382
46.97118959976749 10.6071
46.99546578341598 10.5982
47.019933887188216 10.5363
47.04421456235744 10.5256
47.06849747711879 10.5548
47.09278263318286 10.5278
47.11725978640143 10.4726
47.14154944775105 10.460999999999999
47.165841355555656 10.4913
47.1901355115306 10.4508
47.214621741924994 10.4047
47.23892041698887 10.4161
47.26322134538975 10.3543
47.28771440635075 10.3504
47.31201986422527 10.3837
47.33632758061436 10.2864
47.360637557241866 10.3139
47.38513974410611 10.2976
47.40945426407847 10.257
47.43377104948137 10.2784
47.45809010204344 10.2229
47.48260144275502 10.2177
47.506925052572285 10.2206
47.53125093475548 10.1772
47.55557909103813 10.1721
47.58009961361992 10.155
47.60443234110732 10.1491
47.62876734791564 10.1162
47.65310463578333 10.0807
47.6776343683373 10.0754
47.7019762413987 10.0636
47.72632040075572 10.0259
47.75066684815169 9.997530000000001
47.77520581885936 9.97306
47.799556865477655 9.96997
47.823910205386 9.96636
47.84826584033272 9.95622
47.87281407745551 9.896510000000001
47.89717432569297 9.8851
47.92153687423484 9.89039
47.94609208429692 9.85784
47.97045925671401 9.810130000000001
47.99482873471275 9.83563
48.01920052005013 9.80602
48.04376504619224 9.78512
48.068141469543484 9.75191
48.09252020552573 9.768369999999999
48.11690125590099 9.77571
48.1414751266064 9.75602
48.16586082917454 9.730960000000001
48.19024885144316 9.684330000000001
48.2146391951793 9.65506
48.239222439012764 9.681339999999999
48.26361744916137 9.62016
48.28801478610016 9.62388
48.31241445160131 9.62951
48.337007097209366 9.58264
48.36141144338331 9.5652
48.38581812345755 9.5367
48.41022713920929 9.53612
48.434829215320704 9.48878
48.45924292604658 9.51481
48.48365897780325 9.52838
48.50807737237308 9.47683
48.532688907799276 9.47728
48.55711201168574 9.43795
48.581537463754074 9.43167
48.60615611725119 9.42659
48.63058628942721 9.40727
48.65501881516546 9.40284
48.6794536962573 9.35324
48.70408185970339 9.32433
48.72852147531801 9.30915
48.75296345168211 9.28404
48.77740779059232 9.281830000000001
48.80204549302823 9.28157
48.82649458091802 9.24563
48.85094603676547 9.22788
48.87539986237231 9.20858
48.90004713292306 9.196710000000001
48.92450572200832 9.1851
48.94896668628025 9.11122
48.97343002754588 9.12665
48.99808689542115 9.147260000000001
49.02255501470614 9.151639999999999
49.04702551642794 9.08356
49.0714984023988 9.07855
49.096164896893235 9.06167
49.120642575466796 9.01978
49.145122643748394 9.014619999999999
49.16960510355558 9.029
49.19428125404938 8.99394
49.2187685210852 9.016589999999999
49.243258185121555 8.95876
49.26794160167084 8.91633
49.2924360839405 8.87706
49.31693296869764 8.89044
49.34143225776915 8.888539999999999
49.36612538195438 8.83587
49.39062950396021 8.81303
49.41513603578346 8.82137
49.4396449792564 8.784360000000001
49.46434784069503 8.77208
49.488861631846454 8.74054
49.513377840166804 8.75568
49.537896467493745 8.754660000000001
49.56260909589029 8.69172
49.587132585683285 8.696480000000001
49.611658500018365 8.67613
49.636186840738596 8.65927
49.66090926588511 8.6731
49.685442483902584 8.67963
49.70997813385706 8.613489999999999
49.734516217597076 8.61102
49.75924846937352 8.58051
49.7837914452858 8.59816
49.80833686055187 8.58365
49.83288471702571 8.51763
49.85762682540054 8.53076
49.882179588965734 8.53485
49.9067347993235 8.505339999999999
49.93129245833333 8.49217
49.95604445336378 8.4578
49.98060703442832 8.4375
50.005172069746266 8.42295
50.02993150438364 8.383939999999999
50.05450147301533 8.38762
50.07907390151433 8.39511
50.10364879174981 8.35101
50.12841816587289 8.33798
50.1529980044635 8.333260000000001
50.17758031042124 8.30922
50.20216508562089 8.34805
50.22694442953363 8.29071
50.25153416817468 8.25141
50.27612638170508 8.26914
50.300721072005196 8.214830000000001
50.325510416102105 8.20317
50.350110084975064 8.18241
50.37471223628208 8.19968
50.39931687190919 8.19154
50.424116246675766 8.1712
50.44872587605249 8.15279
50.47333799543065 8.16815
50.49795260670191 8.1156
50.52276204271512 8.095839999999999
50.54738166295838 8.079310000000001
50.57200378079314 8.048060000000001
50.596628398116835 8.042589999999999
50.62144792604559 8.02012
50.646077567609396 8.005989999999999
50.670709714377715 7.992139999999999
50.69553683636198 7.97992
50.72017401885922 7.9637
50.7448137122895 7.9629199999999996
50.76945591856022 7.9336899999999995
50.79429318636823 7.9435199999999995
50.818940443716784 7.940860000000001
50.84359021965163 7.914569999999999
50.868242516085964 7.870760000000001
50.893089960641895 7.85769
50.917747323549435 7.826569999999999
50.94240721271973 7.84094
50.96706963007175 7.815289999999999
50.99192728239342 7.82868
51.01659478166073 7.82035
51.04126481489051 7.7569300000000005
51.06593738400761 7.72823
51.090805275207074 7.756819999999999
51.11548294172845 7.74949
51.14016314993547 7.713989999999999
51.164845901758845 7.71829
51.18972406304274 7.675789999999999
51.21441192780656 7.6693
51.23910234200271 7.6524600000000005
51.2637953075678 7.634460000000001
51.288683770237945 7.6409
51.31338186432707 7.550110000000001
51.33808251561888 7.580019999999999
51.362978729967345 7.57843
51.387684521509755 7.57465
51.41239287610203 7.54564
51.437103795691165 7.5233300000000005
51.46201036644977 7.502339999999999
51.486726441956634 7.47646
51.51144508832545 7.49556
51.536166307509156 7.45326
51.56108326624387 7.4063
51.58580965706056 7.409330000000001
51.61053862657523 7.377460000000001
51.635270176746864 7.38093
51.66019755512065 7.393960000000001
51.68493429268881 7.37165
51.70967361681515 7.35411
51.73441552946465 7.34703
51.759353359237934 7.31871
51.7841004750961 7.32488
51.80885018539685 7.30749
51.833602492111254 7.3077
51.8585508051424 7.28127
51.883308330926425 7.24578
51.90806845906181 7.242089999999999
51.932831191525715 7.18813
51.95779001977161 7.202160000000001
51.98255798721516 7.1742300000000006
52.00732856494335 7.176839999999999
52.03229530577543 7.147660000000001
52.057071130455945 7.16732
52.081849571391054 7.1499
52.106630630568695 7.112019999999999
52.13160794279417 7.080080000000001
52.15639426492067 7.0967199999999995
52.18118321127822 7.06026
52.205974783860896 7.03607
52.23096269971011 7.021310000000001
52.255759551287994 7.03499
52.280559035098186 7.0146
52.30536115314103 6.96605
52.33035970494467 7.004810000000001
52.35516711807904 6.9432100000000005
52.37997717147198 6.905060000000001
52.40478986713005 6.943739999999999
52.42979908731974 6.954680000000001
52.454617094216 6.89842
52.47943774942214 6.879919999999999
52.50426105495102 6.89647
52.529280976059844 6.854310000000001
52.554109609024096 6.843889999999999
52.57894089837482 6.8417
52.60377484613117 6.7964199999999995
52.62880550079408 6.8108
52.65364479223379 6.80036
52.67848674816189 6.731960000000001
52.70352547971946 6.77108
52.72837279155837 6.78615
52.753222773982785 6.730110000000001
52.778075429022984 6.73509
52.80312495150885 6.72915
52.827982978797436 6.711710000000001
52.85284368481815 6.628189999999999
52.87770707160767 6.6585399999999995
52.90276741793998 6.70092
52.92763619336701 6.6538
52.952507655698504 6.63998
52.977381806977576 6.655010000000001
53.00245301017842 6.63607
53.02733256653592 6.569780000000001
53.052214817996074 6.59187
53.077099766608484 6.55314
53.102181859804446 6.5362800000000005
53.127072229988265 6.52658
53.15196530349892 6.5208900000000005
53.17686108239249 6.50364
53.20195409881522 6.5130300000000005
53.22685531582556 6.50511
53.25175924441303 6.43884
53.27666588664027 6.43846
53.30176985962693 6.4088199999999995
53.3266819565689 6.4569
53.35159677336455 6.39703
53.376514312083096 6.41184
53.40162927507703 6.38176
53.42655228516116 6.3295699999999995
53.45147802340193 6.35772
53.47660125628886 6.34428
53.50153247842639 6.3095300000000005
53.52646643496923 6.28618
53.55140312799818 6.31643
53.576537409691696 6.31021
53.60147960336152 6.26863
53.626424539786164 6.24831
53.65137222105307 6.2186
53.67651758529126 6.20273
53.70147078399681 6.1864
53.72642673383343 6.198919999999999
53.75138543689533 6.15827
53.776541917524526 6.16445
53.801506154876755 6.14572
53.826473151763246 6.14105
53.851442910284916 6.08058
53.87661054126026 6.09762
53.9015858509782 6.10771
53.92656392866066 6.07828
53.95154477641532 6.09436
53.976723591801296 6.0942300000000005
54.00171000771266 6.06021
54.02669920004598 6.03447
54.051691170915745 5.98745
54.076881204886796 6.0278599999999996
54.101878760928514 6.0481300000000005
54.12687910187696 5.96034
54.152077577768296 5.959280000000001
54.1770835166946 5.94445
54.20209224691339 5.95655
54.22710377055121 5.94015
54.25231352511594 5.9061
54.27733066384342 5.84276
54.30235060239643 5.8689599999999995
54.32737334290836 5.87418
54.35259441062629 5.81665
54.377622783395324 5.78226
54.40265396455061 5.821359999999999
54.42768795623251 5.80143
54.45292037169559 5.80925
54.477960012857906 5.77692
54.50300247099511 5.7596300000000005
54.52804774825457 5.7114400000000005
54.55329154616743 5.69514
54.57834249018678 5.70253
54.6033962597977 5.66629
54.6284528571545 5.62805
54.653708072335164 5.6142199999999995
54.67877035378786 5.5936
54.70383546947698 5.59623
54.72890342156389 5.59809
54.7541700889442 5.55355
54.77924374251975 5.54892
54.8043202390049 5.5064
54.82959552413022 5.4886
54.8546777351945 5.47354
54.87976279569621 5.45822
54.90485070780914 5.47617
54.930137506558005 5.40262
54.95523115074295 5.41176
54.98032765308844 5.36943
55.005427015775496 5.36466
55.03072536339621 5.31493
55.05583047570572 5.3316099999999995
55.080938454927676 5.33921
55.10604930325027 5.33029
55.131359235107396 5.30365
55.15647585066083 5.23975
55.181595341907496 5.2508300000000006
55.20671771104285 5.1727099999999995
55.232039262617704 5.2023
55.25716741665048 5.1885
55.28229845518636 5.12694
55.30743238042802 5.10349
55.33276558731939 5.07776
55.357905315183636 5.070790000000001
55.383047936390035 5.05601
55.40819345314859 5.02839
55.433538351073295 5.00099
55.458689688238415 5.00415
55.483843927614096 4.93018
55.509197623043605 4.92765
55.53435769621134 4.89215
55.55952067826466 4.86646
55.5846865714265 4.8911
55.61005202069737 4.84251
55.63522376553902 4.8114099999999995
55.66039842818645 4.8257699999999994
55.68557601087004 4.7884199999999995
55.7109532500271 4.7192300000000005
55.73613670233794 4.7565599999999995
