TT I
1.2716486653135266 7.619489999999999
1.2939594142134223 6.7265
1.3162702121660406 6.7312899999999996
1.3385810600174564 6.03167
1.3608919586137629 6.8497699999999995
1.383202908801069 6.3849
1.405513911425503 6.2682199999999995
1.4278249673332093 6.3280400000000006
1.4501343378461518 6.03585
1.4724455028545926 5.52416
1.4947567236847858 5.79575
1.517068001182951 5.65934
1.5393793361953272 5.66945
1.5616907295681737 5.95632
1.5840021821477681 5.95031
1.60631369478041 5.73474
1.6286252683124185 5.400580000000001
1.6509369035901333 5.00306
1.6732468618895553 5.1662300000000005
1.695558623192809 4.82576
1.7178704487808514 5.56479
1.7401823395001077 4.82314
1.7625012545597203 4.77463
1.7848028405262486 5.09622
1.8071218901122095 4.652769999999999
1.8294236121921872 4.379569999999999
1.8517427996910911 4.5903599999999996
1.8740620574440425 4.40129
1.8963639900671978 4.6414599999999995
1.9186833908139995 4.45634
1.9409854680117449 4.69881
1.9633050151394713 4.1308300000000004
1.9856246367570705 4.36206
2.0079269371922672 4.48347
2.03024671027244 4.70948
2.0525491637446027 5.02229
2.074869091674931 4.7527099999999995
2.097171701569106 4.92945
2.1194917877373847 5.02545
2.141811954326636 4.66993
2.164114805233074 4.79716
2.186435135143035 5.84059
2.208738150935709 10.4683
2.231058647554722 19.9071
2.2533792288321184 14.8837
2.275682498336085 7.975639999999999
2.298003251406138 5.61414
2.3203066942619714 4.8733
2.3426276225136022 4.867719999999999
2.3649486396617507 4.92238
2.387252348930071 5.70858
2.4095735463442893 6.1381
2.4318774374315884 6.22751
2.4541988185014043 5.836180000000001
2.476502894794693 6.4526699999999995
2.498824462909887 6.594939999999999
2.521146125856138 6.89525
2.5434504863470337 7.51653
2.5657723414244717 7.633939999999999
2.588076895590662 7.96692
2.610398946189713 8.00228
2.6327210958598384 7.96692
2.6550259469304716 8.17043
2.6773482972090137 8.14681
2.6996533504259 7.95569
2.7219759047039602 8.43702
2.744298562293959 8.4863
2.7666039251246595 8.425930000000001
2.7889267918020164 8.60556
2.8112323652516555 7.97992
2.833555444408179 8.6501
2.8558786311183852 8.36897
2.8781845268938557 8.61618
2.9005079311721484 9.07196
2.9228140460410397 8.96301
2.9451376712799635 9.27864
2.967444008632326 9.74497
2.9897678582247247 9.91075
3.0120918213106695 10.1861
3.0343984987899373 10.8787
3.0567226913198637 11.059000000000001
3.079029599759726 11.8177
3.101354025127254 12.0276
3.123678568232338 12.7555
3.145985829517914 12.8736
3.16831061055229 13.5796
3.1906181112775593 14.5361
3.212943133635653 14.5978
3.2352682779763207 14.9719
3.2575761442691227 15.2408
3.2799015350264273 15.2041
3.302209649240067 16.1501
3.3245352898092655 16.7517
3.3468436553365257 16.8167
3.369169549113219 17.5209
3.3914955708171384 18.6335
3.413804319727358 18.7235
3.4361305997334863 18.8862
3.4584396084414553 19.7561
3.4807661501462652 20.4046
3.503092824025881 20.6894
3.5254022288463154 20.8494
3.5477291695206588 21.58
3.5700388426251948 22.0993
3.5923660534916446 23.0716
3.6146934007816114 32.7866
3.637003482731501 64.9685
3.6593311053109985 69.6563
3.681641464033634 43.836999999999996
3.7039693653009733 28.1718
3.726297407241705 25.7673
3.7486081875460804 25.5577
3.7709365132734978 26.0572
3.793247578841633 26.2928
3.8155761917550093 26.5353
3.8378875459837216 26.7594
3.8602164494827234 27.0983
3.882545499606844 27.8148
3.9048572932539183 28.7069
3.9271866390645718 28.9654
3.9494987298666713 29.3961
3.971828374764527 30.1016
3.9941581705403255 31.0443
4.016470713506008 31.445999999999998
4.038800813471445 31.7296
4.061113662089144 32.4499
4.0834440696459176 33.297
4.105774632334751 33.2028
4.128087945865126 34.3018
4.150418821249301 35.0222
4.172732448931298 36.2158
4.195063640413578 37.7641
4.2173775856475215 40.5105
4.239709096631102 61.1521
4.262040768704612 162.564
4.284355196706267 210.977
4.306687193387355 138.398
4.329001947444346 64.6621
4.35133427213731 45.4248
4.373666762177566 43.657
4.395982011761091 43.9042
4.418314834921175 45.3204
4.44063041906622 50.6371
4.4629635787515625 56.519
4.4852969080429785 56.9827
4.5076130004776225 52.2443
4.529946671403969 52.251999999999995
4.552263106909177 53.3136
4.574597122877047 53.0448
4.596931312711224 52.7242
4.619248269273446 53.0834
4.6415828092605835 54.4615
4.663900117405352 55.55
4.686235010953232 57.0825
4.708552674085913 58.388999999999996
4.730887924602802 59.7623
4.753223354952695 61.4155
4.775541557023902 63.4821
4.797877349456786 65.5334
4.820195915032126 67.2937
4.842532072957498 67.8949
4.864868414979744 70.0142
4.88718753227192 72.941
4.909524244902505 74.3924
4.931843734218147 75.7741
4.954180820867835 77.9413
4.976518095879839 81.1683
4.998838149695359 83.5116
5.021175803844231 87.4747
5.043496238205739 90.9486
5.065834274903528 95.5067
5.088172504230693 100.339
5.1104935158799565 106.73700000000001
5.132832132875765 126.399
5.155153533596801 160.566
5.1774925416746225 201.09400000000002
5.199814334878411 411.181
5.2221537374521505 1106.31
5.244493338631803 3019.51
5.266815727034316 7863.71
5.289155727832427 12464.4
5.311478517248165 8685.65
5.333818921080011 2684.48
5.356159527788849 519.618
5.3784829252032536 187.722
5.400823940070432 145.988
5.423147747031976 128.66
5.445489173474152 119.01799999999999
5.467830807066149 115.16799999999999
5.490155234831516 112.32799999999999
5.512497285125229 107.545
5.534822130975162 104.52600000000001
5.557164601388673 102.277
5.579489868738879 99.2114
5.601832762690846 98.4953
5.6241758697774475 97.3252
5.646501775867269 96.0244
5.668845311622074 95.0652
5.691171647754637 94.76799999999999
5.713515615597765 93.1745
5.735859800852677 92.8201
5.758186788542988 92.7738
5.780531411018185 94.1344
5.802858837297399 93.7101
5.825203900414495 93.3164
5.8475491852224 94.87899999999999
5.869877275883075 95.0863
5.892223006467101 94.8692
5.914551544266608 95.5172
5.936897724049891 98.3026
5.959244129804903 105.31299999999999
5.981573344815301 131.012
6.0039202049061 240.143
6.026249875609095 502.904
6.04859719346037 1016.28
6.070927323278297 2266.78
6.093275102315365 4542.28
6.115623113320588 5141.6
6.137953938319995 3109.75
6.160302415650845 914.802
6.182633708324452 216.56799999999998
6.2049826554078376 110.167
6.227331838745022 91.3086
6.249663839443684 84.2058
6.27201349767565 81.3208
6.294345974611799 84.2802
6.316696111167083 90.7273
6.339046488263839 85.9725
6.361379686074702 76.1856
6.383730546639482 71.3962
6.406064229255215 69.2143
6.428415576718203 69.2729
6.450749747566656 68.0921
6.47310158535871 66.3092
6.495453669698332 65.0354
6.517788579421056 64.0046
6.540141159237969 63.2297
6.562476565766648 62.7733
6.5848296444934045 62.5199
6.607182974060425 62.1424
6.6295191323281015 62.0273
6.651872965955752 64.0531
6.6742096296068985 79.9433
6.6965639707294615 108.21700000000001
6.71891856698715 107.815
6.741255995248479 80.6439
6.763611104154477 64.2945
6.785949046381137 59.6549
6.808304671371482 58.5274
6.8306605557940046 58.7012
6.852999275508618 57.736000000000004
6.875355681171544 57.4443
6.897694923437771 56.5932
6.92005185377892 56.5752
6.9423916220322655 56.0663
6.964749080490181 55.2932
6.987106804399774 55.4194
7.009447368180821 55.4433
7.031805625367033 55.6001
7.054146723727803 55.3844
7.076505517631004 54.9787
7.098864581288365 54.9848
7.121206488070854 54.7914
7.143566093607822 54.7899
7.165908543567245 55.1656
7.188268694426048 55.2471
7.2106291193438095 55.1422
7.232972390625943 55.8772
7.255333366030969 63.6911
7.277677189091925 97.0663
7.300038718428332 126.2
7.322400526130865 109.891
7.344745183422596 75.6396
7.367107550224791 58.7732
7.389452767901992 55.4708
7.411815697249891 54.7065
7.434161478756298 54.2011
7.456524974096713 53.9991
7.478888753837185 53.9564
7.501235387657368 54.5063
7.523599738562711 54.3126
7.545946944825532 54.8471
7.568311870344528 54.7834
7.5906770845765665 55.2142
7.613025156078678 56.0487
7.635390950099687 56.7987
7.657739602662809 56.6277
7.680105979923558 56.1008
7.702472650212829 55.9471
7.724822180948224 55.8082
7.747189439655568 56.0793
7.769539560075357 56.1564
7.791907410653562 56.5644
7.81425812420825 56.3608
7.836626570110925 56.4526
7.858995315087906 57.6089
7.881346924933401 57.6041
7.903716270417482 58.2436
7.926068482028405 58.5076
7.948438431475253 59.2647
7.9708086843180235 59.7829
7.993161805171116 60.3158
8.015532667162402 60.7884
8.037886398416653 61.8028
8.060257873014221 62.1674
8.082629655331942 62.8757
8.104984308787587 63.7503
8.127356708900503 66.1598
8.149711981398308 70.5122
8.172085002766314 72.457
8.194458336181368 70.6396
8.216814543847752 68.9673
8.23918850371002 69.4052
8.26154533906492 70.2083
8.283919928836452 71.7772
8.306277395339652 72.7181
8.328652618483376 73.9828
8.351028159736202 76.2671
8.373386579575245 78.5109
8.395762759396959 80.443
8.418121819038275 84.5642
8.440498640894003 94.6992
8.462875785192262 107.11200000000001
8.485235811156207 128.55
8.507613602688501 182.486
8.529974277114228 273.677
8.552352719347912 409.787
8.574731488360351 685.023
8.59709314210385 1238.0
8.619472567021075 1931.08
8.64183487789147 2244.05
8.664214962183097 1764.77
8.686577933647762 880.0419999999999
8.708958680784317 344.288
8.731339760774953 153.829
8.753703729764451 108.416
8.77608547780821 98.0504
8.798450116065078 94.8387
8.820832535634787 92.2188
8.843215292401656 91.4507
8.865580941199045 90.5132
8.887964374703538 89.3443
8.910330701447199 90.1147
8.932714815164482 90.5993
8.955099270424924 89.3047
8.977466620733543 87.2506
8.999851761421976 85.0818
9.022219798361645 84.1039
9.04460562795561 83.6225
9.066991803441677 83.4749
9.089360876979615 83.1185
9.111747746589993 82.7966
9.13411751544971 82.0921
9.156505082664324 81.4104
9.178875550323522 81.7282
9.20126381862328 82.2901
9.223652438908596 82.1451
9.246023961427412 82.5035
9.26841328802173 81.9585
9.290785518039224 81.7768
9.313175554425882 83.3789
9.335565947154315 84.2289
9.357939245086508 84.4147
9.380330352834827 83.8929
9.40270436697103 83.8315
9.425096193225055 83.5905
9.447488380180165 84.1711
9.469863475295412 84.551
9.492256385987508 84.8694
9.514632206018318 85.4708
9.537025843935714 85.7384
9.559402392368193 86.8698
9.581796761000229 88.0274
9.604191496441521 89.0001
9.626569144158516 91.814
9.648964615551032 94.8588
9.671343000390081 95.7953
9.693739211225699 94.5306
9.716135793237463 93.0942
9.738515290448102 93.2572
9.760912617143402 94.3149
9.783292860202891 96.0008
9.805690935076182 97.5906
9.828089385495742 98.2801
9.850470754023561 100.22399999999999
9.872869957865444 105.84899999999999
9.89525208097539 116.211
9.917652041736662 125.429
9.940052382417589 130.825
9.962435644102392 151.002
9.984836746950979 195.50599999999997
10.007220771957746 259.502
10.029622640473708 364.85900000000004
10.052007432299963 545.175
10.074410069984072 852.169
10.096813093716005 1300.7
10.119199042482517 1794.79
10.141602840636468 2003.55
10.163989564971628 1556.03
10.186394141051062 835.8760000000001
10.208799107559706 362.51
10.231187001965623 174.283
10.253592751657669 122.47200000000001
10.275981430388155 111.758
10.298387966769793 110.406
10.320794897965431 111.29700000000001
10.343184759907361 110.257
10.36559248305461 106.68799999999999
10.387983138083852 105.09200000000001
10.410391656691655 110.943
10.432800574501677 123.615
10.455192425893369 140.263
10.47760214443012 166.033
10.499994797678786 212.94
10.522405320453982 293.067
10.54479877906917 408.86699999999996
10.567210109595656 510.657
10.5896218454736 562.1080000000001
10.612016518879773 494.881
10.634429067781074 333.339
10.656824555333241 193.18099999999998
10.679237920773568 119.90899999999999
10.701651695961992 94.191
10.724048411481384 88.5582
10.746463008485165 85.9202
10.768860546937125 84.7525
10.791275969274796 83.0466
10.81369180576079 81.8732
10.836090585366925 81.0898
10.858507252467449 79.3705
10.88090686379991 78.7131
10.903324365036394 77.9707
10.925724811614439 77.5403
10.948143150509463 78.2369
10.970561909719066 77.8709
10.992963615930844 76.4391
11.015383218085756 74.5663
11.037785768347074 73.0357
11.06020621697282 72.4246
11.082627090322113 71.9741
11.105030913430326 71.6618
11.12745263854165 71.583
11.149857314510728 72.9452
11.172279894912576 77.0341
11.194702904450653 77.0041
11.217108866490921 74.4068
11.239532736615194 71.7019
11.26193956033512 69.9533
11.284364294577085 68.9377
11.306789462371718 67.8118
11.329197585398376 66.5766
11.351623622610898 66.5756
11.37403261614354 65.7441
11.396459526308487 65.7171
11.418869393879497 65.195
11.441297180532617 64.9365
11.463725406927658 64.8275
11.486136592353875 64.5591
11.508565700543707 64.8398
11.530977768845315 65.9836
11.553407762368774 66.017
11.575838200059769 65.44
11.598251599479612 64.532
11.620682927815501 63.8006
11.64309721895548 63.2842
11.665529441478206 62.8902
11.687962112597958 62.8591
11.710377748130886 63.0136
11.732811318753434 62.6232
11.755227854859067 62.5512
11.777662328529495 62.6445
11.800079768750786 62.6384
11.822515149015453 62.5923
11.844950984084935 62.7235
11.867369787303163 62.2726
11.889806534289491 62.4031
11.912226250487029 62.589
11.934663912939751 62.8804
11.9571020346363 62.8539
11.979523127133968 63.0936
12.001962169624331 64.0149
12.024384183972964 65.6715
12.046824150809913 69.2596
12.069264581333726 73.9525
12.091687985297767 79.8419
12.11412934550045 88.8909
12.136553680195208 105.087
12.158995973632788 127.477
12.181438735204349 154.135
12.20386447284199 182.68
12.226308172985636 202.946
12.24873485024193 196.248
12.271179492516982 158.07299999999998
12.293607112949127 121.501
12.316052700916226 89.6227
12.338498763250042 74.5698
12.360927805303868 67.7619
12.383374818673879 65.5087
12.405804812803074 64.3671
12.428252780773262 63.8141
12.45070122756722 63.7169
12.473132656675375 63.7304
12.49558206341869 64.2261
12.518014453510101 64.1779
12.540464823770117 64.4883
12.562915677315177 64.693
12.58534951575545 64.9762
12.607801338171472 66.2977
12.630236146511358 69.9458
12.652688941369085 72.8212
12.675124723177234 73.0505
12.697578494048786 71.2196
12.720032754458185 68.4166
12.742470003354093 67.6032
12.764925245138771 67.5925
12.787363476431278 68.1267
12.809819703166806 68.3849
12.83227642391173 69.0512
12.854716135692716 69.5877
12.877173846755147 70.851
12.899614549869717 70.89
12.9220732548287 71.8745
12.94453245827299 72.5573
12.966974655289818 73.5791
12.989434858002571 74.3856
13.011878055298721 75.0647
13.034339260862497 76.0569
13.056800969391883 77.3675
13.079245674017244 79.8179
13.101708390774869 83.2427
13.12415410463411 91.8428
13.146617833206086 102.947
13.169064559883248 114.494
13.191529303857127 129.29399999999998
13.213994557076367 153.055
13.236442809902437 191.42
13.258909083908291 248.486
13.28135835851934 316.264
13.30382565690295 379.381
13.326293469022952 432.394
13.348744283242008 421.467
13.371213125129904 345.024
13.39366497011003 251.49599999999998
13.416134845360597 164.57299999999998
13.438605238843131 120.191
13.46105863690397 106.72399999999999
13.483530069144786 108.204
13.505984506951902 113.462
13.528456981549432 122.88
13.550929978879088 138.47299999999998
13.573385983253365 163.549
13.595860028340867 204.203
13.618317081455832 255.074
13.64079217790333 313.437
13.663250283359057 354.105
13.685726434770173 369.20300000000003
13.708203115221277 324.472
13.730662806148091 246.482
13.75314054697177 170.49099999999999
13.775601299246777 119.488
13.798080104050406 93.6322
13.820559442405358 84.5544
13.843021793671388 81.4185
13.865502201420897 79.671
13.887965623051947 79.2274
13.910447103807167 78.1639
13.932929122629764 76.8785
13.955394156785959 76.6989
13.977877254034569 75.6163
14.000343367582113 74.9592
14.022827546871707 74.1079
14.045294743423524 73.402
14.06778000837062 72.7305
14.090265817715476 72.625
14.112734645763819 72.1182
14.13522154619454 71.9914
14.157691466286913 72.0665
14.180179461423874 71.6936
14.202668005486178 71.2701
14.22513957064374 70.8061
14.247629214846473 70.3338
14.270101881097517 69.9442
14.29259262906496 70.1791
14.315083930490205 70.4897
14.337558255389705 70.6214
14.360050666019726 70.5864
14.382526101071944 69.6817
14.405019624534942 69.208
14.427513705993134 68.8954
14.449990813291825 68.8635
14.47248601302899 68.5226
14.49496423954951 68.5687
14.517460561197822 68.661
14.539939910570322 68.5456
14.562437357763558 68.8452
14.58493536931253 69.6638
14.607416409993311 70.188
14.62991555254159 70.7498
14.652397725157423 70.9685
14.674898002342799 70.6688
14.697398848433282 70.2815
14.719882725991326 71.6233
14.74238471217934 73.461
14.764869730765593 76.9244
14.787372860692983 80.3205
14.809876564079925 84.6251
14.83236330125751 90.6879
14.854868153850365 99.4009
14.877356041159485 113.20100000000001
14.899862046604186 132.88
14.922351087688757 158.609
14.944858249632887 188.56099999999998
14.967365991421232 213.4
14.989856770231246 228.511
15.012365673994204 217.794
15.03485761569738 183.519
15.05736768508665 140.687
15.07987833888692 109.15299999999999
15.102372032001655 86.9211
15.124883856909658 75.315
15.14737872204565 71.6288
15.169891721717274 70.1506
15.192405310371893 69.8737
15.214901940621196 69.8707
15.237416709527137 69.6428
15.259914520936249 69.997
15.282430473753607 68.9599
15.304947020131227 68.1162
15.327446610371178 67.5673
15.349964346154254 66.8022
15.372465126703139 66.595
15.394984055556009 66.3931
15.417486030076159 66.4608
15.44000615566487 65.9148
15.462526881230803 65.7771
15.485030653812652 65.8371
15.507552581617434 65.9217
15.530057557334603 65.7468
15.55258069104857 65.7771
15.575104429329837 65.8277
15.597611216864632 65.6409
15.620136166564563 66.1214
15.6426441664095 67.7057
15.665170331202765 70.517
15.687697105158826 73.4417
15.710206930593545 76.7317
15.732734925158933 80.8751
15.755245972089478 87.0936
15.77777519094324 96.6211
15.800287463046663 110.09200000000001
15.822817909869592 129.547
15.84534897229804 151.215
15.867863089299354 175.024
15.890395385222186 190.11900000000003
15.912910736597423 194.706
15.935444269699861 176.605
15.957978423016485 150.35399999999998
15.980495633101265 116.661
16.003031029129367 91.3832
16.02554948280019 74.3156
16.048086125229432 66.4243
16.070623392487107 64.0347
16.09314371869582 63.3786
16.11568223789321 62.54600000000001
16.13820381691126 61.7468
16.160743591742527 60.7887
16.183283996022084 59.9964
16.205807461423195 59.0838
16.228349126881973 58.5783
16.25087385432698 58.5553
16.27341678466365 58.125
16.29594277784926 58.0922
16.31848697676433 57.9176
16.341031811604868 57.9094
16.36355971058487 58.1091
16.3861058195587 57.8265
16.40863499352978 56.9965
16.431182380342005 56.4805
16.453730407713202 56.0317
16.476261501364792 55.6561
16.498810812136167 55.1816
16.52134319004079 55.4257
16.54389378792203 55.2158
16.566445031001553 55.1381
16.588979342490088 54.8889
16.61153187824822 54.7528
16.634067483263312 54.6637
16.656621315414416 54.6729
16.679175797408888 54.2794
16.701713349928728 54.4447
16.72426913389191 54.6842
16.74680798922351 54.8453
16.76936507887444 54.643
16.791905240734874 54.7849
16.814463639794468 54.4308
16.837022695210294 54.5336
16.859564824093756 54.9119
16.882125194503903 55.1809
16.904668639217885 55.9222
16.927230328348003 55.9113
16.949792678493612 56.1992
16.972338104193863 55.7737
16.994901778652235 55.3022
17.017448529496576 55.6057
17.040013531998152 55.9755
17.06257920018044 56.6915
17.0851279459922 57.0823
17.107694947817667 57.9096
17.130245028099072 58.7279
17.15281336730298 60.1827
17.17536478578733 61.968
17.19793446610687 64.3309
17.220504818648422 67.1948
17.243058251703697 70.578
17.265629950971032 75.0961
17.288184731571736 79.4601
17.310757781306908 83.54899999999999
17.33333150794385 84.0867
17.355888317140174 81.6378
17.37846339986244 75.4536
17.401021565958885 69.8785
17.42359800851343 64.5665
17.44617513265564 61.4546
17.468735341390783 59.7681
17.491261035594565 58.9615
17.51396340099364 58.7988
17.536490463869136 58.8489
17.559018209820174 58.8512
17.58154663977963 58.9572
17.604251766089718 59.1396
17.626781572227713 59.4196
17.64931206518155 59.8134
17.671843245885103 60.2961
17.69455114821572 60.3686
17.717083712612634 60.6097
17.739616967569667 60.7878
17.762150914021706 61.3502
17.78486160749854 61.588
17.807396945166804 62.2896
17.829932977143503 63.4699
17.85246970436452 65.0676
17.875183204129467 66.7213
17.897721330097664 69.0136
17.920260154126645 71.1089
17.942799677153296 74.327
17.9655159983646 78.4534
17.988056927677544 83.8969
18.010598558807683 91.9883
18.033140892692916 102.155
18.05586005052525 113.12799999999999
18.07840379824407 124.414
18.10094825154059 135.059
18.12366954819864 142.381
18.146215420998306 139.79
18.16876200220057 130.41899999999998
18.191309292745153 114.984
18.214033452627167 100.811
18.236582170236648 89.9035
18.259131600016456 85.8323
18.281681742907335 86.7074
18.304408781233683 91.3384
18.32696035875955 96.3827
18.349512652227624 101.02600000000001
18.372065662579683 104.854
18.394795594587553 105.844
18.41735004715306 101.52600000000001
18.43990521943684 94.4338
18.46246111238171 84.3707
18.485193953325208 75.3845
18.507751296070428 68.6189
18.530309362314178 65.0858
18.552868153000343 63.0914
18.57560391815056 61.9438
18.59816416623245 61.6041
18.620725141597372 61.0468
18.643286845190268 60.6059
18.666025549835414 60.2059
18.688588718427933 59.7387
18.711152618092243 59.5804
18.73389353884365 59.2646
18.75645890921984 58.7625
18.77902501351406 58.5166
18.801591852673102 58.3655
18.824335739722738 57.8271
18.846904057212626 57.7162
18.8694731124168 57.5228
18.89204290628315 57.4957
18.914789774966803 57.4152
18.937361054791623 56.9226
18.959933076131318 56.8983
18.982505839934877 56.9037
19.00525570560582 57.1662
19.027829963004184 56.8809
19.05040496572238 57.0164
19.072980714710468 56.945
19.095733592739563 57.0097
19.11831084296757 57.3673
19.140888842324735 57.8155
19.16346759176222 57.9991
19.18622349753803 58.4657
19.208803755869358 59.4401
19.231384767143577 60.9369
19.253966532312948 62.1491
19.276725481241822 64.6821
19.29930876296784 66.9372
19.3218928014549 70.3605
19.34465404436217 73.3186
19.36723960516257 75.6276
19.389825925592426 76.1744
19.412413006605938 74.8807
19.43517731967805 71.2112
19.457765930683355 66.5057
19.48035530514408 62.1098
19.50294544401556 58.5573
19.525712842708348 56.3056
19.54830451925909 54.7746
19.570896963095727 53.9933
19.593490175174704 53.7266
19.616260674962184 53.6548
19.638855432416964 53.313
19.661450960992624 53.4512
19.68404726164677 53.4093
19.706820878021247 53.3173
19.729418731756834 53.5895
19.752017360452857 52.9816
19.77461676506804 53.3567
19.797393513540218 53.6391
19.819994478951667 53.9503
19.84259622316767 54.5897
19.8651987471481 54.7864
19.887978643247177 54.9054
19.91058273574792 55.3409
19.933187610901943 56.248999999999995
19.955969879466828 57.6213
19.97857632894404 59.1152
20.00118356396599 60.7248
20.023791585494575 62.9016
20.046577028914875 65.6419
20.069186632506966 67.5989
20.091797025500632 69.4914
20.114408208858933 69.9019
20.137196842715273 69.3658
20.159809615886765 67.7294
20.18242318232135 65.2692
20.20503754298326 63.0572
20.227829382875154 62.1019
20.250445341109344 61.8335
20.27306209647285 62.8412
20.29567964993108 64.1413
20.31847471147704 64.926
20.34109387027612 65.4675
20.363713830075454 64.7188
20.386334591841646 63.2644
20.409132890679302 60.5424
20.431755265564437 57.6033
20.454378445325528 54.8087
20.477002430930366 52.7724
20.499803982716553 51.8766
20.522429589228004 51.1606
20.54505600449589 50.6356
20.567683229489194 50.4993
20.590488049900088 50.2443
20.61311690359731 49.891999999999996
20.63574656993626 49.9427
20.658553853717297 49.4662
20.681185154618298 49.426
20.703817271080066 49.2094
20.72645020407368 48.9533
20.749260783967177 48.8556
20.771895359337133 48.9112
20.794530754161617 49.0109
20.817166969412938 48.6798
20.83998086114876 48.7441
20.86261872660049 48.7477
20.885257415405402 48.5526
20.90789692853701 48.4971
20.930714147864748 48.5318
20.953355319030678 48.6012
20.97599731745334 48.5707
20.99864014410749 48.3571
21.021460706796564 48.5642
21.044105199328826 48.7122
21.06675052302631 48.8419
21.089396678865015 49.2028
21.112220600704806 49.2825
21.134868430275347 49.7937
21.15751709492456 50.1184
21.180166595629693 50.481
21.202993892429635 50.9241
21.22564507473034 51.1956
21.24829709602816 51.3345
21.27112693608965 51.433
21.293780644891275 51.2629
21.316435195634053 50.4427
21.339090589297417 49.8352
21.361923832041875 49.3107
21.384580921090404 48.6947
21.407238856007325 48.3662
21.429897637773326 48.1637
21.45273429906592 48.2127
21.475394784108598 48.3647
21.498056118951983 48.2264
21.520718304578022 48.5094
21.543558400304388 48.5527
21.566222297108816 48.8749
21.58888704765135 48.9668
21.61155265291521 49.4405
21.63439619898156 49.7281
21.657063523335786 49.7295
21.67973170537063 50.3386
21.7024007460706 50.8884
21.72524775840385 51.6608
21.747918526116475 52.7899
21.770590155457388 54.1476
21.79326264741238 55.7471
21.816113141960237 57.4606
21.838787368860547 59.5728
21.861462461341976 61.4475
21.884315579735777 63.2773
21.90699241312273 64.3895
21.92967011506078 64.8577
21.95234868653799 64.2953
21.9752053151131 62.7378
21.997885635446785 60.6722
22.020566828293532 58.8493
22.04324889464272 57.3255
22.066109049404666 56.2699
22.088792872571794 55.9383
22.111477572219204 56.1564
22.1341631493376 56.1295
22.157026846313123 55.9431
22.179714188221507 54.94
22.202402410582668 53.7795
22.22509151438863 52.1915
22.24795876962584 50.8986
22.270649646204486 50.2208
22.293341407213727 49.4656
22.316034053646906 49.1288
22.338904883215342 48.9495
22.36159931041458 48.9232
22.38429462602756 48.7486
22.40699083104897 48.6071
22.429865251039757 48.607
22.452563244831367 48.7907
22.47526213102522 48.7348
22.49813925616515 48.5116
22.520839937143307 48.6052
22.543541513520587 48.6097
22.56624398629403 48.4285
22.589124730075895 48.4266
22.611829005656723 48.6591
22.63453418063466 48.6921
22.657240256008077 48.8788
22.680124634582935 49.0097
22.70283252079775 49.0742
22.725541310413075 49.6105
22.74825100442868 49.6519
22.771139033969575 50.2651
22.79385054687155 50.479
22.81656296718292 51.0733
22.83927629590484 52.0336
22.862167992606945 53.2961
22.88488314827121 54.3273
22.907599215359284 55.2991
22.93031619487366 56.3463
22.953211574954405 57.0974
22.975930389478226 57.8461
22.998650119445763 58.0655
23.02137076586092 57.1124
23.044269845560063 55.8211
23.06699233506288 54.0975
23.089715744034912 52.3088
23.112617610931565 50.7697
23.135342869061212 49.4996
23.158069049684816 48.9986
23.1807961538087 48.7041
23.20370174880544 48.7468
23.226430710184808 48.838
23.249160598093425 48.9415
23.271891413539002 48.918
23.294800752937697 48.6799
23.31753343374794 48.9616
23.340267045128353 48.9727
23.36300158808808 49.3474
23.38591468821339 49.7555
23.408651104658304 50.3433
23.431388455719986 50.8734
23.454126742409 51.9095
23.4770436196085 52.88
23.499783787914662 54.0585
23.522524894889884 54.9831
23.54526694154616 56.1648
23.56818761219047 57.2856
23.59093154860734 57.7162
23.613676427751283 57.7644
23.636422250635754 56.6225
23.659346731118656 54.9285
23.68209445191868 53.1982
23.704843119509587 51.0028
23.72759273490623 49.0762
23.750521041644767 47.8405
23.77327256312355 46.9268
23.796025035462787 46.3116
23.818956224555475 46.044
23.841710609113413 45.931999999999995
23.86446594758979 45.7256
23.887222241002014 45.3598
23.910157285144578 45.1465
23.932915498962537 45.2413
23.955674670778713 44.9988
23.978434801611975 44.7459
24.001373717286125 44.6774
24.024135776723917 44.4531
24.046898798245582 44.3767
24.06966278287146 44.231
24.092605586582614 44.1443
24.115371508023642 44.0457
24.1381383956401 43.872
24.16090625045381 43.8062
24.183852958731244 43.6802
24.206622758582608 43.8137
24.229393528706886 43.6063
24.252165270127392 43.7121
24.27511589952438 43.6356
24.297889594216997 43.3221
24.32066426328598 43.1121
24.34343990775613 43.1878
24.36639447485003 43.1354
24.38917208083877 43.1623
24.41195066531332 42.9782
24.43490819850244 43.1592
24.457688750692377 42.9303
24.48047028445616 42.8831
24.503252800821233 42.9356
24.526214300784112 43.0215
24.548998793132213 42.9294
24.57178427117417 42.8707
24.59457073593893 42.8816
24.617536219319863 42.7861
24.64032466834748 42.7522
24.663114107195035 42.7589
24.685904536893013 42.4328
24.708874020360852 42.3593
24.731666442613744 42.3382
24.754459858818787 42.3114
24.777254270007962 42.2125
24.80022777025625 42.2065
24.82302418230472 42.2136
24.845821592443674 42.0836
24.86862000170663 42.1584
24.891597535453727 42.1383
24.914397953892728 42.2918
24.93719937456671 42.1041
24.96000179851076 42.278
24.98298338249997 42.5261
25.00578782394922 42.7143
25.028593271784167 42.8647
25.05157790644186 43.1777
25.07438537804115 43.3257
25.097193859145293 43.6385
25.120003350792075 43.7999
25.142992065061257 44.0132
25.165803588823465 44.1607
25.18861612625217 44.5415
25.211429678386736 44.7388
25.234422489079968 44.7815
25.257238081693636 44.7465
25.280054692141732 44.9358
25.3028723214652 44.8377
25.325869245420463 44.8598
25.348688923599397 44.8271
25.371509623787006 44.8741
25.394331347025812 44.3931
25.41733240110666 43.9703
25.440156181590016 43.2405
25.46298098826268 42.7353
25.48580682216873 42.1475
25.50881202326435 41.6883
25.53163992281684 41.2544
25.55446885274561 40.9541
25.577298814096377 40.8288
25.600308179121807 40.6982
25.623140214533745 40.7776
25.64597328451537 40.7047
25.66898578564376 40.4481
25.691820936010206 40.5533
25.714657124097695 40.5388
25.737494350954734 40.4769
25.760511045684957 40.3361
25.783350361364224 40.4769
25.806190718969255 40.4259
25.82903211955018 40.5886
25.852053024868923 40.4774
25.874896522722523 40.5932
25.897741066713106 40.5813
25.920586657892454 40.7035
25.943611790812668 40.8615
25.966459487728237 40.9137
25.989308234998564 41.0173
26.01215803367705 41.2798
26.03518741123814 41.3343
26.05803932412957 41.5229
26.080892291600094 41.4841
26.10374631470478 41.5121
26.12677995397268 41.6558
26.14963609978026 41.4992
26.172493304397875 41.2208
26.19535156888223 40.9561
26.218389486949604 40.6071
26.241249882640123 40.385999999999996
26.26411134137826 40.1525
26.28715248187403 40.1702
26.31001607820869 40.0748
26.3328807407756 39.8793
26.35574647063438 40.0317
26.37879191991473 39.9785
26.401659795896734 40.1338
26.424528742360263 40.1989
26.447398760366614 40.3643
26.470448535598294 40.4826
26.49332070826805 40.746
26.516193955675355 41.038000000000004
26.53906827888316 41.2139
26.562122397260108 41.4373
26.584998883685063 41.7254
26.607876449110325 41.9839
26.63075509460056 42.111000000000004
26.65381357334404 42.3345
26.67669439061878 42.2464
26.699576291163382 42.0165
26.722459276044212 41.8419
26.745522132402975 41.6308
26.768407297649354 41.2016
26.791293550442003 40.8893
26.814180891848974 40.7817
26.837248143099337 40.4588
26.860137673466657 40.4352
26.88302829566349 40.0278
26.90592001075963 39.8579
26.92899167420566 39.8285
26.951885586870763 39.3673
26.974780595655517 39.1101
26.99785558178161 39.0763
27.020752794605112 38.9626
27.043651106772522 38.8153
27.06655051935668 38.7652
27.089629948036183 38.6733
27.112531573292053 38.7906
27.135434302194138 38.6886
27.158338135817015 38.5175
27.181422024430987 38.5628
27.204328079372566 38.4801
27.22723524226965 38.4626
27.250143514198573 38.481
27.273231880156334 38.5171
27.296142382065014 38.4013
27.319053996245536 38.2878
27.341966723775965 38.3342
27.365059584515222 38.4849
27.38797455070062 38.4849
27.410890633481237 38.4371
27.433807833936918 38.3274
27.456905206923906 38.3663
27.47982465472398 38.4773
27.502745223449743 38.5126
27.525666914182825 38.4803
27.548768816912457 38.4347
27.571692763693633 38.3545
27.59461783573812 38.3186
27.617723149491244 38.1468
27.640650484125285 38.0456
27.66357894728264 38.0389
27.686508540048052 38.028
27.709618414237887 37.9427
27.732550278321757 37.8809
27.755483275279115 37.7716
27.778417406196485 37.7813
27.801531858397514 37.7589
27.824468269376716 37.8845
27.847405817586786 37.7725
27.870344504116094 37.9424
27.893463551932008 38.1467
27.916404527281053 38.3712
27.93934664422563 38.2465
27.962289903855886 38.3906
27.98541356491974 38.598
28.00835912214229 38.7655
28.03130582533231 39.0633
28.054253675581805 39.2712
28.077381967556104 39.0762
28.100332124185126 38.9279
28.123283431160893 38.902
28.146235889577238 38.6041
28.169368830154156 38.5518
28.192323603752033 38.3412
28.215279532083304 38.102
28.238415973016764 37.8277
28.261374223145094 37.797
28.284333631303806 37.5808
28.307294198589954 37.3638
28.330435319167677 37.0531
28.353398217078915 36.7766
28.376362277420153 36.5515
28.39932750129032 36.3567
28.422473319286713 36.3664
28.44544088262495 36.2954
28.468409612800283 36.1762
28.491379510913497 35.9343
28.51453004413313 35.8555
28.53750229057244 35.8164
28.56047570826344 35.7843
28.583450298308804 35.8832
28.606605564586562 35.5663
28.629582511831156 35.5878
28.65256063474956 35.4964
28.675539934446338 35.6036
28.698699951647605 35.569
28.72168161743193 35.4347
28.74466446331978 35.506
28.767648490417624 35.3392
28.790813276438353 35.3417
28.813799678527303 35.2294
28.836787265157085 35.3536
28.859955641890075 35.3525
28.882945610203045 35.4249
28.905936766392035 35.3484
28.928929111566863 35.3357
28.952102288520145 35.2301
28.975097024308607 35.1332
28.998092952423807 34.9162
29.021090073977508 34.8893
29.04426806913204 34.742
29.067267590245258 34.5
29.090268308143695 34.5016
29.11327022394099 34.4998
29.13645305530891 34.3243
29.159457379627167 34.3682
29.18246290519685 34.3953
29.20546963313352 34.2672
29.22865731875826 34.2826
29.25166646419296 34.2808
29.27467681535305 34.1764
29.29768837335608 34.2361
29.320880931312562 34.1428
29.34389491580634 34.1538
29.366910110507334 34.111
29.38992651653503 34.1768
29.41312396492981 34.2403
29.436142806456754 34.0708
29.45916286268059 34.0271
29.48236399319994 33.9074
29.50538649169417 33.7552
29.528410208259935 33.7191
29.55143514402014 33.4841
29.574641196749695 33.2486
29.597668583816574 33.1531
29.6206971934585 32.9825
29.64372702680042 33.0856
29.666938019934474 33.0097
29.689970313635285 32.9353
29.713003834422636 32.9459
29.73603858342347 32.8922
29.759254535188578 32.7294
29.78229175361658 32.7709
29.80533020365064 32.864000000000004
29.82836988641968 32.7028
29.85159081507472 32.7105
29.874632976355343 32.6515
29.89767637376955 32.7448
29.920721008448314 32.5472
29.9439469322847 32.5537
29.96699405457564 32.5397
29.9900424175358 32.4512
30.013092022298157 32.3674
30.03632295963995 32.3821
30.059375061131373 32.4158
30.08242840783577 32.3641
30.105483000888153 32.4833
30.128718970092244 32.4639
30.151776069006917 32.4164
30.17483441768648 32.3501
30.198074175317235 32.3183
30.221135036724256 32.413000000000004
30.24419715131772 32.3955
30.267260520236203 32.1893
30.290505341942243 32.1429
30.313571232750228 32.2819
30.336638381310948 32.2674
30.35970678876503 32.1658
30.38295669299435 32.1564
30.40602763151657 32.1974
30.429099832366074 32.0791
30.452173296685572 32.0215
30.47542830191959 32.0344
30.498504306502497 31.9779
30.521581577995562 32.0498
30.544660117543582 32.1391
30.56792024229725 32.1394
30.59100133132069 32.0473
30.614083691845494 32.1099
30.637167325018545 32.1177
30.660432587840603 32.2207
30.683518779717886 32.1925
30.70660624769615 32.1974
30.729694992924372 32.069
30.75296541239743 32.2146
30.77605672557558 32.1048
30.799149319462742 32.0289
30.8224236211637 31.8985
30.845518789950724 31.7203
30.868615242910597 31.7042
30.891712981195973 31.6179
30.91499247215866 31.5527
30.938092794619365 31.5426
30.96119440587579 31.4266
30.984297307082752 31.4041
31.00758200598383 31.2474
31.030687500658694 31.2631
31.053794288760695 31.1092
31.076902371446767 30.9774
31.100192296997445 31.0489
31.12330298246119 30.8962
31.14641496599209 30.8983
31.169528248749216 30.8912
31.19282341969534 30.791
31.215939314557186 30.9113
31.239056512134788 30.9201
31.262175013589378 30.9366
31.28547544871168 30.8245
31.30859657161541 30.7818
31.331719001892175 30.8654
31.35484274070538 30.9475
31.378148458819545 30.8071
31.401274828443725 30.9182
31.424402510106933 30.9196
31.447712205419993 30.9115
31.470842524931633 30.7886
31.493974159989783 30.8248
31.51710711176168 30.7865
31.54042212308802 30.7232
31.563557722100917 30.730999999999998
31.586694641341655 30.6406
31.609832881979628 30.475
31.63315322823208 30.4031
31.656294125521327 30.2877
31.679436347728515 30.258000000000003
31.70257989602529 30.2038
31.725905596152327 30.105999999999998
31.74905181052835 30.0047
31.772199354521323 30.0483
31.79534822930507 30.1915
31.818679302290967 30.1368
31.84183085259981 30.0905
31.864983737233473 30.0481
31.88813795736804 30.1705
31.911474422233013 30.0007
31.934631327356435 30.1555
31.9577895715215 29.965
31.980949155906522 29.9916
32.004291031706956 30.0474
32.027453310562606 29.767
32.05061693318573 29.658
32.07396288236386 29.7758
32.09712920658542 29.7054
32.12029687812702 29.4928
32.14346589817093 29.4811
32.166817291729984 29.4782
32.18998902288583 29.445999999999998
32.21316210610336 29.3241
32.23633654256711 29.1882
32.259693399663725 29.1112
32.282870556771144 29.1413
32.30604907069099 29.1851
32.329228942610065 28.9734
32.35259128243769 28.9052
32.375773884550505 28.9214
32.398957848235646 28.9075
32.422143174682176 28.7087
32.445511016471215 28.679000000000002
32.468699082679954 28.6831
32.49188851523011 28.6237
32.51507931531304 28.6715
32.538452678331 28.5996
32.56164622776311 28.4679
32.58484114831493 28.4407
32.60803744118015 28.4959
32.631416344731896 28.4711
32.654615396551876 28.3773
32.67781582427913 28.354
32.701198898634416 28.2972
32.72440209253756 28.2628
32.747606665947124 28.195999999999998
32.77081262006088 28.1156
32.79420126883317 28.0695
32.81740999876112 28.1026
32.840620112999424 27.9356
32.86383161274818 27.9668
32.88722585534586 27.9547
32.91044014056596 27.9092
32.933655814909734 27.8382
32.95687287957963 27.9294
32.98027273544904 27.8261
33.00349259526636 27.8389
33.026713849030116 27.8758
33.04993649794511 27.8355
33.073341986570746 27.697
33.09656744032826 27.6863
33.11979429286444 27.7537
33.14302254538647 27.7672
33.166433686291185 27.6843
33.18966475336992 27.668000000000003
33.212897224069096 27.5037
33.23613109959831 27.5744
33.259547912343415 27.561999999999998
33.2827846121627 27.4785
33.306022720453775 27.3816
33.32926223842861 27.3782
33.352684742614166 27.3868
33.37592709463173 27.3215
33.399170859982064 27.21
33.422597648419426 27.0702
33.44584425514446 27.0563
33.46909227885668 27.0848
33.4923417207723 26.9264
33.51577423505344 26.912
33.539026528130385 26.8627
33.56228024307245 26.8408
33.585535381098246 26.6427
33.60897364093058 26.6346
33.63223163992385 26.6766
33.6554910656699 26.6256
33.678751919389796 26.6333
33.702195944520106 26.511
33.72545966903325 26.5335
33.74872482519663 26.4559
33.771991414233746 26.4209
33.79544122444841 26.4547
33.81871069412428 26.369
33.84198160035767 26.3116
33.86525394437455 26.4136
33.88870955949969 26.3182
33.911984794020626 26.2826
33.93526147001624 26.1382
33.958539588715006 26.0861
33.98200102861669 26.0667
34.0052820477047 25.9618
34.02856451319451 26.0006
34.05203033759056 25.9696
34.07531571090147 25.93
34.09860253431845 25.9059
34.121890809074316 25.8167
34.145362493118924 25.8813
34.16865368561615 25.7869
34.191946333164054 25.7055
34.21524043699793 25.7545
34.23871800066799 25.6386
34.26201503218366 25.5731
34.28531352370466 25.5531
34.30861347646881 25.5023
34.33209693978188 25.4824
34.3553998301885 25.4102
34.378704185565205 25.4119
34.402010007152356 25.2719
34.42549939016683 25.3447
34.44880815937748 25.2951
34.472118398533134 25.2609
34.49543010887669 25.2611
34.51892543169198 25.0203
34.54224009966052 25.0514
34.56555624255917 25.1286
34.58887386163339 24.9702
34.61237514439016 24.9591
34.6356957311114 24.8455
34.65901779775809 24.9233
34.68252356662995 24.9055
34.705848608458616 24.8484
34.72917513396849 24.7779
34.75250314440949 24.7768
34.77601490857862 24.7314
34.799345904259795 24.6398
34.82267838863559 24.659000000000002
34.846012362958525 24.6648
34.869530142679984 24.5743
34.89286711232212 24.5411
34.91620557568269 24.513
34.93954553401677 24.469
34.9630693495876 24.4482
34.986412313340814 24.5135
35.00975677584668 24.4171
35.033102738362956 24.3773
35.05663261012228 24.2689
35.0799815881786 24.1855
35.10333207003229 24.1989
35.12668405694369 24.2356
35.150220005273056 24.2656
35.17357501786656 24.2024
35.19693153931268 24.173000000000002
35.220289570874385 24.1182
35.24383161619786 24.1534
35.267192683604904 24.1463
35.290555264930376 24.0643
35.314101899412165 24.0745
35.33746752422433 24.0794
35.36083466676374 24.0177
35.38420332829803 23.9968
35.407756095629054 24.0328
35.43112781085063 23.9734
35.45450104888391 23.8791
35.477875810999194 23.8885
35.50143473172161 23.7767
35.52481255774625 23.8123
35.54819191167777 23.7363
35.57157279478914 23.7067
35.595137889488406 23.6604
35.61852184675279 23.6394
35.641907337029984 23.6049
35.665294361595684 23.5486
35.68886565090076 23.4859
35.7122557598848 23.5109
35.73564740699838 23.4875
35.759040593519934 23.4681
35.78261809810353 23.4624
35.80601437933051 23.351999999999997
35.829412203814705 23.1915
35.85281157283719 23.1473
35.876395313415884 23.3326
35.8997977874528 23.1978
35.92320180988546 23.0945
35.946790244133936 23.1262
35.97019737933222 23.1031
35.993606066789866 23.1086
36.01701630779276 23.0126
36.04061101440684 22.9196
36.06402437852291 23.0272
36.08743930005611 22.9153
36.1108557802951 22.857
36.13445678011326 22.8518
36.15787639383515 22.819000000000003
36.18129757014299 22.7859
36.20472031032821 22.73
36.22832762423364 22.7053
36.25175350829375 22.7007
36.275180960119776 22.5595
36.298609981005924 22.6173
36.32222362992669 22.6362
36.34565580510207 22.4854
36.36908955323448 22.5133
36.39252487562093 22.4614
36.416144880530226 22.3644
36.43958336764275 22.3879
36.463023432914625 22.4459
36.486465077645676 22.335
36.51009145956204 22.4026
36.53353627947859 22.3724
36.55698268276811 22.3282
36.58043067073321 22.1919
36.60406345072071 22.0629
36.62751462435344 22.1658
36.65096738658405 22.0581
36.67460498210655 22.084
36.69806093788647 22.0686
36.72151848619297 21.9885
36.744977628333636 21.9976
36.76862165890998 21.8748
36.79208400512205 21.8418
36.81554794910557 21.9251
36.83901349217101 21.9211
36.862663978991606 21.8144
36.88613273667352 21.7512
36.90960309738324 21.6971
36.933075062434064 21.6547
36.95673202673572 21.6756
36.98020721697122 21.5916
37.003684015502365 21.5229
37.027162423645365 21.5312
37.050825886711465 21.4947
37.07430753063053 21.4547
37.09779078812467 21.4485
37.121275660513014 21.4467
37.144945643673694 21.3779
37.16843376245278 21.3307
37.19192350009803 21.3047
37.215414857931435 21.2558
37.239091382563885 21.2119
37.262585997426164 21.259
37.28608223645736 21.2765
37.309763684451696 21.1913
37.33326318851098 21.084
37.356764320726555 21.0712
37.380267082425526 21.1193
37.40395510942588 21.0117
37.42746114683234 20.9375
37.45096881771841 20.8963
37.474478123414166 20.9406
37.49817275092816 20.86
37.52168534303452 20.8259
37.54519957395567 20.7825
37.568715445024665 20.8024
37.592416694607714 20.7071
37.61593586281424 20.7613
37.63945667518264 20.8128
37.66297913304891 20.756
37.68668702630454 20.6386
37.710212792059274 20.5467
37.733740207334854 20.4886
37.757269273470364 20.4982
37.780983832050374 20.4592
37.80451621684926 20.5201
37.82805025654007 20.4283
37.851585952464795 20.3135
37.8753071980695 20.3275
37.89884622345676 20.2498
37.92238690911902 20.2835
37.94611318753442 20.2726
37.969657210779765 20.2802
37.99320289834801 20.2164
38.016750251586465 20.1595
38.04048325513017 20.1217
38.06403395679343 20.1168
38.087586328183946 20.0529
38.11114037065203 20.0321
38.13488012115898 20.0186
38.1584375229181 19.9052
38.181996599821 19.92
38.205557353221124 19.9732
38.229303872575656 19.8843
38.2528679961576 19.8737
38.27643380031219 19.8675
38.30000128639589 19.816
38.32375459653193 19.815
38.34732546371299 19.7529
38.37089801690786 19.6994
38.39447225747609 19.6018
38.418232380377425 19.5828
38.441810012983396 19.5944
38.46538933705673 19.6164
38.488970353960084 19.5596
38.51273731166058 19.4902
38.536321731567014 19.4223
38.55990784840681 19.3996
38.58367995004091 19.4083
38.60726947812959 19.3267
38.63086070726198 19.3702
38.654453638806274 19.4167
38.678232613930824 19.2314
38.70182896773327 19.1446
38.72542702806741 19.2433
38.7490267963045 19.1647
38.77281266709232 19.1254
38.79641586862214 19.133
38.8200207821842 19.0497
38.843627409152944 19.0742
38.86742019782782 19.0193
38.891030269149255 18.9717
38.914642058016156 18.9776
38.938255565806124 18.9602
38.96205529464307 18.9535
38.98567225787121 18.9093
39.00929094417078 18.9067
39.03291135492255 18.8755
39.05671804624804 18.861
39.080341923549106 18.8322
39.103967529460334 18.8054
39.127594865365744 18.6875
39.15140854155791 18.6069
39.17503935514948 18.7122
39.19867190290282 18.5817
39.22249083587951 18.6711
39.24612686969409 18.6531
39.269764641845306 18.5521
39.293404153722804 18.5145
39.317230110864074 18.423
39.34087311998506 18.4401
39.36451787301696 18.3992
39.388164371352595 18.3184
39.41199737518003 18.3779
39.43564738196752 18.3016
39.45929913825317 18.3355
39.48295264543308 18.2254
39.506792718520884 18.2083
39.530449745387216 18.2038
39.55410852735203 18.1627
39.57776906581474 18.2042
39.60161623079 18.1494
39.625280300200025 18.1563
39.64894613032202 18.0255
39.67261372255866 18.0594
39.6964680021016 18.0077
39.72013913657293 18.041
39.74381203738292 17.979
39.76748670593756 17.9801
39.79134812278169 17.9614
39.81502634488497 17.9581
39.83870633896685 17.8691
39.862388106436654 17.7839
39.88625668336918 17.7973
39.90994201572829 17.8126
39.933629125719285 17.7759
39.957503091207826 17.6919
39.9811937746168 17.7153
40.00488623990914 17.5927
40.02858048850006 17.6681
40.05246165409549 17.563
40.076159487492085 17.5182
40.099859108448875 17.5171
40.123560518384345 17.5247
40.1474489070226 17.4842
40.171153913178564 17.4367
40.194860712584955 17.3959
40.2185693066637 17.4155
40.242464941335314 17.3712
40.26617714307655 17.3317
40.289891143772046 17.2603
40.3136069448471 17.2536
40.33750984859743 17.3176
40.3612292688043 17.2061
40.3849504936829 17.178
40.40867352466194 17.2047
40.43258372059144 17.1694
40.45631038219906 17.1504
40.48003885420956 17.0834
40.503769138055105 17.1251
40.52768664931955 17.0843
40.55142057531802 17.0378
40.57515631746428 16.9878
40.599079334038514 16.9386
40.62281872700477 16.9078
40.64655994043941 16.8966
40.67030297578061 16.9023
40.69423334835778 16.9019
40.71798004609188 16.8313
40.74172857006355 16.7724
40.76547892171441 16.7649
40.7894166736039 16.7394
40.813170699248566 16.7065
40.83692655691388 16.6996
40.86068424804498 16.7269
40.884629402612525 16.6829
40.908390779366385 16.6639
40.932153993938 16.6346
40.95591904777605 16.554000000000002
40.979871628443995 16.5417
41.003640379561936 16.5531
41.02741097430883 16.5012
41.05118341413683 16.5027
41.075143444384416 16.4225
41.098919593177826 16.4804
41.1226975914255 16.3887
41.14647744058318 16.3453
41.170444943946755 16.372
41.19422851378379 16.3272
41.218013938914645 16.2534
41.24198706625173 16.2264
41.26577622087193 16.2057
41.289567235177785 16.2223
41.31336011063129 16.1434
41.337340752422875 16.0885
41.361137369129835 16.1172
41.38493585138705 16.0792
41.40873620066004 16.0581
41.43272438060107 16.0444
41.45652848292052 15.9737
41.48033445666918 15.9548
41.50414230331616 15.9422
41.528138045159764 15.9605
41.551949656675205 15.831
41.575763145513235 15.8467
41.59957851314666 15.7927
41.62358184070442 15.7516
41.64740098505737 15.7712
41.6712220126409 15.7624
41.69504492493139 15.7564
41.71905586207357 15.6949
41.74288256296395 15.6764
41.766711153007456 15.6316
41.79054163368412 15.6087
41.814560204340054 15.6455
41.838394485526365 15.62
41.86223066180303 15.5597
41.88625497706819 15.5707
41.910094962812 15.4893
41.93393684811168 15.4955
41.95778063445365 15.4166
41.981812625263366 15.4045
42.00566023303407 15.3407
42.029509746323676 15.3318
42.05336116662236 15.3426
42.077400857069705 15.3457
42.10125611078846 15.3165
42.12511327600405 15.3056
42.14897235421036 15.2858
42.173019768448455 15.2193
42.19688269209613 15.2304
42.22074753323349 15.192
42.24461429335818 15.1523
42.268669455600495 15.1082
42.292540073217886 15.0552
42.31641261433284 15.0633
42.34028708044675 15.0274
42.36435001496739 15.0527
42.38822835065557 15.04
42.41210861586426 14.9632
42.4359908120986 14.9124
42.46006154323262 14.9403
42.48394762115317 14.8983
42.507835634632315 14.9063
42.531912233047436 14.9118
42.55580413732265 14.7969
42.579697981698 14.8044
42.60359376768525 14.7332
42.62767820545945 14.7279
42.65157789440821 14.6904
42.67547952952185 14.6481
42.699383112316 14.6978
42.72347541395347 14.649000000000001
42.74738291190531 14.5899
42.771292362102166 14.6266
42.795203766063516 14.59
42.819303956130405 14.5742
42.843219287476536 14.477
42.86713657716324 14.5001
42.89105582671383 14.4806
42.91516392983864 14.4579
42.939087119032166 14.4606
42.963012272677304 14.4012
42.98693939230129 14.3609
43.01105543317513 14.3504
43.034986504731386 14.3603
43.05891954686589 14.2946
43.08285456110972 14.2959
43.10697856448665 14.2417
43.130917542983475 14.2383
43.15485849820081 14.2273
43.17880143167367 14.1528
43.20293342237094 14.0716
43.226880332449 14.0519
43.25082922540554 14.1056
43.27496722682525 14.1217
43.29892010567796 14.0345
43.32287497204102 14.0297
43.34683182745632 14.0078
43.370977859791836 13.9901
43.39493871351105 13.9652
43.41890156092628 13.9116
43.44286640358341 13.9037
43.46702049182749 13.874
43.49098934522816 13.8424
43.51496019852649 13.8493
43.5389330532723 13.8247
43.56309522248204 13.7613
43.58707210044314 13.7645
43.61105098451946 13.7175
43.63503187626491 13.7272
43.659202151562134 13.6575
43.68318707902681 13.6655
43.70717401884041 13.6533
43.731162972560874 13.6106
43.75534137913236 13.5721
43.779334381108384 13.5558
43.803329401683186 13.5712
43.82732644241872 13.5199
43.8515130055166 13.5391
43.87551410707659 13.5007
43.89951723350145 13.4649
43.923709934595614 13.4505
43.94771713129917 13.4065
43.97172635758096 13.3871
43.99573761501002 13.3972
44.0199385169922 13.3468
44.04395385732619 13.331
44.067971233533086 13.2677
44.09199064718605 13.2632
44.11619977548961 13.2317
44.14022328470671 13.1935
44.16424883610785 13.229000000000001
44.18827643127035 13.1393
44.21249381139513 13.1639
44.236525514814076 13.1488
44.26055926674478 13.1418
44.28459506876863 13.1239
44.3088207262813 13.0482
44.33286064928722 13.0398
44.35690262714919 13.011
44.38094666145278 12.9831
44.4051806219871 12.9881
44.42922879003185 12.9567
44.45327901929361 12.9375
44.477331311362136 12.9614
44.501573600619416 12.8932
44.525630039221795 12.8699
44.54968854541895 12.8295
44.573937102200176 12.8203
44.5979997645541 12.8006
44.622064499300315 12.7807
44.64613130803592 12.7574
44.67038823869318 12.75
44.69445921643748 12.6384
44.718532272981385 12.6404
44.742607409926194 12.652999999999999
44.76687274034801 12.6439
44.79095205918753 12.6282
44.81503346325094 12.5958
44.839116954143876 12.5666
44.86339071028742 12.5711
44.88747839599524 12.5279
44.91156817336837 12.4658
44.93566004401666 12.5104
44.959942251908146 12.4237
44.984038330325966 12.3895
45.00813650686762 12.3499
45.03223678314731 12.3857
45.05652746888232 12.3162
45.08063196592069 12.3787
45.104738567558705 12.3351
45.128847275414856 12.3414
45.15314646515866 12.2909
45.17725940679741 12.2493
45.20137445952892 12.2028
45.22568004865265 12.2517
45.24979934496396 12.1914
45.27392075725247 12.1804
45.29804428714431 12.1858
45.322358426247604 12.1548
45.346486212804315 12.1436
45.370616121861914 12.1157
45.39474815505086 12.0499
45.41907087049246 12.0379
45.4432071734666 12.0088
45.46734560548283 11.9902
45.49148616817604 11.9708
45.51581748638564 11.959000000000001
45.5399623320197 11.9583
45.56410931325473 11.9094
45.58825843173002 11.9207
45.61259837920865 11.8632
45.636751793816 11.8926
45.66090735060093 11.8476
45.68506505120716 11.842
45.7094136545275 11.7836
45.73357566449271 11.7413
45.75773982322992 11.7984
45.78190613238733 11.7223
45.806263418194064 11.6785
45.83043404997326 11.6716
45.85460683713677 11.6959
45.87897065658495 11.6577
45.90314777634752 11.6025
45.92732705646868 11.6502
45.9515084986045 11.6362
45.97588104735473 11.5494
46.00006683541565 11.5384
46.02425479047904 11.5156
46.04844491420549 11.5093
46.0728262191024 11.520999999999999
46.09702070211635 11.4708
46.12121735879483 11.4612
46.14541619080294 11.422
46.169806278764455 11.3822
46.194009483459034 11.3903
46.21821486849841 11.323
46.24242243555223 11.3177
46.266821333570014 11.3325
46.29103328674601 11.2735
46.31524742696538 11.3048
46.33946375590237 11.2726
46.36387149104216 11.2172
46.38809221957392 11.1956
46.41231514186606 11.1985
46.436540259597464 11.1942
46.460956858999374 11.1578
46.48518638983522 11.1463
46.509418121166966 11.1273
46.533652054678114 11.0729
46.55807754555709 11.0623
46.58231590571962 11.04
46.60655647313217 11.047
46.630988654873654 10.9825
46.655233659129024 10.9451
46.67948087571551 10.9725
46.70373030632484 10.9702
46.72817142736393 10.9527
46.752425308428684 10.9172
46.77668140861147 10.8691
46.80093972960865 10.8393
46.82538981736788 10.8285
46.849652602470904 10.8083
46.87391761349769 10.814
46.8981848521493 10.8046
46.9226439341274 10.7818
46.946915650573224 10.7182
46.97118959976749 10.7127
46.99546578341598 10.6767
47.019933887188216 10.6664
47.04421456235744 10.6899
47.06849747711879 10.6633
47.09278263318286 10.6076
47.11725978640143 10.5876
47.14154944775105 10.5858
47.165841355555656 10.5936
47.1901355115306 10.5477
47.214621741924994 10.5312
47.23892041698887 10.5229
47.26322134538975 10.4808
47.28771440635075 10.4379
47.31201986422527 10.477
47.33632758061436 10.4449
47.360637557241866 10.4339
47.38513974410611 10.397
47.40945426407847 10.3764
47.43377104948137 10.4063
47.45809010204344 10.3556
47.48260144275502 10.3273
47.506925052572285 10.3031
47.53125093475548 10.2838
47.55557909103813 10.2571
47.58009961361992 10.2288
47.60443234110732 10.1972
47.62876734791564 10.1783
47.65310463578333 10.1789
47.6776343683373 10.1934
47.7019762413987 10.1358
47.72632040075572 10.0993
47.75066684815169 10.106
47.77520581885936 10.0839
47.799556865477655 10.1123
47.823910205386 10.0864
47.84826584033272 10.0463
47.87281407745551 10.0175
47.89717432569297 10.0266
47.92153687423484 10.0223
47.94609208429692 9.98974
47.97045925671401 9.96619
47.99482873471275 9.9104
48.01920052005013 9.92613
48.04376504619224 9.882810000000001
48.068141469543484 9.8858
48.09252020552573 9.92176
48.11690125590099 9.87613
48.1414751266064 9.80754
48.16586082917454 9.81751
48.19024885144316 9.804210000000001
48.2146391951793 9.78037
48.239222439012764 9.75496
48.26361744916137 9.730089999999999
48.28801478610016 9.723360000000001
48.31241445160131 9.69696
48.337007097209366 9.709719999999999
48.36141144338331 9.67854
48.38581812345755 9.66458
48.41022713920929 9.670910000000001
48.434829215320704 9.626430000000001
48.45924292604658 9.58951
48.48365897780325 9.58337
48.50807737237308 9.56828
48.532688907799276 9.53112
48.55711201168574 9.50733
48.581537463754074 9.50427
48.60615611725119 9.52266
48.63058628942721 9.50844
48.65501881516546 9.490960000000001
48.6794536962573 9.44947
48.70408185970339 9.40731
48.72852147531801 9.42446
48.75296345168211 9.38102
48.77740779059232 9.38364
48.80204549302823 9.33654
48.82649458091802 9.326139999999999
48.85094603676547 9.30366
48.87539986237231 9.28795
48.90004713292306 9.28175
48.92450572200832 9.258519999999999
48.94896668628025 9.23264
48.97343002754588 9.244539999999999
48.99808689542115 9.2077
49.02255501470614 9.184510000000001
49.04702551642794 9.17187
49.0714984023988 9.14886
49.096164896893235 9.14514
49.120642575466796 9.11164
49.145122643748394 9.09175
49.16960510355558 9.06105
49.19428125404938 9.07805
49.2187685210852 9.041310000000001
49.243258185121555 9.02393
49.26794160167084 9.01297
49.2924360839405 8.97461
49.31693296869764 8.97489
49.34143225776915 8.98396
49.36612538195438 8.94063
49.39062950396021 8.9359
49.41513603578346 8.86583
49.4396449792564 8.885019999999999
49.46434784069503 8.91455
49.488861631846454 8.88823
49.513377840166804 8.83501
49.537896467493745 8.83083
49.56260909589029 8.79134
49.587132585683285 8.76919
49.611658500018365 8.83355
49.636186840738596 8.74997
49.66090926588511 8.708110000000001
49.685442483902584 8.72257
49.70997813385706 8.702589999999999
49.734516217597076 8.66412
49.75924846937352 8.69928
49.7837914452858 8.65094
49.80833686055187 8.65056
49.83288471702571 8.63692
49.85762682540054 8.59582
49.882179588965734 8.62111
49.9067347993235 8.56115
49.93129245833333 8.56264
49.95604445336378 8.54809
49.98060703442832 8.51113
50.005172069746266 8.4757
50.02993150438364 8.5114
50.05450147301533 8.51357
50.07907390151433 8.4707
50.10364879174981 8.44513
50.12841816587289 8.42184
50.1529980044635 8.43671
50.17758031042124 8.34661
50.20216508562089 8.41715
50.22694442953363 8.3761
50.25153416817468 8.30834
50.27612638170508 8.32081
50.300721072005196 8.27145
50.325510416102105 8.317689999999999
50.350110084975064 8.28928
50.37471223628208 8.26568
50.39931687190919 8.25919
50.424116246675766 8.26035
50.44872587605249 8.22522
50.47333799543065 8.19586
50.49795260670191 8.18437
50.52276204271512 8.17988
50.54738166295838 8.16814
50.57200378079314 8.13822
50.596628398116835 8.09258
50.62144792604559 8.09333
50.646077567609396 8.06066
50.670709714377715 8.104510000000001
50.69553683636198 8.05653
50.72017401885922 8.041210000000001
50.7448137122895 8.019789999999999
50.76945591856022 8.012739999999999
50.79429318636823 7.99821
50.818940443716784 8.008239999999999
50.84359021965163 7.982060000000001
50.868242516085964 7.97645
50.893089960641895 7.945060000000001
50.917747323549435 7.9304
50.94240721271973 7.89629
50.96706963007175 7.868539999999999
50.99192728239342 7.88017
51.01659478166073 7.872839999999999
51.04126481489051 7.859030000000001
51.06593738400761 7.85245
51.090805275207074 7.808
51.11548294172845 7.83708
51.14016314993547 7.81118
51.164845901758845 7.7911
51.18972406304274 7.762569999999999
51.21441192780656 7.702039999999999
51.23910234200271 7.68549
51.2637953075678 7.69497
51.288683770237945 7.67995
51.31338186432707 7.65326
51.33808251561888 7.64452
51.362978729967345 7.63518
51.387684521509755 7.6184199999999995
51.41239287610203 7.608689999999999
51.437103795691165 7.620439999999999
51.46201036644977 7.53428
51.486726441956634 7.555630000000001
51.51144508832545 7.524430000000001
51.536166307509156 7.53213
51.56108326624387 7.52698
51.58580965706056 7.5028
51.61053862657523 7.4772300000000005
51.635270176746864 7.46743
51.66019755512065 7.428380000000001
51.68493429268881 7.46708
51.70967361681515 7.450810000000001
51.73441552946465 7.40447
51.759353359237934 7.39755
51.7841004750961 7.38236
51.80885018539685 7.37678
51.833602492111254 7.356319999999999
51.8585508051424 7.33753
51.883308330926425 7.33591
51.90806845906181 7.3086199999999995
51.932831191525715 7.27327
51.95779001977161 7.24212
51.98255798721516 7.250360000000001
52.00732856494335 7.23968
52.03229530577543 7.25135
52.057071130455945 7.21183
52.081849571391054 7.15734
52.106630630568695 7.2065399999999995
52.13160794279417 7.1683699999999995
52.15639426492067 7.15625
52.18118321127822 7.13302
52.205974783860896 7.10274
52.23096269971011 7.10768
52.255759551287994 7.09373
52.280559035098186 7.111039999999999
52.30536115314103 7.06124
52.33035970494467 7.07787
52.35516711807904 7.066489999999999
52.37997717147198 7.033739999999999
52.40478986713005 7.015789999999999
52.42979908731974 6.97863
52.454617094216 6.9765
52.47943774942214 6.96668
52.50426105495102 6.94453
52.529280976059844 6.93823
52.554109609024096 6.9333800000000005
52.57894089837482 6.922460000000001
52.60377484613117 6.89801
52.62880550079408 6.875769999999999
52.65364479223379 6.83092
52.67848674816189 6.8295
52.70352547971946 6.83202
52.72837279155837 6.81652
52.753222773982785 6.812869999999999
52.778075429022984 6.822989999999999
52.80312495150885 6.7854600000000005
52.827982978797436 6.778169999999999
52.85284368481815 6.73745
52.87770707160767 6.67829
52.90276741793998 6.7185
52.92763619336701 6.690169999999999
52.952507655698504 6.69412
52.977381806977576 6.670889999999999
53.00245301017842 6.6870199999999995
53.02733256653592 6.663069999999999
53.052214817996074 6.667889999999999
53.077099766608484 6.60973
53.102181859804446 6.60692
53.127072229988265 6.595439999999999
53.15196530349892 6.60847
53.17686108239249 6.59393
53.20195409881522 6.58305
53.22685531582556 6.53134
53.25175924441303 6.51575
53.27666588664027 6.5301800000000005
53.30176985962693 6.48294
53.3266819565689 6.5128699999999995
53.35159677336455 6.45522
53.376514312083096 6.4718800000000005
53.40162927507703 6.45017
53.42655228516116 6.48114
53.45147802340193 6.459169999999999
53.47660125628886 6.43145
53.50153247842639 6.411569999999999
53.52646643496923 6.38428
53.55140312799818 6.33067
53.576537409691696 6.35574
53.60147960336152 6.337359999999999
53.626424539786164 6.3076300000000005
53.65137222105307 6.32776
53.67651758529126 6.3204
53.70147078399681 6.26219
53.72642673383343 6.25723
53.75138543689533 6.2525
53.776541917524526 6.25525
53.801506154876755 6.272390000000001
53.826473151763246 6.19651
53.851442910284916 6.14403
53.87661054126026 6.12897
53.9015858509782 6.12822
53.92656392866066 6.15056
53.95154477641532 6.13398
53.976723591801296 6.11378
54.00171000771266 6.1352400000000005
54.02669920004598 6.13748
54.051691170915745 6.13515
54.076881204886796 6.07504
54.101878760928514 6.01275
54.12687910187696 5.98134
54.152077577768296 6.05249
54.1770835166946 6.01248
54.20209224691339 6.007219999999999
54.22710377055121 6.00619
54.25231352511594 5.979509999999999
54.27733066384342 5.94739
54.30235060239643 5.93734
54.32737334290836 5.93508
54.35259441062629 5.9273
54.377622783395324 5.89456
54.40265396455061 5.9128
54.42768795623251 5.85348
54.45292037169559 5.8857
54.477960012857906 5.81717
54.50300247099511 5.7695300000000005
54.52804774825457 5.7426900000000005
54.55329154616743 5.74752
54.57834249018678 5.776590000000001
54.6033962597977 5.71114
54.6284528571545 5.7336
54.653708072335164 5.6926
54.67877035378786 5.69739
54.70383546947698 5.66124
54.72890342156389 5.61709
54.7541700889442 5.56787
54.77924374251975 5.5542
54.8043202390049 5.58496
54.82959552413022 5.55725
54.8546777351945 5.53884
54.87976279569621 5.478619999999999
54.90485070780914 5.50132
54.930137506558005 5.50117
54.95523115074295 5.4721400000000004
54.98032765308844 5.45058
55.005427015775496 5.41758
55.03072536339621 5.3870000000000005
55.05583047570572 5.3236099999999995
55.080938454927676 5.37807
55.10604930325027 5.3203
55.131359235107396 5.3613
55.15647585066083 5.30088
55.181595341907496 5.24598
55.20671771104285 5.2723
55.232039262617704 5.20257
55.25716741665048 5.17575
55.28229845518636 5.22098
55.30743238042802 5.1563
55.33276558731939 5.12239
55.357905315183636 5.12435
55.383047936390035 5.08672
55.40819345314859 5.092230000000001
55.433538351073295 5.03271
55.458689688238415 5.09506
55.483843927614096 5.03166
55.509197623043605 4.98581
55.53435769621134 4.97697
55.55952067826466 4.85334
55.5846865714265 4.938269999999999
55.61005202069737 4.9004
55.63522376553902 4.93119
55.66039842818645 4.87256
55.68557601087004 4.83781
55.7109532500271 4.7560199999999995
55.73613670233794 4.82581
