TT I
1.2716486653135266 7.25813
1.2939594142134223 7.14968
1.3162702121660406 7.14341
1.3385810600174564 6.631689999999999
1.3608919586137629 7.161519999999999
1.383202908801069 6.4518
1.405513911425503 6.381
1.4278249673332093 6.858619999999999
1.4501343378461518 5.94307
1.4724455028545926 5.92868
1.4947567236847858 6.40916
1.517068001182951 6.27851
1.5393793361953272 6.04695
1.5616907295681737 5.21115
1.5840021821477681 5.37775
1.60631369478041 5.14913
1.6286252683124185 5.2554
1.6509369035901333 4.98305
1.6732468618895553 5.36987
1.695558623192809 4.92152
1.7178704487808514 4.6066199999999995
1.7401823395001077 5.16141
1.7625012545597203 5.06423
1.7848028405262486 5.11019
1.8071218901122095 4.83945
1.8294236121921872 4.70746
1.8517427996910911 5.1626
1.8740620574440425 4.80656
1.8963639900671978 4.92874
1.9186833908139995 5.067080000000001
1.9409854680117449 4.903569999999999
1.9633050151394713 5.11353
1.9856246367570705 4.81079
2.0079269371922672 4.88684
2.03024671027244 4.51388
2.0525491637446027 4.4008
2.074869091674931 4.25741
2.097171701569106 4.91571
2.1194917877373847 4.94051
2.141811954326636 5.15128
2.164114805233074 5.21635
2.186435135143035 6.48761
2.208738150935709 15.6784
2.231058647554722 34.846
2.2533792288321184 27.5386
2.275682498336085 12.2238
2.298003251406138 6.7698100000000005
2.3203066942619714 5.9504
2.3426276225136022 5.55901
2.3649486396617507 5.75801
2.387252348930071 6.48549
2.4095735463442893 6.55339
2.4318774374315884 6.33173
2.4541988185014043 6.30396
2.476502894794693 6.672280000000001
2.498824462909887 7.21305
2.521146125856138 7.30808
2.5434504863470337 7.536919999999999
2.5657723414244717 7.578860000000001
2.588076895590662 7.9157
2.610398946189713 7.89312
2.6327210958598384 7.8678
2.6550259469304716 8.03951
2.6773482972090137 8.1724
2.6996533504259 7.888780000000001
2.7219759047039602 8.115210000000001
2.744298562293959 7.68439
2.7666039251246595 8.22493
2.7889267918020164 8.59948
2.8112323652516555 8.22819
2.833555444408179 8.586889999999999
2.8558786311183852 8.78299
2.8781845268938557 8.90007
2.9005079311721484 9.43647
2.9228140460410397 9.2648
2.9451376712799635 9.93005
2.967444008632326 10.1888
2.9897678582247247 10.2124
3.0120918213106695 10.8517
3.0343984987899373 10.5205
3.0567226913198637 11.0088
3.079029599759726 11.8978
3.101354025127254 12.2387
3.123678568232338 12.7011
3.145985829517914 12.8997
3.16831061055229 13.524000000000001
3.1906181112775593 14.4231
3.212943133635653 15.0237
3.2352682779763207 15.2725
3.2575761442691227 15.2912
3.2799015350264273 15.8107
3.302209649240067 16.2183
3.3245352898092655 17.0371
3.3468436553365257 17.5839
3.369169549113219 18.3182
3.3914955708171384 18.7587
3.413804319727358 19.0014
3.4361305997334863 19.2793
3.4584396084414553 20.1618
3.4807661501462652 20.4237
3.503092824025881 21.1732
3.5254022288463154 21.2106
3.5477291695206588 21.905
3.5700388426251948 22.590999999999998
3.5923660534916446 24.5825
3.6146934007816114 42.8919
3.637003482731501 107.44
3.6593311053109985 122.074
3.681641464033634 67.5718
3.7039693653009733 33.0921
3.726297407241705 26.9607
3.7486081875460804 26.1299
3.7709365132734978 26.3823
3.793247578841633 27.0896
3.8155761917550093 27.2161
3.8378875459837216 27.4112
3.8602164494827234 27.9865
3.882545499606844 28.5028
3.9048572932539183 29.5365
3.9271866390645718 29.2474
3.9494987298666713 30.0232
3.971828374764527 30.6824
3.9941581705403255 30.9903
4.016470713506008 31.730999999999998
4.038800813471445 32.6863
4.061113662089144 33.1351
4.0834440696459176 34.2858
4.105774632334751 34.4559
4.128087945865126 35.2151
4.150418821249301 35.6054
4.172732448931298 37.3276
4.195063640413578 39.6195
4.2173775856475215 44.6396
4.239709096631102 83.2743
4.262040768704612 291.565
4.284355196706267 405.347
4.306687193387355 257.07099999999997
4.329001947444346 93.3557
4.35133427213731 50.5031
4.373666762177566 45.4982
4.395982011761091 45.4707
4.418314834921175 46.6483
4.44063041906622 56.1318
4.4629635787515625 70.0429
4.4852969080429785 69.4457
4.5076130004776225 55.9869
4.529946671403969 50.7857
4.552263106909177 50.3482
4.574597122877047 51.3242
4.596931312711224 52.4285
4.619248269273446 52.9433
4.6415828092605835 54.2804
4.663900117405352 55.5602
4.686235010953232 56.8272
4.708552674085913 58.1105
4.730887924602802 59.8428
4.753223354952695 60.9535
4.775541557023902 62.1778
4.797877349456786 63.5825
4.820195915032126 65.4638
4.842532072957498 66.9542
4.864868414979744 69.1161
4.88718753227192 71.2709
4.909524244902505 73.0645
4.931843734218147 74.9894
4.954180820867835 77.4678
4.976518095879839 80.3755
4.998838149695359 83.2641
5.021175803844231 86.4759
5.043496238205739 89.8932
5.065834274903528 93.9413
5.088172504230693 98.7317
5.1104935158799565 104.67299999999999
5.132832132875765 129.55
5.155153533596801 182.457
5.1774925416746225 217.106
5.199814334878411 336.13699999999994
5.2221537374521505 929.303
5.244493338631803 2672.35
5.266815727034316 7165.91
5.289155727832427 12606.3
5.311478517248165 9095.91
5.333818921080011 3071.21
5.356159527788849 619.28
5.3784829252032536 196.672
5.400823940070432 148.145
5.423147747031976 130.382
5.445489173474152 120.137
5.467830807066149 113.999
5.490155234831516 110.12299999999999
5.512497285125229 106.429
5.534822130975162 104.556
5.557164601388673 102.186
5.579489868738879 99.6978
5.601832762690846 98.8063
5.6241758697774475 98.4583
5.646501775867269 97.2455
5.668845311622074 95.1825
5.691171647754637 94.0176
5.713515615597765 93.0672
5.735859800852677 92.0544
5.758186788542988 91.5171
5.780531411018185 91.4938
5.802858837297399 90.949
5.825203900414495 90.6929
5.8475491852224 91.0808
5.869877275883075 91.4792
5.892223006467101 92.7865
5.914551544266608 93.6657
5.936897724049891 95.9839
5.959244129804903 100.56299999999999
5.981573344815301 115.79700000000001
6.0039202049061 193.761
6.026249875609095 415.631
6.04859719346037 918.0360000000001
6.070927323278297 2049.96
6.093275102315365 4362.72
6.115623113320588 5265.37
6.137953938319995 3531.2
6.160302415650845 1119.89
6.182633708324452 260.388
6.2049826554078376 118.87100000000001
6.227331838745022 95.1717
6.249663839443684 86.8939
6.27201349767565 84.3846
6.294345974611799 92.7069
6.316696111167083 108.836
6.339046488263839 102.398
6.361379686074702 83.3685
6.383730546639482 73.1056
6.406064229255215 69.562
6.428415576718203 68.9471
6.450749747566656 67.4381
6.47310158535871 66.5528
6.495453669698332 66.0888
6.517788579421056 65.362
6.540141159237969 64.3945
6.562476565766648 63.8007
6.5848296444934045 63.2621
6.607182974060425 63.0018
6.6295191323281015 63.2319
6.651872965955752 67.5354
6.6742096296068985 101.116
6.6965639707294615 161.56
6.71891856698715 163.34
6.741255995248479 106.20299999999999
6.763611104154477 71.4332
6.785949046381137 61.6868
6.808304671371482 59.2641
6.8306605557940046 58.6218
6.852999275508618 58.0062
6.875355681171544 57.8387
6.897694923437771 57.2294
6.92005185377892 57.0688
6.9423916220322655 56.9539
6.964749080490181 56.5225
6.987106804399774 56.3602
7.009447368180821 56.5946
7.031805625367033 55.9741
7.054146723727803 55.7703
7.076505517631004 55.8807
7.098864581288365 55.9607
7.121206488070854 56.0441
7.143566093607822 55.6541
7.165908543567245 55.7877
7.188268694426048 56.1738
7.2106291193438095 56.3509
7.232972390625943 57.9696
7.255333366030969 73.5057
7.277677189091925 143.004
7.300038718428332 207.91299999999998
7.322400526130865 174.95
7.344745183422596 101.211
7.367107550224791 64.8195
7.389452767901992 57.4072
7.411815697249891 56.6447
7.434161478756298 55.0387
7.456524974096713 54.8965
7.478888753837185 55.0197
7.501235387657368 55.226000000000006
7.523599738562711 55.2328
7.545946944825532 55.6873
7.568311870344528 55.636
7.5906770845765665 56.066
7.613025156078678 57.7069
7.635390950099687 59.4269
7.657739602662809 58.2601
7.680105979923558 56.6503
7.702472650212829 56.57
7.724822180948224 56.56399999999999
7.747189439655568 56.9703
7.769539560075357 56.5507
7.791907410653562 57.0262
7.81425812420825 57.2059
7.836626570110925 57.4539
7.858995315087906 58.203
7.881346924933401 57.7328
7.903716270417482 58.531000000000006
7.926068482028405 58.615
7.948438431475253 59.6563
7.9708086843180235 60.2433
7.993161805171116 60.9574
8.015532667162402 61.1469
8.037886398416653 62.1333
8.060257873014221 62.4669
8.082629655331942 63.133
8.104984308787587 64.3713
8.127356708900503 68.1139
8.149711981398308 74.9481
8.172085002766314 78.28399999999999
8.194458336181368 73.8806
8.216814543847752 69.9975
8.23918850371002 69.6667
8.26154533906492 70.5774
8.283919928836452 71.6362
8.306277395339652 72.5226
8.328652618483376 73.9055
8.351028159736202 75.9857
8.373386579575245 77.7376
8.395762759396959 79.7378
8.418121819038275 85.7436
8.440498640894003 101.449
8.462875785192262 118.55799999999999
8.485235811156207 126.594
8.507613602688501 158.045
8.529974277114228 236.356
8.552352719347912 365.793
8.574731488360351 614.003
8.59709314210385 1115.18
8.619472567021075 1817.64
8.64183487789147 2208.95
8.664214962183097 1892.15
8.686577933647762 1029.25
8.708958680784317 407.56300000000005
8.731339760774953 178.805
8.753703729764451 114.999
8.77608547780821 100.45200000000001
8.798450116065078 96.428
8.820832535634787 93.27799999999999
8.843215292401656 91.5905
8.865580941199045 89.9159
8.887964374703538 89.0091
8.910330701447199 90.5072
8.932714815164482 93.8827
8.955099270424924 93.5762
8.977466620733543 89.3004
8.999851761421976 85.9183
9.022219798361645 83.9666
9.04460562795561 83.5382
9.066991803441677 82.9941
9.089360876979615 83.1176
9.111747746589993 82.5032
9.13411751544971 82.0178
9.156505082664324 81.7674
9.178875550323522 82.1454
9.20126381862328 82.8981
9.223652438908596 83.1278
9.246023961427412 83.2405
9.26841328802173 82.0169
9.290785518039224 81.809
9.313175554425882 82.626
9.335565947154315 82.4465
9.357939245086508 82.6396
9.380330352834827 82.8059
9.40270436697103 82.9428
9.425096193225055 83.0683
9.447488380180165 83.8848
9.469863475295412 84.1863
9.492256385987508 84.45299999999999
9.514632206018318 84.9904
9.537025843935714 85.5809
9.559402392368193 86.2692
9.581796761000229 87.5464
9.604191496441521 88.5248
9.626569144158516 92.5224
9.648964615551032 98.7461
9.671343000390081 100.613
9.693739211225699 97.9064
9.716135793237463 94.0643
9.738515290448102 93.3812
9.760912617143402 94.0202
9.783292860202891 95.2979
9.805690935076182 96.3677
9.828089385495742 97.1035
9.850470754023561 99.8023
9.872869957865444 108.971
9.89525208097539 128.024
9.917652041736662 143.946
9.940052382417589 141.046
9.962435644102392 140.539
9.984836746950979 168.96099999999998
10.007220771957746 228.679
10.029622640473708 326.21299999999997
10.052007432299963 494.431
10.074410069984072 769.533
10.096813093716005 1203.81
10.119199042482517 1706.95
10.141602840636468 1951.4
10.163989564971628 1663.33
10.186394141051062 979.799
10.208799107559706 439.86400000000003
10.231187001965623 204.34400000000002
10.253592751657669 130.842
10.275981430388155 115.126
10.298387966769793 115.706
10.320794897965431 119.03200000000001
10.343184759907361 117.884
10.36559248305461 110.788
10.387983138083852 105.12299999999999
10.410391656691655 106.291
10.432800574501677 115.32700000000001
10.455192425893369 130.82
10.47760214443012 154.925
10.499994797678786 195.545
10.522405320453982 268.789
10.54479877906917 383.635
10.567210109595656 500.70300000000003
10.5896218454736 578.942
10.612016518879773 521.852
10.634429067781074 367.685
10.656824555333241 217.88
10.679237920773568 135.751
10.701651695961992 99.4122
10.724048411481384 90.0888
10.746463008485165 87.2023
10.768860546937125 85.4848
10.791275969274796 83.6102
10.81369180576079 82.37700000000001
10.836090585366925 81.5307
10.858507252467449 80.2493
10.88090686379991 79.4007
10.903324365036394 78.8731
10.925724811614439 79.2027
10.948143150509463 80.9643
10.970561909719066 79.8737
10.992963615930844 77.6753
11.015383218085756 75.5897
11.037785768347074 73.5798
11.06020621697282 73.0735
11.082627090322113 72.4931
11.105030913430326 71.8824
11.12745263854165 72.9362
11.149857314510728 77.6338
11.172279894912576 85.8347
11.194702904450653 87.3077
11.217108866490921 81.9194
11.239532736615194 75.9189
11.26193956033512 73.3554
11.284364294577085 71.6429
11.306789462371718 69.0919
11.329197585398376 67.6095
11.351623622610898 67.2258
11.37403261614354 66.4135
11.396459526308487 66.1751
11.418869393879497 65.957
11.441297180532617 65.5305
11.463725406927658 65.1119
11.486136592353875 65.1482
11.508565700543707 66.029
11.530977768845315 68.202
11.553407762368774 69.7425
11.575838200059769 69.0012
11.598251599479612 66.2506
11.620682927815501 64.6549
11.64309721895548 64.0459
11.665529441478206 63.8031
11.687962112597958 63.1071
11.710377748130886 63.1789
11.732811318753434 63.1354
11.755227854859067 63.3298
11.777662328529495 63.1478
11.800079768750786 62.9105
11.822515149015453 62.6739
11.844950984084935 63.0147
11.867369787303163 62.6893
11.889806534289491 62.8088
11.912226250487029 62.7639
11.934663912939751 62.9179
11.9571020346363 62.9673
11.979523127133968 62.8668
12.001962169624331 63.4054
12.024384183972964 64.3293
12.046824150809913 67.1005
12.069264581333726 72.0908
12.091687985297767 78.2325
12.11412934550045 86.6556
12.136553680195208 100.829
12.158995973632788 121.40899999999999
12.181438735204349 147.989
12.20386447284199 177.59900000000002
12.226308172985636 204.146
12.24873485024193 202.495
12.271179492516982 171.91
12.293607112949127 135.072
12.316052700916226 102.665
12.338498763250042 82.5806
12.360927805303868 72.4332
12.383374818673879 67.6561
12.405804812803074 65.0127
12.428252780773262 64.9127
12.45070122756722 64.3926
12.473132656675375 64.5554
12.49558206341869 64.835
12.518014453510101 64.7653
12.540464823770117 64.7222
12.562915677315177 65.1614
12.58534951575545 65.8676
12.607801338171472 68.3369
12.630236146511358 75.4032
12.652688941369085 81.6156
12.675124723177234 81.9055
12.697578494048786 76.712
12.720032754458185 71.3309
12.742470003354093 68.7643
12.764925245138771 68.1448
12.787363476431278 68.3789
12.809819703166806 68.7018
12.83227642391173 69.3325
12.854716135692716 69.8229
12.877173846755147 70.9291
12.899614549869717 70.8974
12.9220732548287 71.8215
12.94453245827299 72.23100000000001
12.966974655289818 73.1774
12.989434858002571 74.2749
13.011878055298721 74.5947
13.034339260862497 75.3935
13.056800969391883 76.9776
13.079245674017244 78.8399
13.101708390774869 80.499
13.12415410463411 86.8539
13.146617833206086 97.5736
13.169064559883248 109.476
13.191529303857127 123.55
13.213994557076367 144.11700000000002
13.236442809902437 177.732
13.258909083908291 229.012
13.28135835851934 291.32
13.30382565690295 359.649
13.326293469022952 419.673
13.348744283242008 430.265
13.371213125129904 372.415
13.39366497011003 277.557
13.416134845360597 185.04
13.438605238843131 128.102
13.46105863690397 107.184
13.483530069144786 104.749
13.505984506951902 109.331
13.528456981549432 118.34200000000001
13.550929978879088 132.076
13.573385983253365 154.72899999999998
13.595860028340867 190.49099999999999
13.618317081455832 240.33900000000003
13.64079217790333 293.85400000000004
13.663250283359057 344.649
13.685726434770173 375.471
13.708203115221277 343.788
13.730662806148091 275.607
13.75314054697177 195.76
13.775601299246777 135.68200000000002
13.798080104050406 101.204
13.820559442405358 86.7089
13.843021793671388 81.8913
13.865502201420897 80.5758
13.887965623051947 79.8723
13.910447103807167 78.7142
13.932929122629764 77.4857
13.955394156785959 76.8221
13.977877254034569 76.1475
14.000343367582113 75.1309
14.022827546871707 74.5318
14.045294743423524 73.7525
14.06778000837062 73.1975
14.090265817715476 72.9962
14.112734645763819 72.6854
14.13522154619454 72.9305
14.157691466286913 73.0751
14.180179461423874 72.5665
14.202668005486178 71.8893
14.22513957064374 71.1706
14.247629214846473 70.4716
14.270101881097517 70.4397
14.29259262906496 71.0128
14.315083930490205 71.935
14.337558255389705 72.2701
14.360050666019726 71.8963
14.382526101071944 70.673
14.405019624534942 69.8207
14.427513705993134 68.92
14.449990813291825 68.8525
14.47248601302899 68.6338
14.49496423954951 68.8517
14.517460561197822 68.9026
14.539939910570322 68.7934
14.562437357763558 69.4134
14.58493536931253 70.7364
14.607416409993311 71.8011
14.62991555254159 72.7377
14.652397725157423 72.4643
14.674898002342799 71.4094
14.697398848433282 70.8066
14.719882725991326 71.1011
14.74238471217934 71.7147
14.764869730765593 74.5596
14.787372860692983 77.6619
14.809876564079925 81.941
14.83236330125751 87.4123
14.854868153850365 95.3323
14.877356041159485 108.036
14.899862046604186 125.616
14.922351087688757 149.893
14.944858249632887 176.343
14.967365991421232 202.75
14.989856770231246 218.86599999999999
15.012365673994204 217.62400000000002
15.03485761569738 191.738
15.05736768508665 152.45600000000002
15.07987833888692 118.765
15.102372032001655 93.0102
15.124883856909658 78.0064
15.14737872204565 72.9118
15.169891721717274 70.9656
15.192405310371893 70.8506
15.214901940621196 71.5173
15.237416709527137 72.0673
15.259914520936249 72.1322
15.282430473753607 71.0861
15.304947020131227 69.7347
15.327446610371178 68.6777
15.349964346154254 67.7981
15.372465126703139 67.0201
15.394984055556009 66.8336
15.417486030076159 66.8091
15.44000615566487 66.2084
15.462526881230803 66.015
15.485030653812652 66.5391
15.507552581617434 66.8224
15.530057557334603 66.7359
15.55258069104857 66.5527
15.575104429329837 66.6213
15.597611216864632 66.065
15.620136166564563 65.9397
15.6426441664095 66.6296
15.665170331202765 68.5083
15.687697105158826 71.3551
15.710206930593545 74.6712
15.732734925158933 78.52199999999999
15.755245972089478 84.3516
15.77777519094324 92.8783
15.800287463046663 104.95200000000001
15.822817909869592 122.67299999999999
15.84534897229804 142.311
15.867863089299354 165.028
15.890395385222186 183.555
15.912910736597423 192.865
15.935444269699861 184.763
15.957978423016485 160.542
15.980495633101265 130.175
16.003031029129367 101.43
16.02554948280019 79.7751
16.048086125229432 69.5883
16.070623392487107 66.5939
16.09314371869582 65.5604
16.11568223789321 64.5069
16.13820381691126 63.4729
16.160743591742527 62.2671
16.183283996022084 61.1674
16.205807461423195 59.8359
16.228349126881973 59.2308
16.25087385432698 59.2086
16.27341678466365 58.6951
16.29594277784926 58.8984
16.31848697676433 59.3649
16.341031811604868 59.9166
16.36355971058487 60.2368
16.3861058195587 59.6746
16.40863499352978 58.3273
16.431182380342005 57.4637
16.453730407713202 56.6452
16.476261501364792 56.1713
16.498810812136167 55.7987
16.52134319004079 55.7595
16.54389378792203 55.7808
16.566445031001553 55.5116
16.588979342490088 55.4464
16.61153187824822 55.2613
16.634067483263312 55.0239
16.656621315414416 54.9002
16.679175797408888 54.8408
16.701713349928728 55.0803
16.72426913389191 55.2221
16.74680798922351 55.2721
16.76936507887444 55.3101
16.791905240734874 55.4322
16.814463639794468 54.995
16.837022695210294 55.0976
16.859564824093756 55.5863
16.882125194503903 56.6143
16.904668639217885 57.5219
16.927230328348003 57.5741
16.949792678493612 57.6776
16.972338104193863 56.8344
16.994901778652235 56.0467
17.017448529496576 55.724
17.040013531998152 55.9404
17.06257920018044 56.324
17.0851279459922 56.9675
17.107694947817667 57.8081
17.130245028099072 58.6064
17.15281336730298 59.9466
17.17536478578733 61.4305
17.19793446610687 63.5441
17.220504818648422 66.4593
17.243058251703697 69.3519
17.265629950971032 73.6307
17.288184731571736 78.3268
17.310757781306908 82.5721
17.33333150794385 83.9927
17.355888317140174 83.2015
17.37846339986244 78.9015
17.401021565958885 72.6964
17.42359800851343 66.6782
17.44617513265564 62.8838
17.468735341390783 60.5153
17.491261035594565 59.3962
17.51396340099364 59.0063
17.536490463869136 59.2173
17.559018209820174 59.215
17.58154663977963 59.4378
17.604251766089718 59.7107
17.626781572227713 59.881
17.64931206518155 60.1556
17.671843245885103 60.6954
17.69455114821572 60.8978
17.717083712612634 61.2568
17.739616967569667 61.2674
17.762150914021706 61.2829
17.78486160749854 61.3868
17.807396945166804 61.8077
17.829932977143503 62.7924
17.85246970436452 63.786
17.875183204129467 65.6114
17.897721330097664 67.7866
17.920260154126645 70.0719
17.942799677153296 72.9108
17.9655159983646 76.4498
17.988056927677544 81.1279
18.010598558807683 88.2631
18.033140892692916 97.5926
18.05586005052525 107.84700000000001
18.07840379824407 119.28299999999999
18.10094825154059 130.95600000000002
18.12366954819864 138.47899999999998
18.146215420998306 141.168
18.16876200220057 132.328
18.191309292745153 120.40899999999999
18.214033452627167 105.866
18.236582170236648 93.7626
18.259131600016456 87.0561
18.281681742907335 86.3138
18.304408781233683 89.8722
18.32696035875955 94.3405
18.349512652227624 99.2128
18.372065662579683 103.946
18.394795594587553 105.976
18.41735004715306 103.786
18.43990521943684 98.5836
18.46246111238171 89.861
18.485193953325208 79.5879
18.507751296070428 71.6782
18.530309362314178 66.8911
18.552868153000343 64.1754
18.57560391815056 62.6261
18.59816416623245 62.1078
18.620725141597372 61.5452
18.643286845190268 61.0059
18.666025549835414 60.6482
18.688588718427933 59.9201
18.711152618092243 59.8917
18.73389353884365 59.6253
18.75645890921984 59.2889
18.77902501351406 58.9514
18.801591852673102 58.8563
18.824335739722738 58.2759
18.846904057212626 58.2786
18.8694731124168 58.0015
18.89204290628315 57.82
18.914789774966803 57.8628
18.937361054791623 57.4978
18.959933076131318 57.218999999999994
18.982505839934877 57.0489
19.00525570560582 57.4683
19.027829963004184 57.2111
19.05040496572238 57.3832
19.072980714710468 57.0375
19.095733592739563 57.0819
19.11831084296757 57.4382
19.140888842324735 58.2432
19.16346759176222 58.3303
19.18622349753803 58.7615
19.208803755869358 59.5697
19.231384767143577 60.5804
19.253966532312948 61.9161
19.276725481241822 63.6697
19.29930876296784 66.1965
19.3218928014549 69.3533
19.34465404436217 72.5332
19.36723960516257 75.6322
19.389825925592426 76.6567
19.412413006605938 76.2794
19.43517731967805 73.2031
19.457765930683355 68.5817
19.48035530514408 64.1756
19.50294544401556 60.0764
19.525712842708348 57.4442
19.54830451925909 55.7165
19.570896963095727 54.4843
19.593490175174704 53.9846
19.616260674962184 53.9403
19.638855432416964 53.5065
19.661450960992624 53.7554
19.68404726164677 53.6427
19.706820878021247 53.456
19.729418731756834 53.8561
19.752017360452857 53.3522
19.77461676506804 53.7694
19.797393513540218 53.8238
19.819994478951667 53.9788
19.84259622316767 54.5536
19.8651987471481 55.1309
19.887978643247177 55.0885
19.91058273574792 55.6559
19.933187610901943 56.1702
19.955969879466828 57.3343
19.97857632894404 58.7641
20.00118356396599 59.9753
20.023791585494575 62.0548
20.046577028914875 64.4918
20.069186632506966 66.9394
20.091797025500632 68.84100000000001
20.114408208858933 69.7119
20.137196842715273 69.6404
20.159809615886765 68.5246
20.18242318232135 65.9743
20.20503754298326 63.801
20.227829382875154 62.4616
20.250445341109344 62.2365
20.27306209647285 62.5415
20.29567964993108 63.5918
20.31847471147704 64.9369
20.34109387027612 65.9541
20.363713830075454 65.6563
20.386334591841646 64.9135
20.409132890679302 62.29
20.431755265564437 59.1994
20.454378445325528 56.4051
20.477002430930366 54.3635
20.499803982716553 52.9128
20.522429589228004 52.0604
20.54505600449589 51.5506
20.567683229489194 51.2548
20.590488049900088 50.9859
20.61311690359731 50.5423
20.63574656993626 50.2669
20.658553853717297 49.915
20.681185154618298 49.7931
20.703817271080066 49.5931
20.72645020407368 49.3825
20.749260783967177 49.162
20.771895359337133 49.2755
20.794530754161617 49.3715
20.817166969412938 48.9988
20.83998086114876 48.9853
20.86261872660049 48.9867
20.885257415405402 48.9398
20.90789692853701 48.7707
20.930714147864748 48.6736
20.953355319030678 48.7243
20.97599731745334 48.8733
20.99864014410749 48.6857
21.021460706796564 48.6091
21.044105199328826 49.0576
21.06675052302631 49.0509
21.089396678865015 49.3151
21.112220600704806 49.5617
21.134868430275347 49.8015
21.15751709492456 50.2179
21.180166595629693 50.3921
21.202993892429635 50.7813
21.22564507473034 51.3004
21.24829709602816 51.4579
21.27112693608965 51.4638
21.293780644891275 51.5851
21.316435195634053 50.8533
21.339090589297417 50.2313
21.361923832041875 49.9384
21.384580921090404 49.2267
21.407238856007325 48.6167
21.429897637773326 48.7491
21.45273429906592 48.7685
21.475394784108598 48.4681
21.498056118951983 48.4799
21.520718304578022 48.586999999999996
21.543558400304388 48.7632
21.566222297108816 48.8818
21.58888704765135 48.9172
21.61155265291521 49.1816
21.63439619898156 49.705
21.657063523335786 50.0136
21.67973170537063 50.4195
21.7024007460706 50.8873
21.72524775840385 51.6566
21.747918526116475 52.4781
21.770590155457388 53.6605
21.79326264741238 54.9221
21.816113141960237 56.8637
21.838787368860547 58.4963
21.861462461341976 60.2326
21.884315579735777 62.3031
21.90699241312273 63.8374
21.92967011506078 64.7651
21.95234868653799 64.5562
21.9752053151131 63.9311
21.997885635446785 62.0754
22.020566828293532 60.1335
22.04324889464272 58.3132
22.066109049404666 56.8835
22.088792872571794 56.2673
22.111477572219204 56.2488
22.1341631493376 56.2301
22.157026846313123 56.3195
22.179714188221507 55.7195
22.202402410582668 54.6459
22.22509151438863 53.2859
22.24795876962584 51.9267
22.270649646204486 51.0783
22.293341407213727 50.2954
22.316034053646906 49.6782
22.338904883215342 49.2363
22.36159931041458 49.2227
22.38429462602756 49.3028
22.40699083104897 49.1405
22.429865251039757 49.2449
22.452563244831367 49.1117
22.47526213102522 49.2016
22.49813925616515 49.0417
22.520839937143307 48.8215
22.543541513520587 48.6609
22.56624398629403 48.6487
22.589124730075895 48.4739
22.611829005656723 48.7866
22.63453418063466 48.6601
22.657240256008077 48.9942
22.680124634582935 49.1288
22.70283252079775 49.2934
22.725541310413075 49.6524
22.74825100442868 49.8348
22.771139033969575 50.3562
22.79385054687155 50.4802
22.81656296718292 51.0002
22.83927629590484 51.7059
22.862167992606945 52.7697
22.88488314827121 53.833999999999996
22.907599215359284 54.9974
22.93031619487366 56.0245
22.953211574954405 56.8977
22.975930389478226 57.5904
22.998650119445763 58.2236
23.02137076586092 57.6114
23.044269845560063 56.4236
23.06699233506288 55.1066
23.089715744034912 53.333
23.112617610931565 51.7504
23.135342869061212 50.4863
23.158069049684816 49.4379
23.1807961538087 48.958999999999996
23.20370174880544 49.0508
23.226430710184808 48.9229
23.249160598093425 48.9365
23.271891413539002 48.7856
23.294800752937697 48.9536
23.31753343374794 49.156000000000006
23.340267045128353 49.184
23.36300158808808 49.5217
23.38591468821339 49.8712
23.408651104658304 50.1339
23.431388455719986 50.6948
23.454126742409 51.4517
23.4770436196085 52.321999999999996
23.499783787914662 53.5607
23.522524894889884 54.6485
23.54526694154616 55.6133
23.56818761219047 56.7834
23.59093154860734 57.6083
23.613676427751283 58.0881
23.636422250635754 57.6131
23.659346731118656 56.1615
23.68209445191868 54.3564
23.704843119509587 52.1934
23.72759273490623 50.1531
23.750521041644767 48.669
23.77327256312355 47.5311
23.796025035462787 46.9728
23.818956224555475 46.3569
23.841710609113413 46.166000000000004
23.86446594758979 46.0746
23.887222241002014 45.7348
23.910157285144578 45.3911
23.932915498962537 45.4859
23.955674670778713 45.2669
23.978434801611975 45.0196
24.001373717286125 44.9181
24.024135776723917 44.7325
24.046898798245582 44.6857
24.06966278287146 44.5718
24.092605586582614 44.4484
24.115371508023642 44.485
24.1381383956401 44.2642
24.16090625045381 44.1874
24.183852958731244 44.0368
24.206622758582608 44.0766
24.229393528706886 43.8796
24.252165270127392 43.8294
24.27511589952438 43.8626
24.297889594216997 43.5582
24.32066426328598 43.4114
24.34343990775613 43.5153
24.36639447485003 43.3929
24.38917208083877 43.1142
24.41195066531332 43.2326
24.43490819850244 43.2045
24.457688750692377 43.1847
24.48047028445616 43.041000000000004
24.503252800821233 43.3232
24.526214300784112 43.3146
24.548998793132213 43.1998
24.57178427117417 43.0703
24.59457073593893 43.0176
24.617536219319863 43.1386
24.64032466834748 43.1289
24.663114107195035 42.8966
24.685904536893013 42.7206
24.708874020360852 42.7503
24.731666442613744 42.6677
24.754459858818787 42.56
24.777254270007962 42.4918
24.80022777025625 42.4493
24.82302418230472 42.4377
24.845821592443674 42.3956
24.86862000170663 42.2355
24.891597535453727 42.1429
24.914397953892728 42.5101
24.93719937456671 42.25899999999999
24.96000179851076 42.3758
24.98298338249997 42.5707
25.00578782394922 42.9351
25.028593271784167 42.9112
25.05157790644186 43.2143
25.07438537804115 43.2072
25.097193859145293 43.5891
25.120003350792075 43.735
25.142992065061257 44.1222
25.165803588823465 44.3816
25.18861612625217 44.6248
25.211429678386736 44.7276
25.234422489079968 44.9246
25.257238081693636 44.8649
25.280054692141732 45.0526
25.3028723214652 44.9913
25.325869245420463 45.0463
25.348688923599397 45.1067
25.371509623787006 45.101000000000006
25.394331347025812 44.8614
25.41733240110666 44.5572
25.440156181590016 43.8004
25.46298098826268 43.3591
25.48580682216873 42.8
25.50881202326435 42.1303
25.53163992281684 41.6494
25.55446885274561 41.4647
25.577298814096377 41.1272
25.600308179121807 40.9492
25.623140214533745 40.9483
25.64597328451537 40.9492
25.66898578564376 40.5605
25.691820936010206 40.7153
25.714657124097695 40.7497
25.737494350954734 40.7162
25.760511045684957 40.6756
25.783350361364224 40.6364
25.806190718969255 40.6134
25.82903211955018 40.6781
25.852053024868923 40.8275
25.874896522722523 40.7778
25.897741066713106 40.6876
25.920586657892454 40.8261
25.943611790812668 40.9418
25.966459487728237 41.0606
25.989308234998564 41.1265
26.01215803367705 41.4779
26.03518741123814 41.6453
26.05803932412957 41.7602
26.080892291600094 41.6324
26.10374631470478 41.7109
26.12677995397268 41.8191
26.14963609978026 41.8532
26.172493304397875 41.4952
26.19535156888223 41.3099
26.218389486949604 41.0593
26.241249882640123 40.783
26.26411134137826 40.4696
26.28715248187403 40.5348
26.31001607820869 40.3076
26.3328807407756 40.1279
26.35574647063438 40.2239
26.37879191991473 40.1215
26.401659795896734 40.2087
26.424528742360263 40.2859
26.447398760366614 40.4514
26.470448535598294 40.6906
26.49332070826805 40.76
26.516193955675355 41.0779
26.53906827888316 41.3424
26.562122397260108 41.4694
26.584998883685063 41.8257
26.607876449110325 42.1689
26.63075509460056 42.1833
26.65381357334404 42.1819
26.67669439061878 42.2812
26.699576291163382 42.1659
26.722459276044212 42.0919
26.745522132402975 41.8616
26.768407297649354 41.5956
26.791293550442003 41.2697
26.814180891848974 41.0353
26.837248143099337 40.7061
26.860137673466657 40.652
26.88302829566349 40.4049
26.90592001075963 40.2257
26.92899167420566 40.0369
26.951885586870763 39.6796
26.974780595655517 39.4218
26.99785558178161 39.3792
27.020752794605112 39.2007
27.043651106772522 39.014
27.06655051935668 38.9733
27.089629948036183 38.8485
27.112531573292053 38.7613
27.135434302194138 38.835
27.158338135817015 38.7171
27.181422024430987 38.9023
27.204328079372566 38.6329
27.22723524226965 38.5903
27.250143514198573 38.6871
27.273231880156334 38.6655
27.296142382065014 38.4988
27.319053996245536 38.5141
27.341966723775965 38.6444
27.365059584515222 38.659
27.38797455070062 38.605
27.410890633481237 38.4828
27.433807833936918 38.3461
27.456905206923906 38.5571
27.47982465472398 38.5834
27.502745223449743 38.6179
27.525666914182825 38.8067
27.548768816912457 38.6594
27.571692763693633 38.5601
27.59461783573812 38.607
27.617723149491244 38.5243
27.640650484125285 38.3642
27.66357894728264 38.2066
27.686508540048052 38.1302
27.709618414237887 38.1999
27.732550278321757 38.056999999999995
27.755483275279115 37.8892
27.778417406196485 38.0069
27.801531858397514 37.9615
27.824468269376716 37.9386
27.847405817586786 37.9548
27.870344504116094 38.0359
27.893463551932008 38.281
27.916404527281053 38.3958
27.93934664422563 38.4245
27.962289903855886 38.403
27.98541356491974 38.6598
28.00835912214229 38.7017
28.03130582533231 39.0399
28.054253675581805 39.2366
28.077381967556104 39.2385
28.100332124185126 39.181999999999995
28.123283431160893 39.1923
28.146235889577238 38.9743
28.169368830154156 38.865
28.192323603752033 38.6748
28.215279532083304 38.3341
28.238415973016764 38.0954
28.261374223145094 38.1384
28.284333631303806 37.9232
28.307294198589954 37.6394
28.330435319167677 37.4779
28.353398217078915 37.1467
28.376362277420153 36.8754
28.39932750129032 36.7511
28.422473319286713 36.668
28.44544088262495 36.6435
28.468409612800283 36.4935
28.491379510913497 36.135999999999996
28.51453004413313 36.1177
28.53750229057244 36.0964
28.56047570826344 35.9432
28.583450298308804 36.016999999999996
28.606605564586562 35.8131
28.629582511831156 36.0223
28.65256063474956 35.8091
28.675539934446338 35.7326
28.698699951647605 35.789
28.72168161743193 35.686
28.74466446331978 35.5773
28.767648490417624 35.5798
28.790813276438353 35.4308
28.813799678527303 35.5417
28.836787265157085 35.6308
28.859955641890075 35.7455
28.882945610203045 35.6038
28.905936766392035 35.443000000000005
28.928929111566863 35.5297
28.952102288520145 35.4107
28.975097024308607 35.2493
28.998092952423807 35.0928
29.021090073977508 35.1226
29.04426806913204 35.0852
29.067267590245258 34.9519
29.090268308143695 34.7327
29.11327022394099 34.7151
29.13645305530891 34.6383
29.159457379627167 34.6449
29.18246290519685 34.5802
29.20546963313352 34.4672
29.22865731875826 34.5497
29.25166646419296 34.4747
29.27467681535305 34.2667
29.29768837335608 34.4579
29.320880931312562 34.3911
29.34389491580634 34.298
29.366910110507334 34.2896
29.38992651653503 34.4648
29.41312396492981 34.348
29.436142806456754 34.3288
29.45916286268059 34.1667
29.48236399319994 34.0845
29.50538649169417 33.9954
29.528410208259935 33.9524
29.55143514402014 33.5626
29.574641196749695 33.6327
29.597668583816574 33.4347
29.6206971934585 33.287
29.64372702680042 33.3825
29.666938019934474 33.1978
29.689970313635285 33.1376
29.713003834422636 33.1901
29.73603858342347 33.1663
29.759254535188578 33.0172
29.78229175361658 32.91
29.80533020365064 33.1084
29.82836988641968 33.0722
29.85159081507472 32.9487
29.874632976355343 32.8229
29.89767637376955 32.8503
29.920721008448314 32.7489
29.9439469322847 32.7555
29.96699405457564 32.7056
29.9900424175358 32.7654
30.013092022298157 32.69
30.03632295963995 32.5499
30.059375061131373 32.6178
30.08242840783577 32.7326
30.105483000888153 32.7595
30.128718970092244 32.5808
30.151776069006917 32.5195
30.17483441768648 32.5268
30.198074175317235 32.5954
30.221135036724256 32.5303
30.24419715131772 32.4502
30.267260520236203 32.3372
30.290505341942243 32.4405
30.313571232750228 32.5211
30.336638381310948 32.5534
30.35970678876503 32.3793
30.38295669299435 32.3037
30.40602763151657 32.3489
30.429099832366074 32.3558
30.452173296685572 32.2033
30.47542830191959 32.1261
30.498504306502497 32.2721
30.521581577995562 32.2819
30.544660117543582 32.2888
30.56792024229725 32.3096
30.59100133132069 32.2263
30.614083691845494 32.1646
30.637167325018545 32.3401
30.660432587840603 32.3263
30.683518779717886 32.1914
30.70660624769615 32.3191
30.729694992924372 32.3841
30.75296541239743 32.4514
30.77605672557558 32.4381
30.799149319462742 32.2995
30.8224236211637 32.093
30.845518789950724 32.0887
30.868615242910597 32.0731
30.891712981195973 31.805
30.91499247215866 31.6887
30.938092794619365 31.737
30.96119440587579 31.5819
30.984297307082752 31.573
31.00758200598383 31.3788
31.030687500658694 31.3831
31.053794288760695 31.2882
31.076902371446767 31.273000000000003
31.100192296997445 31.3555
31.12330298246119 31.2489
31.14641496599209 31.1016
31.169528248749216 31.1908
31.19282341969534 31.0942
31.215939314557186 31.0537
31.239056512134788 31.0598
31.262175013589378 31.0961
31.28547544871168 31.1126
31.30859657161541 30.8636
31.331719001892175 30.9968
31.35484274070538 31.0892
31.378148458819545 31.1592
31.401274828443725 30.9995
31.424402510106933 30.9738
31.447712205419993 31.1153
31.470842524931633 31.0286
31.493974159989783 30.9582
31.51710711176168 30.8998
31.54042212308802 30.9226
31.563557722100917 30.8091
31.586694641341655 30.7712
31.609832881979628 30.7176
31.63315322823208 30.6491
31.656294125521327 30.4938
31.679436347728515 30.4356
31.70257989602529 30.3982
31.725905596152327 30.256
31.74905181052835 30.168000000000003
31.772199354521323 30.3499
31.79534822930507 30.2788
31.818679302290967 30.3474
31.84183085259981 30.3029
31.864983737233473 30.2453
31.88813795736804 30.3167
31.911474422233013 30.08
31.934631327356435 30.1829
31.9577895715215 30.1228
31.980949155906522 30.1292
32.004291031706956 30.1825
32.027453310562606 30.1068
32.05061693318573 29.9217
32.07396288236386 29.8748
32.09712920658542 29.8113
32.12029687812702 29.6352
32.14346589817093 29.6511
32.166817291729984 29.6296
32.18998902288583 29.5971
32.21316210610336 29.5214
32.23633654256711 29.3893
32.259693399663725 29.4142
32.282870556771144 29.3545
32.30604907069099 29.2294
32.329228942610065 29.2913
32.35259128243769 29.0912
32.375773884550505 29.0543
32.398957848235646 29.0491
32.422143174682176 29.0249
32.445511016471215 28.8528
32.468699082679954 28.8336
32.49188851523011 28.8284
32.51507931531304 28.7613
32.538452678331 28.7958
32.56164622776311 28.6077
32.58484114831493 28.6243
32.60803744118015 28.6711
32.631416344731896 28.6244
32.654615396551876 28.6057
32.67781582427913 28.6062
32.701198898634416 28.509
32.72440209253756 28.396
32.747606665947124 28.3898
32.77081262006088 28.2913
32.79420126883317 28.2752
32.81740999876112 28.3697
32.840620112999424 28.1647
32.86383161274818 28.1457
32.88722585534586 28.1088
32.91044014056596 28.086
32.933655814909734 28.0712
32.95687287957963 28.1054
32.98027273544904 28.0545
33.00349259526636 28.0063
33.026713849030116 28.0406
33.04993649794511 28.0192
33.073341986570746 27.9317
33.09656744032826 27.8667
33.11979429286444 27.8553
33.14302254538647 27.8352
33.166433686291185 27.8232
33.18966475336992 27.7528
33.212897224069096 27.6842
33.23613109959831 27.7294
33.259547912343415 27.7453
33.2827846121627 27.6776
33.306022720453775 27.6744
33.32926223842861 27.5591
33.352684742614166 27.5377
33.37592709463173 27.4686
33.399170859982064 27.3386
33.422597648419426 27.3736
33.44584425514446 27.3094
33.46909227885668 27.2822
33.4923417207723 27.0943
33.51577423505344 27.2701
33.539026528130385 27.0555
33.56228024307245 26.9964
33.585535381098246 26.9106
33.60897364093058 26.8092
33.63223163992385 26.8962
33.6554910656699 26.8217
33.678751919389796 26.8543
33.702195944520106 26.6559
33.72545966903325 26.734
33.74872482519663 26.7095
33.771991414233746 26.6918
33.79544122444841 26.6704
33.81871069412428 26.4946
33.84198160035767 26.46
33.86525394437455 26.5851
33.88870955949969 26.5314
33.911984794020626 26.410999999999998
33.93526147001624 26.3838
33.958539588715006 26.377
33.98200102861669 26.2438
34.0052820477047 26.2243
34.02856451319451 26.1846
34.05203033759056 26.0303
34.07531571090147 26.0845
34.09860253431845 26.0501
34.121890809074316 26.0473
34.145362493118924 26.0073
34.16865368561615 26.0084
34.191946333164054 26.0076
34.21524043699793 25.8763
34.23871800066799 25.8038
34.26201503218366 25.7855
34.28531352370466 25.7321
34.30861347646881 25.6844
34.33209693978188 25.6791
34.3553998301885 25.6333
34.378704185565205 25.5641
34.402010007152356 25.5358
34.42549939016683 25.4837
34.44880815937748 25.4504
34.472118398533134 25.3505
34.49543010887669 25.3916
34.51892543169198 25.293000000000003
34.54224009966052 25.2968
34.56555624255917 25.3017
34.58887386163339 25.1536
34.61237514439016 25.0727
34.6356957311114 25.1345
34.65901779775809 25.0977
34.68252356662995 25.0317
34.705848608458616 25.0959
34.72917513396849 25.0238
34.75250314440949 24.8889
34.77601490857862 24.8585
34.799345904259795 24.7909
34.82267838863559 24.8277
34.846012362958525 24.7647
34.869530142679984 24.7451
34.89286711232212 24.67
34.91620557568269 24.6925
34.93954553401677 24.7212
34.9630693495876 24.5547
34.986412313340814 24.6022
35.00975677584668 24.6169
35.033102738362956 24.5366
35.05663261012228 24.4087
35.0799815881786 24.55
35.10333207003229 24.3957
35.12668405694369 24.3257
35.150220005273056 24.325
35.17357501786656 24.3007
35.19693153931268 24.2631
35.220289570874385 24.2749
35.24383161619786 24.2493
35.267192683604904 24.2727
35.290555264930376 24.205
35.314101899412165 24.2331
35.33746752422433 24.1756
35.36083466676374 24.123
35.38420332829803 24.0399
35.407756095629054 24.1056
35.43112781085063 24.0918
35.45450104888391 24.0567
35.477875810999194 23.9945
35.50143473172161 23.9268
35.52481255774625 24.0688
35.54819191167777 23.8843
35.57157279478914 23.8484
35.595137889488406 23.8206
35.61852184675279 23.8155
35.641907337029984 23.737
35.665294361595684 23.7363
35.68886565090076 23.6613
35.7122557598848 23.6683
35.73564740699838 23.6501
35.759040593519934 23.5675
35.78261809810353 23.5656
35.80601437933051 23.4612
35.829412203814705 23.4134
35.85281157283719 23.2954
35.876395313415884 23.4105
35.8997977874528 23.3393
35.92320180988546 23.2511
35.946790244133936 23.2195
35.97019737933222 23.2015
35.993606066789866 23.1818
36.01701630779276 23.1146
36.04061101440684 23.0681
36.06402437852291 23.1586
36.08743930005611 23.1342
36.1108557802951 23.0434
36.13445678011326 22.930999999999997
36.15787639383515 22.9583
36.18129757014299 22.9238
36.20472031032821 22.87
36.22832762423364 22.8498
36.25175350829375 22.8128
36.275180960119776 22.71
36.298609981005924 22.7447
36.32222362992669 22.7491
36.34565580510207 22.7379
36.36908955323448 22.6518
36.39252487562093 22.5756
36.416144880530226 22.449
36.43958336764275 22.4795
36.463023432914625 22.4867
36.486465077645676 22.4725
36.51009145956204 22.5403
36.53353627947859 22.5195
36.55698268276811 22.3885
36.58043067073321 22.3518
36.60406345072071 22.249000000000002
36.62751462435344 22.3048
36.65096738658405 22.2505
36.67460498210655 22.2593
36.69806093788647 22.2392
36.72151848619297 22.1727
36.744977628333636 22.1772
36.76862165890998 22.026
36.79208400512205 22.122
36.81554794910557 22.0955
36.83901349217101 21.9284
36.862663978991606 21.8576
36.88613273667352 21.8876
36.90960309738324 21.8935
36.933075062434064 21.8131
36.95673202673572 21.8111
36.98020721697122 21.8245
37.003684015502365 21.7482
37.027162423645365 21.6914
37.050825886711465 21.6864
37.07430753063053 21.641
37.09779078812467 21.5274
37.121275660513014 21.5081
37.144945643673694 21.4444
37.16843376245278 21.4289
37.19192350009803 21.4643
37.215414857931435 21.4509
37.239091382563885 21.3114
37.262585997426164 21.3566
37.28608223645736 21.2985
37.309763684451696 21.3624
37.33326318851098 21.2765
37.356764320726555 21.2753
37.380267082425526 21.2399
37.40395510942588 21.1502
37.42746114683234 21.1291
37.45096881771841 21.054000000000002
37.474478123414166 21.0802
37.49817275092816 21.0692
37.52168534303452 21.0955
37.54519957395567 20.9664
37.568715445024665 20.9319
37.592416694607714 20.8552
37.61593586281424 20.8697
37.63945667518264 20.9359
37.66297913304891 20.7635
37.68668702630454 20.8094
37.710212792059274 20.7121
37.733740207334854 20.6908
37.757269273470364 20.6848
37.780983832050374 20.6431
37.80451621684926 20.5868
37.82805025654007 20.5754
37.851585952464795 20.5198
37.8753071980695 20.459
37.89884622345676 20.4657
37.92238690911902 20.4415
37.94611318753442 20.3844
37.969657210779765 20.3289
37.99320289834801 20.3437
38.016750251586465 20.2476
38.04048325513017 20.2658
38.06403395679343 20.2203
38.087586328183946 20.1777
38.11114037065203 20.1985
38.13488012115898 20.1538
38.1584375229181 20.0757
38.181996599821 20.1124
38.205557353221124 20.0477
38.229303872575656 19.9859
38.2528679961576 19.9701
38.27643380031219 19.9783
38.30000128639589 19.9219
38.32375459653193 19.9206
38.34732546371299 19.9553
38.37089801690786 19.8235
38.39447225747609 19.7819
38.418232380377425 19.817
38.441810012983396 19.7444
38.46538933705673 19.6593
38.488970353960084 19.6503
38.51273731166058 19.6652
38.536321731567014 19.5863
38.55990784840681 19.6047
38.58367995004091 19.5669
38.60726947812959 19.4475
38.63086070726198 19.4446
38.654453638806274 19.4934
38.678232613930824 19.4442
38.70182896773327 19.3477
38.72542702806741 19.3721
38.7490267963045 19.3177
38.77281266709232 19.2991
38.79641586862214 19.2882
38.8200207821842 19.1814
38.843627409152944 19.2337
38.86742019782782 19.2158
38.891030269149255 19.1195
38.914642058016156 19.1181
38.938255565806124 19.0864
38.96205529464307 19.0264
38.98567225787121 19.0056
39.00929094417078 18.9943
39.03291135492255 18.9731
39.05671804624804 18.9603
39.080341923549106 18.9356
39.103967529460334 18.8746
39.127594865365744 18.8091
39.15140854155791 18.8318
39.17503935514948 18.7663
39.19867190290282 18.7512
39.22249083587951 18.7088
39.24612686969409 18.7081
39.269764641845306 18.7044
39.293404153722804 18.6737
39.317230110864074 18.6292
39.34087311998506 18.5481
39.36451787301696 18.5489
39.388164371352595 18.4848
39.41199737518003 18.4719
39.43564738196752 18.4913
39.45929913825317 18.4737
39.48295264543308 18.4481
39.506792718520884 18.3508
39.530449745387216 18.3681
39.55410852735203 18.3037
39.57776906581474 18.3082
39.60161623079 18.2594
39.625280300200025 18.1805
39.64894613032202 18.1609
39.67261372255866 18.2243
39.6964680021016 18.1801
39.72013913657293 18.1906
39.74381203738292 18.0616
39.76748670593756 18.0815
39.79134812278169 18.0658
39.81502634488497 18.0132
39.83870633896685 17.9261
39.862388106436654 17.9111
39.88625668336918 17.9478
39.90994201572829 17.9493
39.933629125719285 17.8398
39.957503091207826 17.8592
39.9811937746168 17.8163
40.00488623990914 17.7505
40.02858048850006 17.7376
40.05246165409549 17.6833
40.076159487492085 17.6012
40.099859108448875 17.6321
40.123560518384345 17.6109
40.1474489070226 17.6277
40.171153913178564 17.5447
40.194860712584955 17.5121
40.2185693066637 17.5047
40.242464941335314 17.4926
40.26617714307655 17.4792
40.289891143772046 17.4216
40.3136069448471 17.4369
40.33750984859743 17.386
40.3612292688043 17.3452
40.3849504936829 17.2996
40.40867352466194 17.262
40.43258372059144 17.2543
40.45631038219906 17.2265
40.48003885420956 17.2038
40.503769138055105 17.1837
40.52768664931955 17.1921
40.55142057531802 17.1203
40.57515631746428 17.1393
40.599079334038514 17.1441
40.62281872700477 17.0174
40.64655994043941 16.9801
40.67030297578061 17.0058
40.69423334835778 16.9897
40.71798004609188 16.9605
40.74172857006355 16.9183
40.76547892171441 16.985
40.7894166736039 16.9189
40.813170699248566 16.8059
40.83692655691388 16.7983
40.86068424804498 16.8085
40.884629402612525 16.7516
40.908390779366385 16.7688
40.932153993938 16.6702
40.95591904777605 16.6808
40.979871628443995 16.6901
41.003640379561936 16.6792
41.02741097430883 16.5949
41.05118341413683 16.5536
41.075143444384416 16.5067
41.098919593177826 16.5006
41.1226975914255 16.5149
41.14647744058318 16.428
41.170444943946755 16.3916
41.19422851378379 16.3933
41.218013938914645 16.4087
41.24198706625173 16.3216
41.26577622087193 16.3358
41.289567235177785 16.3392
41.31336011063129 16.2715
41.337340752422875 16.2244
41.361137369129835 16.2603
41.38493585138705 16.2305
41.40873620066004 16.1555
41.43272438060107 16.1551
41.45652848292052 16.1525
41.48033445666918 16.0988
41.50414230331616 16.0605
41.528138045159764 16.0346
41.551949656675205 15.9697
41.575763145513235 15.9662
41.59957851314666 15.9495
41.62358184070442 15.8899
41.64740098505737 15.8698
41.6712220126409 15.8701
41.69504492493139 15.8364
41.71905586207357 15.8095
41.74288256296395 15.7881
41.766711153007456 15.7736
41.79054163368412 15.696
41.814560204340054 15.665999999999999
41.838394485526365 15.7241
41.86223066180303 15.6563
41.88625497706819 15.6509
41.910094962812 15.5883
41.93393684811168 15.5446
41.95778063445365 15.5124
41.981812625263366 15.4896
42.00566023303407 15.4667
42.029509746323676 15.4487
42.05336116662236 15.442
42.077400857069705 15.4704
42.10125611078846 15.4167
42.12511327600405 15.3806
42.14897235421036 15.3785
42.173019768448455 15.3032
42.19688269209613 15.3149
42.22074753323349 15.2292
42.24461429335818 15.2225
42.268669455600495 15.1952
42.292540073217886 15.1855
42.31641261433284 15.1941
42.34028708044675 15.1283
42.36435001496739 15.1052
42.38822835065557 15.0958
42.41210861586426 15.1094
42.4359908120986 15.050999999999998
42.46006154323262 15.0529
42.48394762115317 15.0174
42.507835634632315 14.9999
42.531912233047436 14.9147
42.55580413732265 14.9221
42.579697981698 14.894
42.60359376768525 14.8624
42.62767820545945 14.8571
42.65157789440821 14.8518
42.67547952952185 14.8124
42.699383112316 14.8094
42.72347541395347 14.8077
42.74738291190531 14.7075
42.771292362102166 14.6646
42.795203766063516 14.6542
42.819303956130405 14.6508
42.843219287476536 14.6053
42.86713657716324 14.5961
42.89105582671383 14.5969
42.91516392983864 14.5312
42.939087119032166 14.5316
42.963012272677304 14.5151
42.98693939230129 14.4583
43.01105543317513 14.4296
43.034986504731386 14.4139
43.05891954686589 14.4148
43.08285456110972 14.3765
43.10697856448665 14.3371
43.130917542983475 14.3319
43.15485849820081 14.2983
43.17880143167367 14.2791
43.20293342237094 14.2193
43.226880332449 14.2329
43.25082922540554 14.1449
43.27496722682525 14.1504
43.29892010567796 14.1465
43.32287497204102 14.152000000000001
43.34683182745632 14.1019
43.370977859791836 14.0787
43.39493871351105 14.0798
43.41890156092628 14.0265
43.44286640358341 14.030999999999999
43.46702049182749 13.9945
43.49098934522816 13.9734
43.51496019852649 13.8845
43.5389330532723 13.9062
43.56309522248204 13.8819
43.58707210044314 13.8685
43.61105098451946 13.8057
43.63503187626491 13.7876
43.659202151562134 13.7897
43.68318707902681 13.7389
43.70717401884041 13.7356
43.731162972560874 13.7257
43.75534137913236 13.6762
43.779334381108384 13.6097
43.803329401683186 13.6097
43.82732644241872 13.6257
43.8515130055166 13.6235
43.87551410707659 13.5948
43.89951723350145 13.6057
43.923709934595614 13.5328
43.94771713129917 13.5384
43.97172635758096 13.5189
43.99573761501002 13.4524
44.0199385169922 13.4532
44.04395385732619 13.4186
44.067971233533086 13.3989
44.09199064718605 13.3773
44.11619977548961 13.335999999999999
44.14022328470671 13.2742
44.16424883610785 13.3453
44.18827643127035 13.312000000000001
44.21249381139513 13.2542
44.236525514814076 13.1837
44.26055926674478 13.2123
44.28459506876863 13.1962
44.3088207262813 13.1046
44.33286064928722 13.107000000000001
44.35690262714919 13.1226
44.38094666145278 13.0787
44.4051806219871 13.09
44.42922879003185 13.0524
44.45327901929361 13.0209
44.477331311362136 13.0331
44.501573600619416 12.9615
44.525630039221795 12.9482
44.54968854541895 12.9619
44.573937102200176 12.9223
44.5979997645541 12.9019
44.622064499300315 12.8837
44.64613130803592 12.7951
44.67038823869318 12.8271
44.69445921643748 12.7594
44.718532272981385 12.7269
44.742607409926194 12.7321
44.76687274034801 12.7429
44.79095205918753 12.7024
44.81503346325094 12.677999999999999
44.839116954143876 12.6719
44.86339071028742 12.668
44.88747839599524 12.6204
44.91156817336837 12.5819
44.93566004401666 12.5693
44.959942251908146 12.564
44.984038330325966 12.5265
45.00813650686762 12.4983
45.03223678314731 12.4672
45.05652746888232 12.4338
45.08063196592069 12.4258
45.104738567558705 12.4389
45.128847275414856 12.4102
45.15314646515866 12.3847
45.17725940679741 12.344000000000001
45.20137445952892 12.317
45.22568004865265 12.3317
45.24979934496396 12.2548
45.27392075725247 12.2818
45.29804428714431 12.2446
45.322358426247604 12.2323
45.346486212804315 12.1657
45.370616121861914 12.1381
45.39474815505086 12.120999999999999
45.41907087049246 12.1145
45.4432071734666 12.1377
45.46734560548283 12.1259
45.49148616817604 12.075999999999999
45.51581748638564 12.0231
45.5399623320197 11.9858
45.56410931325473 11.952
45.58825843173002 11.9756
45.61259837920865 11.9849
45.636751793816 11.9558
45.66090735060093 11.9017
45.68506505120716 11.8679
45.7094136545275 11.8776
45.73357566449271 11.8235
45.75773982322992 11.7983
45.78190613238733 11.8344
45.806263418194064 11.7704
45.83043404997326 11.7887
45.85460683713677 11.7769
45.87897065658495 11.7189
45.90314777634752 11.6785
45.92732705646868 11.6559
45.9515084986045 11.6388
45.97588104735473 11.618
46.00006683541565 11.6345
46.02425479047904 11.5901
46.04844491420549 11.605
46.0728262191024 11.5923
46.09702070211635 11.5551
46.12121735879483 11.564
46.14541619080294 11.5609
46.169806278764455 11.4912
46.194009483459034 11.4564
46.21821486849841 11.465
46.24242243555223 11.4168
46.266821333570014 11.4101
46.29103328674601 11.3931
46.31524742696538 11.3859
46.33946375590237 11.3554
46.36387149104216 11.2963
46.38809221957392 11.3007
46.41231514186606 11.2851
46.436540259597464 11.2866
46.460956858999374 11.2474
46.48518638983522 11.2119
46.509418121166966 11.1666
46.533652054678114 11.1737
46.55807754555709 11.1202
46.58231590571962 11.1029
46.60655647313217 11.0977
46.630988654873654 11.0989
46.655233659129024 11.0399
46.67948087571551 11.0538
46.70373030632484 11.0108
46.72817142736393 10.9879
46.752425308428684 10.9983
46.77668140861147 10.9529
46.80093972960865 10.9221
46.82538981736788 10.9363
46.849652602470904 10.9404
46.87391761349769 10.8878
46.8981848521493 10.8574
46.9226439341274 10.8409
46.946915650573224 10.8175
46.97118959976749 10.8008
46.99546578341598 10.7528
47.019933887188216 10.7683
47.04421456235744 10.776
47.06849747711879 10.6918
47.09278263318286 10.6805
47.11725978640143 10.6653
47.14154944775105 10.6559
47.165841355555656 10.6744
47.1901355115306 10.6453
47.214621741924994 10.5921
47.23892041698887 10.5508
47.26322134538975 10.574000000000002
47.28771440635075 10.5566
47.31201986422527 10.5267
47.33632758061436 10.5298
47.360637557241866 10.4916
47.38513974410611 10.4579
47.40945426407847 10.4393
47.43377104948137 10.4123
47.45809010204344 10.4477
47.48260144275502 10.3961
47.506925052572285 10.3447
47.53125093475548 10.3453
47.55557909103813 10.3336
47.58009961361992 10.2972
47.60443234110732 10.2811
47.62876734791564 10.2894
47.65310463578333 10.2267
47.6776343683373 10.2299
47.7019762413987 10.2216
47.72632040075572 10.177999999999999
47.75066684815169 10.216000000000001
47.77520581885936 10.1608
47.799556865477655 10.1323
47.823910205386 10.1232
47.84826584033272 10.086
47.87281407745551 10.0772
47.89717432569297 10.0925
47.92153687423484 10.06
47.94609208429692 10.0491
47.97045925671401 10.0265
47.99482873471275 9.98962
48.01920052005013 9.99142
48.04376504619224 9.97396
48.068141469543484 9.94706
48.09252020552573 9.96038
48.11690125590099 9.9122
48.1414751266064 9.87582
48.16586082917454 9.857610000000001
48.19024885144316 9.82595
48.2146391951793 9.82504
48.239222439012764 9.868089999999999
48.26361744916137 9.81504
48.28801478610016 9.82622
48.31241445160131 9.76454
48.337007097209366 9.762789999999999
48.36141144338331 9.754660000000001
48.38581812345755 9.72146
48.41022713920929 9.702210000000001
48.434829215320704 9.67983
48.45924292604658 9.67957
48.48365897780325 9.7111
48.50807737237308 9.67871
48.532688907799276 9.613610000000001
48.55711201168574 9.586219999999999
48.581537463754074 9.580589999999999
48.60615611725119 9.532639999999999
48.63058628942721 9.554680000000001
48.65501881516546 9.56733
48.6794536962573 9.52663
48.70408185970339 9.483089999999999
48.72852147531801 9.46759
48.75296345168211 9.46905
48.77740779059232 9.49043
48.80204549302823 9.45749
48.82649458091802 9.40099
48.85094603676547 9.36408
48.87539986237231 9.35515
48.90004713292306 9.32437
48.92450572200832 9.32341
48.94896668628025 9.32365
48.97343002754588 9.29002
48.99808689542115 9.25737
49.02255501470614 9.26987
49.04702551642794 9.250119999999999
49.0714984023988 9.201319999999999
49.096164896893235 9.18485
49.120642575466796 9.19962
49.145122643748394 9.16918
49.16960510355558 9.135489999999999
49.19428125404938 9.128260000000001
49.2187685210852 9.143189999999999
49.243258185121555 9.11103
49.26794160167084 9.061119999999999
49.2924360839405 9.06962
49.31693296869764 9.04832
49.34143225776915 9.039589999999999
49.36612538195438 9.0123
49.39062950396021 8.99138
49.41513603578346 9.02091
49.4396449792564 8.987919999999999
49.46434784069503 8.97377
49.488861631846454 8.962019999999999
49.513377840166804 8.93104
49.537896467493745 8.91646
49.56260909589029 8.857330000000001
49.587132585683285 8.85861
49.611658500018365 8.82512
49.636186840738596 8.83108
49.66090926588511 8.83325
49.685442483902584 8.78464
49.70997813385706 8.806560000000001
49.734516217597076 8.76308
49.75924846937352 8.71063
49.7837914452858 8.75147
49.80833686055187 8.70615
49.83288471702571 8.68095
49.85762682540054 8.68747
49.882179588965734 8.665560000000001
49.9067347993235 8.625630000000001
49.93129245833333 8.60418
49.95604445336378 8.60027
49.98060703442832 8.59548
50.005172069746266 8.55264
50.02993150438364 8.55188
50.05450147301533 8.539489999999999
50.07907390151433 8.525030000000001
50.10364879174981 8.50897
50.12841816587289 8.51905
50.1529980044635 8.51188
50.17758031042124 8.47152
50.20216508562089 8.45785
50.22694442953363 8.41423
50.25153416817468 8.403360000000001
50.27612638170508 8.39215
50.300721072005196 8.3886
50.325510416102105 8.3628
50.350110084975064 8.339319999999999
50.37471223628208 8.349969999999999
50.39931687190919 8.33318
50.424116246675766 8.286760000000001
50.44872587605249 8.29774
50.47333799543065 8.25178
50.49795260670191 8.25102
50.52276204271512 8.18169
50.54738166295838 8.224310000000001
50.57200378079314 8.24457
50.596628398116835 8.20783
50.62144792604559 8.17822
50.646077567609396 8.17605
50.670709714377715 8.14395
50.69553683636198 8.15298
50.72017401885922 8.09436
50.7448137122895 8.09827
50.76945591856022 8.120519999999999
50.79429318636823 8.05945
50.818940443716784 8.06355
50.84359021965163 8.02128
50.868242516085964 8.04119
50.893089960641895 8.00831
50.917747323549435 7.98267
50.94240721271973 8.0001
50.96706963007175 7.94228
50.99192728239342 7.920260000000001
51.01659478166073 7.949739999999999
51.04126481489051 7.921289999999999
51.06593738400761 7.91367
51.090805275207074 7.8615
51.11548294172845 7.84342
51.14016314993547 7.831910000000001
51.164845901758845 7.84921
51.18972406304274 7.81675
51.21441192780656 7.79542
51.23910234200271 7.7888399999999995
51.2637953075678 7.759180000000001
51.288683770237945 7.77568
51.31338186432707 7.71845
51.33808251561888 7.71137
51.362978729967345 7.70252
51.387684521509755 7.66412
51.41239287610203 7.7195100000000005
51.437103795691165 7.66355
51.46201036644977 7.6391800000000005
51.486726441956634 7.61315
51.51144508832545 7.64428
51.536166307509156 7.620019999999999
51.56108326624387 7.5617399999999995
51.58580965706056 7.5693600000000005
51.61053862657523 7.5500300000000005
51.635270176746864 7.56204
51.66019755512065 7.500560000000001
51.68493429268881 7.46415
51.70967361681515 7.4969
51.73441552946465 7.49445
51.759353359237934 7.45931
51.7841004750961 7.44557
51.80885018539685 7.44032
51.833602492111254 7.41723
51.8585508051424 7.410880000000001
51.883308330926425 7.404489999999999
51.90806845906181 7.34295
51.932831191525715 7.30775
51.95779001977161 7.303210000000001
51.98255798721516 7.291639999999999
52.00732856494335 7.2594199999999995
52.03229530577543 7.2972
52.057071130455945 7.23217
52.081849571391054 7.23953
52.106630630568695 7.245010000000001
52.13160794279417 7.2393600000000005
52.15639426492067 7.216889999999999
52.18118321127822 7.20043
52.205974783860896 7.189310000000001
52.23096269971011 7.17495
52.255759551287994 7.16245
52.280559035098186 7.15103
52.30536115314103 7.1504
52.33035970494467 7.107539999999999
52.35516711807904 7.13112
52.37997717147198 7.07348
52.40478986713005 7.094410000000001
52.42979908731974 7.059080000000001
52.454617094216 7.03855
52.47943774942214 7.01497
52.50426105495102 6.992939999999999
52.529280976059844 6.983110000000001
52.554109609024096 6.96554
52.57894089837482 6.9535
52.60377484613117 6.96095
52.62880550079408 6.90318
52.65364479223379 6.90733
52.67848674816189 6.909680000000001
52.70352547971946 6.92035
52.72837279155837 6.85256
52.753222773982785 6.8643600000000005
52.778075429022984 6.86221
52.80312495150885 6.86302
52.827982978797436 6.85027
52.85284368481815 6.79513
52.87770707160767 6.756639999999999
52.90276741793998 6.75275
52.92763619336701 6.730519999999999
52.952507655698504 6.71595
52.977381806977576 6.71766
53.00245301017842 6.71957
53.02733256653592 6.73544
53.052214817996074 6.72253
53.077099766608484 6.6729199999999995
53.102181859804446 6.686719999999999
53.127072229988265 6.701630000000001
53.15196530349892 6.62839
53.17686108239249 6.61958
53.20195409881522 6.608339999999999
53.22685531582556 6.587560000000001
53.25175924441303 6.57932
53.27666588664027 6.5561
53.30176985962693 6.55276
53.3266819565689 6.5319400000000005
53.35159677336455 6.53156
53.376514312083096 6.55331
53.40162927507703 6.53118
53.42655228516116 6.46154
53.45147802340193 6.46453
53.47660125628886 6.4393
53.50153247842639 6.4256
53.52646643496923 6.42124
53.55140312799818 6.38365
53.576537409691696 6.39174
53.60147960336152 6.388719999999999
53.626424539786164 6.37325
53.65137222105307 6.34459
53.67651758529126 6.35121
53.70147078399681 6.30699
53.72642673383343 6.31498
53.75138543689533 6.32199
53.776541917524526 6.29301
53.801506154876755 6.26851
53.826473151763246 6.268669999999999
53.851442910284916 6.21707
53.87661054126026 6.22083
53.9015858509782 6.19994
53.92656392866066 6.25986
53.95154477641532 6.24728
53.976723591801296 6.158580000000001
54.00171000771266 6.1908900000000004
54.02669920004598 6.13964
54.051691170915745 6.1138900000000005
54.076881204886796 6.13835
54.101878760928514 6.12127
54.12687910187696 6.077319999999999
54.152077577768296 6.07116
54.1770835166946 6.0483199999999995
54.20209224691339 6.02498
54.22710377055121 6.03097
54.25231352511594 6.00513
54.27733066384342 5.950130000000001
54.30235060239643 5.96678
54.32737334290836 5.98989
54.35259441062629 5.934769999999999
54.377622783395324 5.96371
54.40265396455061 5.94268
54.42768795623251 5.9202699999999995
54.45292037169559 5.840409999999999
54.477960012857906 5.843719999999999
54.50300247099511 5.8494
54.52804774825457 5.828880000000001
54.55329154616743 5.82064
54.57834249018678 5.79592
54.6033962597977 5.77504
54.6284528571545 5.799869999999999
54.653708072335164 5.7496599999999995
54.67877035378786 5.7466099999999996
54.70383546947698 5.66325
54.72890342156389 5.6416
54.7541700889442 5.6551599999999995
54.77924374251975 5.64388
54.8043202390049 5.62892
54.82959552413022 5.59738
54.8546777351945 5.54954
54.87976279569621 5.49484
54.90485070780914 5.553669999999999
54.930137506558005 5.5191099999999995
54.95523115074295 5.498530000000001
54.98032765308844 5.45798
55.005427015775496 5.46813
55.03072536339621 5.46138
55.05583047570572 5.4138
55.080938454927676 5.39281
55.10604930325027 5.329359999999999
55.131359235107396 5.356730000000001
55.15647585066083 5.34358
55.181595341907496 5.29603
55.20671771104285 5.29155
55.232039262617704 5.28147
55.25716741665048 5.26494
55.28229845518636 5.207409999999999
55.30743238042802 5.1500699999999995
55.33276558731939 5.18869
55.357905315183636 5.17486
55.383047936390035 5.1307
55.40819345314859 5.09886
55.433538351073295 5.095280000000001
55.458689688238415 5.09353
55.483843927614096 5.023619999999999
55.509197623043605 5.00088
55.53435769621134 4.98037
55.55952067826466 4.96985
55.5846865714265 4.94555
55.61005202069737 4.88689
55.63522376553902 4.9459599999999995
55.66039842818645 4.93843
55.68557601087004 4.938359999999999
55.7109532500271 4.78303
55.73613670233794 4.8196
