TT I
1.2716486653135266 8.0488
1.2939594142134223 7.7000399999999996
1.3162702121660406 7.21023
1.3385810600174564 6.9892199999999995
1.3608919586137629 7.266039999999999
1.383202908801069 6.96813
1.405513911425503 6.0721300000000005
1.4278249673332093 6.71104
1.4501343378461518 6.46438
1.4724455028545926 6.36805
1.4947567236847858 6.680110000000001
1.517068001182951 6.5435099999999995
1.5393793361953272 5.5421
1.5616907295681737 5.7468900000000005
1.5840021821477681 5.78166
1.60631369478041 5.32576
1.6286252683124185 5.529
1.6509369035901333 5.03559
1.6732468618895553 5.612509999999999
1.695558623192809 4.832269999999999
1.7178704487808514 5.196619999999999
1.7401823395001077 5.30467
1.7625012545597203 5.03998
1.7848028405262486 5.52416
1.8071218901122095 5.0225800000000005
1.8294236121921872 5.31366
1.8517427996910911 4.63664
1.8740620574440425 4.8076
1.8963639900671978 4.849530000000001
1.9186833908139995 4.73782
1.9409854680117449 5.22774
1.9633050151394713 5.41442
1.9856246367570705 5.1438
2.0079269371922672 4.705430000000001
2.03024671027244 4.537640000000001
2.0525491637446027 4.3739099999999995
2.074869091674931 4.39025
2.097171701569106 4.312069999999999
2.1194917877373847 4.81924
2.141811954326636 4.73356
2.164114805233074 4.91962
2.186435135143035 5.88887
2.208738150935709 14.4297
2.231058647554722 29.9175
2.2533792288321184 23.3824
2.275682498336085 10.4561
2.298003251406138 5.54879
2.3203066942619714 5.09349
2.3426276225136022 5.17656
2.3649486396617507 5.15487
2.387252348930071 4.871569999999999
2.4095735463442893 4.92017
2.4318774374315884 4.73925
2.4541988185014043 5.8048
2.476502894794693 5.75242
2.498824462909887 5.51061
2.521146125856138 5.2327900000000005
2.5434504863470337 5.82195
2.5657723414244717 6.7366
2.588076895590662 6.37807
2.610398946189713 6.72328
2.6327210958598384 6.34692
2.6550259469304716 6.37906
2.6773482972090137 6.700239999999999
2.6996533504259 6.3368400000000005
2.7219759047039602 6.67985
2.744298562293959 6.95143
2.7666039251246595 6.44543
2.7889267918020164 7.53477
2.8112323652516555 7.46214
2.833555444408179 7.55247
2.8558786311183852 7.711
2.8781845268938557 7.70137
2.9005079311721484 8.3217
2.9228140460410397 8.66198
2.9451376712799635 9.2585
2.967444008632326 9.84689
2.9897678582247247 10.3892
3.0120918213106695 9.89793
3.0343984987899373 10.515999999999998
3.0567226913198637 11.199000000000002
3.079029599759726 11.4777
3.101354025127254 11.9928
3.123678568232338 13.0423
3.145985829517914 12.5761
3.16831061055229 13.39
3.1906181112775593 14.4082
3.212943133635653 14.6171
3.2352682779763207 14.7662
3.2575761442691227 15.3246
3.2799015350264273 16.107
3.302209649240067 16.5737
3.3245352898092655 16.8213
3.3468436553365257 17.6327
3.369169549113219 17.4345
3.3914955708171384 19.2108
3.413804319727358 19.243
3.4361305997334863 19.6391
3.4584396084414553 20.6276
3.4807661501462652 20.6366
3.503092824025881 21.4744
3.5254022288463154 21.7595
3.5477291695206588 22.197
3.5700388426251948 22.975
3.5923660534916446 24.4643
3.6146934007816114 39.0801
3.637003482731501 93.7942
3.6593311053109985 104.56700000000001
3.681641464033634 60.0616
3.7039693653009733 32.091
3.726297407241705 26.9963
3.7486081875460804 26.2712
3.7709365132734978 26.9901
3.793247578841633 26.9832
3.8155761917550093 27.315
3.8378875459837216 28.4231
3.8602164494827234 28.4577
3.882545499606844 29.2522
3.9048572932539183 29.8559
3.9271866390645718 30.1517
3.9494987298666713 30.6819
3.971828374764527 31.4471
3.9941581705403255 31.7589
4.016470713506008 32.5373
4.038800813471445 33.3314
4.061113662089144 33.5414
4.0834440696459176 34.875
4.105774632334751 35.2529
4.128087945865126 36.0335
4.150418821249301 37.2945
4.172732448931298 38.4388
4.195063640413578 40.0969
4.2173775856475215 45.253
4.239709096631102 78.0638
4.262040768704612 250.093
4.284355196706267 344.662
4.306687193387355 224.864
4.329001947444346 87.3333
4.35133427213731 50.9306
4.373666762177566 46.6713
4.395982011761091 45.9904
4.418314834921175 47.373999999999995
4.44063041906622 55.0425
4.4629635787515625 67.5885
4.4852969080429785 67.1292
4.5076130004776225 57.0645
4.529946671403969 53.79600000000001
4.552263106909177 53.3254
4.574597122877047 53.5086
4.596931312711224 54.4036
4.619248269273446 55.5749
4.6415828092605835 56.3938
4.663900117405352 57.3684
4.686235010953232 59.1028
4.708552674085913 60.328
4.730887924602802 61.9446
4.753223354952695 63.1083
4.775541557023902 64.9128
4.797877349456786 66.7473
4.820195915032126 67.9884
4.842532072957498 69.8649
4.864868414979744 72.1358
4.88718753227192 74.5671
4.909524244902505 76.8914
4.931843734218147 78.815
4.954180820867835 81.3831
4.976518095879839 84.6212
4.998838149695359 88.3303
5.021175803844231 92.1329
5.043496238205739 96.23299999999999
5.065834274903528 101.26899999999999
5.088172504230693 107.69
5.1104935158799565 116.323
5.132832132875765 145.049
5.155153533596801 198.426
5.1774925416746225 252.063
5.199814334878411 520.757
5.2221537374521505 1464.26
5.244493338631803 3336.56
5.266815727034316 6694.7
5.289155727832427 10755.0
5.311478517248165 9509.83
5.333818921080011 4155.21
5.356159527788849 986.457
5.3784829252032536 269.063
5.400823940070432 176.421
5.423147747031976 148.305
5.445489173474152 133.264
5.467830807066149 125.719
5.490155234831516 120.431
5.512497285125229 114.581
5.534822130975162 111.491
5.557164601388673 108.652
5.579489868738879 105.62200000000001
5.601832762690846 104.455
5.6241758697774475 103.49799999999999
5.646501775867269 102.397
5.668845311622074 100.962
5.691171647754637 99.8788
5.713515615597765 98.7786
5.735859800852677 97.5583
5.758186788542988 97.5465
5.780531411018185 98.4578
5.802858837297399 97.0576
5.825203900414495 97.8002
5.8475491852224 99.3896
5.869877275883075 99.171
5.892223006467101 100.235
5.914551544266608 102.59100000000001
5.936897724049891 106.971
5.959244129804903 115.094
5.981573344815301 143.379
6.0039202049061 270.217
6.026249875609095 600.945
6.04859719346037 1149.87
6.070927323278297 2087.0
6.093275102315365 3716.86
6.115623113320588 4760.52
6.137953938319995 3691.06
6.160302415650845 1437.06
6.182633708324452 384.88599999999997
6.2049826554078376 150.142
6.227331838745022 107.63600000000001
6.249663839443684 95.0655
6.27201349767565 90.5187
6.294345974611799 95.1822
6.316696111167083 107.603
6.339046488263839 101.74
6.361379686074702 84.689
6.383730546639482 76.1974
6.406064229255215 72.6427
6.428415576718203 72.1062
6.450749747566656 70.6293
6.47310158535871 69.3595
6.495453669698332 68.3924
6.517788579421056 67.6672
6.540141159237969 66.4105
6.562476565766648 66.124
6.5848296444934045 65.5163
6.607182974060425 65.3793
6.6295191323281015 65.3856
6.651872965955752 68.9625
6.6742096296068985 95.4853
6.6965639707294615 146.136
6.71891856698715 148.835
6.741255995248479 101.294
6.763611104154477 71.5094
6.785949046381137 63.2354
6.808304671371482 61.2729
6.8306605557940046 61.0155
6.852999275508618 59.8867
6.875355681171544 59.4726
6.897694923437771 59.1012
6.92005185377892 58.7911
6.9423916220322655 58.4771
6.964749080490181 58.2838
6.987106804399774 58.325
7.009447368180821 58.1752
7.031805625367033 57.8714
7.054146723727803 57.5886
7.076505517631004 57.261
7.098864581288365 57.0241
7.121206488070854 56.9948
7.143566093607822 57.2399
7.165908543567245 57.8089
7.188268694426048 57.5269
7.2106291193438095 58.1264
7.232972390625943 59.2512
7.255333366030969 72.3211
7.277677189091925 129.239
7.300038718428332 184.671
7.322400526130865 157.043
7.344745183422596 96.0275
7.367107550224791 65.3226
7.389452767901992 58.6355
7.411815697249891 57.8707
7.434161478756298 56.74
7.456524974096713 56.4093
7.478888753837185 56.5531
7.501235387657368 57.105
7.523599738562711 56.5708
7.545946944825532 56.8371
7.568311870344528 57.5984
7.5906770845765665 57.7706
7.613025156078678 59.1196
7.635390950099687 60.732
7.657739602662809 59.8023
7.680105979923558 58.342
7.702472650212829 58.3171
7.724822180948224 58.3405
7.747189439655568 58.4599
7.769539560075357 58.4193
7.791907410653562 58.9053
7.81425812420825 58.8754
7.836626570110925 59.3514
7.858995315087906 59.8568
7.881346924933401 60.3056
7.903716270417482 60.8082
7.926068482028405 61.0203
7.948438431475253 61.681000000000004
7.9708086843180235 61.9337
7.993161805171116 62.7924
8.015532667162402 62.9831
8.037886398416653 64.4532
8.060257873014221 64.714
8.082629655331942 65.4093
8.104984308787587 66.3179
8.127356708900503 69.9717
8.149711981398308 76.396
8.172085002766314 79.5073
8.194458336181368 75.7148
8.216814543847752 72.4061
8.23918850371002 72.4784
8.26154533906492 73.1449
8.283919928836452 75.1589
8.306277395339652 75.7192
8.328652618483376 77.385
8.351028159736202 79.3048
8.373386579575245 82.1269
8.395762759396959 84.4167
8.418121819038275 89.9046
8.440498640894003 104.554
8.462875785192262 121.662
8.485235811156207 139.983
8.507613602688501 195.764
8.529974277114228 315.21299999999997
8.552352719347912 469.18199999999996
8.574731488360351 684.915
8.59709314210385 1065.91
8.619472567021075 1568.12
8.64183487789147 2050.0
8.664214962183097 1972.81
8.686577933647762 1251.67
8.708958680784317 556.355
8.731339760774953 231.03599999999997
8.753703729764451 131.297
8.77608547780821 109.177
8.798450116065078 103.204
8.820832535634787 98.6763
8.843215292401656 96.5211
8.865580941199045 94.69200000000001
8.887964374703538 93.8696
8.910330701447199 94.6349
8.932714815164482 97.1773
8.955099270424924 95.9034
8.977466620733543 92.6115
8.999851761421976 89.2092
9.022219798361645 87.8228
9.04460562795561 87.1472
9.066991803441677 86.8082
9.089360876979615 86.9258
9.111747746589993 86.3643
9.13411751544971 85.5799
9.156505082664324 85.2915
9.178875550323522 84.9576
9.20126381862328 85.3728
9.223652438908596 86.102
9.246023961427412 86.051
9.26841328802173 85.5341
9.290785518039224 85.5739
9.313175554425882 86.4214
9.335565947154315 86.7025
9.357939245086508 86.59
9.380330352834827 86.766
9.40270436697103 86.6937
9.425096193225055 86.575
9.447488380180165 87.8803
9.469863475295412 87.6498
9.492256385987508 88.2394
9.514632206018318 88.6613
9.537025843935714 89.0535
9.559402392368193 89.881
9.581796761000229 91.2493
9.604191496441521 92.5677
9.626569144158516 96.2785
9.648964615551032 101.075
9.671343000390081 103.26299999999999
9.693739211225699 100.75
9.716135793237463 97.8338
9.738515290448102 96.8343
9.760912617143402 98.1705
9.783292860202891 99.9556
9.805690935076182 101.194
9.828089385495742 102.071
9.850470754023561 104.934
9.872869957865444 112.824
9.89525208097539 129.11
9.917652041736662 143.631
9.940052382417589 144.882
9.962435644102392 157.102
9.984836746950979 204.745
10.007220771957746 293.70099999999996
10.029622640473708 415.611
10.052007432299963 562.794
10.074410069984072 762.3860000000001
10.096813093716005 1083.23
10.119199042482517 1487.72
10.141602840636468 1819.62
10.163989564971628 1751.57
10.186394141051062 1199.73
10.208799107559706 607.592
10.231187001965623 272.72700000000003
10.253592751657669 154.05
10.275981430388155 125.056
10.298387966769793 121.43299999999999
10.320794897965431 123.27600000000001
10.343184759907361 121.492
10.36559248305461 115.07
10.387983138083852 111.007
10.410391656691655 114.84100000000001
10.432800574501677 129.58100000000002
10.455192425893369 152.458
10.47760214443012 181.17
10.499994797678786 215.727
10.522405320453982 268.028
10.54479877906917 355.099
10.567210109595656 451.825
10.5896218454736 534.081
10.612016518879773 535.031
10.634429067781074 417.885
10.656824555333241 261.70599999999996
10.679237920773568 154.827
10.701651695961992 108.28
10.724048411481384 95.6798
10.746463008485165 91.4833
10.768860546937125 89.3889
10.791275969274796 87.1778
10.81369180576079 86.1312
10.836090585366925 84.5282
10.858507252467449 83.491
10.88090686379991 82.1769
10.903324365036394 81.95299999999999
10.925724811614439 81.8162
10.948143150509463 82.9284
10.970561909719066 82.4623
10.992963615930844 80.8956
11.015383218085756 78.3642
11.037785768347074 76.8983
11.06020621697282 75.8042
11.082627090322113 75.5461
11.105030913430326 74.9653
11.12745263854165 75.2207
11.149857314510728 79.2263
11.172279894912576 85.8462
11.194702904450653 87.0932
11.217108866490921 82.611
11.239532736615194 77.5838
11.26193956033512 75.0647
11.284364294577085 73.497
11.306789462371718 71.271
11.329197585398376 70.2182
11.351623622610898 69.7579
11.37403261614354 68.9152
11.396459526308487 68.7589
11.418869393879497 68.3745
11.441297180532617 67.8705
11.463725406927658 67.2901
11.486136592353875 67.242
11.508565700543707 67.9648
11.530977768845315 69.9447
11.553407762368774 71.1417
11.575838200059769 70.5526
11.598251599479612 68.5093
11.620682927815501 66.6428
11.64309721895548 66.2153
11.665529441478206 65.9694
11.687962112597958 65.5509
11.710377748130886 65.4805
11.732811318753434 65.4634
11.755227854859067 65.4759
11.777662328529495 65.5681
11.800079768750786 65.5593
11.822515149015453 65.2568
11.844950984084935 65.4064
11.867369787303163 65.0756
11.889806534289491 64.9447
11.912226250487029 65.1757
11.934663912939751 65.1299
11.9571020346363 65.3674
11.979523127133968 65.3171
12.001962169624331 66.666
12.024384183972964 68.0165
12.046824150809913 71.9754
12.069264581333726 78.4809
12.091687985297767 86.3032
12.11412934550045 94.1741
12.136553680195208 104.70299999999999
12.158995973632788 120.64200000000001
12.181438735204349 140.634
12.20386447284199 168.15099999999998
12.226308172985636 196.429
12.24873485024193 211.368
12.271179492516982 189.132
12.293607112949127 155.135
12.316052700916226 115.417
12.338498763250042 89.2774
12.360927805303868 75.4279
12.383374818673879 70.0661
12.405804812803074 67.9436
12.428252780773262 67.2811
12.45070122756722 67.2231
12.473132656675375 66.7776
12.49558206341869 67.2148
12.518014453510101 67.0941
12.540464823770117 67.2511
12.562915677315177 67.5239
12.58534951575545 68.0852
12.607801338171472 70.3284
12.630236146511358 76.1312
12.652688941369085 81.5717
12.675124723177234 81.9554
12.697578494048786 77.9722
12.720032754458185 73.3813
12.742470003354093 71.2629
12.764925245138771 71.0165
12.787363476431278 70.7667
12.809819703166806 71.2238
12.83227642391173 71.9592
12.854716135692716 72.4739
12.877173846755147 73.7264
12.899614549869717 74.1106
12.9220732548287 74.7158
12.94453245827299 75.1721
12.966974655289818 76.3827
12.989434858002571 77.551
13.011878055298721 78.0565
13.034339260862497 78.9951
13.056800969391883 80.1184
13.079245674017244 82.545
13.101708390774869 85.4892
13.12415410463411 93.7469
13.146617833206086 108.554
13.169064559883248 124.79899999999999
13.191529303857127 142.414
13.213994557076367 160.702
13.236442809902437 185.315
13.258909083908291 222.40099999999998
13.28135835851934 270.312
13.30382565690295 329.556
13.326293469022952 394.61699999999996
13.348744283242008 431.065
13.371213125129904 403.634
13.39366497011003 323.558
13.416134845360597 224.511
13.438605238843131 152.349
13.46105863690397 120.661
13.483530069144786 115.788
13.505984506951902 122.792
13.528456981549432 134.914
13.550929978879088 147.703
13.573385983253365 163.412
13.595860028340867 188.011
13.618317081455832 223.988
13.64079217790333 268.482
13.663250283359057 319.595
13.685726434770173 358.288
13.708203115221277 360.529
13.730662806148091 310.948
13.75314054697177 236.97099999999998
13.775601299246777 164.669
13.798080104050406 115.29299999999999
13.820559442405358 93.4
13.843021793671388 86.7986
13.865502201420897 84.1982
13.887965623051947 83.506
13.910447103807167 82.4851
13.932929122629764 80.6805
13.955394156785959 80.1932
13.977877254034569 79.2019
14.000343367582113 78.3068
14.022827546871707 77.7873
14.045294743423524 76.8184
14.06778000837062 76.2571
14.090265817715476 76.0182
14.112734645763819 75.78
14.13522154619454 75.4306
14.157691466286913 75.5222
14.180179461423874 75.1823
14.202668005486178 74.5752
14.22513957064374 74.2266
14.247629214846473 73.6787
14.270101881097517 73.3635
14.29259262906496 73.5902
14.315083930490205 74.2
14.337558255389705 74.6907
14.360050666019726 74.3462
14.382526101071944 73.3755
14.405019624534942 72.4099
14.427513705993134 71.7436
14.449990813291825 71.7719
14.47248601302899 71.686
14.49496423954951 71.5099
14.517460561197822 71.5051
14.539939910570322 71.2681
14.562437357763558 71.8899
14.58493536931253 73.0588
14.607416409993311 74.1633
14.62991555254159 74.9002
14.652397725157423 74.5525
14.674898002342799 74.1109
14.697398848433282 73.7563
14.719882725991326 74.4937
14.74238471217934 75.6608
14.764869730765593 79.6602
14.787372860692983 84.1839
14.809876564079925 90.7409
14.83236330125751 97.6293
14.854868153850365 104.675
14.877356041159485 113.726
14.899862046604186 125.85600000000001
14.922351087688757 143.341
14.944858249632887 165.852
14.967365991421232 189.89
14.989856770231246 211.263
15.012365673994204 220.74099999999999
15.03485761569738 206.50900000000001
15.05736768508665 173.544
15.07987833888692 137.662
15.102372032001655 105.915
15.124883856909658 85.87100000000001
15.14737872204565 77.2524
15.169891721717274 74.6306
15.192405310371893 73.8132
15.214901940621196 74.2564
15.237416709527137 74.1736
15.259914520936249 74.4736
15.282430473753607 73.3333
15.304947020131227 72.4195
15.327446610371178 71.3936
15.349964346154254 70.2615
15.372465126703139 69.7566
15.394984055556009 69.5009
15.417486030076159 69.34100000000001
15.44000615566487 68.987
15.462526881230803 69.1171
15.485030653812652 69.2249
15.507552581617434 68.9137
15.530057557334603 69.0698
15.55258069104857 69.0851
15.575104429329837 69.027
15.597611216864632 68.5777
15.620136166564563 68.9161
15.6426441664095 69.9769
15.665170331202765 73.0473
15.687697105158826 77.1917
15.710206930593545 82.1933
15.732734925158933 87.5553
15.755245972089478 92.699
15.77777519094324 98.435
15.800287463046663 107.32700000000001
15.822817909869592 119.853
15.84534897229804 135.924
15.867863089299354 155.376
15.890395385222186 174.707
15.912910736597423 190.62
15.935444269699861 192.85
15.957978423016485 177.45
15.980495633101265 146.882
16.003031029129367 115.665
16.02554948280019 89.1457
16.048086125229432 75.0011
16.070623392487107 69.7722
16.09314371869582 67.8972
16.11568223789321 66.8175
16.13820381691126 65.7772
16.160743591742527 64.6101
16.183283996022084 63.4765
16.205807461423195 62.2567
16.228349126881973 61.7102
16.25087385432698 61.6286
16.27341678466365 60.9022
16.29594277784926 60.8077
16.31848697676433 61.1824
16.341031811604868 61.6555
16.36355971058487 61.9503
16.3861058195587 61.5953
16.40863499352978 60.3997
16.431182380342005 59.4398
16.453730407713202 58.7294
16.476261501364792 58.1165
16.498810812136167 57.861000000000004
16.52134319004079 58.01
16.54389378792203 57.9236
16.566445031001553 57.6471
16.588979342490088 57.4378
16.61153187824822 57.5109
16.634067483263312 57.3093
16.656621315414416 57.2249
16.679175797408888 56.9183
16.701713349928728 56.9286
16.72426913389191 57.1485
16.74680798922351 57.3042
16.76936507887444 57.3935
16.791905240734874 57.5598
16.814463639794468 57.1179
16.837022695210294 57.1892
16.859564824093756 57.6535
16.882125194503903 58.2874
16.904668639217885 59.2497
16.927230328348003 59.3563
16.949792678493612 59.4816
16.972338104193863 58.7076
16.994901778652235 58.1127
17.017448529496576 58.1723
17.040013531998152 58.3818
17.06257920018044 58.8036
17.0851279459922 59.8104
17.107694947817667 60.775
17.130245028099072 61.7194
17.15281336730298 63.3249
17.17536478578733 64.6556
17.19793446610687 65.8712
17.220504818648422 68.0622
17.243058251703697 70.1996
17.265629950971032 74.0019
17.288184731571736 77.8002
17.310757781306908 81.9032
17.33333150794385 85.0336
17.355888317140174 85.9677
17.37846339986244 83.3474
17.401021565958885 78.0122
17.42359800851343 72.3228
17.44617513265564 67.15899999999999
17.468735341390783 63.8624
17.491261035594565 62.1958
17.51396340099364 61.4731
17.536490463869136 61.5932
17.559018209820174 61.6104
17.58154663977963 61.8549
17.604251766089718 61.8086
17.626781572227713 61.922
17.64931206518155 62.2621
17.671843245885103 62.7401
17.69455114821572 63.1503
17.717083712612634 63.4068
17.739616967569667 63.6008
17.762150914021706 64.1645
17.78486160749854 64.1343
17.807396945166804 64.5259
17.829932977143503 65.4784
17.85246970436452 67.3548
17.875183204129467 69.6954
17.897721330097664 72.5249
17.920260154126645 75.7083
17.942799677153296 79.0289
17.9655159983646 81.6661
17.988056927677544 85.1709
18.010598558807683 90.2567
18.033140892692916 97.1722
18.05586005052525 105.15100000000001
18.07840379824407 114.84
18.10094825154059 125.68299999999999
18.12366954819864 136.82399999999998
18.146215420998306 142.763
18.16876200220057 141.89600000000002
18.191309292745153 132.27100000000002
18.214033452627167 118.751
18.236582170236648 103.845
18.259131600016456 93.6612
18.281681742907335 89.3643
18.304408781233683 90.3222
18.32696035875955 93.447
18.349512652227624 98.0016
18.372065662579683 103.837
18.394795594587553 107.664
18.41735004715306 107.652
18.43990521943684 103.95200000000001
18.46246111238171 96.1454
18.485193953325208 86.0447
18.507751296070428 77.1346
18.530309362314178 71.1211
18.552868153000343 67.3455
18.57560391815056 65.1491
18.59816416623245 64.558
18.620725141597372 64.1462
18.643286845190268 63.6493
18.666025549835414 63.1104
18.688588718427933 62.5591
18.711152618092243 62.4369
18.73389353884365 61.9798
18.75645890921984 61.6916
18.77902501351406 61.31
18.801591852673102 61.2215
18.824335739722738 60.7143
18.846904057212626 60.6719
18.8694731124168 60.1991
18.89204290628315 60.2669
18.914789774966803 60.0825
18.937361054791623 59.6146
18.959933076131318 59.33
18.982505839934877 59.428000000000004
19.00525570560582 59.6085
19.027829963004184 59.3335
19.05040496572238 59.5294
19.072980714710468 59.5256
19.095733592739563 59.4971
19.11831084296757 60.0385
19.140888842324735 60.9639
19.16346759176222 61.3875
19.18622349753803 61.9036
19.208803755869358 62.5985
19.231384767143577 63.1402
19.253966532312948 63.8496
19.276725481241822 65.3175
19.29930876296784 67.0236
19.3218928014549 69.4333
19.34465404436217 72.3847
19.36723960516257 75.4985
19.389825925592426 77.7074
19.412413006605938 78.5426
19.43517731967805 77.0612
19.457765930683355 73.4057
19.48035530514408 69.0375
19.50294544401556 64.6752
19.525712842708348 61.0296
19.54830451925909 58.7148
19.570896963095727 57.0373
19.593490175174704 56.4251
19.616260674962184 56.1546
19.638855432416964 55.7999
19.661450960992624 56.0782
19.68404726164677 55.8767
19.706820878021247 55.6318
19.729418731756834 55.8517
19.752017360452857 55.6953
19.77461676506804 55.9139
19.797393513540218 55.9447
19.819994478951667 56.3753
19.84259622316767 57.0089
19.8651987471481 57.5496
19.887978643247177 57.8055
19.91058273574792 58.3276
19.933187610901943 58.93899999999999
19.955969879466828 59.5912
19.97857632894404 60.4586
20.00118356396599 61.6319
20.023791585494575 63.1018
20.046577028914875 65.3605
20.069186632506966 67.4901
20.091797025500632 69.9325
20.114408208858933 71.6362
20.137196842715273 72.7248
20.159809615886765 72.29899999999999
20.18242318232135 70.0188
20.20503754298326 67.6107
20.227829382875154 65.5507
20.250445341109344 64.4396
20.27306209647285 64.0959
20.29567964993108 64.8488
20.31847471147704 65.708
20.34109387027612 66.9836
20.363713830075454 67.655
20.386334591841646 67.6129
20.409132890679302 65.578
20.431755265564437 62.6541
20.454378445325528 59.5549
20.477002430930366 57.0187
20.499803982716553 55.3558
20.522429589228004 54.2762
20.54505600449589 53.7644
20.567683229489194 53.3058
20.590488049900088 52.69
20.61311690359731 52.5698
20.63574656993626 52.2512
20.658553853717297 51.7667
20.681185154618298 51.7737
20.703817271080066 51.6811
20.72645020407368 51.2974
20.749260783967177 51.1461
20.771895359337133 51.1811
20.794530754161617 51.0431
20.817166969412938 50.9589
20.83998086114876 50.8994
20.86261872660049 50.957
20.885257415405402 50.7359
20.90789692853701 50.7669
20.930714147864748 50.6728
20.953355319030678 50.6885
20.97599731745334 50.8329
20.99864014410749 50.7118
21.021460706796564 50.6325
21.044105199328826 50.8107
21.06675052302631 51.1981
21.089396678865015 51.2278
21.112220600704806 51.4181
21.134868430275347 51.6486
21.15751709492456 51.8776
21.180166595629693 52.1682
21.202993892429635 52.6811
21.22564507473034 53.0506
21.24829709602816 53.2676
21.27112693608965 53.5566
21.293780644891275 53.7871
21.316435195634053 53.2226
21.339090589297417 52.7686
21.361923832041875 52.1956
21.384580921090404 51.3479
21.407238856007325 50.7254
21.429897637773326 50.6327
21.45273429906592 50.6837
21.475394784108598 50.4729
21.498056118951983 50.5568
21.520718304578022 50.8437
21.543558400304388 50.7519
21.566222297108816 50.9146
21.58888704765135 50.9295
21.61155265291521 51.3447
21.63439619898156 52.0398
21.657063523335786 52.3427
21.67973170537063 52.9544
21.7024007460706 53.4111
21.72524775840385 53.913999999999994
21.747918526116475 54.657
21.770590155457388 55.4233
21.79326264741238 56.5742
21.816113141960237 57.9369
21.838787368860547 59.5627
21.861462461341976 61.1208
21.884315579735777 63.2051
21.90699241312273 64.7783
21.92967011506078 66.2285
21.95234868653799 67.1662
21.9752053151131 66.9833
21.997885635446785 65.4854
22.020566828293532 63.5462
22.04324889464272 61.1608
22.066109049404666 59.1351
22.088792872571794 58.2822
22.111477572219204 57.9357
22.1341631493376 57.8711
22.157026846313123 58.001999999999995
22.179714188221507 57.9153
22.202402410582668 57.2877
22.22509151438863 56.0176
22.24795876962584 54.5106
22.270649646204486 53.4665
22.293341407213727 52.5948
22.316034053646906 51.7322
22.338904883215342 51.4604
22.36159931041458 51.2588
22.38429462602756 51.0874
22.40699083104897 50.7767
22.429865251039757 50.9004
22.452563244831367 51.0157
22.47526213102522 51.003
22.49813925616515 50.7589
22.520839937143307 50.6357
22.543541513520587 50.7055
22.56624398629403 50.5053
22.589124730075895 50.5502
22.611829005656723 50.7725
22.63453418063466 50.8011
22.657240256008077 51.013000000000005
22.680124634582935 51.2081
22.70283252079775 51.4695
22.725541310413075 51.9192
22.74825100442868 52.0166
22.771139033969575 52.5272
22.79385054687155 52.3662
22.81656296718292 52.8921
22.83927629590484 53.5975
22.862167992606945 54.4092
22.88488314827121 55.0816
22.907599215359284 55.8589
22.93031619487366 57.0214
22.953211574954405 57.8765
22.975930389478226 59.1737
22.998650119445763 59.8871
23.02137076586092 59.8659
23.044269845560063 59.3376
23.06699233506288 58.062
23.089715744034912 56.153999999999996
23.112617610931565 54.5087
23.135342869061212 52.9413
23.158069049684816 51.8649
23.1807961538087 51.0885
23.20370174880544 51.0205
23.226430710184808 51.0243
23.249160598093425 50.9423
23.271891413539002 51.0517
23.294800752937697 51.0368
23.31753343374794 51.2904
23.340267045128353 51.5201
23.36300158808808 51.7759
23.38591468821339 51.9706
23.408651104658304 52.2798
23.431388455719986 52.547
23.454126742409 53.1154
23.4770436196085 53.9194
23.499783787914662 54.7504
23.522524894889884 55.3932
23.54526694154616 56.4981
23.56818761219047 57.7076
23.59093154860734 58.5015
23.613676427751283 59.6557
23.636422250635754 59.7371
23.659346731118656 58.7566
23.68209445191868 57.3681
23.704843119509587 55.0594
23.72759273490623 52.9862
23.750521041644767 51.2203
23.77327256312355 49.9038
23.796025035462787 48.8837
23.818956224555475 48.2546
23.841710609113413 48.1577
23.86446594758979 47.9203
23.887222241002014 47.4918
23.910157285144578 47.1863
23.932915498962537 47.147
23.955674670778713 46.9669
23.978434801611975 46.872
24.001373717286125 46.5674
24.024135776723917 46.5119
24.046898798245582 46.5753
24.06966278287146 46.2747
24.092605586582614 46.1065
24.115371508023642 46.086999999999996
24.1381383956401 45.9889
24.16090625045381 46.0038
24.183852958731244 45.703
24.206622758582608 45.6725
24.229393528706886 45.4997
24.252165270127392 45.6515
24.27511589952438 45.4238
24.297889594216997 45.2974
24.32066426328598 45.2666
24.34343990775613 45.2361
24.36639447485003 45.0786
24.38917208083877 45.0415
24.41195066531332 45.065
24.43490819850244 44.9013
24.457688750692377 44.7441
24.48047028445616 44.6757
24.503252800821233 44.7399
24.526214300784112 44.7153
24.548998793132213 44.6848
24.57178427117417 44.4986
24.59457073593893 44.8271
24.617536219319863 44.6708
24.64032466834748 44.7371
24.663114107195035 44.5963
24.685904536893013 44.3639
24.708874020360852 44.3796
24.731666442613744 44.2158
24.754459858818787 44.1946
24.777254270007962 44.1232
24.80022777025625 44.1258
24.82302418230472 44.1109
24.845821592443674 44.0144
24.86862000170663 44.1507
24.891597535453727 43.8255
24.914397953892728 44.004
24.93719937456671 44.0009
24.96000179851076 44.0633
24.98298338249997 44.2696
25.00578782394922 44.4656
25.028593271784167 44.5293
25.05157790644186 44.8711
25.07438537804115 44.9334
25.097193859145293 45.0978
25.120003350792075 45.2246
25.142992065061257 45.7111
25.165803588823465 45.9295
25.18861612625217 46.1815
25.211429678386736 46.2575
25.234422489079968 46.4859
25.257238081693636 46.4428
25.280054692141732 46.4569
25.3028723214652 46.3499
25.325869245420463 46.4222
25.348688923599397 46.5012
25.371509623787006 46.4613
25.394331347025812 46.3559
25.41733240110666 46.2915
25.440156181590016 45.7153
25.46298098826268 45.2931
25.48580682216873 44.7847
25.50881202326435 44.0821
25.53163992281684 43.4387
25.55446885274561 43.1112
25.577298814096377 42.8018
25.600308179121807 42.6969
25.623140214533745 42.6948
25.64597328451537 42.5181
25.66898578564376 42.2172
25.691820936010206 42.2459
25.714657124097695 42.2573
25.737494350954734 42.3025
25.760511045684957 42.1099
25.783350361364224 42.2806
25.806190718969255 42.19
25.82903211955018 42.3336
25.852053024868923 42.3536
25.874896522722523 42.317
25.897741066713106 42.3629
25.920586657892454 42.376000000000005
25.943611790812668 42.4927
25.966459487728237 42.5611
25.989308234998564 42.4876
26.01215803367705 42.7721
26.03518741123814 42.9558
26.05803932412957 43.0142
26.080892291600094 42.8648
26.10374631470478 43.0496
26.12677995397268 43.4322
26.14963609978026 43.4658
26.172493304397875 43.2441
26.19535156888223 43.1693
26.218389486949604 42.7318
26.241249882640123 42.5277
26.26411134137826 42.2025
26.28715248187403 42.1053
26.31001607820869 42.0135
26.3328807407756 41.8402
26.35574647063438 41.9784
26.37879191991473 41.8098
26.401659795896734 41.8579
26.424528742360263 41.9064
26.447398760366614 42.0303
26.470448535598294 42.07899999999999
26.49332070826805 42.2777
26.516193955675355 42.5817
26.53906827888316 42.8338
26.562122397260108 42.7604
26.584998883685063 42.9977
26.607876449110325 43.3736
26.63075509460056 43.36600000000001
26.65381357334404 43.7243
26.67669439061878 43.6871
26.699576291163382 43.7268
26.722459276044212 43.7557
26.745522132402975 43.4984
26.768407297649354 43.3827
26.791293550442003 43.0467
26.814180891848974 42.5825
26.837248143099337 42.3659
26.860137673466657 42.2175
26.88302829566349 41.9296
26.90592001075963 41.8073
26.92899167420566 41.5988
26.951885586870763 41.292
26.974780595655517 41.0669
26.99785558178161 40.9957
27.020752794605112 40.8705
27.043651106772522 40.5777
27.06655051935668 40.5054
27.089629948036183 40.335
27.112531573292053 40.3313
27.135434302194138 40.415
27.158338135817015 40.2761
27.181422024430987 40.1504
27.204328079372566 40.0989
27.22723524226965 40.1665
27.250143514198573 40.1938
27.273231880156334 40.1416
27.296142382065014 40.0082
27.319053996245536 40.0322
27.341966723775965 40.0824
27.365059584515222 40.0872
27.38797455070062 40.0947
27.410890633481237 39.9759
27.433807833936918 39.9028
27.456905206923906 40.0075
27.47982465472398 39.9277
27.502745223449743 40.0201
27.525666914182825 40.1206
27.548768816912457 40.0969
27.571692763693633 40.198
27.59461783573812 39.8567
27.617723149491244 39.7071
27.640650484125285 39.8861
27.66357894728264 39.7961
27.686508540048052 39.7111
27.709618414237887 39.5428
27.732550278321757 39.5068
27.755483275279115 39.5345
27.778417406196485 39.4782
27.801531858397514 39.3906
27.824468269376716 39.342
27.847405817586786 39.5014
27.870344504116094 39.508
27.893463551932008 39.5146
27.916404527281053 39.7516
27.93934664422563 39.8064
27.962289903855886 39.8484
27.98541356491974 40.1555
28.00835912214229 40.205
28.03130582533231 40.2214
28.054253675581805 40.422
28.077381967556104 40.4556
28.100332124185126 40.5468
28.123283431160893 40.5406
28.146235889577238 40.4874
28.169368830154156 40.3195
28.192323603752033 40.0844
28.215279532083304 39.7554
28.238415973016764 39.5177
28.261374223145094 39.4673
28.284333631303806 39.205
28.307294198589954 39.2237
28.330435319167677 38.8802
28.353398217078915 38.6754
28.376362277420153 38.39
28.39932750129032 38.2155
28.422473319286713 38.109
28.44544088262495 38.1511
28.468409612800283 37.7948
28.491379510913497 37.5074
28.51453004413313 37.6446
28.53750229057244 37.5216
28.56047570826344 37.4768
28.583450298308804 37.4628
28.606605564586562 37.107
28.629582511831156 37.1797
28.65256063474956 37.1243
28.675539934446338 37.1093
28.698699951647605 37.1173
28.72168161743193 36.9249
28.74466446331978 37.0167
28.767648490417624 36.7885
28.790813276438353 36.9083
28.813799678527303 36.9033
28.836787265157085 36.9202
28.859955641890075 36.9671
28.882945610203045 36.8439
28.905936766392035 36.704
28.928929111566863 36.7147
28.952102288520145 36.6676
28.975097024308607 36.5491
28.998092952423807 36.5506
29.021090073977508 36.4849
29.04426806913204 36.3829
29.067267590245258 36.1952
29.090268308143695 36.1002
29.11327022394099 36.0424
29.13645305530891 36.0005
29.159457379627167 35.8505
29.18246290519685 35.8556
29.20546963313352 35.6838
29.22865731875826 35.6334
29.25166646419296 35.7149
29.27467681535305 35.5418
29.29768837335608 35.5733
29.320880931312562 35.6227
29.34389491580634 35.6115
29.366910110507334 35.5866
29.38992651653503 35.6245
29.41312396492981 35.5454
29.436142806456754 35.4545
29.45916286268059 35.378
29.48236399319994 35.412
29.50538649169417 35.2544
29.528410208259935 35.1988
29.55143514402014 35.0926
29.574641196749695 34.8585
29.597668583816574 34.7795
29.6206971934585 34.5903
29.64372702680042 34.5623
29.666938019934474 34.5621
29.689970313635285 34.4546
29.713003834422636 34.3591
29.73603858342347 34.2272
29.759254535188578 34.2281
29.78229175361658 34.1094
29.80533020365064 34.2195
29.82836988641968 34.251999999999995
29.85159081507472 34.216
29.874632976355343 34.0838
29.89767637376955 34.17
29.920721008448314 34.0103
29.9439469322847 34.027
29.96699405457564 33.9219
29.9900424175358 33.9067
30.013092022298157 33.8666
30.03632295963995 33.7937
30.059375061131373 33.8538
30.08242840783577 33.8022
30.105483000888153 33.7935
30.128718970092244 33.6738
30.151776069006917 33.7198
30.17483441768648 33.7345
30.198074175317235 33.6278
30.221135036724256 33.683
30.24419715131772 33.6432
30.267260520236203 33.5212
30.290505341942243 33.5754
30.313571232750228 33.7775
30.336638381310948 33.6892
30.35970678876503 33.555
30.38295669299435 33.4968
30.40602763151657 33.5424
30.429099832366074 33.5382
30.452173296685572 33.4322
30.47542830191959 33.4275
30.498504306502497 33.3569
30.521581577995562 33.4086
30.544660117543582 33.4797
30.56792024229725 33.3697
30.59100133132069 33.3024
30.614083691845494 33.3913
30.637167325018545 33.4287
30.660432587840603 33.4762
30.683518779717886 33.3257
30.70660624769615 33.5864
30.729694992924372 33.6029
30.75296541239743 33.5989
30.77605672557558 33.4421
30.799149319462742 33.4299
30.8224236211637 33.3301
30.845518789950724 33.2927
30.868615242910597 33.2257
30.891712981195973 32.9909
30.91499247215866 32.9893
30.938092794619365 33.0083
30.96119440587579 32.8024
30.984297307082752 32.605
31.00758200598383 32.5712
31.030687500658694 32.5063
31.053794288760695 32.4292
31.076902371446767 32.3447
31.100192296997445 32.3466
31.12330298246119 32.4435
31.14641496599209 32.2014
31.169528248749216 32.3114
31.19282341969534 32.1997
31.215939314557186 32.1537
31.239056512134788 32.2559
31.262175013589378 32.1693
31.28547544871168 32.1272
31.30859657161541 31.9719
31.331719001892175 32.1461
31.35484274070538 32.207
31.378148458819545 32.0691
31.401274828443725 32.1794
31.424402510106933 32.1796
31.447712205419993 32.169000000000004
31.470842524931633 32.0391
31.493974159989783 32.016999999999996
31.51710711176168 32.0844
31.54042212308802 32.0372
31.563557722100917 32.0273
31.586694641341655 31.9173
31.609832881979628 31.8213
31.63315322823208 31.7848
31.656294125521327 31.7209
31.679436347728515 31.5697
31.70257989602529 31.5374
31.725905596152327 31.3918
31.74905181052835 31.3616
31.772199354521323 31.4999
31.79534822930507 31.4624
31.818679302290967 31.3411
31.84183085259981 31.3003
31.864983737233473 31.2244
31.88813795736804 31.4068
31.911474422233013 31.1526
31.934631327356435 31.3015
31.9577895715215 31.2855
31.980949155906522 31.2898
32.004291031706956 31.2187
32.027453310562606 31.212
32.05061693318573 31.0459
32.07396288236386 31.0868
32.09712920658542 31.0061
32.12029687812702 30.8952
32.14346589817093 30.8504
32.166817291729984 30.8795
32.18998902288583 30.7642
32.21316210610336 30.5806
32.23633654256711 30.4051
32.259693399663725 30.511
32.282870556771144 30.3724
32.30604907069099 30.3651
32.329228942610065 30.3059
32.35259128243769 30.1989
32.375773884550505 30.162
32.398957848235646 30.1653
32.422143174682176 30.0534
32.445511016471215 29.9668
32.468699082679954 29.927
32.49188851523011 29.8606
32.51507931531304 29.9008
32.538452678331 29.8146
32.56164622776311 29.7072
32.58484114831493 29.7272
32.60803744118015 29.6989
32.631416344731896 29.6093
32.654615396551876 29.6293
32.67781582427913 29.5836
32.701198898634416 29.4819
32.72440209253756 29.468000000000004
32.747606665947124 29.4643
32.77081262006088 29.2771
32.79420126883317 29.2872
32.81740999876112 29.3046
32.840620112999424 29.1918
32.86383161274818 29.0652
32.88722585534586 29.2128
32.91044014056596 29.1703
32.933655814909734 29.1701
32.95687287957963 29.2021
32.98027273544904 28.9994
33.00349259526636 28.9708
33.026713849030116 29.1547
33.04993649794511 29.028000000000002
33.073341986570746 28.9495
33.09656744032826 28.9033
33.11979429286444 28.9279
33.14302254538647 28.8947
33.166433686291185 28.9058
33.18966475336992 28.7963
33.212897224069096 28.6225
33.23613109959831 28.68
33.259547912343415 28.6789
33.2827846121627 28.7643
33.306022720453775 28.5987
33.32926223842861 28.4809
33.352684742614166 28.5555
33.37592709463173 28.5893
33.399170859982064 28.453000000000003
33.422597648419426 28.3549
33.44584425514446 28.298000000000002
33.46909227885668 28.2679
33.4923417207723 28.1884
33.51577423505344 28.1613
33.539026528130385 28.1599
33.56228024307245 28.0831
33.585535381098246 27.8044
33.60897364093058 27.9079
33.63223163992385 27.8908
33.6554910656699 27.7716
33.678751919389796 27.7728
33.702195944520106 27.6184
33.72545966903325 27.7221
33.74872482519663 27.6509
33.771991414233746 27.5718
33.79544122444841 27.5912
33.81871069412428 27.4882
33.84198160035767 27.4553
33.86525394437455 27.4768
33.88870955949969 27.3954
33.911984794020626 27.4716
33.93526147001624 27.4235
33.958539588715006 27.3269
33.98200102861669 27.331
34.0052820477047 27.256
34.02856451319451 27.2151
34.05203033759056 27.1304
34.07531571090147 27.1207
34.09860253431845 27.057
34.121890809074316 26.959
34.145362493118924 27.0055
34.16865368561615 26.9017
34.191946333164054 26.8714
34.21524043699793 26.8436
34.23871800066799 26.8889
34.26201503218366 26.6302
34.28531352370466 26.6187
34.30861347646881 26.5912
34.33209693978188 26.5936
34.3553998301885 26.5635
34.378704185565205 26.508000000000003
34.402010007152356 26.4778
34.42549939016683 26.5065
34.44880815937748 26.3595
34.472118398533134 26.3849
34.49543010887669 26.2697
34.51892543169198 26.256
34.54224009966052 26.2843
34.56555624255917 26.2749
34.58887386163339 26.1912
34.61237514439016 25.9837
34.6356957311114 26.0143
34.65901779775809 26.0592
34.68252356662995 25.9816
34.705848608458616 25.913
34.72917513396849 25.8086
34.75250314440949 25.7686
34.77601490857862 25.7009
34.799345904259795 25.6399
34.82267838863559 25.6797
34.846012362958525 25.7621
34.869530142679984 25.679000000000002
34.89286711232212 25.5769
34.91620557568269 25.6327
34.93954553401677 25.6115
34.9630693495876 25.5029
34.986412313340814 25.5789
35.00975677584668 25.5106
35.033102738362956 25.4549
35.05663261012228 25.4641
35.0799815881786 25.4922
35.10333207003229 25.3051
35.12668405694369 25.3246
35.150220005273056 25.2474
35.17357501786656 25.2738
35.19693153931268 25.2524
35.220289570874385 25.1573
35.24383161619786 25.1376
35.267192683604904 25.1744
35.290555264930376 25.0709
35.314101899412165 25.0859
35.33746752422433 25.0036
35.36083466676374 25.0193
35.38420332829803 24.9579
35.407756095629054 25.0104
35.43112781085063 24.9143
35.45450104888391 24.901999999999997
35.477875810999194 24.9199
35.50143473172161 24.7954
35.52481255774625 24.8225
35.54819191167777 24.7559
35.57157279478914 24.723000000000003
35.595137889488406 24.7516
35.61852184675279 24.6882
35.641907337029984 24.6683
35.665294361595684 24.6878
35.68886565090076 24.5567
35.7122557598848 24.491
35.73564740699838 24.469
35.759040593519934 24.4037
35.78261809810353 24.4229
35.80601437933051 24.2536
35.829412203814705 24.2875
35.85281157283719 24.2345
35.876395313415884 24.2849
35.8997977874528 24.1407
35.92320180988546 24.0393
35.946790244133936 24.0679
35.97019737933222 24.0312
35.993606066789866 24.0663
36.01701630779276 24.0094
36.04061101440684 23.8985
36.06402437852291 23.9329
36.08743930005611 23.8823
36.1108557802951 23.8498
36.13445678011326 23.8662
36.15787639383515 23.7786
36.18129757014299 23.7342
36.20472031032821 23.7432
36.22832762423364 23.6131
36.25175350829375 23.5872
36.275180960119776 23.6144
36.298609981005924 23.6532
36.32222362992669 23.646
36.34565580510207 23.5015
36.36908955323448 23.4163
36.39252487562093 23.3621
36.416144880530226 23.3811
36.43958336764275 23.432
36.463023432914625 23.3649
36.486465077645676 23.2546
36.51009145956204 23.3281
36.53353627947859 23.3136
36.55698268276811 23.3442
36.58043067073321 23.1662
36.60406345072071 23.129
36.62751462435344 23.0835
36.65096738658405 23.1106
36.67460498210655 23.0873
36.69806093788647 23.0536
36.72151848619297 22.9249
36.744977628333636 22.956
36.76862165890998 22.9144
36.79208400512205 22.9436
36.81554794910557 22.8711
36.83901349217101 22.7394
36.862663978991606 22.7478
36.88613273667352 22.7356
36.90960309738324 22.7655
36.933075062434064 22.66
36.95673202673572 22.6876
36.98020721697122 22.5878
37.003684015502365 22.5742
37.027162423645365 22.4998
37.050825886711465 22.5607
37.07430753063053 22.392
37.09779078812467 22.3451
37.121275660513014 22.3017
37.144945643673694 22.2476
37.16843376245278 22.3034
37.19192350009803 22.2993
37.215414857931435 22.2016
37.239091382563885 22.0995
37.262585997426164 22.1204
37.28608223645736 22.1248
37.309763684451696 22.0844
37.33326318851098 22.0891
37.356764320726555 22.0164
37.380267082425526 22.0092
37.40395510942588 21.9651
37.42746114683234 21.9288
37.45096881771841 21.8685
37.474478123414166 21.9545
37.49817275092816 21.8759
37.52168534303452 21.824
37.54519957395567 21.7351
37.568715445024665 21.7063
37.592416694607714 21.6417
37.61593586281424 21.6646
37.63945667518264 21.6695
37.66297913304891 21.5343
37.68668702630454 21.5766
37.710212792059274 21.4929
37.733740207334854 21.4637
37.757269273470364 21.4441
37.780983832050374 21.3564
37.80451621684926 21.428
37.82805025654007 21.3566
37.851585952464795 21.268
37.8753071980695 21.3152
37.89884622345676 21.1196
37.92238690911902 21.1234
37.94611318753442 21.1655
37.969657210779765 21.1427
37.99320289834801 21.058000000000003
38.016750251586465 21.0728
38.04048325513017 21.0341
38.06403395679343 20.9581
38.087586328183946 20.9775
38.11114037065203 20.9417
38.13488012115898 20.9634
38.1584375229181 20.8127
38.181996599821 20.7934
38.205557353221124 20.776
38.229303872575656 20.7256
38.2528679961576 20.6821
38.27643380031219 20.6562
38.30000128639589 20.7473
38.32375459653193 20.7222
38.34732546371299 20.6209
38.37089801690786 20.572
38.39447225747609 20.4916
38.418232380377425 20.4798
38.441810012983396 20.4879
38.46538933705673 20.4211
38.488970353960084 20.4624
38.51273731166058 20.3963
38.536321731567014 20.2799
38.55990784840681 20.2521
38.58367995004091 20.2409
38.60726947812959 20.2075
38.63086070726198 20.1869
38.654453638806274 20.2191
38.678232613930824 20.1325
38.70182896773327 20.1216
38.72542702806741 20.0494
38.7490267963045 20.0737
38.77281266709232 19.9633
38.79641586862214 20.0539
38.8200207821842 19.8957
38.843627409152944 19.9328
38.86742019782782 19.8926
38.891030269149255 19.8518
38.914642058016156 19.8665
38.938255565806124 19.8074
38.96205529464307 19.7746
38.98567225787121 19.7399
39.00929094417078 19.758
39.03291135492255 19.7367
39.05671804624804 19.6903
39.080341923549106 19.6918
39.103967529460334 19.5735
39.127594865365744 19.5307
39.15140854155791 19.4618
39.17503935514948 19.5011
39.19867190290282 19.453
39.22249083587951 19.4363
39.24612686969409 19.3756
39.269764641845306 19.3676
39.293404153722804 19.3676
39.317230110864074 19.2938
39.34087311998506 19.2274
39.36451787301696 19.1976
39.388164371352595 19.0953
39.41199737518003 19.1224
39.43564738196752 19.1865
39.45929913825317 19.1556
39.48295264543308 19.0716
39.506792718520884 19.0624
39.530449745387216 19.0021
39.55410852735203 18.9976
39.57776906581474 18.9732
39.60161623079 18.9359
39.625280300200025 18.9126
39.64894613032202 18.8598
39.67261372255866 18.8308
39.6964680021016 18.7889
39.72013913657293 18.7891
39.74381203738292 18.7577
39.76748670593756 18.8036
39.79134812278169 18.6869
39.81502634488497 18.6302
39.83870633896685 18.61
39.862388106436654 18.5876
39.88625668336918 18.5282
39.90994201572829 18.5894
39.933629125719285 18.468
39.957503091207826 18.4322
39.9811937746168 18.4556
40.00488623990914 18.4517
40.02858048850006 18.4519
40.05246165409549 18.38
40.076159487492085 18.315
40.099859108448875 18.3457
40.123560518384345 18.3021
40.1474489070226 18.3002
40.171153913178564 18.1933
40.194860712584955 18.1887
40.2185693066637 18.1849
40.242464941335314 18.1076
40.26617714307655 18.1181
40.289891143772046 18.0938
40.3136069448471 18.0079
40.33750984859743 18.0314
40.3612292688043 18.0227
40.3849504936829 18.022000000000002
40.40867352466194 17.9728
40.43258372059144 17.8863
40.45631038219906 17.8704
40.48003885420956 17.8029
40.503769138055105 17.7993
40.52768664931955 17.7962
40.55142057531802 17.8256
40.57515631746428 17.7497
40.599079334038514 17.7176
40.62281872700477 17.6873
40.64655994043941 17.6626
40.67030297578061 17.5984
40.69423334835778 17.5877
40.71798004609188 17.5986
40.74172857006355 17.5804
40.76547892171441 17.548
40.7894166736039 17.500999999999998
40.813170699248566 17.4813
40.83692655691388 17.3574
40.86068424804498 17.4076
40.884629402612525 17.4237
40.908390779366385 17.3688
40.932153993938 17.3125
40.95591904777605 17.2914
40.979871628443995 17.2716
41.003640379561936 17.3145
41.02741097430883 17.2463
41.05118341413683 17.1932
41.075143444384416 17.1826
41.098919593177826 17.1757
41.1226975914255 17.1257
41.14647744058318 17.0848
41.170444943946755 17.005
41.19422851378379 17.0288
41.218013938914645 17.0234
41.24198706625173 16.9726
41.26577622087193 16.9179
41.289567235177785 16.9014
41.31336011063129 16.9067
41.337340752422875 16.8403
41.361137369129835 16.789
41.38493585138705 16.7515
41.40873620066004 16.7284
41.43272438060107 16.7323
41.45652848292052 16.744
41.48033445666918 16.6311
41.50414230331616 16.6702
41.528138045159764 16.598
41.551949656675205 16.5463
41.575763145513235 16.5082
41.59957851314666 16.4927
41.62358184070442 16.4581
41.64740098505737 16.4973
41.6712220126409 16.4529
41.69504492493139 16.4067
41.71905586207357 16.329
41.74288256296395 16.3763
41.766711153007456 16.3605
41.79054163368412 16.3386
41.814560204340054 16.2879
41.838394485526365 16.3046
41.86223066180303 16.2684
41.88625497706819 16.2348
41.910094962812 16.2051
41.93393684811168 16.1583
41.95778063445365 16.0838
41.981812625263366 16.0838
42.00566023303407 16.0581
42.029509746323676 15.975
42.05336116662236 16.0192
42.077400857069705 15.9735
42.10125611078846 16.0013
42.12511327600405 15.9463
42.14897235421036 15.9258
42.173019768448455 15.8613
42.19688269209613 15.8491
42.22074753323349 15.8567
42.24461429335818 15.7711
42.268669455600495 15.7957
42.292540073217886 15.7563
42.31641261433284 15.7724
42.34028708044675 15.745
42.36435001496739 15.7341
42.38822835065557 15.683
42.41210861586426 15.5824
42.4359908120986 15.5945
42.46006154323262 15.5378
42.48394762115317 15.5059
42.507835634632315 15.5397
42.531912233047436 15.5433
42.55580413732265 15.4314
42.579697981698 15.4032
42.60359376768525 15.4055
42.62767820545945 15.4129
42.65157789440821 15.3864
42.67547952952185 15.3193
42.699383112316 15.3454
42.72347541395347 15.2426
42.74738291190531 15.2649
42.771292362102166 15.2365
42.795203766063516 15.1883
42.819303956130405 15.1642
42.843219287476536 15.1536
42.86713657716324 15.1508
42.89105582671383 15.1311
42.91516392983864 15.0711
42.939087119032166 15.0122
42.963012272677304 14.9714
42.98693939230129 14.9839
43.01105543317513 14.9822
43.034986504731386 14.9309
43.05891954686589 14.9262
43.08285456110972 14.998
43.10697856448665 14.8757
43.130917542983475 14.7977
43.15485849820081 14.831
43.17880143167367 14.8108
43.20293342237094 14.7254
43.226880332449 14.6796
43.25082922540554 14.767999999999999
43.27496722682525 14.7242
43.29892010567796 14.6613
43.32287497204102 14.6356
43.34683182745632 14.6243
43.370977859791836 14.5843
43.39493871351105 14.5135
43.41890156092628 14.5229
43.44286640358341 14.5198
43.46702049182749 14.535
43.49098934522816 14.485
43.51496019852649 14.4657
43.5389330532723 14.3806
43.56309522248204 14.4054
43.58707210044314 14.364
43.61105098451946 14.3123
43.63503187626491 14.2846
43.659202151562134 14.2729
43.68318707902681 14.2249
43.70717401884041 14.2551
43.731162972560874 14.2111
43.75534137913236 14.1746
43.779334381108384 14.1917
43.803329401683186 14.1398
43.82732644241872 14.0918
43.8515130055166 14.052999999999999
43.87551410707659 14.072000000000001
43.89951723350145 14.0852
43.923709934595614 14.0429
43.94771713129917 14.0245
43.97172635758096 13.9647
43.99573761501002 13.9325
44.0199385169922 13.937000000000001
44.04395385732619 13.8631
44.067971233533086 13.8473
44.09199064718605 13.8402
44.11619977548961 13.8102
44.14022328470671 13.7304
44.16424883610785 13.7795
44.18827643127035 13.7706
44.21249381139513 13.757
44.236525514814076 13.6817
44.26055926674478 13.6723
44.28459506876863 13.6696
44.3088207262813 13.5897
44.33286064928722 13.5692
44.35690262714919 13.5505
44.38094666145278 13.5204
44.4051806219871 13.5573
44.42922879003185 13.5085
44.45327901929361 13.4854
44.477331311362136 13.4839
44.501573600619416 13.4138
44.525630039221795 13.3928
44.54968854541895 13.3652
44.573937102200176 13.3474
44.5979997645541 13.3467
44.622064499300315 13.3379
44.64613130803592 13.2534
44.67038823869318 13.2535
44.69445921643748 13.215
44.718532272981385 13.1947
44.742607409926194 13.2289
44.76687274034801 13.1403
44.79095205918753 13.1265
44.81503346325094 13.1228
44.839116954143876 13.0906
44.86339071028742 13.0595
44.88747839599524 13.091
44.91156817336837 13.0321
44.93566004401666 13.0333
44.959942251908146 12.9701
44.984038330325966 12.9628
45.00813650686762 12.9513
45.03223678314731 12.9716
45.05652746888232 12.8831
45.08063196592069 12.8691
45.104738567558705 12.8348
45.128847275414856 12.8384
45.15314646515866 12.7971
45.17725940679741 12.8046
45.20137445952892 12.8024
45.22568004865265 12.7356
45.24979934496396 12.7439
45.27392075725247 12.7293
45.29804428714431 12.6729
45.322358426247604 12.6485
45.346486212804315 12.657
45.370616121861914 12.6106
45.39474815505086 12.595999999999998
45.41907087049246 12.5603
45.4432071734666 12.5299
45.46734560548283 12.5653
45.49148616817604 12.5579
45.51581748638564 12.4824
45.5399623320197 12.4266
45.56410931325473 12.4489
45.58825843173002 12.4392
45.61259837920865 12.3812
45.636751793816 12.3737
45.66090735060093 12.3522
45.68506505120716 12.3016
45.7094136545275 12.2865
45.73357566449271 12.2927
45.75773982322992 12.2371
45.78190613238733 12.2391
45.806263418194064 12.18
45.83043404997326 12.190999999999999
45.85460683713677 12.2277
45.87897065658495 12.1826
45.90314777634752 12.0924
45.92732705646868 12.1067
45.9515084986045 12.1173
45.97588104735473 12.0515
46.00006683541565 12.0478
46.02425479047904 12.0099
46.04844491420549 12.0316
46.0728262191024 12.0017
46.09702070211635 11.9454
46.12121735879483 11.9295
46.14541619080294 11.9219
46.169806278764455 11.8952
46.194009483459034 11.8978
46.21821486849841 11.8784
46.24242243555223 11.8545
46.266821333570014 11.8358
46.29103328674601 11.7655
46.31524742696538 11.7828
46.33946375590237 11.6972
46.36387149104216 11.6982
46.38809221957392 11.6764
46.41231514186606 11.6913
46.436540259597464 11.6628
46.460956858999374 11.6569
46.48518638983522 11.6356
46.509418121166966 11.5654
46.533652054678114 11.5348
46.55807754555709 11.4801
46.58231590571962 11.5051
46.60655647313217 11.495
46.630988654873654 11.4571
46.655233659129024 11.4202
46.67948087571551 11.448
46.70373030632484 11.4587
46.72817142736393 11.44
46.752425308428684 11.4177
46.77668140861147 11.3852
46.80093972960865 11.2825
46.82538981736788 11.304
46.849652602470904 11.3129
46.87391761349769 11.2664
46.8981848521493 11.2655
46.9226439341274 11.2589
46.946915650573224 11.2134
46.97118959976749 11.203
46.99546578341598 11.1237
47.019933887188216 11.1505
47.04421456235744 11.1271
47.06849747711879 11.0985
47.09278263318286 11.0771
47.11725978640143 11.0689
47.14154944775105 11.0772
47.165841355555656 11.0079
47.1901355115306 11.0184
47.214621741924994 10.9971
47.23892041698887 10.9578
47.26322134538975 10.9176
47.28771440635075 10.911
47.31201986422527 10.9012
47.33632758061436 10.8491
47.360637557241866 10.8361
47.38513974410611 10.8651
47.40945426407847 10.8143
47.43377104948137 10.7656
47.45809010204344 10.8026
47.48260144275502 10.7767
47.506925052572285 10.7576
47.53125093475548 10.7009
47.55557909103813 10.6634
47.58009961361992 10.634
47.60443234110732 10.6028
47.62876734791564 10.6338
47.65310463578333 10.6296
47.6776343683373 10.5926
47.7019762413987 10.5876
47.72632040075572 10.5612
47.75066684815169 10.5707
47.77520581885936 10.5222
47.799556865477655 10.4627
47.823910205386 10.4891
47.84826584033272 10.4589
47.87281407745551 10.4219
47.89717432569297 10.4184
47.92153687423484 10.4286
47.94609208429692 10.4166
47.97045925671401 10.3886
47.99482873471275 10.3402
48.01920052005013 10.3315
48.04376504619224 10.3063
48.068141469543484 10.3352
48.09252020552573 10.2928
48.11690125590099 10.2884
48.1414751266064 10.2415
48.16586082917454 10.218
48.19024885144316 10.1967
48.2146391951793 10.1844
48.239222439012764 10.2167
48.26361744916137 10.1945
48.28801478610016 10.1451
48.31241445160131 10.1357
48.337007097209366 10.1237
48.36141144338331 10.1123
48.38581812345755 10.0445
48.41022713920929 10.1023
48.434829215320704 10.0556
48.45924292604658 10.0104
48.48365897780325 10.0054
48.50807737237308 9.98265
48.532688907799276 10.0024
48.55711201168574 9.92585
48.581537463754074 9.89617
48.60615611725119 9.907860000000001
48.63058628942721 9.899510000000001
48.65501881516546 9.84826
48.6794536962573 9.8339
48.70408185970339 9.80696
48.72852147531801 9.81204
48.75296345168211 9.7994
48.77740779059232 9.80825
48.80204549302823 9.80533
48.82649458091802 9.74616
48.85094603676547 9.7128
48.87539986237231 9.69314
48.90004713292306 9.7003
48.92450572200832 9.65413
48.94896668628025 9.64918
48.97343002754588 9.63897
48.99808689542115 9.63476
49.02255501470614 9.59108
49.04702551642794 9.56152
49.0714984023988 9.56937
49.096164896893235 9.523589999999999
49.120642575466796 9.49145
49.145122643748394 9.50389
49.16960510355558 9.46435
49.19428125404938 9.42794
49.2187685210852 9.44197
49.243258185121555 9.44905
49.26794160167084 9.42089
49.2924360839405 9.36303
49.31693296869764 9.37086
49.34143225776915 9.363430000000001
49.36612538195438 9.324
49.39062950396021 9.30382
49.41513603578346 9.28501
49.4396449792564 9.29128
49.46434784069503 9.26486
49.488861631846454 9.23152
49.513377840166804 9.1953
49.537896467493745 9.21347
49.56260909589029 9.17666
49.587132585683285 9.17222
49.611658500018365 9.15413
49.636186840738596 9.12236
49.66090926588511 9.141119999999999
49.685442483902584 9.09521
49.70997813385706 9.054260000000001
49.734516217597076 9.07205
49.75924846937352 9.09108
49.7837914452858 9.02996
49.80833686055187 8.975389999999999
49.83288471702571 9.0011
49.85762682540054 8.98248
49.882179588965734 8.955039999999999
49.9067347993235 8.958910000000001
49.93129245833333 8.93549
49.95604445336378 8.930860000000001
49.98060703442832 8.88088
50.005172069746266 8.90272
50.02993150438364 8.87138
50.05450147301533 8.8633
50.07907390151433 8.846039999999999
50.10364879174981 8.79747
50.12841816587289 8.80828
50.1529980044635 8.758989999999999
50.17758031042124 8.75757
50.20216508562089 8.72968
50.22694442953363 8.702639999999999
50.25153416817468 8.64811
50.27612638170508 8.66613
50.300721072005196 8.674489999999999
50.325510416102105 8.656080000000001
50.350110084975064 8.64485
50.37471223628208 8.63758
50.39931687190919 8.63922
50.424116246675766 8.606630000000001
50.44872587605249 8.582930000000001
50.47333799543065 8.56462
50.49795260670191 8.52905
50.52276204271512 8.51577
50.54738166295838 8.51177
50.57200378079314 8.47105
50.596628398116835 8.4611
50.62144792604559 8.46513
50.646077567609396 8.42342
50.670709714377715 8.40821
50.69553683636198 8.398019999999999
50.72017401885922 8.38233
50.7448137122895 8.39175
50.76945591856022 8.36133
50.79429318636823 8.355960000000001
50.818940443716784 8.34243
50.84359021965163 8.31778
50.868242516085964 8.30511
50.893089960641895 8.28166
50.917747323549435 8.234689999999999
50.94240721271973 8.23627
50.96706963007175 8.20236
50.99192728239342 8.20277
51.01659478166073 8.2067
51.04126481489051 8.21035
51.06593738400761 8.17107
51.090805275207074 8.13689
51.11548294172845 8.13085
51.14016314993547 8.087639999999999
51.164845901758845 8.07882
51.18972406304274 8.10268
51.21441192780656 8.05362
51.23910234200271 8.08157
51.2637953075678 8.03653
51.288683770237945 8.01021
51.31338186432707 8.041910000000001
51.33808251561888 7.96368
51.362978729967345 7.9981800000000005
51.387684521509755 7.924869999999999
51.41239287610203 7.94085
51.437103795691165 7.89887
51.46201036644977 7.88013
51.486726441956634 7.89023
51.51144508832545 7.864610000000001
51.536166307509156 7.8556
51.56108326624387 7.84612
51.58580965706056 7.834160000000001
51.61053862657523 7.864539999999999
51.635270176746864 7.7765
51.66019755512065 7.75254
51.68493429268881 7.74302
51.70967361681515 7.74015
51.73441552946465 7.69349
51.759353359237934 7.705439999999999
51.7841004750961 7.681769999999999
51.80885018539685 7.65103
51.833602492111254 7.619839999999999
51.8585508051424 7.6395
51.883308330926425 7.661980000000001
51.90806845906181 7.622000000000001
51.932831191525715 7.5812100000000004
51.95779001977161 7.57338
51.98255798721516 7.51167
52.00732856494335 7.537910000000001
52.03229530577543 7.51917
52.057071130455945 7.50933
52.081849571391054 7.48712
52.106630630568695 7.497560000000001
52.13160794279417 7.45598
52.15639426492067 7.468710000000001
52.18118321127822 7.4588399999999995
52.205974783860896 7.41712
52.23096269971011 7.423960000000001
52.255759551287994 7.40429
52.280559035098186 7.38852
52.30536115314103 7.37943
52.33035970494467 7.38041
52.35516711807904 7.33091
52.37997717147198 7.315910000000001
52.40478986713005 7.30612
52.42979908731974 7.280989999999999
52.454617094216 7.280239999999999
52.47943774942214 7.27353
52.50426105495102 7.236000000000001
52.529280976059844 7.203589999999999
52.554109609024096 7.23733
52.57894089837482 7.165019999999999
52.60377484613117 7.14986
52.62880550079408 7.153510000000001
52.65364479223379 7.13868
52.67848674816189 7.09864
52.70352547971946 7.111860000000001
52.72837279155837 7.1124600000000004
52.753222773982785 7.080489999999999
52.778075429022984 7.07105
52.80312495150885 7.037489999999999
52.827982978797436 7.02215
52.85284368481815 7.02503
52.87770707160767 7.001580000000001
52.90276741793998 6.96391
52.92763619336701 6.96701
52.952507655698504 6.9863
52.977381806977576 7.00727
53.00245301017842 6.99602
53.02733256653592 6.963769999999999
53.052214817996074 6.9539
53.077099766608484 6.886430000000001
53.102181859804446 6.88311
53.127072229988265 6.87795
53.15196530349892 6.8372399999999995
53.17686108239249 6.826389999999999
53.20195409881522 6.8219199999999995
53.22685531582556 6.80093
53.25175924441303 6.79438
53.27666588664027 6.7655
53.30176985962693 6.73445
53.3266819565689 6.71426
53.35159677336455 6.786510000000001
53.376514312083096 6.73885
53.40162927507703 6.71024
53.42655228516116 6.70632
53.45147802340193 6.696910000000001
53.47660125628886 6.68075
53.50153247842639 6.65045
53.52646643496923 6.6254800000000005
53.55140312799818 6.61326
53.576537409691696 6.58082
53.60147960336152 6.59138
53.626424539786164 6.55227
53.65137222105307 6.55434
53.67651758529126 6.57085
53.70147078399681 6.53266
53.72642673383343 6.57015
53.75138543689533 6.50111
53.776541917524526 6.4873199999999995
53.801506154876755 6.49861
53.826473151763246 6.45929
53.851442910284916 6.44689
53.87661054126026 6.447430000000001
53.9015858509782 6.44946
53.92656392866066 6.44729
53.95154477641532 6.39909
53.976723591801296 6.36568
54.00171000771266 6.4054199999999994
54.02669920004598 6.3884
54.051691170915745 6.3312
54.076881204886796 6.29075
54.101878760928514 6.30131
54.12687910187696 6.27021
54.152077577768296 6.27292
54.1770835166946 6.24373
54.20209224691339 6.23963
54.22710377055121 6.21255
54.25231352511594 6.2099400000000005
54.27733066384342 6.18609
54.30235060239643 6.19935
54.32737334290836 6.16289
54.35259441062629 6.09406
54.377622783395324 6.1264199999999995
54.40265396455061 6.129
54.42768795623251 6.118119999999999
54.45292037169559 6.07736
54.477960012857906 6.047969999999999
54.50300247099511 6.0159199999999995
54.52804774825457 5.9743
54.55329154616743 5.94053
54.57834249018678 6.00074
54.6033962597977 5.93206
54.6284528571545 5.92517
54.653708072335164 5.88501
54.67877035378786 5.87385
54.70383546947698 5.86201
54.72890342156389 5.82852
54.7541700889442 5.83739
54.77924374251975 5.81374
54.8043202390049 5.774380000000001
54.82959552413022 5.71465
54.8546777351945 5.78405
54.87976279569621 5.7313
54.90485070780914 5.73545
54.930137506558005 5.65674
54.95523115074295 5.66253
54.98032765308844 5.65285
55.005427015775496 5.62435
55.03072536339621 5.60954
55.05583047570572 5.62234
55.080938454927676 5.60933
55.10604930325027 5.58899
55.131359235107396 5.549180000000001
55.15647585066083 5.489380000000001
55.181595341907496 5.48345
55.20671771104285 5.46499
55.232039262617704 5.4207
55.25716741665048 5.40954
55.28229845518636 5.359719999999999
55.30743238042802 5.30816
55.33276558731939 5.35936
55.357905315183636 5.31709
55.383047936390035 5.32556
55.40819345314859 5.23795
55.433538351073295 5.27503
55.458689688238415 5.212219999999999
55.483843927614096 5.1608
55.509197623043605 5.1964
55.53435769621134 5.14614
55.55952067826466 5.08827
55.5846865714265 5.10697
55.61005202069737 5.11685
55.63522376553902 5.09676
55.66039842818645 5.00903
55.68557601087004 4.977609999999999
55.7109532500271 4.91855
55.73613670233794 4.929069999999999
