TT I
1.2716486653135266 9.02559
1.2939594142134223 8.73167
1.3162702121660406 7.9816199999999995
1.3385810600174564 7.972180000000001
1.3608919586137629 8.180530000000001
1.383202908801069 7.3344
1.405513911425503 7.33454
1.4278249673332093 8.0924
1.4501343378461518 7.775710000000001
1.4724455028545926 7.4984
1.4947567236847858 7.89186
1.517068001182951 7.10751
1.5393793361953272 6.777880000000001
1.5616907295681737 7.24592
1.5840021821477681 6.54049
1.60631369478041 6.48966
1.6286252683124185 6.14023
1.6509369035901333 6.20176
1.6732468618895553 6.16098
1.695558623192809 5.575130000000001
1.7178704487808514 6.4379800000000005
1.7401823395001077 5.86721
1.7625012545597203 6.54197
1.7848028405262486 6.1197
1.8071218901122095 5.49105
1.8294236121921872 5.51716
1.8517427996910911 5.940519999999999
1.8740620574440425 5.44741
1.8963639900671978 5.343380000000001
1.9186833908139995 5.7615
1.9409854680117449 5.8962900000000005
1.9633050151394713 5.49407
1.9856246367570705 5.95247
2.0079269371922672 5.86653
2.03024671027244 5.7564
2.0525491637446027 5.295030000000001
2.074869091674931 5.24442
2.097171701569106 5.54432
2.1194917877373847 5.42986
2.141811954326636 5.11203
2.164114805233074 5.01962
2.186435135143035 4.9972900000000005
2.208738150935709 5.48867
2.231058647554722 5.0488800000000005
2.2533792288321184 5.08973
2.275682498336085 4.63134
2.298003251406138 5.06177
2.3203066942619714 5.03648
2.3426276225136022 4.44775
2.3649486396617507 4.6507
2.387252348930071 4.68991
2.4095735463442893 4.13124
2.4318774374315884 3.83831
2.4541988185014043 4.06349
2.476502894794693 3.23444
2.498824462909887 3.23104
2.521146125856138 3.5382599999999997
2.5434504863470337 3.7955400000000004
2.5657723414244717 4.7424
2.588076895590662 5.20006
2.610398946189713 4.8825400000000005
2.6327210958598384 4.36086
2.6550259469304716 4.32036
2.6773482972090137 5.29624
2.6996533504259 5.10257
2.7219759047039602 6.00965
2.744298562293959 5.87141
2.7666039251246595 6.19952
2.7889267918020164 5.95673
2.8112323652516555 5.95821
2.833555444408179 6.83988
2.8558786311183852 6.80779
2.8781845268938557 7.49834
2.9005079311721484 7.60721
2.9228140460410397 8.57872
2.9451376712799635 8.41072
2.967444008632326 9.28892
2.9897678582247247 9.25682
3.0120918213106695 10.3507
3.0343984987899373 10.8462
3.0567226913198637 11.1499
3.079029599759726 11.1781
3.101354025127254 12.3698
3.123678568232338 12.3636
3.145985829517914 13.0009
3.16831061055229 13.4491
3.1906181112775593 13.8782
3.212943133635653 14.0839
3.2352682779763207 14.9155
3.2575761442691227 14.9523
3.2799015350264273 15.2725
3.302209649240067 16.1883
3.3245352898092655 16.6593
3.3468436553365257 17.2193
3.369169549113219 17.5673
3.3914955708171384 18.2427
3.413804319727358 18.7705
3.4361305997334863 18.3584
3.4584396084414553 19.3216
3.4807661501462652 19.8286
3.503092824025881 20.4049
3.5254022288463154 20.2107
3.5477291695206588 20.7394
3.5700388426251948 20.8738
3.5923660534916446 21.535
3.6146934007816114 21.8355
3.637003482731501 22.4098
3.6593311053109985 22.7462
3.681641464033634 22.9107
3.7039693653009733 23.1682
3.726297407241705 24.1376
3.7486081875460804 23.8236
3.7709365132734978 24.5871
3.793247578841633 25.1032
3.8155761917550093 25.1323
3.8378875459837216 25.9503
3.8602164494827234 26.1155
3.882545499606844 26.8902
3.9048572932539183 27.3276
3.9271866390645718 27.4452
3.9494987298666713 27.7431
3.971828374764527 28.5767
3.9941581705403255 29.0011
4.016470713506008 29.555999999999997
4.038800813471445 29.9157
4.061113662089144 31.1862
4.0834440696459176 31.7336
4.105774632334751 31.6745
4.128087945865126 32.3493
4.150418821249301 32.9206
4.172732448931298 33.5295
4.195063640413578 34.2897
4.2173775856475215 35.082
4.239709096631102 35.4682
4.262040768704612 35.9309
4.284355196706267 36.6317
4.306687193387355 37.2425
4.329001947444346 38.4673
4.35133427213731 39.2074
4.373666762177566 39.6528
4.395982011761091 40.6701
4.418314834921175 41.5227
4.44063041906622 42.3073
4.4629635787515625 42.9872
4.4852969080429785 44.5519
4.5076130004776225 45.793
4.529946671403969 47.1636
4.552263106909177 47.4467
4.574597122877047 48.7299
4.596931312711224 50.0768
4.619248269273446 51.0089
4.6415828092605835 52.3176
4.663900117405352 53.565
4.686235010953232 54.924
4.708552674085913 56.0198
4.730887924602802 57.6225
4.753223354952695 59.28
4.775541557023902 60.8541
4.797877349456786 62.413000000000004
4.820195915032126 64.4026
4.842532072957498 65.9922
4.864868414979744 67.9846
4.88718753227192 70.9772
4.909524244902505 73.6851
4.931843734218147 76.758
4.954180820867835 80.0143
4.976518095879839 84.6372
4.998838149695359 89.4344
5.021175803844231 95.5925
5.043496238205739 101.27799999999999
5.065834274903528 108.434
5.088172504230693 117.256
5.1104935158799565 129.015
5.132832132875765 148.217
5.155153533596801 180.7
5.1774925416746225 261.453
5.199814334878411 711.775
5.2221537374521505 2271.38
5.244493338631803 3762.85
5.266815727034316 4254.04
5.289155727832427 5964.34
5.311478517248165 8851.36
5.333818921080011 7594.89
5.356159527788849 3128.12
5.3784829252032536 833.546
5.400823940070432 318.911
5.423147747031976 207.516
5.445489173474152 165.87599999999998
5.467830807066149 145.394
5.490155234831516 132.774
5.512497285125229 124.37299999999999
5.534822130975162 119.43799999999999
5.557164601388673 114.613
5.579489868738879 110.23700000000001
5.601832762690846 107.146
5.6241758697774475 104.65899999999999
5.646501775867269 103.855
5.668845311622074 102.522
5.691171647754637 101.37100000000001
5.713515615597765 100.366
5.735859800852677 99.6575
5.758186788542988 98.7736
5.780531411018185 99.06200000000001
5.802858837297399 99.62
5.825203900414495 100.53399999999999
5.8475491852224 102.34299999999999
5.869877275883075 105.286
5.892223006467101 109.303
5.914551544266608 115.49600000000001
5.936897724049891 125.54899999999999
5.959244129804903 143.297
5.981573344815301 188.417
6.0039202049061 359.156
6.026249875609095 869.322
6.04859719346037 1445.39
6.070927323278297 1668.9
6.093275102315365 1939.79
6.115623113320588 2827.63
6.137953938319995 3760.15
6.160302415650845 2722.75
6.182633708324452 1061.01
6.2049826554078376 341.45099999999996
6.227331838745022 163.072
6.249663839443684 118.595
6.27201349767565 100.383
6.294345974611799 90.6187
6.316696111167083 83.3059
6.339046488263839 78.9293
6.361379686074702 74.899
6.383730546639482 72.2658
6.406064229255215 69.6942
6.428415576718203 68.7863
6.450749747566656 66.9207
6.47310158535871 65.9245
6.495453669698332 64.6939
6.517788579421056 63.648999999999994
6.540141159237969 62.4106
6.562476565766648 61.6071
6.5848296444934045 60.7526
6.607182974060425 60.0283
6.6295191323281015 59.4311
6.651872965955752 58.6933
6.6742096296068985 57.7267
6.6965639707294615 57.6137
6.71891856698715 57.0306
6.741255995248479 56.5784
6.763611104154477 55.9416
6.785949046381137 55.5902
6.808304671371482 54.8206
6.8306605557940046 54.5666
6.852999275508618 54.3283
6.875355681171544 54.0007
6.897694923437771 53.5849
6.92005185377892 53.8446
6.9423916220322655 53.3689
6.964749080490181 52.9329
6.987106804399774 52.9419
7.009447368180821 52.7685
7.031805625367033 52.1327
7.054146723727803 52.2356
7.076505517631004 52.3853
7.098864581288365 52.3114
7.121206488070854 51.6607
7.143566093607822 51.3983
7.165908543567245 51.8802
7.188268694426048 51.5645
7.2106291193438095 51.2359
7.232972390625943 51.1736
7.255333366030969 51.0124
7.277677189091925 50.6523
7.300038718428332 51.1317
7.322400526130865 51.1449
7.344745183422596 51.309
7.367107550224791 51.1147
7.389452767901992 51.4598
7.411815697249891 51.6269
7.434161478756298 51.1991
7.456524974096713 51.6982
7.478888753837185 52.1795
7.501235387657368 53.597
7.523599738562711 61.2244
7.545946944825532 77.9456
7.568311870344528 87.0225
7.5906770845765665 77.0886
7.613025156078678 62.1549
7.635390950099687 55.5473
7.657739602662809 53.7651
7.680105979923558 53.1407
7.702472650212829 53.4075
7.724822180948224 53.326
7.747189439655568 53.731
7.769539560075357 53.8142
7.791907410653562 54.0368
7.81425812420825 54.0734
7.836626570110925 54.3211
7.858995315087906 55.0904
7.881346924933401 55.3425
7.903716270417482 55.9437
7.926068482028405 56.1903
7.948438431475253 56.7624
7.9708086843180235 57.3781
7.993161805171116 57.8151
8.015532667162402 58.1804
8.037886398416653 59.1511
8.060257873014221 60.1813
8.082629655331942 60.4696
8.104984308787587 61.1603
8.127356708900503 61.958
8.149711981398308 63.1309
8.172085002766314 63.7085
8.194458336181368 64.7941
8.216814543847752 65.9907
8.23918850371002 67.0703
8.26154533906492 68.505
8.283919928836452 70.1826
8.306277395339652 71.1265
8.328652618483376 73.056
8.351028159736202 75.7418
8.373386579575245 78.3483
8.395762759396959 80.8499
8.418121819038275 84.6765
8.440498640894003 90.9724
8.462875785192262 100.103
8.485235811156207 119.524
8.507613602688501 195.84900000000002
8.529974277114228 417.45300000000003
8.552352719347912 663.529
8.574731488360351 770.212
8.59709314210385 708.685
8.619472567021075 737.933
8.64183487789147 1015.16
8.664214962183097 1559.42
8.686577933647762 1777.03
8.708958680784317 1286.93
8.731339760774953 636.635
8.753703729764451 250.352
8.77608547780821 137.77100000000002
8.798450116065078 112.56200000000001
8.820832535634787 102.56
8.843215292401656 96.6866
8.865580941199045 92.96
8.887964374703538 90.6488
8.910330701447199 88.6689
8.932714815164482 87.6312
8.955099270424924 85.5529
8.977466620733543 84.7188
8.999851761421976 83.8354
9.022219798361645 82.7504
9.04460562795561 82.5234
9.066991803441677 82.0867
9.089360876979615 81.8622
9.111747746589993 81.5828
9.13411751544971 81.4302
9.156505082664324 81.0597
9.178875550323522 81.9857
9.20126381862328 84.7121
9.223652438908596 97.0091
9.246023961427412 122.49799999999999
9.26841328802173 135.418
9.290785518039224 124.74700000000001
9.313175554425882 103.29700000000001
9.335565947154315 87.866
9.357939245086508 83.3433
9.380330352834827 82.1388
9.40270436697103 81.5577
9.425096193225055 81.2485
9.447488380180165 82.2708
9.469863475295412 82.0635
9.492256385987508 82.3817
9.514632206018318 83.1489
9.537025843935714 83.4634
9.559402392368193 84.0746
9.581796761000229 85.0674
9.604191496441521 85.5736
9.626569144158516 85.8927
9.648964615551032 86.5511
9.671343000390081 87.5414
9.693739211225699 88.8251
9.716135793237463 89.5537
9.738515290448102 90.5357
9.760912617143402 91.8597
9.783292860202891 93.1807
9.805690935076182 95.0783
9.828089385495742 96.2703
9.850470754023561 98.6878
9.872869957865444 101.314
9.89525208097539 104.686
9.917652041736662 109.785
9.940052382417589 117.866
9.962435644102392 139.584
9.984836746950979 206.27700000000002
10.007220771957746 384.967
10.029622640473708 604.534
10.052007432299963 695.3989999999999
10.074410069984072 645.967
10.096813093716005 598.3009999999999
10.119199042482517 672.967
10.141602840636468 945.497
10.163989564971628 1374.87
10.186394141051062 1634.28
10.208799107559706 1299.72
10.231187001965623 726.079
10.253592751657669 315.009
10.275981430388155 161.761
10.298387966769793 126.152
10.320794897965431 116.56200000000001
10.343184759907361 111.238
10.36559248305461 107.45299999999999
10.387983138083852 106.411
10.410391656691655 109.417
10.432800574501677 126.06299999999999
10.455192425893369 175.239
10.47760214443012 232.283
10.499994797678786 256.70799999999997
10.522405320453982 238.77599999999998
10.54479877906917 221.446
10.567210109595656 235.609
10.5896218454736 293.37
10.612016518879773 405.509
10.634429067781074 495.157
10.656824555333241 454.93800000000005
10.679237920773568 311.132
10.701651695961992 179.097
10.724048411481384 119.281
10.746463008485165 98.9333
10.768860546937125 89.7158
10.791275969274796 84.5092
10.81369180576079 82.1955
10.836090585366925 80.3011
10.858507252467449 78.4524
10.88090686379991 77.3187
10.903324365036394 76.3652
10.925724811614439 75.1516
10.948143150509463 74.6277
10.970561909719066 73.6431
10.992963615930844 72.8299
11.015383218085756 71.473
11.037785768347074 70.5546
11.06020621697282 70.2825
11.082627090322113 69.5894
11.105030913430326 69.122
11.12745263854165 68.5914
11.149857314510728 67.4238
11.172279894912576 67.3941
11.194702904450653 66.3207
11.217108866490921 65.7391
11.239532736615194 65.3087
11.26193956033512 65.0715
11.284364294577085 65.0087
11.306789462371718 64.5018
11.329197585398376 64.2194
11.351623622610898 64.46300000000001
11.37403261614354 63.7674
11.396459526308487 63.4993
11.418869393879497 63.0404
11.441297180532617 62.5097
11.463725406927658 62.2829
11.486136592353875 61.8729
11.508565700543707 61.653999999999996
11.530977768845315 61.4944
11.553407762368774 61.1839
11.575838200059769 61.1833
11.598251599479612 60.8988
11.620682927815501 60.785
11.64309721895548 61.2139
11.665529441478206 60.7493
11.687962112597958 60.437
11.710377748130886 60.4306
11.732811318753434 60.2485
11.755227854859067 60.2422
11.777662328529495 60.4037
11.800079768750786 60.2007
11.822515149015453 60.3042
11.844950984084935 60.4308
11.867369787303163 60.5637
11.889806534289491 60.8878
11.912226250487029 63.1047
11.934663912939751 67.8013
11.9571020346363 73.0454
11.979523127133968 74.2461
12.001962169624331 72.7189
12.024384183972964 69.7951
12.046824150809913 70.3238
12.069264581333726 79.9094
12.091687985297767 94.05
12.11412934550045 104.51899999999999
12.136553680195208 106.427
12.158995973632788 102.34299999999999
12.181438735204349 99.1199
12.20386447284199 102.802
12.226308172985636 115.836
12.24873485024193 141.862
12.271179492516982 173.892
12.293607112949127 187.61700000000002
12.316052700916226 163.53799999999998
12.338498763250042 120.59299999999999
12.360927805303868 85.6843
12.383374818673879 70.265
12.405804812803074 64.6334
12.428252780773262 63.2799
12.45070122756722 62.9022
12.473132656675375 62.2912
12.49558206341869 62.4589
12.518014453510101 61.8736
12.540464823770117 62.0896
12.562915677315177 62.1959
12.58534951575545 62.6039
12.607801338171472 62.467
12.630236146511358 62.5091
12.652688941369085 63.058
12.675124723177234 63.1507
12.697578494048786 63.9487
12.720032754458185 63.8158
12.742470003354093 64.4193
12.764925245138771 64.987
12.787363476431278 65.2627
12.809819703166806 65.648
12.83227642391173 66.1263
12.854716135692716 66.6884
12.877173846755147 68.0318
12.899614549869717 68.2957
12.9220732548287 69.4238
12.94453245827299 70.0077
12.966974655289818 70.8969
12.989434858002571 71.7199
13.011878055298721 72.7296
13.034339260862497 73.9622
13.056800969391883 75.8277
13.079245674017244 78.9
13.101708390774869 82.1849
13.12415410463411 88.9363
13.146617833206086 107.448
13.169064559883248 141.308
13.191529303857127 175.375
13.213994557076367 195.59799999999998
13.236442809902437 192.062
13.258909083908291 177.291
13.28135835851934 170.642
13.30382565690295 179.382
13.326293469022952 208.155
13.348744283242008 263.27
13.371213125129904 341.371
13.39366497011003 393.37699999999995
13.416134845360597 368.78
13.438605238843131 277.275
13.46105863690397 184.243
13.483530069144786 138.74
13.505984506951902 140.703
13.528456981549432 166.582
13.550929978879088 184.028
13.573385983253365 184.59799999999998
13.595860028340867 171.108
13.618317081455832 159.333
13.64079217790333 159.583
13.663250283359057 173.34099999999998
13.685726434770173 205.483
13.708203115221277 267.4
13.730662806148091 328.615
13.75314054697177 342.727
13.775601299246777 292.302
13.798080104050406 202.18599999999998
13.820559442405358 128.065
13.843021793671388 95.6036
13.865502201420897 84.1614
13.887965623051947 81.0183
13.910447103807167 78.9481
13.932929122629764 77.1483
13.955394156785959 76.3373
13.977877254034569 75.0909
14.000343367582113 74.1123
14.022827546871707 73.5675
14.045294743423524 72.7541
14.06778000837062 72.2208
14.090265817715476 72.5421
14.112734645763819 72.9043
14.13522154619454 76.003
14.157691466286913 79.3429
14.180179461423874 79.758
14.202668005486178 77.9182
14.22513957064374 75.0789
14.247629214846473 71.5154
14.270101881097517 69.6225
14.29259262906496 68.5991
14.315083930490205 68.2993
14.337558255389705 67.7765
14.360050666019726 67.9326
14.382526101071944 67.5725
14.405019624534942 67.2235
14.427513705993134 66.8907
14.449990813291825 67.0448
14.47248601302899 66.9569
14.49496423954951 67.0689
14.517460561197822 67.2432
14.539939910570322 66.9217
14.562437357763558 67.1551
14.58493536931253 67.4462
14.607416409993311 67.3914
14.62991555254159 67.6054
14.652397725157423 67.8607
14.674898002342799 68.2403
14.697398848433282 68.4511
14.719882725991326 69.6769
14.74238471217934 70.6272
14.764869730765593 73.8019
14.787372860692983 81.3658
14.809876564079925 96.2492
14.83236330125751 111.573
14.854868153850365 120.11
14.877356041159485 119.88600000000001
14.899862046604186 113.78399999999999
14.922351087688757 109.01700000000001
14.944858249632887 108.573
14.967365991421232 114.87100000000001
14.989856770231246 127.54
15.012365673994204 152.00799999999998
15.03485761569738 185.179
15.05736768508665 207.608
15.07987833888692 203.581
15.102372032001655 170.882
15.124883856909658 125.12299999999999
15.14737872204565 92.8465
15.169891721717274 77.7364
15.192405310371893 72.1985
15.214901940621196 69.9885
15.237416709527137 68.6454
15.259914520936249 68.1048
15.282430473753607 67.0629
15.304947020131227 66.4395
15.327446610371178 65.7622
15.349964346154254 65.4581
15.372465126703139 65.1329
15.394984055556009 65.354
15.417486030076159 65.0885
15.44000615566487 64.5671
15.462526881230803 64.5043
15.485030653812652 64.4145
15.507552581617434 64.1833
15.530057557334603 64.3345
15.55258069104857 64.3775
15.575104429329837 64.7668
15.597611216864632 64.5046
15.620136166564563 64.9845
15.6426441664095 65.8879
15.665170331202765 67.9253
15.687697105158826 74.3766
15.710206930593545 86.0319
15.732734925158933 98.8855
15.755245972089478 106.59299999999999
15.77777519094324 108.29
15.800287463046663 103.96700000000001
15.822817909869592 98.3523
15.84534897229804 95.7368
15.867863089299354 98.795
15.890395385222186 105.40700000000001
15.912910736597423 118.738
15.935444269699861 142.379
15.957978423016485 170.106
15.980495633101265 184.535
16.003031029129367 177.041
16.02554948280019 145.02
16.048086125229432 108.821
16.070623392487107 83.9344
16.09314371869582 71.4718
16.11568223789321 65.8317
16.13820381691126 63.1059
16.160743591742527 61.3481
16.183283996022084 59.9731
16.205807461423195 58.6554
16.228349126881973 58.1445
16.25087385432698 57.8621
16.27341678466365 57.0745
16.29594277784926 56.8405
16.31848697676433 56.3202
16.341031811604868 55.8134
16.36355971058487 55.8299
16.3861058195587 55.5946
16.40863499352978 55.0049
16.431182380342005 54.9901
16.453730407713202 54.6456
16.476261501364792 54.4246
16.498810812136167 54.0982
16.52134319004079 53.9592
16.54389378792203 53.8986
16.566445031001553 53.7789
16.588979342490088 53.7662
16.61153187824822 53.5478
16.634067483263312 53.4843
16.656621315414416 53.4076
16.679175797408888 52.9961
16.701713349928728 53.0415
16.72426913389191 53.2788
16.74680798922351 53.2243
16.76936507887444 53.0609
16.791905240734874 53.0584
16.814463639794468 52.9806
16.837022695210294 52.9988
16.859564824093756 53.2613
16.882125194503903 53.4254
16.904668639217885 53.8331
16.927230328348003 54.3045
16.949792678493612 54.9038
16.972338104193863 54.8149
16.994901778652235 54.7369
17.017448529496576 54.6213
17.040013531998152 54.6233
17.06257920018044 55.0382
17.0851279459922 56.0184
17.107694947817667 58.2791
17.130245028099072 60.7663
17.15281336730298 62.945
17.17536478578733 64.0543
17.19793446610687 63.498000000000005
17.220504818648422 62.7143
17.243058251703697 61.7799
17.265629950971032 61.8237
17.288184731571736 62.6549
17.310757781306908 64.9571
17.33333150794385 67.2782
17.355888317140174 71.6975
17.37846339986244 77.0164
17.401021565958885 80.7899
17.42359800851343 80.6834
17.44617513265564 75.9437
17.468735341390783 69.3738
17.491261035594565 62.9261
17.51396340099364 59.6896
17.536490463869136 58.4346
17.559018209820174 57.6762
17.58154663977963 57.9441
17.604251766089718 57.9341
17.626781572227713 58.0903
17.64931206518155 58.0721
17.671843245885103 58.5701
17.69455114821572 58.5437
17.717083712612634 58.9008
17.739616967569667 59.6943
17.762150914021706 60.7197
17.78486160749854 60.9323
17.807396945166804 61.8182
17.829932977143503 62.3498
17.85246970436452 63.4597
17.875183204129467 66.187
17.897721330097664 72.3449
17.920260154126645 79.75
17.942799677153296 85.6445
17.9655159983646 88.2766
17.988056927677544 87.4337
18.010598558807683 84.5623
18.033140892692916 82.3625
18.05586005052525 81.5561
18.07840379824407 83.2458
18.10094825154059 87.3126
18.12366954819864 94.2646
18.146215420998306 107.074
18.16876200220057 124.902
18.191309292745153 142.588
18.214033452627167 151.349
18.236582170236648 145.197
18.259131600016456 126.25
18.281681742907335 104.71600000000001
18.304408781233683 88.4664
18.32696035875955 80.6657
18.349512652227624 78.2023
18.372065662579683 79.2084
18.394795594587553 82.4506
18.41735004715306 88.8593
18.43990521943684 96.62200000000001
18.46246111238171 101.975
18.485193953325208 101.48200000000001
18.507751296070428 94.5021
18.530309362314178 83.9077
18.552868153000343 74.0536
18.57560391815056 66.9477
18.59816416623245 63.798
18.620725141597372 62.18600000000001
18.643286845190268 61.0631
18.666025549835414 60.3127
18.688588718427933 59.2782
18.711152618092243 59.1175
18.73389353884365 58.8035
18.75645890921984 58.2384
18.77902501351406 57.6937
18.801591852673102 57.7346
18.824335739722738 57.2545
18.846904057212626 57.0657
18.8694731124168 56.9566
18.89204290628315 56.8858
18.914789774966803 56.5822
18.937361054791623 56.299
18.959933076131318 56.1448
18.982505839934877 55.8762
19.00525570560582 55.81
19.027829963004184 55.7006
19.05040496572238 55.7875
19.072980714710468 55.8496
19.095733592739563 56.1477
19.11831084296757 56.5729
19.140888842324735 57.7121
19.16346759176222 59.3249
19.18622349753803 60.7249
19.208803755869358 61.5732
19.231384767143577 61.4351
19.253966532312948 61.0404
19.276725481241822 60.3377
19.29930876296784 59.9827
19.3218928014549 60.6011
19.34465404436217 61.3333
19.36723960516257 62.431999999999995
19.389825925592426 63.8264
19.412413006605938 65.6658
19.43517731967805 68.76899999999999
19.457765930683355 72.2452
19.48035530514408 73.5606
19.50294544401556 72.0874
19.525712842708348 68.1416
19.54830451925909 62.7287
19.570896963095727 57.917
19.593490175174704 55.196999999999996
19.616260674962184 53.7536
19.638855432416964 53.0162
19.661450960992624 52.9494
19.68404726164677 52.7467
19.706820878021247 52.317
19.729418731756834 52.5973
19.752017360452857 52.3688
19.77461676506804 52.5237
19.797393513540218 52.527
19.819994478951667 52.7787
19.84259622316767 53.8684
19.8651987471481 55.2473
19.887978643247177 56.4521
19.91058273574792 57.2916
19.933187610901943 57.6814
19.955969879466828 57.5625
19.97857632894404 57.0969
20.00118356396599 56.2367
20.023791585494575 56.0304
20.046577028914875 56.7922
20.069186632506966 57.8955
20.091797025500632 59.6831
20.114408208858933 62.0897
20.137196842715273 65.1538
20.159809615886765 68.6744
20.18242318232135 70.8538
20.20503754298326 71.357
20.227829382875154 69.8781
20.250445341109344 66.7851
20.27306209647285 62.4931
20.29567964993108 59.3342
20.31847471147704 57.608000000000004
20.34109387027612 57.4315
20.363713830075454 58.486999999999995
20.386334591841646 60.4539
20.409132890679302 62.7476
20.431755265564437 64.2461
20.454378445325528 63.9663
20.477002430930366 61.8514
20.499803982716553 58.4949
20.522429589228004 54.8275
20.54505600449589 51.9699
20.567683229489194 50.5238
20.590488049900088 49.8018
20.61311690359731 49.5867
20.63574656993626 49.393
20.658553853717297 48.8797
20.681185154618298 48.9221
20.703817271080066 48.8093
20.72645020407368 48.4509
20.749260783967177 48.6623
20.771895359337133 48.6765
20.794530754161617 48.7603
20.817166969412938 48.6159
20.83998086114876 48.4874
20.86261872660049 48.3436
20.885257415405402 48.0402
20.90789692853701 47.9083
20.930714147864748 47.7408
20.953355319030678 47.8731
20.97599731745334 48.1181
20.99864014410749 47.8822
21.021460706796564 48.1658
21.044105199328826 48.5748
21.06675052302631 48.7434
21.089396678865015 48.8195
21.112220600704806 48.4728
21.134868430275347 48.3366
21.15751709492456 48.2298
21.180166595629693 48.1643
21.202993892429635 48.222
21.22564507473034 48.2759
21.24829709602816 48.4321
21.27112693608965 48.8386
21.293780644891275 49.7389
21.316435195634053 50.0516
21.339090589297417 50.4983
21.361923832041875 50.6734
21.384580921090404 50.3737
21.407238856007325 49.68
21.429897637773326 49.1063
21.45273429906592 48.455
21.475394784108598 48.1467
21.498056118951983 47.8133
21.520718304578022 47.8789
21.543558400304388 47.9438
21.566222297108816 48.1737
21.58888704765135 48.1602
21.61155265291521 48.6716
21.63439619898156 49.6509
21.657063523335786 50.7842
21.67973170537063 52.0128
21.7024007460706 52.8555
21.72524775840385 53.2666
21.747918526116475 53.3514
21.770590155457388 52.703
21.79326264741238 52.2903
21.816113141960237 52.2751
21.838787368860547 52.586000000000006
21.861462461341976 53.3083
21.884315579735777 54.442
21.90699241312273 55.4408
21.92967011506078 57.1975
21.95234868653799 59.2399
21.9752053151131 61.5254
21.997885635446785 63.958999999999996
22.020566828293532 65.381
22.04324889464272 64.7545
22.066109049404666 62.5659
22.088792872571794 59.417
22.111477572219204 56.4145
22.1341631493376 54.4335
22.157026846313123 53.6322
22.179714188221507 53.8584
22.202402410582668 54.5543
22.22509151438863 55.37
22.24795876962584 55.5011
22.270649646204486 54.8396
22.293341407213727 53.3722
22.316034053646906 51.6223
22.338904883215342 50.0771
22.36159931041458 49.11600000000001
22.38429462602756 48.6015
22.40699083104897 48.2336
22.429865251039757 47.9753
22.452563244831367 48.0388
22.47526213102522 48.1607
22.49813925616515 48.0022
22.520839937143307 47.8778
22.543541513520587 48.0087
22.56624398629403 47.907
22.589124730075895 47.8924
22.611829005656723 48.0009
22.63453418063466 47.8875
22.657240256008077 48.2587
22.680124634582935 48.6812
22.70283252079775 49.6402
22.725541310413075 50.3621
22.74825100442868 50.8505
22.771139033969575 51.6676
22.79385054687155 51.2456
22.81656296718292 50.8543
22.83927629590484 50.6212
22.862167992606945 50.5089
22.88488314827121 50.4435
22.907599215359284 50.3694
22.93031619487366 50.5893
22.953211574954405 50.8499
22.975930389478226 51.4632
22.998650119445763 52.341
23.02137076586092 53.3898
23.044269845560063 55.2544
23.06699233506288 57.0673
23.089715744034912 57.7367
23.112617610931565 57.3129
23.135342869061212 55.7718
23.158069049684816 53.7017
23.1807961538087 51.6305
23.20370174880544 49.9781
23.226430710184808 49.1302
23.249160598093425 48.7254
23.271891413539002 48.6531
23.294800752937697 49.0583
23.31753343374794 49.9032
23.340267045128353 50.5562
23.36300158808808 51.1246
23.38591468821339 51.1582
23.408651104658304 51.2852
23.431388455719986 50.8582
23.454126742409 50.4183
23.4770436196085 50.1254
23.499783787914662 50.0273
23.522524894889884 49.728
23.54526694154616 49.828
23.56818761219047 50.2204
23.59093154860734 50.6942
23.613676427751283 51.9385
23.636422250635754 53.0618
23.659346731118656 54.5648
23.68209445191868 56.1951
23.704843119509587 57.1572
23.72759273490623 57.0924
23.750521041644767 55.6011
23.77327256312355 53.0782
23.796025035462787 50.5254
23.818956224555475 48.1812
23.841710609113413 46.9503
23.86446594758979 46.0853
23.887222241002014 45.4884
23.910157285144578 45.1019
23.932915498962537 44.9102
23.955674670778713 44.7859
23.978434801611975 44.6367
24.001373717286125 44.4103
24.024135776723917 44.2684
24.046898798245582 44.01
24.06966278287146 44.0102
24.092605586582614 43.8497
24.115371508023642 43.6924
24.1381383956401 43.5725
24.16090625045381 43.3976
24.183852958731244 43.4162
24.206622758582608 43.2244
24.229393528706886 43.0863
24.252165270127392 43.0579
24.27511589952438 43.0376
24.297889594216997 42.8837
24.32066426328598 42.7432
24.34343990775613 42.82
24.36639447485003 42.8489
24.38917208083877 42.5846
24.41195066531332 42.5254
24.43490819850244 42.4574
24.457688750692377 42.2756
24.48047028445616 42.1651
24.503252800821233 42.2207
24.526214300784112 42.1547
24.548998793132213 42.1866
24.57178427117417 42.0447
24.59457073593893 42.0615
24.617536219319863 42.0091
24.64032466834748 42.2772
24.663114107195035 42.3098
24.685904536893013 42.2054
24.708874020360852 42.1633
24.731666442613744 42.2383
24.754459858818787 42.247
24.777254270007962 41.8583
24.80022777025625 41.7581
24.82302418230472 41.7111
24.845821592443674 41.7545
24.86862000170663 41.9964
24.891597535453727 41.7799
24.914397953892728 42.0736
24.93719937456671 42.0496
24.96000179851076 41.9766
24.98298338249997 42.0084
25.00578782394922 42.2262
25.028593271784167 42.2593
25.05157790644186 42.37
25.07438537804115 42.4923
25.097193859145293 42.7199
25.120003350792075 42.7725
25.142992065061257 42.9396
25.165803588823465 43.055
25.18861612625217 43.0552
25.211429678386736 43.0395
25.234422489079968 43.356
25.257238081693636 43.5991
25.280054692141732 43.8706
25.3028723214652 43.8468
25.325869245420463 43.7745
25.348688923599397 43.5573
25.371509623787006 43.4658
25.394331347025812 43.4343
25.41733240110666 43.5246
25.440156181590016 43.7541
25.46298098826268 44.168
25.48580682216873 44.356
25.50881202326435 43.9706
25.53163992281684 43.4864
25.55446885274561 42.6492
25.577298814096377 41.7038
25.600308179121807 41.0252
25.623140214533745 40.7923
25.64597328451537 40.4862
25.66898578564376 40.2067
25.691820936010206 40.1259
25.714657124097695 40.1173
25.737494350954734 40.0492
25.760511045684957 40.0274
25.783350361364224 40.2531
25.806190718969255 40.3419
25.82903211955018 40.5215
25.852053024868923 40.529
25.874896522722523 40.6757
25.897741066713106 40.2897
25.920586657892454 40.3287
25.943611790812668 40.2028
25.966459487728237 40.0587
25.989308234998564 39.8744
26.01215803367705 40.0731
26.03518741123814 40.1117
26.05803932412957 40.0636
26.080892291600094 39.8897
26.10374631470478 40.0253
26.12677995397268 40.2927
26.14963609978026 40.5473
26.172493304397875 40.8157
26.19535156888223 41.1958
26.218389486949604 41.4678
26.241249882640123 41.4846
26.26411134137826 41.1794
26.28715248187403 41.0322
26.31001607820869 40.7139
26.3328807407756 40.3745
26.35574647063438 40.3542
26.37879191991473 40.324
26.401659795896734 40.3007
26.424528742360263 40.1927
26.447398760366614 40.1841
26.470448535598294 40.0398
26.49332070826805 40.0353
26.516193955675355 40.1128
26.53906827888316 40.1524
26.562122397260108 40.167
26.584998883685063 40.2107
26.607876449110325 40.3499
26.63075509460056 40.3358
26.65381357334404 40.2746
26.67669439061878 40.5301
26.699576291163382 40.771
26.722459276044212 41.2525
26.745522132402975 41.6537
26.768407297649354 41.9189
26.791293550442003 41.7944
26.814180891848974 41.8017
26.837248143099337 41.1874
26.860137673466657 40.7856
26.88302829566349 40.3364
26.90592001075963 40.2112
26.92899167420566 40.2472
26.951885586870763 39.8533
26.974780595655517 39.7971
26.99785558178161 39.7068
27.020752794605112 39.4844
27.043651106772522 39.1056
27.06655051935668 38.8725
27.089629948036183 38.6534
27.112531573292053 38.4721
27.135434302194138 38.52
27.158338135817015 38.3661
27.181422024430987 38.3464
27.204328079372566 38.2047
27.22723524226965 38.3161
27.250143514198573 38.4056
27.273231880156334 38.2484
27.296142382065014 38.0119
27.319053996245536 37.9297
27.341966723775965 38.0721
27.365059584515222 38.0159
27.38797455070062 38.0306
27.410890633481237 37.7646
27.433807833936918 37.6951
27.456905206923906 37.9347
27.47982465472398 37.8597
27.502745223449743 37.857
27.525666914182825 37.9648
27.548768816912457 37.8359
27.571692763693633 37.7968
27.59461783573812 37.924
27.617723149491244 37.9972
27.640650484125285 38.0393
27.66357894728264 38.1189
27.686508540048052 38.1807
27.709618414237887 38.2895
27.732550278321757 38.0957
27.755483275279115 38.0528
27.778417406196485 38.0404
27.801531858397514 38.053000000000004
27.824468269376716 37.8435
27.847405817586786 37.5176
27.870344504116094 37.6909
27.893463551932008 37.5903
27.916404527281053 37.6956
27.93934664422563 37.7833
27.962289903855886 37.668
27.98541356491974 37.6656
28.00835912214229 37.6087
28.03130582533231 37.9045
28.054253675581805 37.9235
28.077381967556104 37.7726
28.100332124185126 37.9123
28.123283431160893 38.0821
28.146235889577238 38.2191
28.169368830154156 38.4868
28.192323603752033 38.6479
28.215279532083304 38.525999999999996
28.238415973016764 38.3791
28.261374223145094 38.1372
28.284333631303806 37.9897
28.307294198589954 37.63
28.330435319167677 37.3773
28.353398217078915 37.2876
28.376362277420153 37.2673
28.39932750129032 37.3128
28.422473319286713 36.931999999999995
28.44544088262495 36.6977
28.468409612800283 36.3919
28.491379510913497 36.0909
28.51453004413313 35.7534
28.53750229057244 35.707
28.56047570826344 35.5643
28.583450298308804 35.67
28.606605564586562 35.4087
28.629582511831156 35.5665
28.65256063474956 35.33
28.675539934446338 35.2691
28.698699951647605 35.1626
28.72168161743193 35.1393
28.74466446331978 35.0729
28.767648490417624 34.9468
28.790813276438353 34.948
28.813799678527303 34.9419
28.836787265157085 34.7978
28.859955641890075 34.7928
28.882945610203045 34.8384
28.905936766392035 34.8287
28.928929111566863 34.8659
28.952102288520145 34.7841
28.975097024308607 34.6549
28.998092952423807 34.6387
29.021090073977508 34.7611
29.04426806913204 34.8285
29.067267590245258 34.6579
29.090268308143695 34.5923
29.11327022394099 34.5123
29.13645305530891 34.4034
29.159457379627167 34.3027
29.18246290519685 34.1264
29.20546963313352 34.0829
29.22865731875826 33.9849
29.25166646419296 33.8307
29.27467681535305 33.6056
29.29768837335608 33.6609
29.320880931312562 33.6584
29.34389491580634 33.5788
29.366910110507334 33.5385
29.38992651653503 33.4717
29.41312396492981 33.4086
29.436142806456754 33.5279
29.45916286268059 33.4932
29.48236399319994 33.4221
29.50538649169417 33.3942
29.528410208259935 33.6142
29.55143514402014 33.471
29.574641196749695 33.4379
29.597668583816574 33.3548
29.6206971934585 33.0786
29.64372702680042 33.1098
29.666938019934474 32.9086
29.689970313635285 32.7827
29.713003834422636 32.733000000000004
29.73603858342347 32.5496
29.759254535188578 32.4895
29.78229175361658 32.3756
29.80533020365064 32.4179
29.82836988641968 32.4817
29.85159081507472 32.2906
29.874632976355343 32.2543
29.89767637376955 32.2966
29.920721008448314 32.1178
29.9439469322847 32.1598
29.96699405457564 32.0832
29.9900424175358 32.1314
30.013092022298157 32.1297
30.03632295963995 32.0852
30.059375061131373 32.0231
30.08242840783577 32.111999999999995
30.105483000888153 32.0007
30.128718970092244 31.8154
30.151776069006917 31.842
30.17483441768648 31.8871
30.198074175317235 31.8767
30.221135036724256 31.8095
30.24419715131772 31.7948
30.267260520236203 31.7174
30.290505341942243 31.8677
30.313571232750228 31.886
30.336638381310948 31.9439
30.35970678876503 31.894000000000002
30.38295669299435 31.9641
30.40602763151657 32.0159
30.429099832366074 31.8941
30.452173296685572 31.8344
30.47542830191959 31.7014
30.498504306502497 31.7119
30.521581577995562 31.7593
30.544660117543582 31.7167
30.56792024229725 31.6336
30.59100133132069 31.6306
30.614083691845494 31.6003
30.637167325018545 31.5965
30.660432587840603 31.5691
30.683518779717886 31.5323
30.70660624769615 31.5385
30.729694992924372 31.5169
30.75296541239743 31.6195
30.77605672557558 31.7297
30.799149319462742 31.7694
30.8224236211637 31.7874
30.845518789950724 31.7713
30.868615242910597 31.893
30.891712981195973 31.7127
30.91499247215866 31.5366
30.938092794619365 31.5591
30.96119440587579 31.5016
30.984297307082752 31.3696
31.00758200598383 31.1894
31.030687500658694 31.1042
31.053794288760695 30.9563
31.076902371446767 30.8731
31.100192296997445 30.8882
31.12330298246119 30.8312
31.14641496599209 30.6751
31.169528248749216 30.7329
31.19282341969534 30.6512
31.215939314557186 30.6696
31.239056512134788 30.6336
31.262175013589378 30.5859
31.28547544871168 30.546999999999997
31.30859657161541 30.3323
31.331719001892175 30.3852
31.35484274070538 30.4748
31.378148458819545 30.395
31.401274828443725 30.3131
31.424402510106933 30.3135
31.447712205419993 30.3798
31.470842524931633 30.1965
31.493974159989783 30.3025
31.51710711176168 30.2864
31.54042212308802 30.3316
31.563557722100917 30.3608
31.586694641341655 30.3161
31.609832881979628 30.3306
31.63315322823208 30.4351
31.656294125521327 30.3376
31.679436347728515 30.3235
31.70257989602529 30.2458
31.725905596152327 30.1424
31.74905181052835 29.9829
31.772199354521323 29.8778
31.79534822930507 29.8047
31.818679302290967 29.8029
31.84183085259981 29.6114
31.864983737233473 29.6565
31.88813795736804 29.682
31.911474422233013 29.4457
31.934631327356435 29.534000000000002
31.9577895715215 29.4861
31.980949155906522 29.4912
32.004291031706956 29.5697
32.027453310562606 29.5283
32.05061693318573 29.4664
32.07396288236386 29.5732
32.09712920658542 29.5221
32.12029687812702 29.5021
32.14346589817093 29.4099
32.166817291729984 29.3937
32.18998902288583 29.301
32.21316210610336 29.2621
32.23633654256711 29.0979
32.259693399663725 29.0536
32.282870556771144 28.9266
32.30604907069099 29.0377
32.329228942610065 28.9424
32.35259128243769 28.7585
32.375773884550505 28.71
32.398957848235646 28.6463
32.422143174682176 28.541999999999998
32.445511016471215 28.4604
32.468699082679954 28.4509
32.49188851523011 28.33
32.51507931531304 28.2762
32.538452678331 28.3338
32.56164622776311 28.2157
32.58484114831493 28.1415
32.60803744118015 28.2616
32.631416344731896 28.1643
32.654615396551876 28.0522
32.67781582427913 28.1018
32.701198898634416 27.9987
32.72440209253756 27.9843
32.747606665947124 27.9547
32.77081262006088 27.7995
32.79420126883317 27.8136
32.81740999876112 27.846
32.840620112999424 27.7288
32.86383161274818 27.7013
32.88722585534586 27.7067
32.91044014056596 27.7731
32.933655814909734 27.6509
32.95687287957963 27.6992
32.98027273544904 27.6384
33.00349259526636 27.4591
33.026713849030116 27.561999999999998
33.04993649794511 27.4548
33.073341986570746 27.4809
33.09656744032826 27.4498
33.11979429286444 27.3579
33.14302254538647 27.3253
33.166433686291185 27.2699
33.18966475336992 27.2721
33.212897224069096 27.1846
33.23613109959831 27.2139
33.259547912343415 27.17
33.2827846121627 27.1261
33.306022720453775 27.116999999999997
33.32926223842861 27.148000000000003
33.352684742614166 27.1291
33.37592709463173 27.1205
33.399170859982064 27.0589
33.422597648419426 26.9542
33.44584425514446 26.9812
33.46909227885668 26.9437
33.4923417207723 26.83
33.51577423505344 26.8504
33.539026528130385 26.6852
33.56228024307245 26.6378
33.585535381098246 26.4816
33.60897364093058 26.3953
33.63223163992385 26.4593
33.6554910656699 26.4377
33.678751919389796 26.4149
33.702195944520106 26.3098
33.72545966903325 26.23
33.74872482519663 26.1922
33.771991414233746 26.1841
33.79544122444841 26.0393
33.81871069412428 25.9654
33.84198160035767 25.9587
33.86525394437455 25.9786
33.88870955949969 25.8949
33.911984794020626 25.9244
33.93526147001624 25.8915
33.958539588715006 25.8498
33.98200102861669 25.759
34.0052820477047 25.7437
34.02856451319451 25.7665
34.05203033759056 25.6744
34.07531571090147 25.6653
34.09860253431845 25.7043
34.121890809074316 25.5937
34.145362493118924 25.4982
34.16865368561615 25.4615
34.191946333164054 25.4226
34.21524043699793 25.3339
34.23871800066799 25.3647
34.26201503218366 25.3001
34.28531352370466 25.3089
34.30861347646881 25.1945
34.33209693978188 25.2174
34.3553998301885 25.1258
34.378704185565205 25.1286
34.402010007152356 25.0761
34.42549939016683 25.0596
34.44880815937748 24.9575
34.472118398533134 24.97
34.49543010887669 25.046
34.51892543169198 24.8863
34.54224009966052 24.9405
34.56555624255917 24.8065
34.58887386163339 24.7719
34.61237514439016 24.6923
34.6356957311114 24.6864
34.65901779775809 24.6748
34.68252356662995 24.5322
34.705848608458616 24.5583
34.72917513396849 24.4367
34.75250314440949 24.4064
34.77601490857862 24.401
34.799345904259795 24.3901
34.82267838863559 24.3799
34.846012362958525 24.3422
34.869530142679984 24.2988
34.89286711232212 24.2787
34.91620557568269 24.2116
34.93954553401677 24.1283
34.9630693495876 24.1154
34.986412313340814 24.2342
35.00975677584668 24.186999999999998
35.033102738362956 24.1121
35.05663261012228 23.9561
35.0799815881786 24.0059
35.10333207003229 23.9595
35.12668405694369 23.9197
35.150220005273056 23.9596
35.17357501786656 23.9721
35.19693153931268 23.8838
35.220289570874385 23.889
35.24383161619786 23.8632
35.267192683604904 23.8651
35.290555264930376 23.7898
35.314101899412165 23.7751
35.33746752422433 23.7018
35.36083466676374 23.6889
35.38420332829803 23.633000000000003
35.407756095629054 23.6651
35.43112781085063 23.6274
35.45450104888391 23.5692
35.477875810999194 23.5182
35.50143473172161 23.4646
35.52481255774625 23.5231
35.54819191167777 23.476999999999997
35.57157279478914 23.4462
35.595137889488406 23.4193
35.61852184675279 23.4086
35.641907337029984 23.3991
35.665294361595684 23.3533
35.68886565090076 23.3052
35.7122557598848 23.3461
35.73564740699838 23.3013
35.759040593519934 23.2334
35.78261809810353 23.2804
35.80601437933051 23.1451
35.829412203814705 23.0147
35.85281157283719 22.9614
35.876395313415884 23.0162
35.8997977874528 22.8775
35.92320180988546 22.8561
35.946790244133936 22.8225
35.97019737933222 22.8291
35.993606066789866 22.8395
36.01701630779276 22.7112
36.04061101440684 22.7173
36.06402437852291 22.6645
36.08743930005611 22.7452
36.1108557802951 22.611
36.13445678011326 22.595
36.15787639383515 22.5266
36.18129757014299 22.4834
36.20472031032821 22.4595
36.22832762423364 22.4054
36.25175350829375 22.4092
36.275180960119776 22.4092
36.298609981005924 22.4011
36.32222362992669 22.3268
36.34565580510207 22.3384
36.36908955323448 22.3562
36.39252487562093 22.1757
36.416144880530226 22.1702
36.43958336764275 22.1471
36.463023432914625 22.1232
36.486465077645676 22.0076
36.51009145956204 22.1397
36.53353627947859 22.1163
36.55698268276811 22.0222
36.58043067073321 21.9767
36.60406345072071 21.8733
36.62751462435344 21.8491
36.65096738658405 21.8981
36.67460498210655 21.845
36.69806093788647 21.8349
36.72151848619297 21.7271
36.744977628333636 21.763
36.76862165890998 21.7307
36.79208400512205 21.695999999999998
36.81554794910557 21.691
36.83901349217101 21.6768
36.862663978991606 21.6093
36.88613273667352 21.616
36.90960309738324 21.5821
36.933075062434064 21.4306
36.95673202673572 21.4447
36.98020721697122 21.4203
37.003684015502365 21.3848
37.027162423645365 21.3381
37.050825886711465 21.239
37.07430753063053 21.2256
37.09779078812467 21.2102
37.121275660513014 21.1767
37.144945643673694 21.1535
37.16843376245278 21.1618
37.19192350009803 21.0749
37.215414857931435 20.9776
37.239091382563885 21.0009
37.262585997426164 20.9935
37.28608223645736 20.9467
37.309763684451696 20.9378
37.33326318851098 20.94
37.356764320726555 20.9019
37.380267082425526 20.8807
37.40395510942588 20.8027
37.42746114683234 20.8115
37.45096881771841 20.7635
37.474478123414166 20.7567
37.49817275092816 20.6652
37.52168534303452 20.7137
37.54519957395567 20.5627
37.568715445024665 20.5348
37.592416694607714 20.5498
37.61593586281424 20.5176
37.63945667518264 20.5806
37.66297913304891 20.5076
37.68668702630454 20.4649
37.710212792059274 20.3524
37.733740207334854 20.3749
37.757269273470364 20.322
37.780983832050374 20.2724
37.80451621684926 20.2437
37.82805025654007 20.256
37.851585952464795 20.178
37.8753071980695 20.1189
37.89884622345676 20.0916
37.92238690911902 20.0644
37.94611318753442 20.0193
37.969657210779765 20.0706
37.99320289834801 19.9466
38.016750251586465 19.9438
38.04048325513017 19.9111
38.06403395679343 19.8667
38.087586328183946 19.8776
38.11114037065203 19.8218
38.13488012115898 19.8189
38.1584375229181 19.7791
38.181996599821 19.7098
38.205557353221124 19.66
38.229303872575656 19.6979
38.2528679961576 19.6921
38.27643380031219 19.5731
38.30000128639589 19.5648
38.32375459653193 19.546
38.34732546371299 19.5494
38.37089801690786 19.4702
38.39447225747609 19.4303
38.418232380377425 19.4109
38.441810012983396 19.435
38.46538933705673 19.4109
38.488970353960084 19.4014
38.51273731166058 19.3587
38.536321731567014 19.2894
38.55990784840681 19.2022
38.58367995004091 19.1649
38.60726947812959 19.0554
38.63086070726198 19.1285
38.654453638806274 19.1417
38.678232613930824 19.066
38.70182896773327 19.0184
38.72542702806741 18.965
38.7490267963045 18.951
38.77281266709232 18.9304
38.79641586862214 18.8934
38.8200207821842 18.8357
38.843627409152944 18.9531
38.86742019782782 18.8447
38.891030269149255 18.834
38.914642058016156 18.7959
38.938255565806124 18.7594
38.96205529464307 18.7215
38.98567225787121 18.6411
39.00929094417078 18.6194
39.03291135492255 18.6517
39.05671804624804 18.6404
39.080341923549106 18.6175
39.103967529460334 18.5727
39.127594865365744 18.4917
39.15140854155791 18.509
39.17503935514948 18.4362
39.19867190290282 18.4501
39.22249083587951 18.3554
39.24612686969409 18.3663
39.269764641845306 18.4262
39.293404153722804 18.3963
39.317230110864074 18.2837
39.34087311998506 18.2438
39.36451787301696 18.1915
39.388164371352595 18.1306
39.41199737518003 18.1629
39.43564738196752 18.1408
39.45929913825317 18.1244
39.48295264543308 18.0293
39.506792718520884 18.0232
39.530449745387216 18.0942
39.55410852735203 17.9908
39.57776906581474 18.0432
39.60161623079 17.9557
39.625280300200025 17.9487
39.64894613032202 17.9028
39.67261372255866 17.8873
39.6964680021016 17.8377
39.72013913657293 17.7869
39.74381203738292 17.8011
39.76748670593756 17.7686
39.79134812278169 17.8294
39.81502634488497 17.7356
39.83870633896685 17.6931
39.862388106436654 17.6541
39.88625668336918 17.5857
39.90994201572829 17.6185
39.933629125719285 17.5697
39.957503091207826 17.5776
39.9811937746168 17.5679
40.00488623990914 17.5289
40.02858048850006 17.4499
40.05246165409549 17.3607
40.076159487492085 17.383
40.099859108448875 17.3867
40.123560518384345 17.3494
40.1474489070226 17.3412
40.171153913178564 17.265
40.194860712584955 17.2892
40.2185693066637 17.248
40.242464941335314 17.1432
40.26617714307655 17.1816
40.289891143772046 17.1462
40.3136069448471 17.0699
40.33750984859743 17.1039
40.3612292688043 17.0318
40.3849504936829 17.0337
40.40867352466194 17.004
40.43258372059144 16.9906
40.45631038219906 16.9419
40.48003885420956 16.905
40.503769138055105 16.9049
40.52768664931955 16.887999999999998
40.55142057531802 16.8352
40.57515631746428 16.8322
40.599079334038514 16.7784
40.62281872700477 16.7166
40.64655994043941 16.7039
40.67030297578061 16.6957
40.69423334835778 16.7309
40.71798004609188 16.6914
40.74172857006355 16.6495
40.76547892171441 16.5856
40.7894166736039 16.5888
40.813170699248566 16.5701
40.83692655691388 16.5332
40.86068424804498 16.5416
40.884629402612525 16.5108
40.908390779366385 16.5302
40.932153993938 16.4444
40.95591904777605 16.3999
40.979871628443995 16.4204
41.003640379561936 16.3306
41.02741097430883 16.4036
41.05118341413683 16.3163
41.075143444384416 16.2869
41.098919593177826 16.2738
41.1226975914255 16.2475
41.14647744058318 16.1951
41.170444943946755 16.1412
41.19422851378379 16.1847
41.218013938914645 16.133
41.24198706625173 16.1087
41.26577622087193 16.0403
41.289567235177785 16.0069
41.31336011063129 15.9819
41.337340752422875 15.9628
41.361137369129835 15.9756
41.38493585138705 15.946
41.40873620066004 15.8865
41.43272438060107 15.8616
41.45652848292052 15.8254
41.48033445666918 15.8401
41.50414230331616 15.7597
41.528138045159764 15.764000000000001
41.551949656675205 15.761
41.575763145513235 15.7147
41.59957851314666 15.6851
41.62358184070442 15.6581
41.64740098505737 15.6098
41.6712220126409 15.5995
41.69504492493139 15.5698
41.71905586207357 15.575
41.74288256296395 15.5192
41.766711153007456 15.5122
41.79054163368412 15.4527
41.814560204340054 15.4258
41.838394485526365 15.4154
41.86223066180303 15.3828
41.88625497706819 15.3469
41.910094962812 15.3562
41.93393684811168 15.3497
41.95778063445365 15.231
41.981812625263366 15.2887
42.00566023303407 15.3057
42.029509746323676 15.2269
42.05336116662236 15.2405
42.077400857069705 15.167
42.10125611078846 15.1517
42.12511327600405 15.1394
42.14897235421036 15.0935
42.173019768448455 15.0941
42.19688269209613 15.0596
42.22074753323349 15.0513
42.24461429335818 14.9805
42.268669455600495 14.9323
42.292540073217886 14.954
42.31641261433284 14.9768
42.34028708044675 14.8901
42.36435001496739 14.866
42.38822835065557 14.8815
42.41210861586426 14.8085
42.4359908120986 14.8074
42.46006154323262 14.7153
42.48394762115317 14.6747
42.507835634632315 14.720999999999998
42.531912233047436 14.7155
42.55580413732265 14.6407
42.579697981698 14.6754
42.60359376768525 14.6273
42.62767820545945 14.6028
42.65157789440821 14.6577
42.67547952952185 14.5346
42.699383112316 14.5197
42.72347541395347 14.5006
42.74738291190531 14.4254
42.771292362102166 14.4788
42.795203766063516 14.4071
42.819303956130405 14.3321
42.843219287476536 14.353
42.86713657716324 14.3166
42.89105582671383 14.3305
42.91516392983864 14.3003
42.939087119032166 14.2683
42.963012272677304 14.1988
42.98693939230129 14.1932
43.01105543317513 14.1758
43.034986504731386 14.1944
43.05891954686589 14.1653
43.08285456110972 14.1121
43.10697856448665 14.0867
43.130917542983475 14.0333
43.15485849820081 14.0142
43.17880143167367 14.0284
43.20293342237094 14.0019
43.226880332449 13.9847
43.25082922540554 13.9682
43.27496722682525 13.9649
43.29892010567796 13.8986
43.32287497204102 13.8686
43.34683182745632 13.8348
43.370977859791836 13.832
43.39493871351105 13.8212
43.41890156092628 13.7729
43.44286640358341 13.7481
43.46702049182749 13.7296
43.49098934522816 13.6978
43.51496019852649 13.6718
43.5389330532723 13.6881
43.56309522248204 13.6294
43.58707210044314 13.6568
43.61105098451946 13.5998
43.63503187626491 13.5519
43.659202151562134 13.5425
43.68318707902681 13.5036
43.70717401884041 13.5385
43.731162972560874 13.4839
43.75534137913236 13.4406
43.779334381108384 13.4687
43.803329401683186 13.395
43.82732644241872 13.3727
43.8515130055166 13.3463
43.87551410707659 13.2971
43.89951723350145 13.3114
43.923709934595614 13.3209
43.94771713129917 13.2995
43.97172635758096 13.2466
43.99573761501002 13.2436
44.0199385169922 13.2128
44.04395385732619 13.1762
44.067971233533086 13.1919
44.09199064718605 13.1407
44.11619977548961 13.107000000000001
44.14022328470671 13.0622
44.16424883610785 13.1118
44.18827643127035 13.1084
44.21249381139513 13.0447
44.236525514814076 12.9924
44.26055926674478 12.9721
44.28459506876863 12.9381
44.3088207262813 12.9382
44.33286064928722 12.8971
44.35690262714919 12.8859
44.38094666145278 12.8434
44.4051806219871 12.8444
44.42922879003185 12.8096
44.45327901929361 12.7773
44.477331311362136 12.7415
44.501573600619416 12.7438
44.525630039221795 12.6776
44.54968854541895 12.7444
44.573937102200176 12.6692
44.5979997645541 12.6936
44.622064499300315 12.6531
44.64613130803592 12.6472
44.67038823869318 12.5945
44.69445921643748 12.5724
44.718532272981385 12.5559
44.742607409926194 12.547
44.76687274034801 12.5027
44.79095205918753 12.4915
44.81503346325094 12.499
44.839116954143876 12.4546
44.86339071028742 12.4235
44.88747839599524 12.4281
44.91156817336837 12.3975
44.93566004401666 12.4103
44.959942251908146 12.3574
44.984038330325966 12.3221
45.00813650686762 12.2559
45.03223678314731 12.2867
45.05652746888232 12.2118
45.08063196592069 12.2411
45.104738567558705 12.1851
45.128847275414856 12.203
45.15314646515866 12.1192
45.17725940679741 12.1235
45.20137445952892 12.1368
45.22568004865265 12.1082
45.24979934496396 12.0762
45.27392075725247 12.0281
45.29804428714431 12.0386
45.322358426247604 12.03
45.346486212804315 11.9828
45.370616121861914 11.9619
45.39474815505086 11.956
45.41907087049246 11.9243
45.4432071734666 11.9013
45.46734560548283 11.9314
45.49148616817604 11.8915
45.51581748638564 11.8435
45.5399623320197 11.8168
45.56410931325473 11.7566
45.58825843173002 11.8418
45.61259837920865 11.7934
45.636751793816 11.7678
45.66090735060093 11.7494
45.68506505120716 11.6585
45.7094136545275 11.6448
45.73357566449271 11.6328
45.75773982322992 11.6078
45.78190613238733 11.5953
45.806263418194064 11.5114
45.83043404997326 11.5823
45.85460683713677 11.5284
45.87897065658495 11.5281
45.90314777634752 11.5015
45.92732705646868 11.515
45.9515084986045 11.4392
45.97588104735473 11.4604
46.00006683541565 11.4174
46.02425479047904 11.4224
46.04844491420549 11.4223
46.0728262191024 11.3729
46.09702070211635 11.3459
46.12121735879483 11.3695
46.14541619080294 11.3207
46.169806278764455 11.3261
46.194009483459034 11.2695
46.21821486849841 11.2439
46.24242243555223 11.2125
46.266821333570014 11.2094
46.29103328674601 11.1741
46.31524742696538 11.1847
46.33946375590237 11.1609
46.36387149104216 11.1586
46.38809221957392 11.0951
46.41231514186606 11.0695
46.436540259597464 11.0639
46.460956858999374 11.0138
46.48518638983522 10.9956
46.509418121166966 11.007
46.533652054678114 10.9922
46.55807754555709 10.977
46.58231590571962 10.9708
46.60655647313217 10.9278
46.630988654873654 10.9075
46.655233659129024 10.8861
46.67948087571551 10.8525
46.70373030632484 10.8129
46.72817142736393 10.8647
46.752425308428684 10.8138
46.77668140861147 10.7836
46.80093972960865 10.7028
46.82538981736788 10.7525
46.849652602470904 10.7456
46.87391761349769 10.705
46.8981848521493 10.6781
46.9226439341274 10.6647
46.946915650573224 10.6203
46.97118959976749 10.6072
46.99546578341598 10.5958
47.019933887188216 10.5815
47.04421456235744 10.5931
47.06849747711879 10.5646
47.09278263318286 10.5391
47.11725978640143 10.495999999999999
47.14154944775105 10.458
47.165841355555656 10.4232
47.1901355115306 10.4737
47.214621741924994 10.4589
47.23892041698887 10.3693
47.26322134538975 10.3637
47.28771440635075 10.3509
47.31201986422527 10.3849
47.33632758061436 10.3751
47.360637557241866 10.2906
47.38513974410611 10.3129
47.40945426407847 10.3142
47.43377104948137 10.2808
47.45809010204344 10.2449
47.48260144275502 10.219
47.506925052572285 10.1787
47.53125093475548 10.1673
47.55557909103813 10.1558
47.58009961361992 10.1105
47.60443234110732 10.1232
47.62876734791564 10.1098
47.65310463578333 10.042
47.6776343683373 10.0544
47.7019762413987 10.0118
47.72632040075572 9.98643
47.75066684815169 9.9827
47.77520581885936 9.9877
47.799556865477655 9.9984
47.823910205386 9.98443
47.84826584033272 9.94229
47.87281407745551 9.891919999999999
47.89717432569297 9.92008
47.92153687423484 9.89585
47.94609208429692 9.8817
47.97045925671401 9.8744
47.99482873471275 9.82395
48.01920052005013 9.80406
48.04376504619224 9.784189999999999
48.068141469543484 9.81453
48.09252020552573 9.83055
48.11690125590099 9.746080000000001
48.1414751266064 9.727730000000001
48.16586082917454 9.71715
48.19024885144316 9.6737
48.2146391951793 9.64717
48.239222439012764 9.65705
48.26361744916137 9.63785
48.28801478610016 9.649189999999999
48.31241445160131 9.63333
48.337007097209366 9.61432
48.36141144338331 9.575389999999999
48.38581812345755 9.53072
48.41022713920929 9.53606
48.434829215320704 9.533430000000001
48.45924292604658 9.525839999999999
48.48365897780325 9.53311
48.50807737237308 9.494
48.532688907799276 9.467789999999999
48.55711201168574 9.44233
48.581537463754074 9.42303
48.60615611725119 9.386560000000001
48.63058628942721 9.3936
48.65501881516546 9.38009
48.6794536962573 9.36402
48.70408185970339 9.34955
48.72852147531801 9.32214
48.75296345168211 9.29071
48.77740779059232 9.30361
48.80204549302823 9.31841
48.82649458091802 9.26218
48.85094603676547 9.22767
48.87539986237231 9.21678
48.90004713292306 9.24666
48.92450572200832 9.19812
48.94896668628025 9.14269
48.97343002754588 9.14058
48.99808689542115 9.17784
49.02255501470614 9.18422
49.04702551642794 9.13419
49.0714984023988 9.0763
49.096164896893235 9.06448
49.120642575466796 9.049339999999999
49.145122643748394 9.04153
49.16960510355558 9.03991
49.19428125404938 9.00797
49.2187685210852 8.9698
49.243258185121555 8.95447
49.26794160167084 8.9607
49.2924360839405 8.909510000000001
49.31693296869764 8.89374
49.34143225776915 8.88757
49.36612538195438 8.87096
49.39062950396021 8.84857
49.41513603578346 8.82771
49.4396449792564 8.81533
49.46434784069503 8.83605
49.488861631846454 8.78637
49.513377840166804 8.795160000000001
49.537896467493745 8.750639999999999
49.56260909589029 8.75049
49.587132585683285 8.72994
49.611658500018365 8.67427
49.636186840738596 8.68243
49.66090926588511 8.66736
49.685442483902584 8.64179
49.70997813385706 8.59469
49.734516217597076 8.6019
49.75924846937352 8.59031
49.7837914452858 8.57523
49.80833686055187 8.555
49.83288471702571 8.570110000000001
49.85762682540054 8.59552
49.882179588965734 8.54497
49.9067347993235 8.50581
49.93129245833333 8.5114
49.95604445336378 8.46748
49.98060703442832 8.44095
50.005172069746266 8.44068
50.02993150438364 8.42
50.05450147301533 8.45659
50.07907390151433 8.42037
50.10364879174981 8.39637
50.12841816587289 8.37637
50.1529980044635 8.35795
50.17758031042124 8.33695
50.20216508562089 8.30983
50.22694442953363 8.30654
50.25153416817468 8.27524
50.27612638170508 8.2881
50.300721072005196 8.25957
50.325510416102105 8.24123
50.350110084975064 8.23765
50.37471223628208 8.20101
50.39931687190919 8.19712
50.424116246675766 8.170630000000001
50.44872587605249 8.16332
50.47333799543065 8.1367
50.49795260670191 8.103769999999999
50.52276204271512 8.10817
50.54738166295838 8.1261
50.57200378079314 8.10271
50.596628398116835 8.04606
50.62144792604559 8.042010000000001
50.646077567609396 8.03913
50.670709714377715 8.04045
50.69553683636198 8.02861
50.72017401885922 7.98877
50.7448137122895 7.98605
50.76945591856022 7.9450899999999995
50.79429318636823 7.93376
50.818940443716784 7.951860000000001
50.84359021965163 7.9184600000000005
50.868242516085964 7.87212
50.893089960641895 7.90578
50.917747323549435 7.8915
50.94240721271973 7.86532
50.96706963007175 7.8640300000000005
50.99192728239342 7.8034
51.01659478166073 7.81572
51.04126481489051 7.8224
51.06593738400761 7.7874
51.090805275207074 7.75115
51.11548294172845 7.736280000000001
51.14016314993547 7.73682
51.164845901758845 7.73613
51.18972406304274 7.70108
51.21441192780656 7.664389999999999
51.23910234200271 7.67472
51.2637953075678 7.641589999999999
51.288683770237945 7.61026
51.31338186432707 7.621589999999999
51.33808251561888 7.600619999999999
51.362978729967345 7.58477
51.387684521509755 7.5871699999999995
51.41239287610203 7.57585
51.437103795691165 7.51651
51.46201036644977 7.509539999999999
51.486726441956634 7.51587
51.51144508832545 7.5038100000000005
51.536166307509156 7.45937
51.56108326624387 7.4632
51.58580965706056 7.444539999999999
51.61053862657523 7.46335
51.635270176746864 7.44839
51.66019755512065 7.42598
51.68493429268881 7.382060000000001
51.70967361681515 7.35814
51.73441552946465 7.357819999999999
51.759353359237934 7.34262
51.7841004750961 7.36143
51.80885018539685 7.325060000000001
51.833602492111254 7.2891
51.8585508051424 7.29138
51.883308330926425 7.2455
51.90806845906181 7.23093
51.932831191525715 7.2008
51.95779001977161 7.2070300000000005
51.98255798721516 7.1962
52.00732856494335 7.16335
52.03229530577543 7.16255
52.057071130455945 7.17017
52.081849571391054 7.1525300000000005
52.106630630568695 7.146160000000001
52.13160794279417 7.09237
52.15639426492067 7.088360000000001
52.18118321127822 7.05973
52.205974783860896 7.072430000000001
52.23096269971011 7.086310000000001
52.255759551287994 7.05448
52.280559035098186 7.025
52.30536115314103 7.0187100000000004
52.33035970494467 7.021789999999999
52.35516711807904 6.98968
52.37997717147198 6.94832
52.40478986713005 6.98623
52.42979908731974 6.973789999999999
52.454617094216 6.90804
52.47943774942214 6.919110000000001
52.50426105495102 6.894889999999999
52.529280976059844 6.8582
52.554109609024096 6.870489999999999
52.57894089837482 6.86713
52.60377484613117 6.858219999999999
52.62880550079408 6.848210000000001
52.65364479223379 6.80992
52.67848674816189 6.774660000000001
52.70352547971946 6.74725
52.72837279155837 6.7892600000000005
52.753222773982785 6.764710000000001
52.778075429022984 6.75425
52.80312495150885 6.71588
52.827982978797436 6.72275
52.85284368481815 6.70489
52.87770707160767 6.680219999999999
52.90276741793998 6.6529
52.92763619336701 6.652639999999999
52.952507655698504 6.649889999999999
52.977381806977576 6.64324
53.00245301017842 6.588830000000001
53.02733256653592 6.597119999999999
53.052214817996074 6.60849
53.077099766608484 6.5463
53.102181859804446 6.53606
53.127072229988265 6.53452
53.15196530349892 6.5781600000000005
53.17686108239249 6.53268
53.20195409881522 6.51828
53.22685531582556 6.495340000000001
53.25175924441303 6.4492199999999995
53.27666588664027 6.47015
53.30176985962693 6.427969999999999
53.3266819565689 6.45236
53.35159677336455 6.4326099999999995
53.376514312083096 6.42968
53.40162927507703 6.39267
53.42655228516116 6.366630000000001
53.45147802340193 6.39571
53.47660125628886 6.37552
53.50153247842639 6.33639
53.52646643496923 6.36428
53.55140312799818 6.31729
53.576537409691696 6.31685
53.60147960336152 6.28331
53.626424539786164 6.2867
53.65137222105307 6.2407699999999995
53.67651758529126 6.25997
53.70147078399681 6.22231
53.72642673383343 6.19405
53.75138543689533 6.2363599999999995
53.776541917524526 6.23281
53.801506154876755 6.18714
53.826473151763246 6.20262
53.851442910284916 6.173369999999999
53.87661054126026 6.14827
53.9015858509782 6.1355699999999995
53.92656392866066 6.12606
53.95154477641532 6.11798
53.976723591801296 6.0557099999999995
54.00171000771266 6.02041
54.02669920004598 6.05882
54.051691170915745 6.03332
54.076881204886796 6.04793
54.101878760928514 6.00204
54.12687910187696 5.91205
54.152077577768296 5.94533
54.1770835166946 5.94972
54.20209224691339 5.9379800000000005
54.22710377055121 5.87993
54.25231352511594 5.92036
54.27733066384342 5.85121
54.30235060239643 5.8634699999999995
54.32737334290836 5.83134
54.35259441062629 5.8182
54.377622783395324 5.78759
54.40265396455061 5.78915
54.42768795623251 5.77366
54.45292037169559 5.72734
54.477960012857906 5.7085300000000005
54.50300247099511 5.69041
54.52804774825457 5.6580699999999995
54.55329154616743 5.65793
54.57834249018678 5.62614
54.6033962597977 5.60723
54.6284528571545 5.57147
54.653708072335164 5.51244
54.67877035378786 5.52315
54.70383546947698 5.5490699999999995
54.72890342156389 5.4781699999999995
54.7541700889442 5.50651
54.77924374251975 5.42149
54.8043202390049 5.38521
54.82959552413022 5.374280000000001
54.8546777351945 5.41824
54.87976279569621 5.42252
54.90485070780914 5.34649
54.930137506558005 5.29648
54.95523115074295 5.3303
54.98032765308844 5.278980000000001
55.005427015775496 5.26774
55.03072536339621 5.27275
55.05583047570572 5.20898
55.080938454927676 5.2514
55.10604930325027 5.20485
55.131359235107396 5.13797
55.15647585066083 5.0746
55.181595341907496 5.1236
55.20671771104285 5.093380000000001
55.232039262617704 5.05279
55.25716741665048 5.01222
55.28229845518636 5.01192
55.30743238042802 4.95072
55.33276558731939 4.94564
55.357905315183636 4.9492
55.383047936390035 4.90331
55.40819345314859 4.90437
55.433538351073295 4.85491
55.458689688238415 4.87562
55.483843927614096 4.79418
55.509197623043605 4.76276
55.53435769621134 4.7727699999999995
55.55952067826466 4.73134
55.5846865714265 4.74607
55.61005202069737 4.75504
55.63522376553902 4.7403900000000005
55.66039842818645 4.69856
55.68557601087004 4.72158
55.7109532500271 4.57391
55.73613670233794 4.6268
