TT I
1.2716486653135266 7.767010000000001
1.2939594142134223 7.31965
1.3162702121660406 6.61343
1.3385810600174564 6.88938
1.3608919586137629 7.15342
1.383202908801069 6.583010000000001
1.405513911425503 6.94256
1.4278249673332093 6.47598
1.4501343378461518 6.601039999999999
1.4724455028545926 6.00218
1.4947567236847858 6.349559999999999
1.517068001182951 5.881469999999999
1.5393793361953272 6.0323199999999995
1.5616907295681737 5.47801
1.5840021821477681 5.63066
1.60631369478041 5.58321
1.6286252683124185 5.18727
1.6509369035901333 5.1326
1.6732468618895553 5.4953199999999995
1.695558623192809 4.8553
1.7178704487808514 5.4976199999999995
1.7401823395001077 5.35142
1.7625012545597203 5.23324
1.7848028405262486 5.24817
1.8071218901122095 5.031280000000001
1.8294236121921872 5.13099
1.8517427996910911 5.59741
1.8740620574440425 5.2026900000000005
1.8963639900671978 4.8255
1.9186833908139995 5.6775199999999995
1.9409854680117449 5.22754
1.9633050151394713 4.70461
1.9856246367570705 4.706259999999999
2.0079269371922672 4.88467
2.03024671027244 4.49336
2.0525491637446027 4.83995
2.074869091674931 4.5029900000000005
2.097171701569106 4.40977
2.1194917877373847 5.0226
2.141811954326636 4.17724
2.164114805233074 4.53747
2.186435135143035 5.89401
2.208738150935709 13.6135
2.231058647554722 27.8178
2.2533792288321184 21.7657
2.275682498336085 10.2683
2.298003251406138 6.04983
2.3203066942619714 5.655130000000001
2.3426276225136022 4.72361
2.3649486396617507 4.8814
2.387252348930071 5.41102
2.4095735463442893 5.535819999999999
2.4318774374315884 5.25805
2.4541988185014043 5.471019999999999
2.476502894794693 6.04092
2.498824462909887 5.9587900000000005
2.521146125856138 6.16286
2.5434504863470337 6.85692
2.5657723414244717 6.71508
2.588076895590662 7.34324
2.610398946189713 7.184419999999999
2.6327210958598384 6.6470199999999995
2.6550259469304716 6.92139
2.6773482972090137 7.49948
2.6996533504259 7.05835
2.7219759047039602 7.39
2.744298562293959 7.770569999999999
2.7666039251246595 7.31855
2.7889267918020164 7.966660000000001
2.8112323652516555 8.14613
2.833555444408179 8.31913
2.8558786311183852 8.21877
2.8781845268938557 8.52604
2.9005079311721484 9.11152
2.9228140460410397 8.55225
2.9451376712799635 9.4852
2.967444008632326 9.94093
2.9897678582247247 9.93464
3.0120918213106695 10.421
3.0343984987899373 11.4396
3.0567226913198637 11.3096
3.079029599759726 11.931
3.101354025127254 12.7226
3.123678568232338 13.1817
3.145985829517914 13.5916
3.16831061055229 13.7643
3.1906181112775593 14.3036
3.212943133635653 14.4136
3.2352682779763207 15.3146
3.2575761442691227 15.4454
3.2799015350264273 15.8289
3.302209649240067 16.7016
3.3245352898092655 17.5587
3.3468436553365257 18.0136
3.369169549113219 18.2995
3.3914955708171384 19.2552
3.413804319727358 18.959
3.4361305997334863 19.1461
3.4584396084414553 19.9564
3.4807661501462652 20.3392
3.503092824025881 20.994
3.5254022288463154 21.5249
3.5477291695206588 22.1134
3.5700388426251948 22.8475
3.5923660534916446 24.2312
3.6146934007816114 38.3066
3.637003482731501 89.0981
3.6593311053109985 96.4962
3.681641464033634 57.0806
3.7039693653009733 31.2926
3.726297407241705 26.9343
3.7486081875460804 25.9449
3.7709365132734978 26.6885
3.793247578841633 26.8791
3.8155761917550093 27.337
3.8378875459837216 27.4261
3.8602164494827234 27.9471
3.882545499606844 28.726999999999997
3.9048572932539183 29.4491
3.9271866390645718 29.8003
3.9494987298666713 30.3991
3.971828374764527 30.9031
3.9941581705403255 31.3863
4.016470713506008 32.2434
4.038800813471445 32.5658
4.061113662089144 33.2939
4.0834440696459176 34.3733
4.105774632334751 34.59
4.128087945865126 35.2553
4.150418821249301 36.1512
4.172732448931298 37.3647
4.195063640413578 40.0171
4.2173775856475215 43.7755
4.239709096631102 73.3611
4.262040768704612 235.993
4.284355196706267 312.926
4.306687193387355 202.94799999999998
4.329001947444346 80.8828
4.35133427213731 49.3968
4.373666762177566 45.6256
4.395982011761091 45.7847
4.418314834921175 47.1761
4.44063041906622 54.3619
4.4629635787515625 65.7036
4.4852969080429785 65.2551
4.5076130004776225 55.8298
4.529946671403969 52.9084
4.552263106909177 53.0198
4.574597122877047 53.2365
4.596931312711224 53.6167
4.619248269273446 54.5685
4.6415828092605835 55.2523
4.663900117405352 56.9443
4.686235010953232 58.6627
4.708552674085913 59.971000000000004
4.730887924602802 61.1952
4.753223354952695 62.6143
4.775541557023902 64.8195
4.797877349456786 66.2257
4.820195915032126 68.0744
4.842532072957498 68.9615
4.864868414979744 71.3602
4.88718753227192 73.9732
4.909524244902505 75.8394
4.931843734218147 78.0742
4.954180820867835 81.1987
4.976518095879839 84.6475
4.998838149695359 87.8729
5.021175803844231 91.789
5.043496238205739 95.7307
5.065834274903528 100.448
5.088172504230693 106.58200000000001
5.1104935158799565 115.306
5.132832132875765 142.78799999999998
5.155153533596801 191.523
5.1774925416746225 246.00400000000002
5.199814334878411 532.269
5.2221537374521505 1453.74
5.244493338631803 3446.03
5.266815727034316 7218.13
5.289155727832427 11374.6
5.311478517248165 9169.38
5.333818921080011 3610.82
5.356159527788849 787.237
5.3784829252032536 231.27700000000002
5.400823940070432 164.016
5.423147747031976 140.497
5.445489173474152 127.946
5.467830807066149 121.10600000000001
5.490155234831516 115.991
5.512497285125229 111.525
5.534822130975162 109.141
5.557164601388673 106.54799999999999
5.579489868738879 103.381
5.601832762690846 102.18299999999999
5.6241758697774475 101.791
5.646501775867269 100.516
5.668845311622074 98.9759
5.691171647754637 98.5055
5.713515615597765 96.8832
5.735859800852677 95.9873
5.758186788542988 95.9863
5.780531411018185 96.6423
5.802858837297399 95.5929
5.825203900414495 96.1932
5.8475491852224 97.4734
5.869877275883075 97.9013
5.892223006467101 99.0339
5.914551544266608 101.49799999999999
5.936897724049891 105.40299999999999
5.959244129804903 114.006
5.981573344815301 143.894
6.0039202049061 282.325
6.026249875609095 607.169
6.04859719346037 1180.27
6.070927323278297 2225.29
6.093275102315365 3923.15
6.115623113320588 4780.21
6.137953938319995 3488.7
6.160302415650845 1235.39
6.182633708324452 302.975
6.2049826554078376 131.748
6.227331838745022 102.029
6.249663839443684 91.5368
6.27201349767565 87.3739
6.294345974611799 92.6972
6.316696111167083 103.416
6.339046488263839 97.6665
6.361379686074702 82.9632
6.383730546639482 74.723
6.406064229255215 71.8777
6.428415576718203 71.1322
6.450749747566656 69.6958
6.47310158535871 68.5968
6.495453669698332 67.6265
6.517788579421056 66.7083
6.540141159237969 65.4107
6.562476565766648 65.2594
6.5848296444934045 64.9288
6.607182974060425 64.7238
6.6295191323281015 64.881
6.651872965955752 67.5836
6.6742096296068985 93.6455
6.6965639707294615 139.347
6.71891856698715 138.912
6.741255995248479 95.6633
6.763611104154477 69.3461
6.785949046381137 62.2741
6.808304671371482 60.1819
6.8306605557940046 60.2818
6.852999275508618 59.403
6.875355681171544 58.8994
6.897694923437771 58.5362
6.92005185377892 58.2783
6.9423916220322655 58.2568
6.964749080490181 57.5657
6.987106804399774 57.906000000000006
7.009447368180821 57.7465
7.031805625367033 57.0009
7.054146723727803 57.1472
7.076505517631004 57.1341
7.098864581288365 56.9206
7.121206488070854 56.8537
7.143566093607822 56.8924
7.165908543567245 57.0861
7.188268694426048 56.8676
7.2106291193438095 57.2193
7.232972390625943 58.7946
7.255333366030969 70.8229
7.277677189091925 123.055
7.300038718428332 170.865
7.322400526130865 143.025
7.344745183422596 89.6916
7.367107550224791 63.0376
7.389452767901992 58.0659
7.411815697249891 57.1576
7.434161478756298 55.9723
7.456524974096713 55.6249
7.478888753837185 55.8793
7.501235387657368 56.2444
7.523599738562711 56.4524
7.545946944825532 56.445
7.568311870344528 56.937
7.5906770845765665 57.3473
7.613025156078678 58.5129
7.635390950099687 59.4407
7.657739602662809 58.6744
7.680105979923558 57.8292
7.702472650212829 57.8518
7.724822180948224 57.8966
7.747189439655568 57.6363
7.769539560075357 57.6248
7.791907410653562 58.2436
7.81425812420825 58.2177
7.836626570110925 58.7572
7.858995315087906 59.4111
7.881346924933401 59.6777
7.903716270417482 60.383
7.926068482028405 60.6807
7.948438431475253 60.8674
7.9708086843180235 61.5661
7.993161805171116 62.0921
8.015532667162402 62.8909
8.037886398416653 63.8269
8.060257873014221 64.40899999999999
8.082629655331942 65.013
8.104984308787587 65.7533
8.127356708900503 69.4493
8.149711981398308 75.1145
8.172085002766314 77.5664
8.194458336181368 74.1744
8.216814543847752 71.6656
8.23918850371002 71.8366
8.26154533906492 72.7551
8.283919928836452 74.1738
8.306277395339652 75.3796
8.328652618483376 77.1635
8.351028159736202 78.9401
8.373386579575245 81.3082
8.395762759396959 83.7414
8.418121819038275 89.0762
8.440498640894003 103.663
8.462875785192262 119.588
8.485235811156207 140.299
8.507613602688501 203.25900000000001
8.529974277114228 314.99
8.552352719347912 465.101
8.574731488360351 715.22
8.59709314210385 1135.93
8.619472567021075 1664.26
8.64183487789147 2101.53
8.664214962183097 1897.48
8.686577933647762 1106.89
8.708958680784317 457.871
8.731339760774953 191.50900000000001
8.753703729764451 121.32799999999999
8.77608547780821 105.49700000000001
8.798450116065078 100.32700000000001
8.820832535634787 96.6072
8.843215292401656 94.5702
8.865580941199045 92.7682
8.887964374703538 91.8045
8.910330701447199 92.3754
8.932714815164482 94.5811
8.955099270424924 93.7598
8.977466620733543 90.5863
8.999851761421976 87.8391
9.022219798361645 86.2236
9.04460562795561 86.4002
9.066991803441677 85.6941
9.089360876979615 85.6807
9.111747746589993 85.4118
9.13411751544971 84.7585
9.156505082664324 84.4232
9.178875550323522 84.4813
9.20126381862328 84.7426
9.223652438908596 85.2314
9.246023961427412 85.0408
9.26841328802173 84.4663
9.290785518039224 84.4387
9.313175554425882 85.8826
9.335565947154315 86.1795
9.357939245086508 85.9943
9.380330352834827 85.6541
9.40270436697103 85.7593
9.425096193225055 85.7644
9.447488380180165 86.995
9.469863475295412 86.8219
9.492256385987508 87.4678
9.514632206018318 87.7611
9.537025843935714 88.2611
9.559402392368193 89.0802
9.581796761000229 90.0831
9.604191496441521 91.4386
9.626569144158516 95.0482
9.648964615551032 99.7337
9.671343000390081 101.42399999999999
9.693739211225699 99.1191
9.716135793237463 97.2626
9.738515290448102 96.2638
9.760912617143402 97.4263
9.783292860202891 98.8462
9.805690935076182 99.8447
9.828089385495742 100.975
9.850470754023561 103.56700000000001
9.872869957865444 111.65899999999999
9.89525208097539 127.18
9.917652041736662 140.135
9.940052382417589 143.418
9.962435644102392 160.32
9.984836746950979 212.372
10.007220771957746 292.41900000000004
10.029622640473708 408.03
10.052007432299963 584.306
10.074410069984072 825.368
10.096813093716005 1184.39
10.119199042482517 1620.09
10.141602840636468 1901.15
10.163989564971628 1729.9
10.186394141051062 1090.44
10.208799107559706 495.212
10.231187001965623 227.255
10.253592751657669 139.963
10.275981430388155 119.949
10.298387966769793 117.77600000000001
10.320794897965431 120.10600000000001
10.343184759907361 119.01899999999999
10.36559248305461 113.22
10.387983138083852 109.48899999999999
10.410391656691655 114.493
10.432800574501677 130.112
10.455192425893369 151.17700000000002
10.47760214443012 178.80599999999998
10.499994797678786 219.785
10.522405320453982 284.035
10.54479877906917 377.86400000000003
10.567210109595656 479.345
10.5896218454736 544.609
10.612016518879773 526.722
10.634429067781074 378.689
10.656824555333241 222.136
10.679237920773568 132.963
10.701651695961992 100.838
10.724048411481384 92.726
10.746463008485165 89.8106
10.768860546937125 87.8955
10.791275969274796 86.0338
10.81369180576079 84.8325
10.836090585366925 83.796
10.858507252467449 82.3682
10.88090686379991 81.4924
10.903324365036394 80.6085
10.925724811614439 80.5904
10.948143150509463 82.0028
10.970561909719066 81.2987
10.992963615930844 79.2409
11.015383218085756 76.9688
11.037785768347074 75.4143
11.06020621697282 74.9923
11.082627090322113 74.5896
11.105030913430326 74.0393
11.12745263854165 74.5264
11.149857314510728 77.8773
11.172279894912576 83.9915
11.194702904450653 84.7345
11.217108866490921 80.5925
11.239532736615194 75.8699
11.26193956033512 73.8547
11.284364294577085 72.6634
11.306789462371718 70.4533
11.329197585398376 69.3686
11.351623622610898 68.9492
11.37403261614354 68.2649
11.396459526308487 68.2719
11.418869393879497 67.7315
11.441297180532617 67.3651
11.463725406927658 66.9485
11.486136592353875 66.5509
11.508565700543707 67.2749
11.530977768845315 69.0156
11.553407762368774 69.8174
11.575838200059769 69.6092
11.598251599479612 67.3348
11.620682927815501 66.0306
11.64309721895548 65.5166
11.665529441478206 65.209
11.687962112597958 64.8296
11.710377748130886 65.1363
11.732811318753434 64.9509
11.755227854859067 64.8198
11.777662328529495 64.7866
11.800079768750786 64.6787
11.822515149015453 64.6886
11.844950984084935 64.5233
11.867369787303163 64.2278
11.889806534289491 64.5445
11.912226250487029 64.7765
11.934663912939751 65.1947
11.9571020346363 65.1393
11.979523127133968 65.2299
12.001962169624331 66.2466
12.024384183972964 67.9032
12.046824150809913 72.2604
12.069264581333726 78.4777
12.091687985297767 85.0641
12.11412934550045 94.0353
12.136553680195208 107.068
12.158995973632788 125.56
12.181438735204349 149.651
12.20386447284199 177.44099999999997
12.226308172985636 202.896
12.24873485024193 209.175
12.271179492516982 179.763
12.293607112949127 135.099
12.316052700916226 102.42399999999999
12.338498763250042 82.3345
12.360927805303868 72.8371
12.383374818673879 68.7296
12.405804812803074 66.6156
12.428252780773262 66.473
12.45070122756722 66.3059
12.473132656675375 66.0598
12.49558206341869 66.5348
12.518014453510101 66.3835
12.540464823770117 66.5942
12.562915677315177 67.0375
12.58534951575545 67.4691
12.607801338171472 69.738
12.630236146511358 74.6762
12.652688941369085 79.9757
12.675124723177234 79.9865
12.697578494048786 76.4361
12.720032754458185 71.8698
12.742470003354093 70.1335
12.764925245138771 70.0361
12.787363476431278 70.012
12.809819703166806 70.4791
12.83227642391173 71.3421
12.854716135692716 72.0107
12.877173846755147 73.0735
12.899614549869717 73.3482
12.9220732548287 74.0883
12.94453245827299 74.6053
12.966974655289818 75.7715
12.989434858002571 76.5564
13.011878055298721 77.4898
13.034339260862497 78.4236
13.056800969391883 79.5848
13.079245674017244 82.0628
13.101708390774869 85.5734
13.12415410463411 95.2902
13.146617833206086 109.721
13.169064559883248 123.823
13.191529303857127 139.662
13.213994557076367 161.436
13.236442809902437 192.908
13.258909083908291 237.66099999999997
13.28135835851934 289.362
13.30382565690295 346.89
13.326293469022952 404.994
13.348744283242008 429.44699999999995
13.371213125129904 382.82199999999995
13.39366497011003 288.485
13.416134845360597 192.93900000000002
13.438605238843131 134.55100000000002
13.46105863690397 114.506
13.483530069144786 114.846
13.505984506951902 121.694
13.528456981549432 132.379
13.550929978879088 147.185
13.573385983253365 166.937
13.595860028340867 198.44799999999998
13.618317081455832 236.718
13.64079217790333 283.027
13.663250283359057 329.351
13.685726434770173 361.92199999999997
13.708203115221277 345.91900000000004
13.730662806148091 285.512
13.75314054697177 208.424
13.775601299246777 139.93
13.798080104050406 104.06700000000001
13.820559442405358 89.3172
13.843021793671388 84.9241
13.865502201420897 82.8245
13.887965623051947 82.3023
13.910447103807167 81.1628
13.932929122629764 79.5167
13.955394156785959 79.2924
13.977877254034569 78.1982
14.000343367582113 77.4356
14.022827546871707 76.7959
14.045294743423524 75.9777
14.06778000837062 75.4685
14.090265817715476 75.2639
14.112734645763819 74.8478
14.13522154619454 74.6979
14.157691466286913 74.8182
14.180179461423874 74.3906
14.202668005486178 73.5559
14.22513957064374 72.8968
14.247629214846473 72.6005
14.270101881097517 72.3256
14.29259262906496 72.6797
14.315083930490205 73.4793
14.337558255389705 73.7569
14.360050666019726 73.5872
14.382526101071944 72.6628
14.405019624534942 71.4846
14.427513705993134 70.8878
14.449990813291825 71.1477
14.47248601302899 70.7699
14.49496423954951 71.1155
14.517460561197822 71.0943
14.539939910570322 70.9248
14.562437357763558 71.1562
14.58493536931253 72.4642
14.607416409993311 73.4018
14.62991555254159 73.9398
14.652397725157423 73.9164
14.674898002342799 73.2275
14.697398848433282 72.7384
14.719882725991326 73.5632
14.74238471217934 75.406
14.764869730765593 80.021
14.787372860692983 84.2421
14.809876564079925 89.595
14.83236330125751 95.9992
14.854868153850365 103.98200000000001
14.877356041159485 115.88600000000001
14.899862046604186 131.154
14.922351087688757 150.721
14.944858249632887 173.67
14.967365991421232 198.77900000000002
14.989856770231246 218.278
15.012365673994204 221.794
15.03485761569738 198.021
15.05736768508665 159.251
15.07987833888692 122.661
15.102372032001655 95.7609
15.124883856909658 80.1473
15.14737872204565 74.9451
15.169891721717274 73.0035
15.192405310371893 72.9439
15.214901940621196 72.9447
15.237416709527137 72.8107
15.259914520936249 73.2806
15.282430473753607 72.4369
15.304947020131227 71.1997
15.327446610371178 70.3173
15.349964346154254 69.2898
15.372465126703139 68.8746
15.394984055556009 68.5231
15.417486030076159 68.3015
15.44000615566487 68.3431
15.462526881230803 68.1723
15.485030653812652 68.40899999999999
15.507552581617434 68.3132
15.530057557334603 68.2702
15.55258069104857 68.4444
15.575104429329837 68.4225
15.597611216864632 68.0912
15.620136166564563 68.5445
15.6426441664095 70.023
15.665170331202765 73.2191
15.687697105158826 77.0474
15.710206930593545 81.3206
15.732734925158933 85.70299999999999
15.755245972089478 91.8475
15.77777519094324 100.053
15.800287463046663 110.821
15.822817909869592 125.853
15.84534897229804 142.433
15.867863089299354 162.786
15.890395385222186 181.263
15.912910736597423 195.0
15.935444269699861 190.83700000000002
15.957978423016485 167.794
15.980495633101265 134.681
16.003031029129367 104.795
16.02554948280019 81.7275
16.048086125229432 70.6907
16.070623392487107 67.5976
16.09314371869582 66.9243
16.11568223789321 65.7541
16.13820381691126 64.7904
16.160743591742527 63.6343
16.183283996022084 62.3871
16.205807461423195 61.3674
16.228349126881973 61.0144
16.25087385432698 60.7966
16.27341678466365 60.2256
16.29594277784926 60.2028
16.31848697676433 60.7311
16.341031811604868 60.766999999999996
16.36355971058487 61.2525
16.3861058195587 60.817
16.40863499352978 59.2567
16.431182380342005 58.5495
16.453730407713202 58.0014
16.476261501364792 57.5674
16.498810812136167 57.3522
16.52134319004079 57.5599
16.54389378792203 57.3205
16.566445031001553 57.066
16.588979342490088 56.8609
16.61153187824822 56.7369
16.634067483263312 56.6426
16.656621315414416 56.547
16.679175797408888 56.2632
16.701713349928728 56.3962
16.72426913389191 56.7358
16.74680798922351 56.8747
16.76936507887444 56.7789
16.791905240734874 56.7863
16.814463639794468 56.7034
16.837022695210294 56.7105
16.859564824093756 57.1265
16.882125194503903 57.7966
16.904668639217885 58.5394
16.927230328348003 58.62
16.949792678493612 58.6592
16.972338104193863 58.0207
16.994901778652235 57.4013
17.017448529496576 57.4489
17.040013531998152 57.9062
17.06257920018044 58.2438
17.0851279459922 59.1331
17.107694947817667 60.1525
17.130245028099072 61.2068
17.15281336730298 62.6385
17.17536478578733 64.097
17.19793446610687 66.2814
17.220504818648422 68.8149
17.243058251703697 71.1692
17.265629950971032 74.6322
17.288184731571736 78.4848
17.310757781306908 82.54899999999999
17.33333150794385 84.5781
17.355888317140174 83.8999
17.37846339986244 80.5993
17.401021565958885 74.5377
17.42359800851343 68.7677
17.44617513265564 64.8753
17.468735341390783 62.2849
17.491261035594565 61.0731
17.51396340099364 60.8333
17.536490463869136 60.9811
17.559018209820174 61.0659
17.58154663977963 61.2141
17.604251766089718 61.2433
17.626781572227713 61.3509
17.64931206518155 61.6664
17.671843245885103 62.2497
17.69455114821572 62.4206
17.717083712612634 62.9352
17.739616967569667 62.9745
17.762150914021706 63.2853
17.78486160749854 63.2583
17.807396945166804 64.0865
17.829932977143503 65.307
17.85246970436452 67.4328
17.875183204129467 69.7384
17.897721330097664 72.1533
17.920260154126645 74.8839
17.942799677153296 77.8402
17.9655159983646 81.5232
17.988056927677544 86.322
18.010598558807683 92.5576
18.033140892692916 100.29299999999999
18.05586005052525 108.863
18.07840379824407 118.552
18.10094825154059 129.642
18.12366954819864 139.629
18.146215420998306 144.129
18.16876200220057 138.451
18.191309292745153 126.009
18.214033452627167 111.566
18.236582170236648 98.5633
18.259131600016456 90.7439
18.281681742907335 88.8994
18.304408781233683 91.0584
18.32696035875955 94.8796
18.349512652227624 99.0366
18.372065662579683 104.435
18.394795594587553 107.545
18.41735004715306 106.507
18.43990521943684 100.301
18.46246111238171 91.3917
18.485193953325208 81.0072
18.507751296070428 72.9914
18.530309362314178 68.3018
18.552868153000343 65.6517
18.57560391815056 64.0403
18.59816416623245 63.7447
18.620725141597372 63.5714
18.643286845190268 62.8202
18.666025549835414 62.313
18.688588718427933 61.8778
18.711152618092243 61.7365
18.73389353884365 61.2956
18.75645890921984 60.8979
18.77902501351406 60.6524
18.801591852673102 60.361000000000004
18.824335739722738 59.8313
18.846904057212626 59.8493
18.8694731124168 59.527
18.89204290628315 59.5214
18.914789774966803 59.4578
18.937361054791623 59.1101
18.959933076131318 58.8465
18.982505839934877 58.8397
19.00525570560582 59.0289
19.027829963004184 58.7612
19.05040496572238 58.8092
19.072980714710468 59.0998
19.095733592739563 59.3433
19.11831084296757 59.5828
19.140888842324735 60.1424
19.16346759176222 60.6643
19.18622349753803 61.0729
19.208803755869358 61.8369
19.231384767143577 62.8685
19.253966532312948 64.118
19.276725481241822 65.8607
19.29930876296784 67.7087
19.3218928014549 69.8812
19.34465404436217 72.8283
19.36723960516257 75.6405
19.389825925592426 77.6179
19.412413006605938 77.8208
19.43517731967805 75.2779
19.457765930683355 71.1167
19.48035530514408 66.3926
19.50294544401556 62.1339
19.525712842708348 59.0165
19.54830451925909 57.2904
19.570896963095727 56.1566
19.593490175174704 55.6482
19.616260674962184 55.6787
19.638855432416964 55.2905
19.661450960992624 55.4283
19.68404726164677 55.068999999999996
19.706820878021247 54.9458
19.729418731756834 55.3408
19.752017360452857 55.0213
19.77461676506804 55.3222
19.797393513540218 55.5529
19.819994478951667 55.9936
19.84259622316767 56.4652
19.8651987471481 56.8176
19.887978643247177 56.9001
19.91058273574792 57.5016
19.933187610901943 58.4321
19.955969879466828 59.4389
19.97857632894404 60.5859
20.00118356396599 61.8549
20.023791585494575 63.6863
20.046577028914875 65.855
20.069186632506966 68.0463
20.091797025500632 70.0151
20.114408208858933 71.2709
20.137196842715273 71.9807
20.159809615886765 70.8994
20.18242318232135 68.4839
20.20503754298326 66.0549
20.227829382875154 64.2717
20.250445341109344 63.4523
20.27306209647285 63.5779
20.29567964993108 64.49
20.31847471147704 65.613
20.34109387027612 66.8113
20.363713830075454 67.2813
20.386334591841646 66.3997
20.409132890679302 64.0601
20.431755265564437 60.7583
20.454378445325528 57.8196
20.477002430930366 55.6531
20.499803982716553 54.2001
20.522429589228004 53.3451
20.54505600449589 52.8241
20.567683229489194 52.7096
20.590488049900088 52.2453
20.61311690359731 51.8704
20.63574656993626 51.7039
20.658553853717297 51.077
20.681185154618298 51.2184
20.703817271080066 51.1409
20.72645020407368 50.7518
20.749260783967177 50.7888
20.771895359337133 50.5824
20.794530754161617 50.4911
20.817166969412938 50.343999999999994
20.83998086114876 50.3419
20.86261872660049 50.2055
20.885257415405402 50.3204
20.90789692853701 50.121
20.930714147864748 50.1377
20.953355319030678 50.1641
20.97599731745334 50.372
20.99864014410749 50.1822
21.021460706796564 50.3403
21.044105199328826 50.7035
21.06675052302631 50.6795
21.089396678865015 50.7636
21.112220600704806 51.0243
21.134868430275347 51.4802
21.15751709492456 51.6042
21.180166595629693 51.7334
21.202993892429635 52.0935
21.22564507473034 52.6286
21.24829709602816 52.8829
21.27112693608965 53.1975
21.293780644891275 53.3366
21.316435195634053 52.7945
21.339090589297417 52.0637
21.361923832041875 51.4619
21.384580921090404 50.7796
21.407238856007325 50.3025
21.429897637773326 50.0728
21.45273429906592 49.9775
21.475394784108598 49.8559
21.498056118951983 49.9426
21.520718304578022 50.0751
21.543558400304388 50.3853
21.566222297108816 50.5119
21.58888704765135 50.7945
21.61155265291521 51.1656
21.63439619898156 51.6869
21.657063523335786 51.7464
21.67973170537063 52.1425
21.7024007460706 52.7275
21.72524775840385 53.5007
21.747918526116475 54.5018
21.770590155457388 55.5177
21.79326264741238 56.8229
21.816113141960237 58.3245
21.838787368860547 59.935
21.861462461341976 61.5334
21.884315579735777 63.5702
21.90699241312273 65.0903
21.92967011506078 66.4534
21.95234868653799 66.8093
21.9752053151131 65.9324
21.997885635446785 64.1235
22.020566828293532 62.031000000000006
22.04324889464272 59.7928
22.066109049404666 58.0802
22.088792872571794 57.3241
22.111477572219204 57.4378
22.1341631493376 57.6695
22.157026846313123 57.5885
22.179714188221507 57.2584
22.202402410582668 56.467
22.22509151438863 54.9397
22.24795876962584 53.3303
22.270649646204486 52.3989
22.293341407213727 51.733000000000004
22.316034053646906 51.0338
22.338904883215342 50.7257
22.36159931041458 50.6655
22.38429462602756 50.6763
22.40699083104897 50.4974
22.429865251039757 50.5059
22.452563244831367 50.4454
22.47526213102522 50.5816
22.49813925616515 50.2242
22.520839937143307 50.2111
22.543541513520587 50.3417
22.56624398629403 50.2235
22.589124730075895 50.0224
22.611829005656723 50.4097
22.63453418063466 50.3524
22.657240256008077 50.6225
22.680124634582935 50.6603
22.70283252079775 50.9378
22.725541310413075 51.3187
22.74825100442868 51.4722
22.771139033969575 52.1638
22.79385054687155 52.1366
22.81656296718292 52.7112
22.83927629590484 53.3931
22.862167992606945 54.3118
22.88488314827121 55.32
22.907599215359284 56.1712
22.93031619487366 57.0918
22.953211574954405 57.9068
22.975930389478226 58.9498
22.998650119445763 59.4645
23.02137076586092 59.2477
23.044269845560063 58.2771
23.06699233506288 56.6559
23.089715744034912 54.817
23.112617610931565 52.9849
23.135342869061212 51.7892
23.158069049684816 50.8972
23.1807961538087 50.4996
23.20370174880544 50.4615
23.226430710184808 50.6216
23.249160598093425 50.4882
23.271891413539002 50.6683
23.294800752937697 50.7373
23.31753343374794 50.8801
23.340267045128353 50.9324
23.36300158808808 51.2448
23.38591468821339 51.51
23.408651104658304 51.8988
23.431388455719986 52.3985
23.454126742409 53.1
23.4770436196085 53.7939
23.499783787914662 54.975
23.522524894889884 55.6706
23.54526694154616 56.5704
23.56818761219047 57.705
23.59093154860734 58.5736
23.613676427751283 59.3037
23.636422250635754 59.0187
23.659346731118656 57.9146
23.68209445191868 56.1505
23.704843119509587 53.7657
23.72759273490623 51.6931
23.750521041644767 50.1122
23.77327256312355 48.8367
23.796025035462787 48.1294
23.818956224555475 47.7478
23.841710609113413 47.6487
23.86446594758979 47.321999999999996
23.887222241002014 47.0691
23.910157285144578 46.7221
23.932915498962537 46.733999999999995
23.955674670778713 46.4547
23.978434801611975 46.342
24.001373717286125 46.2022
24.024135776723917 46.0702
24.046898798245582 45.9852
24.06966278287146 45.9619
24.092605586582614 45.6823
24.115371508023642 45.5276
24.1381383956401 45.5405
24.16090625045381 45.4661
24.183852958731244 45.3028
24.206622758582608 45.217
24.229393528706886 45.056000000000004
24.252165270127392 45.146
24.27511589952438 45.0433
24.297889594216997 44.9145
24.32066426328598 44.6635
24.34343990775613 44.6304
24.36639447485003 44.6326
24.38917208083877 44.6677
24.41195066531332 44.4817
24.43490819850244 44.4617
24.457688750692377 44.3233
24.48047028445616 44.2291
24.503252800821233 44.3119
24.526214300784112 44.5448
24.548998793132213 44.4633
24.57178427117417 44.3713
24.59457073593893 44.302
24.617536219319863 44.2891
24.64032466834748 44.3675
24.663114107195035 44.2216
24.685904536893013 43.9081
24.708874020360852 43.9536
24.731666442613744 43.8214
24.754459858818787 43.8473
24.777254270007962 43.7882
24.80022777025625 43.5681
24.82302418230472 43.6278
24.845821592443674 43.543
24.86862000170663 43.595
24.891597535453727 43.4949
24.914397953892728 43.6938
24.93719937456671 43.5214
24.96000179851076 43.8842
24.98298338249997 44.0183
25.00578782394922 44.1998
25.028593271784167 44.3599
25.05157790644186 44.518
25.07438537804115 44.5548
25.097193859145293 44.8112
25.120003350792075 45.2044
25.142992065061257 45.5097
25.165803588823465 45.7214
25.18861612625217 45.8692
25.211429678386736 45.973
25.234422489079968 46.1324
25.257238081693636 46.0146
25.280054692141732 46.0403
25.3028723214652 46.0267
25.325869245420463 46.043
25.348688923599397 46.1878
25.371509623787006 46.2225
25.394331347025812 46.1581
25.41733240110666 45.7572
25.440156181590016 45.1469
25.46298098826268 44.5948
25.48580682216873 43.8088
25.50881202326435 43.2434
25.53163992281684 42.8506
25.55446885274561 42.6618
25.577298814096377 42.3342
25.600308179121807 42.2822
25.623140214533745 42.0753
25.64597328451537 42.0273
25.66898578564376 41.8784
25.691820936010206 41.7884
25.714657124097695 41.934
25.737494350954734 41.8534
25.760511045684957 41.6243
25.783350361364224 41.8094
25.806190718969255 41.8404
25.82903211955018 42.0498
25.852053024868923 41.9589
25.874896522722523 41.8184
25.897741066713106 41.9566
25.920586657892454 42.1955
25.943611790812668 42.3153
25.966459487728237 42.3375
25.989308234998564 42.1667
26.01215803367705 42.4639
26.03518741123814 42.6795
26.05803932412957 42.7969
26.080892291600094 42.8142
26.10374631470478 42.8808
26.12677995397268 42.9329
26.14963609978026 43.0181
26.172493304397875 42.7772
26.19535156888223 42.5148
26.218389486949604 42.1295
26.241249882640123 41.9106
26.26411134137826 41.7251
26.28715248187403 41.6395
26.31001607820869 41.5615
26.3328807407756 41.4123
26.35574647063438 41.4976
26.37879191991473 41.4306
26.401659795896734 41.3939
26.424528742360263 41.6983
26.447398760366614 41.8616
26.470448535598294 41.8151
26.49332070826805 41.9869
26.516193955675355 42.4389
26.53906827888316 42.5098
26.562122397260108 42.6534
26.584998883685063 42.8373
26.607876449110325 42.9745
26.63075509460056 43.2345
26.65381357334404 43.4117
26.67669439061878 43.4648
26.699576291163382 43.467
26.722459276044212 43.4749
26.745522132402975 43.0694
26.768407297649354 42.7795
26.791293550442003 42.3636
26.814180891848974 42.0365
26.837248143099337 41.7668
26.860137673466657 41.7212
26.88302829566349 41.5355
26.90592001075963 41.3826
26.92899167420566 41.2333
26.951885586870763 40.9066
26.974780595655517 40.7502
26.99785558178161 40.5364
27.020752794605112 40.2315
27.043651106772522 40.1919
27.06655051935668 40.0025
27.089629948036183 39.9776
27.112531573292053 39.8925
27.135434302194138 40.0317
27.158338135817015 39.8434
27.181422024430987 39.9124
27.204328079372566 39.7717
27.22723524226965 39.8027
27.250143514198573 39.9258
27.273231880156334 39.8466
27.296142382065014 39.6744
27.319053996245536 39.3992
27.341966723775965 39.6559
27.365059584515222 39.7732
27.38797455070062 39.7804
27.410890633481237 39.619
27.433807833936918 39.6794
27.456905206923906 39.7409
27.47982465472398 39.666
27.502745223449743 39.6678
27.525666914182825 39.7632
27.548768816912457 39.702
27.571692763693633 39.5951
27.59461783573812 39.5553
27.617723149491244 39.3758
27.640650484125285 39.5137
27.66357894728264 39.4746
27.686508540048052 39.2643
27.709618414237887 39.233000000000004
27.732550278321757 38.9725
27.755483275279115 39.0633
27.778417406196485 39.0728
27.801531858397514 39.0189
27.824468269376716 39.0472
27.847405817586786 39.1784
27.870344504116094 39.1839
27.893463551932008 39.2637
27.916404527281053 39.5634
27.93934664422563 39.5399
27.962289903855886 39.5249
27.98541356491974 39.7055
28.00835912214229 39.8754
28.03130582533231 40.1267
28.054253675581805 40.2965
28.077381967556104 40.3401
28.100332124185126 40.2387
28.123283431160893 40.186
28.146235889577238 40.0445
28.169368830154156 39.8543
28.192323603752033 39.6864
28.215279532083304 39.3111
28.238415973016764 39.1023
28.261374223145094 38.9373
28.284333631303806 38.895
28.307294198589954 38.6886
28.330435319167677 38.3835
28.353398217078915 38.0595
28.376362277420153 37.8606
28.39932750129032 37.751999999999995
28.422473319286713 37.5692
28.44544088262495 37.5542
28.468409612800283 37.4414
28.491379510913497 37.2282
28.51453004413313 37.2605
28.53750229057244 37.1164
28.56047570826344 37.0492
28.583450298308804 36.9933
28.606605564586562 36.8263
28.629582511831156 37.049
28.65256063474956 36.7278
28.675539934446338 36.7373
28.698699951647605 36.6635
28.72168161743193 36.6157
28.74466446331978 36.5498
28.767648490417624 36.5361
28.790813276438353 36.5436
28.813799678527303 36.6723
28.836787265157085 36.5632
28.859955641890075 36.653
28.882945610203045 36.5033
28.905936766392035 36.3769
28.928929111566863 36.4873
28.952102288520145 36.4495
28.975097024308607 36.2773
28.998092952423807 36.1589
29.021090073977508 36.054
29.04426806913204 35.879
29.067267590245258 35.7609
29.090268308143695 35.8032
29.11327022394099 35.7141
29.13645305530891 35.5241
29.159457379627167 35.6629
29.18246290519685 35.5025
29.20546963313352 35.4269
29.22865731875826 35.4053
29.25166646419296 35.3778
29.27467681535305 35.2355
29.29768837335608 35.2753
29.320880931312562 35.4557
29.34389491580634 35.3497
29.366910110507334 35.2984
29.38992651653503 35.3923
29.41312396492981 35.3169
29.436142806456754 35.2135
29.45916286268059 35.1518
29.48236399319994 34.997
29.50538649169417 34.9091
29.528410208259935 34.795
29.55143514402014 34.5813
29.574641196749695 34.4849
29.597668583816574 34.3305
29.6206971934585 34.2263
29.64372702680042 34.321
29.666938019934474 34.1252
29.689970313635285 34.0912
29.713003834422636 34.0044
29.73603858342347 34.006
29.759254535188578 33.9224
29.78229175361658 33.8475
29.80533020365064 33.8728
29.82836988641968 33.8989
29.85159081507472 33.8363
29.874632976355343 33.7215
29.89767637376955 33.8892
29.920721008448314 33.6301
29.9439469322847 33.7176
29.96699405457564 33.5341
29.9900424175358 33.6471
30.013092022298157 33.5138
30.03632295963995 33.3776
30.059375061131373 33.4191
30.08242840783577 33.4933
30.105483000888153 33.4693
30.128718970092244 33.4612
30.151776069006917 33.4927
30.17483441768648 33.4441
30.198074175317235 33.3902
30.221135036724256 33.4657
30.24419715131772 33.5117
30.267260520236203 33.2912
30.290505341942243 33.3351
30.313571232750228 33.4277
30.336638381310948 33.3811
30.35970678876503 33.3222
30.38295669299435 33.1324
30.40602763151657 33.1399
30.429099832366074 33.1985
30.452173296685572 33.1044
30.47542830191959 33.0971
30.498504306502497 33.0202
30.521581577995562 33.0967
30.544660117543582 33.1619
30.56792024229725 33.1735
30.59100133132069 33.1669
30.614083691845494 33.1972
30.637167325018545 33.1043
30.660432587840603 33.3372
30.683518779717886 33.25
30.70660624769615 33.2264
30.729694992924372 33.2387
30.75296541239743 33.2731
30.77605672557558 33.2397
30.799149319462742 33.0564
30.8224236211637 33.0755
30.845518789950724 32.9094
30.868615242910597 32.9444
30.891712981195973 32.7711
30.91499247215866 32.5679
30.938092794619365 32.6149
30.96119440587579 32.4721
30.984297307082752 32.3976
31.00758200598383 32.2562
31.030687500658694 32.3167
31.053794288760695 32.2297
31.076902371446767 32.0843
31.100192296997445 32.0573
31.12330298246119 32.053000000000004
31.14641496599209 31.9043
31.169528248749216 31.9409
31.19282341969534 31.8717
31.215939314557186 32.0014
31.239056512134788 32.016
31.262175013589378 31.961
31.28547544871168 31.8705
31.30859657161541 31.7796
31.331719001892175 31.7678
31.35484274070538 31.9429
31.378148458819545 31.7487
31.401274828443725 31.781999999999996
31.424402510106933 31.7739
31.447712205419993 31.8494
31.470842524931633 31.7004
31.493974159989783 31.6944
31.51710711176168 31.7772
31.54042212308802 31.8243
31.563557722100917 31.7208
31.586694641341655 31.6187
31.609832881979628 31.4381
31.63315322823208 31.3668
31.656294125521327 31.3212
31.679436347728515 31.3166
31.70257989602529 31.2079
31.725905596152327 31.2303
31.74905181052835 31.1282
31.772199354521323 31.1936
31.79534822930507 31.1172
31.818679302290967 31.0016
31.84183085259981 31.0997
31.864983737233473 31.0616
31.88813795736804 31.0454
31.911474422233013 30.9793
31.934631327356435 31.0536
31.9577895715215 30.9608
31.980949155906522 30.9927
32.004291031706956 30.9598
32.027453310562606 30.8726
32.05061693318573 30.779
32.07396288236386 30.774
32.09712920658542 30.6503
32.12029687812702 30.6026
32.14346589817093 30.5307
32.166817291729984 30.496
32.18998902288583 30.388
32.21316210610336 30.3825
32.23633654256711 30.2402
32.259693399663725 30.1027
32.282870556771144 30.1462
32.30604907069099 30.1649
32.329228942610065 30.0628
32.35259128243769 29.8847
32.375773884550505 29.8654
32.398957848235646 29.9208
32.422143174682176 29.9261
32.445511016471215 29.7526
32.468699082679954 29.5381
32.49188851523011 29.6181
32.51507931531304 29.5322
32.538452678331 29.561999999999998
32.56164622776311 29.5551
32.58484114831493 29.3844
32.60803744118015 29.4001
32.631416344731896 29.3507
32.654615396551876 29.3816
32.67781582427913 29.2961
32.701198898634416 29.2652
32.72440209253756 29.1731
32.747606665947124 29.1842
32.77081262006088 29.0236
32.79420126883317 29.0268
32.81740999876112 29.0318
32.840620112999424 28.9875
32.86383161274818 28.8484
32.88722585534586 28.9234
32.91044014056596 29.0744
32.933655814909734 28.9404
32.95687287957963 28.9149
32.98027273544904 28.8595
33.00349259526636 28.7819
33.026713849030116 28.7921
33.04993649794511 28.7243
33.073341986570746 28.7265
33.09656744032826 28.6695
33.11979429286444 28.7172
33.14302254538647 28.6419
33.166433686291185 28.5781
33.18966475336992 28.55
33.212897224069096 28.4407
33.23613109959831 28.4253
33.259547912343415 28.3997
33.2827846121627 28.4868
33.306022720453775 28.3083
33.32926223842861 28.2654
33.352684742614166 28.2646
33.37592709463173 28.316
33.399170859982064 28.2838
33.422597648419426 28.0995
33.44584425514446 27.9652
33.46909227885668 27.9782
33.4923417207723 27.8187
33.51577423505344 27.8691
33.539026528130385 27.7548
33.56228024307245 27.6759
33.585535381098246 27.6362
33.60897364093058 27.6148
33.63223163992385 27.5784
33.6554910656699 27.5551
33.678751919389796 27.5297
33.702195944520106 27.4644
33.72545966903325 27.4696
33.74872482519663 27.4617
33.771991414233746 27.4275
33.79544122444841 27.3116
33.81871069412428 27.2874
33.84198160035767 27.3153
33.86525394437455 27.2672
33.88870955949969 27.2389
33.911984794020626 27.112
33.93526147001624 27.0254
33.958539588715006 27.0657
33.98200102861669 26.8868
34.0052820477047 26.8635
34.02856451319451 26.933000000000003
34.05203033759056 26.8366
34.07531571090147 26.7352
34.09860253431845 26.6659
34.121890809074316 26.6395
34.145362493118924 26.6789
34.16865368561615 26.5951
34.191946333164054 26.5711
34.21524043699793 26.588
34.23871800066799 26.596999999999998
34.26201503218366 26.5678
34.28531352370466 26.5139
34.30861347646881 26.4601
34.33209693978188 26.3619
34.3553998301885 26.3671
34.378704185565205 26.2837
34.402010007152356 26.1931
34.42549939016683 26.174
34.44880815937748 26.092
34.472118398533134 26.1437
34.49543010887669 26.0846
34.51892543169198 25.9885
34.54224009966052 25.8623
34.56555624255917 25.9061
34.58887386163339 25.8798
34.61237514439016 25.8064
34.6356957311114 25.6559
34.65901779775809 25.6958
34.68252356662995 25.7304
34.705848608458616 25.7175
34.72917513396849 25.6488
34.75250314440949 25.5714
34.77601490857862 25.5327
34.799345904259795 25.4842
34.82267838863559 25.4701
34.846012362958525 25.4903
34.869530142679984 25.4336
34.89286711232212 25.3896
34.91620557568269 25.3768
34.93954553401677 25.3217
34.9630693495876 25.2695
34.986412313340814 25.2948
35.00975677584668 25.2647
35.033102738362956 25.2013
35.05663261012228 25.059
35.0799815881786 25.1178
35.10333207003229 25.0717
35.12668405694369 25.131
35.150220005273056 25.0278
35.17357501786656 25.0121
35.19693153931268 25.0011
35.220289570874385 24.9393
35.24383161619786 24.9213
35.267192683604904 24.9742
35.290555264930376 24.833000000000002
35.314101899412165 24.8041
35.33746752422433 24.8072
35.36083466676374 24.7913
35.38420332829803 24.7301
35.407756095629054 24.7794
35.43112781085063 24.6973
35.45450104888391 24.6996
35.477875810999194 24.671999999999997
35.50143473172161 24.4873
35.52481255774625 24.6624
35.54819191167777 24.5165
35.57157279478914 24.5962
35.595137889488406 24.5004
35.61852184675279 24.4148
35.641907337029984 24.3788
35.665294361595684 24.3382
35.68886565090076 24.3571
35.7122557598848 24.2666
35.73564740699838 24.2242
35.759040593519934 24.1536
35.78261809810353 24.1477
35.80601437933051 24.1349
35.829412203814705 24.0319
35.85281157283719 24.0197
35.876395313415884 24.0133
35.8997977874528 23.8763
35.92320180988546 23.8328
35.946790244133936 23.8348
35.97019737933222 23.923000000000002
35.993606066789866 23.8571
36.01701630779276 23.7827
36.04061101440684 23.6954
36.06402437852291 23.6898
36.08743930005611 23.6507
36.1108557802951 23.4613
36.13445678011326 23.5975
36.15787639383515 23.4667
36.18129757014299 23.5146
36.20472031032821 23.5045
36.22832762423364 23.4602
36.25175350829375 23.3493
36.275180960119776 23.3515
36.298609981005924 23.4663
36.32222362992669 23.3192
36.34565580510207 23.2361
36.36908955323448 23.2424
36.39252487562093 23.1644
36.416144880530226 23.1558
36.43958336764275 23.1107
36.463023432914625 23.1829
36.486465077645676 23.026
36.51009145956204 23.1281
36.53353627947859 23.1113
36.55698268276811 23.0238
36.58043067073321 22.9074
36.60406345072071 22.8577
36.62751462435344 22.895
36.65096738658405 22.863000000000003
36.67460498210655 22.8712
36.69806093788647 22.826999999999998
36.72151848619297 22.7415
36.744977628333636 22.7642
36.76862165890998 22.6134
36.79208400512205 22.697
36.81554794910557 22.6078
36.83901349217101 22.4974
36.862663978991606 22.5281
36.88613273667352 22.509
36.90960309738324 22.4549
36.933075062434064 22.4382
36.95673202673572 22.4469
36.98020721697122 22.3568
37.003684015502365 22.3253
37.027162423645365 22.2795
37.050825886711465 22.2469
37.07430753063053 22.2269
37.09779078812467 22.1121
37.121275660513014 22.094
37.144945643673694 22.0731
37.16843376245278 22.1416
37.19192350009803 22.0796
37.215414857931435 21.948
37.239091382563885 21.9322
37.262585997426164 21.9304
37.28608223645736 21.9276
37.309763684451696 21.9202
37.33326318851098 21.8256
37.356764320726555 21.8224
37.380267082425526 21.825
37.40395510942588 21.7442
37.42746114683234 21.6968
37.45096881771841 21.6702
37.474478123414166 21.6771
37.49817275092816 21.5954
37.52168534303452 21.5448
37.54519957395567 21.4627
37.568715445024665 21.487
37.592416694607714 21.461
37.61593586281424 21.4263
37.63945667518264 21.4228
37.66297913304891 21.3611
37.68668702630454 21.3608
37.710212792059274 21.3092
37.733740207334854 21.2827
37.757269273470364 21.1731
37.780983832050374 21.2217
37.80451621684926 21.1502
37.82805025654007 21.0851
37.851585952464795 21.094
37.8753071980695 21.0175
37.89884622345676 21.0464
37.92238690911902 21.019000000000002
37.94611318753442 20.8953
37.969657210779765 20.9196
37.99320289834801 20.9097
38.016750251586465 20.8292
38.04048325513017 20.8262
38.06403395679343 20.7908
38.087586328183946 20.7527
38.11114037065203 20.7265
38.13488012115898 20.7381
38.1584375229181 20.5673
38.181996599821 20.5782
38.205557353221124 20.6396
38.229303872575656 20.6639
38.2528679961576 20.5635
38.27643380031219 20.4909
38.30000128639589 20.3936
38.32375459653193 20.4399
38.34732546371299 20.4347
38.37089801690786 20.3407
38.39447225747609 20.2778
38.418232380377425 20.2834
38.441810012983396 20.2829
38.46538933705673 20.192
38.488970353960084 20.2253
38.51273731166058 20.1691
38.536321731567014 20.1631
38.55990784840681 20.1469
38.58367995004091 20.0839
38.60726947812959 19.9945
38.63086070726198 19.9994
38.654453638806274 20.0369
38.678232613930824 19.96
38.70182896773327 19.8855
38.72542702806741 19.9004
38.7490267963045 19.8758
38.77281266709232 19.8734
38.79641586862214 19.8052
38.8200207821842 19.6403
38.843627409152944 19.7209
38.86742019782782 19.6884
38.891030269149255 19.6791
38.914642058016156 19.648
38.938255565806124 19.6961
38.96205529464307 19.5238
38.98567225787121 19.5423
39.00929094417078 19.5472
39.03291135492255 19.5145
39.05671804624804 19.506
39.080341923549106 19.424
39.103967529460334 19.3426
39.127594865365744 19.3014
39.15140854155791 19.2803
39.17503935514948 19.3239
39.19867190290282 19.2942
39.22249083587951 19.204
39.24612686969409 19.2177
39.269764641845306 19.183
39.293404153722804 19.1593
39.317230110864074 19.0706
39.34087311998506 19.0453
39.36451787301696 19.0756
39.388164371352595 18.9861
39.41199737518003 18.9769
39.43564738196752 18.8677
39.45929913825317 18.8314
39.48295264543308 18.8701
39.506792718520884 18.8286
39.530449745387216 18.75
39.55410852735203 18.7674
39.57776906581474 18.7859
39.60161623079 18.7818
39.625280300200025 18.8056
39.64894613032202 18.7422
39.67261372255866 18.6811
39.6964680021016 18.633
39.72013913657293 18.5734
39.74381203738292 18.523
39.76748670593756 18.5175
39.79134812278169 18.5419
39.81502634488497 18.4927
39.83870633896685 18.4822
39.862388106436654 18.4393
39.88625668336918 18.4098
39.90994201572829 18.4368
39.933629125719285 18.3252
39.957503091207826 18.3108
39.9811937746168 18.3202
40.00488623990914 18.2625
40.02858048850006 18.2339
40.05246165409549 18.1772
40.076159487492085 18.0843
40.099859108448875 18.1132
40.123560518384345 18.0316
40.1474489070226 18.0125
40.171153913178564 18.0337
40.194860712584955 18.0123
40.2185693066637 18.0197
40.242464941335314 17.9189
40.26617714307655 17.8814
40.289891143772046 17.9342
40.3136069448471 17.8961
40.33750984859743 17.8724
40.3612292688043 17.7938
40.3849504936829 17.759
40.40867352466194 17.7641
40.43258372059144 17.7795
40.45631038219906 17.789
40.48003885420956 17.6034
40.503769138055105 17.5605
40.52768664931955 17.6405
40.55142057531802 17.6316
40.57515631746428 17.5896
40.599079334038514 17.4622
40.62281872700477 17.4008
40.64655994043941 17.4664
40.67030297578061 17.4906
40.69423334835778 17.4461
40.71798004609188 17.4193
40.74172857006355 17.3571
40.76547892171441 17.3995
40.7894166736039 17.3238
40.813170699248566 17.2912
40.83692655691388 17.2582
40.86068424804498 17.296
40.884629402612525 17.219
40.908390779366385 17.194000000000003
40.932153993938 17.1394
40.95591904777605 17.1095
40.979871628443995 17.137
41.003640379561936 17.1306
41.02741097430883 17.0834
41.05118341413683 17.0667
41.075143444384416 17.0355
41.098919593177826 17.0183
41.1226975914255 16.9297
41.14647744058318 16.8926
41.170444943946755 16.8848
41.19422851378379 16.8589
41.218013938914645 16.7951
41.24198706625173 16.7892
41.26577622087193 16.6994
41.289567235177785 16.6881
41.31336011063129 16.7364
41.337340752422875 16.6885
41.361137369129835 16.6349
41.38493585138705 16.6667
41.40873620066004 16.5593
41.43272438060107 16.5663
41.45652848292052 16.5699
41.48033445666918 16.4778
41.50414230331616 16.4728
41.528138045159764 16.4261
41.551949656675205 16.3897
41.575763145513235 16.3698
41.59957851314666 16.3487
41.62358184070442 16.301
41.64740098505737 16.315
41.6712220126409 16.3007
41.69504492493139 16.2272
41.71905586207357 16.1885
41.74288256296395 16.2059
41.766711153007456 16.1703
41.79054163368412 16.1661
41.814560204340054 16.1214
41.838394485526365 16.1501
41.86223066180303 16.1263
41.88625497706819 16.054000000000002
41.910094962812 15.9766
41.93393684811168 15.9778
41.95778063445365 15.9393
41.981812625263366 15.8918
42.00566023303407 15.8569
42.029509746323676 15.8137
42.05336116662236 15.7802
42.077400857069705 15.7975
42.10125611078846 15.7869
42.12511327600405 15.7391
42.14897235421036 15.7566
42.173019768448455 15.7271
42.19688269209613 15.7162
42.22074753323349 15.668
42.24461429335818 15.6219
42.268669455600495 15.6431
42.292540073217886 15.5808
42.31641261433284 15.564
42.34028708044675 15.5138
42.36435001496739 15.4872
42.38822835065557 15.5206
42.41210861586426 15.4404
42.4359908120986 15.3658
42.46006154323262 15.3549
42.48394762115317 15.35
42.507835634632315 15.3883
42.531912233047436 15.3448
42.55580413732265 15.3206
42.579697981698 15.2098
42.60359376768525 15.2167
42.62767820545945 15.247
42.65157789440821 15.2216
42.67547952952185 15.2153
42.699383112316 15.1664
42.72347541395347 15.1083
42.74738291190531 15.065999999999999
42.771292362102166 15.1141
42.795203766063516 15.0563
42.819303956130405 14.966
42.843219287476536 14.9541
42.86713657716324 14.9183
42.89105582671383 14.9389
42.91516392983864 14.9034
42.939087119032166 14.9309
42.963012272677304 14.8993
42.98693939230129 14.8576
43.01105543317513 14.8895
43.034986504731386 14.806
43.05891954686589 14.7541
43.08285456110972 14.7676
43.10697856448665 14.6941
43.130917542983475 14.642000000000001
43.15485849820081 14.6182
43.17880143167367 14.6166
43.20293342237094 14.562000000000001
43.226880332449 14.5752
43.25082922540554 14.5749
43.27496722682525 14.5121
43.29892010567796 14.5192
43.32287497204102 14.5081
43.34683182745632 14.4134
43.370977859791836 14.417
43.39493871351105 14.4175
43.41890156092628 14.440999999999999
43.44286640358341 14.4029
43.46702049182749 14.334000000000001
43.49098934522816 14.3052
43.51496019852649 14.2667
43.5389330532723 14.2634
43.56309522248204 14.1869
43.58707210044314 14.2058
43.61105098451946 14.1436
43.63503187626491 14.1408
43.659202151562134 14.1407
43.68318707902681 14.1118
43.70717401884041 14.1093
43.731162972560874 14.0215
43.75534137913236 13.987
43.779334381108384 14.0431
43.803329401683186 13.9928
43.82732644241872 13.9608
43.8515130055166 13.9329
43.87551410707659 13.8908
43.89951723350145 13.9183
43.923709934595614 13.8923
43.94771713129917 13.8725
43.97172635758096 13.8104
43.99573761501002 13.8035
44.0199385169922 13.7719
44.04395385732619 13.7249
44.067971233533086 13.7458
44.09199064718605 13.7042
44.11619977548961 13.6841
44.14022328470671 13.6461
44.16424883610785 13.6676
44.18827643127035 13.6634
44.21249381139513 13.6104
44.236525514814076 13.5073
44.26055926674478 13.5149
44.28459506876863 13.6006
44.3088207262813 13.5153
44.33286064928722 13.5056
44.35690262714919 13.4472
44.38094666145278 13.4228
44.4051806219871 13.3923
44.42922879003185 13.3438
44.45327901929361 13.3598
44.477331311362136 13.3231
44.501573600619416 13.3049
44.525630039221795 13.2888
44.54968854541895 13.3075
44.573937102200176 13.2271
44.5979997645541 13.2279
44.622064499300315 13.2194
44.64613130803592 13.1896
44.67038823869318 13.1482
44.69445921643748 13.09
44.718532272981385 13.0819
44.742607409926194 13.0533
44.76687274034801 13.0235
44.79095205918753 13.0286
44.81503346325094 13.0213
44.839116954143876 13.0299
44.86339071028742 12.9533
44.88747839599524 12.9527
44.91156817336837 12.8613
44.93566004401666 12.9091
44.959942251908146 12.9
44.984038330325966 12.8203
45.00813650686762 12.7895
45.03223678314731 12.7812
45.05652746888232 12.8126
45.08063196592069 12.7261
45.104738567558705 12.7188
45.128847275414856 12.6924
45.15314646515866 12.5976
45.17725940679741 12.6205
45.20137445952892 12.6683
45.22568004865265 12.6429
45.24979934496396 12.5555
45.27392075725247 12.5878
45.29804428714431 12.542
45.322358426247604 12.5677
45.346486212804315 12.5392
45.370616121861914 12.5172
45.39474815505086 12.4881
45.41907087049246 12.4262
45.4432071734666 12.3807
45.46734560548283 12.4349
45.49148616817604 12.3938
45.51581748638564 12.3502
45.5399623320197 12.3211
45.56410931325473 12.3
45.58825843173002 12.3227
45.61259837920865 12.3061
45.636751793816 12.2842
45.66090735060093 12.2161
45.68506505120716 12.1914
45.7094136545275 12.1723
45.73357566449271 12.1412
45.75773982322992 12.1344
45.78190613238733 12.1207
45.806263418194064 12.0114
45.83043404997326 12.0813
45.85460683713677 12.0737
45.87897065658495 12.0704
45.90314777634752 11.9858
45.92732705646868 11.9795
45.9515084986045 12.0024
45.97588104735473 11.9917
46.00006683541565 11.9311
46.02425479047904 11.8936
46.04844491420549 11.8859
46.0728262191024 11.827
46.09702070211635 11.8198
46.12121735879483 11.8036
46.14541619080294 11.7938
46.169806278764455 11.7783
46.194009483459034 11.7709
46.21821486849841 11.7479
46.24242243555223 11.7314
46.266821333570014 11.6586
46.29103328674601 11.6463
46.31524742696538 11.6252
46.33946375590237 11.6174
46.36387149104216 11.6033
46.38809221957392 11.5492
46.41231514186606 11.5613
46.436540259597464 11.5583
46.460956858999374 11.5003
46.48518638983522 11.5094
46.509418121166966 11.4797
46.533652054678114 11.4901
46.55807754555709 11.4241
46.58231590571962 11.4195
46.60655647313217 11.4211
46.630988654873654 11.384
46.655233659129024 11.3029
46.67948087571551 11.3327
46.70373030632484 11.2922
46.72817142736393 11.2962
46.752425308428684 11.2674
46.77668140861147 11.2331
46.80093972960865 11.2111
46.82538981736788 11.2092
46.849652602470904 11.1929
46.87391761349769 11.1455
46.8981848521493 11.1633
46.9226439341274 11.0989
46.946915650573224 11.1052
46.97118959976749 11.0923
46.99546578341598 11.0766
47.019933887188216 11.0379
47.04421456235744 10.9915
47.06849747711879 11.0061
47.09278263318286 10.9744
47.11725978640143 10.9047
47.14154944775105 10.9104
47.165841355555656 10.9315
47.1901355115306 10.9007
47.214621741924994 10.9483
47.23892041698887 10.8481
47.26322134538975 10.838
47.28771440635075 10.8135
47.31201986422527 10.7665
47.33632758061436 10.7737
47.360637557241866 10.7495
47.38513974410611 10.7722
47.40945426407847 10.7263
47.43377104948137 10.6721
47.45809010204344 10.6613
47.48260144275502 10.6573
47.506925052572285 10.6337
47.53125093475548 10.5986
47.55557909103813 10.5652
47.58009961361992 10.5591
47.60443234110732 10.5557
47.62876734791564 10.5088
47.65310463578333 10.4807
47.6776343683373 10.5039
47.7019762413987 10.4595
47.72632040075572 10.4634
47.75066684815169 10.4576
47.77520581885936 10.4145
47.799556865477655 10.4299
47.823910205386 10.3969
47.84826584033272 10.3525
47.87281407745551 10.3435
47.89717432569297 10.3612
47.92153687423484 10.3186
47.94609208429692 10.3222
47.97045925671401 10.3093
47.99482873471275 10.2524
48.01920052005013 10.2669
48.04376504619224 10.2098
48.068141469543484 10.2391
48.09252020552573 10.2044
48.11690125590099 10.1791
48.1414751266064 10.1691
48.16586082917454 10.115
48.19024885144316 10.0931
48.2146391951793 10.1026
48.239222439012764 10.0727
48.26361744916137 10.0608
48.28801478610016 10.0577
48.31241445160131 10.0148
48.337007097209366 9.99043
48.36141144338331 9.977360000000001
48.38581812345755 9.954369999999999
48.41022713920929 9.95885
48.434829215320704 9.95624
48.45924292604658 9.92866
48.48365897780325 9.90509
48.50807737237308 9.89065
48.532688907799276 9.870330000000001
48.55711201168574 9.8632
48.581537463754074 9.82601
48.60615611725119 9.82123
48.63058628942721 9.80002
48.65501881516546 9.798580000000001
48.6794536962573 9.77699
48.70408185970339 9.740860000000001
48.72852147531801 9.75663
48.75296345168211 9.67179
48.77740779059232 9.67206
48.80204549302823 9.6557
48.82649458091802 9.64953
48.85094603676547 9.647269999999999
48.87539986237231 9.643189999999999
48.90004713292306 9.566889999999999
48.92450572200832 9.60191
48.94896668628025 9.55645
48.97343002754588 9.52848
48.99808689542115 9.50532
49.02255501470614 9.48911
49.04702551642794 9.48046
49.0714984023988 9.4584
49.096164896893235 9.427669999999999
49.120642575466796 9.404860000000001
49.145122643748394 9.40145
49.16960510355558 9.400910000000001
49.19428125404938 9.36235
49.2187685210852 9.38546
49.243258185121555 9.32815
49.26794160167084 9.32677
49.2924360839405 9.28415
49.31693296869764 9.27201
49.34143225776915 9.25938
49.36612538195438 9.20946
49.39062950396021 9.25189
49.41513603578346 9.19458
49.4396449792564 9.20474
49.46434784069503 9.177719999999999
49.488861631846454 9.17304
49.513377840166804 9.16863
49.537896467493745 9.12007
49.56260909589029 9.09883
49.587132585683285 9.10876
49.611658500018365 9.08076
49.636186840738596 9.06372
49.66090926588511 9.02409
49.685442483902584 9.01488
49.70997813385706 8.970880000000001
49.734516217597076 8.952739999999999
49.75924846937352 8.93201
49.7837914452858 8.93919
49.80833686055187 8.94743
49.83288471702571 8.927669999999999
49.85762682540054 8.90782
49.882179588965734 8.91195
49.9067347993235 8.88235
49.93129245833333 8.8203
49.95604445336378 8.8465
49.98060703442832 8.785960000000001
50.005172069746266 8.78455
50.02993150438364 8.77432
50.05450147301533 8.78701
50.07907390151433 8.79861
50.10364879174981 8.75216
50.12841816587289 8.72007
50.1529980044635 8.732610000000001
50.17758031042124 8.66056
50.20216508562089 8.67222
50.22694442953363 8.646180000000001
50.25153416817468 8.6124
50.27612638170508 8.60592
50.300721072005196 8.59602
50.325510416102105 8.56575
50.350110084975064 8.51357
50.37471223628208 8.532580000000001
50.39931687190919 8.54
50.424116246675766 8.51465
50.44872587605249 8.5261
50.47333799543065 8.5008
50.49795260670191 8.47129
50.52276204271512 8.43385
50.54738166295838 8.36547
50.57200378079314 8.38818
50.596628398116835 8.40503
50.62144792604559 8.38584
50.646077567609396 8.359210000000001
50.670709714377715 8.351989999999999
50.69553683636198 8.37434
50.72017401885922 8.31484
50.7448137122895 8.29192
50.76945591856022 8.317
50.79429318636823 8.32103
50.818940443716784 8.27024
50.84359021965163 8.25775
50.868242516085964 8.2278
50.893089960641895 8.20148
50.917747323549435 8.17624
50.94240721271973 8.18556
50.96706963007175 8.19385
50.99192728239342 8.15451
51.01659478166073 8.13401
51.04126481489051 8.110439999999999
51.06593738400761 8.0964
51.090805275207074 8.07385
51.11548294172845 8.05935
51.14016314993547 8.06611
51.164845901758845 7.997839999999999
51.18972406304274 7.991630000000001
51.21441192780656 8.01877
51.23910234200271 7.97289
51.2637953075678 7.95337
51.288683770237945 7.94172
51.31338186432707 7.919410000000001
51.33808251561888 7.9084
51.362978729967345 7.9182
51.387684521509755 7.9029
51.41239287610203 7.88727
51.437103795691165 7.8658399999999995
51.46201036644977 7.8048
51.486726441956634 7.79652
51.51144508832545 7.79942
51.536166307509156 7.801760000000001
51.56108326624387 7.75466
51.58580965706056 7.71753
51.61053862657523 7.72015
51.635270176746864 7.69107
51.66019755512065 7.69793
51.68493429268881 7.69067
51.70967361681515 7.6734
51.73441552946465 7.62763
51.759353359237934 7.650989999999999
51.7841004750961 7.63196
51.80885018539685 7.61755
51.833602492111254 7.60122
51.8585508051424 7.59483
51.883308330926425 7.573639999999999
51.90806845906181 7.53983
51.932831191525715 7.529389999999999
51.95779001977161 7.501580000000001
51.98255798721516 7.483289999999999
52.00732856494335 7.435460000000001
52.03229530577543 7.44298
52.057071130455945 7.4381
52.081849571391054 7.44527
52.106630630568695 7.38415
52.13160794279417 7.402419999999999
52.15639426492067 7.379060000000001
52.18118321127822 7.357889999999999
52.205974783860896 7.3418600000000005
52.23096269971011 7.35693
52.255759551287994 7.3566
52.280559035098186 7.29775
52.30536115314103 7.31185
52.33035970494467 7.28573
52.35516711807904 7.291
52.37997717147198 7.24339
52.40478986713005 7.21822
52.42979908731974 7.19563
52.454617094216 7.18507
52.47943774942214 7.16938
52.50426105495102 7.1706
52.529280976059844 7.186539999999999
52.554109609024096 7.1496
52.57894089837482 7.10464
52.60377484613117 7.11021
52.62880550079408 7.091019999999999
52.65364479223379 7.06877
52.67848674816189 7.0273
52.70352547971946 7.0727199999999995
52.72837279155837 7.02985
52.753222773982785 7.01892
52.778075429022984 7.00966
52.80312495150885 7.04788
52.827982978797436 7.0387699999999995
52.85284368481815 6.98442
52.87770707160767 6.938060000000001
52.90276741793998 6.917160000000001
52.92763619336701 6.934939999999999
52.952507655698504 6.91045
52.977381806977576 6.89542
53.00245301017842 6.88992
53.02733256653592 6.87811
53.052214817996074 6.87122
53.077099766608484 6.8106100000000005
53.102181859804446 6.810039999999999
53.127072229988265 6.82597
53.15196530349892 6.81998
53.17686108239249 6.795489999999999
53.20195409881522 6.772010000000001
53.22685531582556 6.802739999999999
53.25175924441303 6.72138
53.27666588664027 6.73367
53.30176985962693 6.7157
53.3266819565689 6.67338
53.35159677336455 6.66845
53.376514312083096 6.61765
53.40162927507703 6.64036
53.42655228516116 6.63618
53.45147802340193 6.598319999999999
53.47660125628886 6.5996
53.50153247842639 6.5759300000000005
53.52646643496923 6.575660000000001
53.55140312799818 6.55253
53.576537409691696 6.58735
53.60147960336152 6.55728
53.626424539786164 6.51935
53.65137222105307 6.50323
53.67651758529126 6.5088
53.70147078399681 6.48234
53.72642673383343 6.48601
53.75138543689533 6.43731
53.776541917524526 6.4517
53.801506154876755 6.43115
53.826473151763246 6.39302
53.851442910284916 6.36285
53.87661054126026 6.38015
53.9015858509782 6.35345
53.92656392866066 6.34181
53.95154477641532 6.345680000000001
53.976723591801296 6.30807
54.00171000771266 6.33752
54.02669920004598 6.30336
54.051691170915745 6.273969999999999
54.076881204886796 6.26286
54.101878760928514 6.2876199999999995
54.12687910187696 6.20925
54.152077577768296 6.24337
54.1770835166946 6.212359999999999
54.20209224691339 6.20569
54.22710377055121 6.21475
54.25231352511594 6.17242
54.27733066384342 6.11174
54.30235060239643 6.08769
54.32737334290836 6.14714
54.35259441062629 6.08301
54.377622783395324 6.08105
54.40265396455061 6.10355
54.42768795623251 6.07519
54.45292037169559 6.04584
54.477960012857906 6.04028
54.50300247099511 5.9985
54.52804774825457 6.00359
54.55329154616743 5.94031
54.57834249018678 5.920669999999999
54.6033962597977 5.90105
54.6284528571545 5.90306
54.653708072335164 5.83331
54.67877035378786 5.854030000000001
54.70383546947698 5.8001
54.72890342156389 5.81995
54.7541700889442 5.75702
54.77924374251975 5.79317
54.8043202390049 5.73684
54.82959552413022 5.69249
54.8546777351945 5.71013
54.87976279569621 5.63595
54.90485070780914 5.666930000000001
54.930137506558005 5.66804
54.95523115074295 5.66303
54.98032765308844 5.62574
55.005427015775496 5.62444
55.03072536339621 5.61947
55.05583047570572 5.56112
55.080938454927676 5.55302
55.10604930325027 5.5088
55.131359235107396 5.52489
55.15647585066083 5.4958
55.181595341907496 5.4694
55.20671771104285 5.43383
55.232039262617704 5.4051800000000005
55.25716741665048 5.39318
55.28229845518636 5.37937
55.30743238042802 5.3143199999999995
55.33276558731939 5.285480000000001
55.357905315183636 5.28972
55.383047936390035 5.2283599999999995
55.40819345314859 5.239669999999999
55.433538351073295 5.18832
55.458689688238415 5.20143
55.483843927614096 5.16096
55.509197623043605 5.12631
55.53435769621134 5.143680000000001
55.55952067826466 5.100569999999999
55.5846865714265 5.10354
55.61005202069737 5.061
55.63522376553902 5.02379
55.66039842818645 5.02356
55.68557601087004 5.03595
55.7109532500271 4.95578
55.73613670233794 4.95592
