TT I
1.2716486653135266 6.90712
1.2939594142134223 7.0472600000000005
1.3162702121660406 6.5904
1.3385810600174564 6.3997
1.3608919586137629 6.42668
1.383202908801069 6.48265
1.405513911425503 6.2975
1.4278249673332093 6.40832
1.4501343378461518 6.13973
1.4724455028545926 5.22147
1.4947567236847858 5.8181400000000005
1.517068001182951 6.15774
1.5393793361953272 6.18567
1.5616907295681737 5.59915
1.5840021821477681 5.333819999999999
1.60631369478041 5.324
1.6286252683124185 5.124230000000001
1.6509369035901333 5.90249
1.6732468618895553 5.36599
1.695558623192809 4.91619
1.7178704487808514 4.829940000000001
1.7401823395001077 4.804130000000001
1.7625012545597203 5.00128
1.7848028405262486 4.84052
1.8071218901122095 4.83855
1.8294236121921872 4.50097
1.8517427996910911 4.82397
1.8740620574440425 4.90644
1.8963639900671978 4.9724
1.9186833908139995 5.027
1.9409854680117449 5.23445
1.9633050151394713 4.8905400000000006
1.9856246367570705 4.601030000000001
2.0079269371922672 4.3025199999999995
2.03024671027244 4.34847
2.0525491637446027 3.5904199999999995
2.074869091674931 4.2410000000000005
2.097171701569106 4.3894400000000005
2.1194917877373847 4.6676
2.141811954326636 4.94836
2.164114805233074 4.69519
2.186435135143035 5.6593599999999995
2.208738150935709 8.6139
2.231058647554722 16.0839
2.2533792288321184 12.7388
2.275682498336085 7.409730000000001
2.298003251406138 5.981330000000001
2.3203066942619714 6.13859
2.3426276225136022 4.95944
2.3649486396617507 4.9375
2.387252348930071 6.02495
2.4095735463442893 5.4971
2.4318774374315884 5.78399
2.4541988185014043 6.82048
2.476502894794693 7.43974
2.498824462909887 7.4588600000000005
2.521146125856138 7.400639999999999
2.5434504863470337 6.95817
2.5657723414244717 7.55541
2.588076895590662 8.05541
2.610398946189713 8.28845
2.6327210958598384 7.42427
2.6550259469304716 8.025089999999999
2.6773482972090137 8.19693
2.6996533504259 7.73912
2.7219759047039602 8.06278
2.744298562293959 8.42441
2.7666039251246595 8.37014
2.7889267918020164 8.642380000000001
2.8112323652516555 8.21965
2.833555444408179 8.54538
2.8558786311183852 8.75919
2.8781845268938557 9.24244
2.9005079311721484 9.449869999999999
2.9228140460410397 9.28842
2.9451376712799635 9.60154
2.967444008632326 9.94923
2.9897678582247247 10.0114
3.0120918213106695 10.238999999999999
3.0343984987899373 10.4842
3.0567226913198637 10.7247
3.079029599759726 10.9306
3.101354025127254 12.3814
3.123678568232338 12.6827
3.145985829517914 13.5041
3.16831061055229 13.8387
3.1906181112775593 14.3495
3.212943133635653 15.3334
3.2352682779763207 14.9523
3.2575761442691227 14.9265
3.2799015350264273 16.1618
3.302209649240067 16.4406
3.3245352898092655 16.4301
3.3468436553365257 17.0078
3.369169549113219 17.9756
3.3914955708171384 18.6368
3.413804319727358 18.3048
3.4361305997334863 18.8405
3.4584396084414553 19.3499
3.4807661501462652 20.2004
3.503092824025881 20.4415
3.5254022288463154 20.8652
3.5477291695206588 21.0785
3.5700388426251948 21.5856
3.5923660534916446 23.4037
3.6146934007816114 31.0787
3.637003482731501 53.7239
3.6593311053109985 57.8433
3.681641464033634 39.0942
3.7039693653009733 27.2357
3.726297407241705 25.0928
3.7486081875460804 25.1384
3.7709365132734978 25.291
3.793247578841633 26.1121
3.8155761917550093 26.393
3.8378875459837216 26.8775
3.8602164494827234 27.4005
3.882545499606844 28.1978
3.9048572932539183 28.7409
3.9271866390645718 29.0963
3.9494987298666713 29.4303
3.971828374764527 29.8018
3.9941581705403255 30.2489
4.016470713506008 31.0616
4.038800813471445 31.8266
4.061113662089144 32.1938
4.0834440696459176 32.6452
4.105774632334751 33.3442
4.128087945865126 34.3669
4.150418821249301 34.9687
4.172732448931298 36.0887
4.195063640413578 36.735
4.2173775856475215 39.0233
4.239709096631102 55.86600000000001
4.262040768704612 134.191
4.284355196706267 169.93099999999998
4.306687193387355 115.336
4.329001947444346 59.0138
4.35133427213731 44.1693
4.373666762177566 43.4166
4.395982011761091 43.4997
4.418314834921175 44.6237
4.44063041906622 48.8996
4.4629635787515625 54.2847
4.4852969080429785 54.8132
4.5076130004776225 52.6306
4.529946671403969 55.32
4.552263106909177 58.4355
4.574597122877047 55.8899
4.596931312711224 53.6702
4.619248269273446 53.6823
4.6415828092605835 54.3383
4.663900117405352 55.3197
4.686235010953232 56.8895
4.708552674085913 57.9415
4.730887924602802 59.1602
4.753223354952695 61.4487
4.775541557023902 64.3669
4.797877349456786 67.1664
4.820195915032126 68.4123
4.842532072957498 68.1498
4.864868414979744 70.6301
4.88718753227192 73.8235
4.909524244902505 76.3084
4.931843734218147 76.2301
4.954180820867835 78.3757
4.976518095879839 80.7623
4.998838149695359 83.56299999999999
5.021175803844231 86.5616
5.043496238205739 90.2424
5.065834274903528 94.2781
5.088172504230693 99.412
5.1104935158799565 105.87899999999999
5.132832132875765 124.98200000000001
5.155153533596801 155.958
5.1774925416746225 195.59599999999998
5.199814334878411 393.204
5.2221537374521505 1022.42
5.244493338631803 2835.71
5.266815727034316 7887.74
5.289155727832427 12329.8
5.311478517248165 8217.46
5.333818921080011 2519.29
5.356159527788849 485.624
5.3784829252032536 187.507
5.400823940070432 149.03
5.423147747031976 128.256
5.445489173474152 119.061
5.467830807066149 117.461
5.490155234831516 115.991
5.512497285125229 110.051
5.534822130975162 105.244
5.557164601388673 101.361
5.579489868738879 98.1873
5.601832762690846 97.5907
5.6241758697774475 96.1107
5.646501775867269 95.6185
5.668845311622074 94.2311
5.691171647754637 93.58200000000001
5.713515615597765 92.4926
5.735859800852677 92.2749
5.758186788542988 93.32
5.780531411018185 96.1101
5.802858837297399 96.5296
5.825203900414495 96.3506
5.8475491852224 99.167
5.869877275883075 98.699
5.892223006467101 95.5875
5.914551544266608 94.5603
5.936897724049891 97.2516
5.959244129804903 103.45100000000001
5.981573344815301 129.559
6.0039202049061 237.71200000000002
6.026249875609095 477.27099999999996
6.04859719346037 975.2769999999999
6.070927323278297 2256.36
6.093275102315365 4530.45
6.115623113320588 5161.81
6.137953938319995 2990.86
6.160302415650845 848.7
6.182633708324452 203.01
6.2049826554078376 106.87299999999999
6.227331838745022 89.4539
6.249663839443684 82.7079
6.27201349767565 79.44800000000001
6.294345974611799 81.3451
6.316696111167083 85.7426
6.339046488263839 82.4474
6.361379686074702 74.428
6.383730546639482 70.4596
6.406064229255215 69.1263
6.428415576718203 69.9896
6.450749747566656 68.5298
6.47310158535871 66.4079
6.495453669698332 64.8786
6.517788579421056 64.0716
6.540141159237969 62.8087
6.562476565766648 62.4694
6.5848296444934045 62.1613
6.607182974060425 61.993
6.6295191323281015 62.5525
6.651872965955752 63.9572
6.6742096296068985 75.5112
6.6965639707294615 95.9204
6.71891856698715 95.0858
6.741255995248479 75.0328
6.763611104154477 62.19
6.785949046381137 58.6619
6.808304671371482 58.7615
6.8306605557940046 60.0604
6.852999275508618 59.0634
6.875355681171544 57.3152
6.897694923437771 56.2592
6.92005185377892 55.6627
6.9423916220322655 55.8284
6.964749080490181 55.0748
6.987106804399774 55.3223
7.009447368180821 55.6406
7.031805625367033 55.4881
7.054146723727803 55.2818
7.076505517631004 54.4696
7.098864581288365 54.3871
7.121206488070854 54.568000000000005
7.143566093607822 54.6041
7.165908543567245 55.6384
7.188268694426048 55.6182
7.2106291193438095 55.0668
7.232972390625943 54.6804
7.255333366030969 61.6353
7.277677189091925 85.837
7.300038718428332 108.384
7.322400526130865 97.6516
7.344745183422596 70.3177
7.367107550224791 57.1592
7.389452767901992 54.4861
7.411815697249891 53.958999999999996
7.434161478756298 53.3197
7.456524974096713 53.4151
7.478888753837185 53.2329
7.501235387657368 53.6551
7.523599738562711 54.0293
7.545946944825532 54.0463
7.568311870344528 54.3656
7.5906770845765665 54.6205
7.613025156078678 55.0294
7.635390950099687 55.6866
7.657739602662809 55.7282
7.680105979923558 55.7912
7.702472650212829 56.4341
7.724822180948224 56.0389
7.747189439655568 56.0292
7.769539560075357 55.4432
7.791907410653562 55.8449
7.81425812420825 55.813
7.836626570110925 56.1565
7.858995315087906 57.3389
7.881346924933401 57.1801
7.903716270417482 57.6986
7.926068482028405 58.1936
7.948438431475253 59.0077
7.9708086843180235 59.1589
7.993161805171116 59.81
8.015532667162402 60.4065
8.037886398416653 61.3614
8.060257873014221 61.9138
8.082629655331942 62.981
8.104984308787587 63.7646
8.127356708900503 65.939
8.149711981398308 70.6565
8.172085002766314 72.3529
8.194458336181368 70.0871
8.216814543847752 68.4008
8.23918850371002 68.8407
8.26154533906492 69.469
8.283919928836452 71.1927
8.306277395339652 72.2519
8.328652618483376 73.6097
8.351028159736202 75.9302
8.373386579575245 77.7685
8.395762759396959 79.6078
8.418121819038275 83.2976
8.440498640894003 91.6978
8.462875785192262 103.125
8.485235811156207 126.57700000000001
8.507613602688501 177.36
8.529974277114228 260.101
8.552352719347912 384.981
8.574731488360351 660.06
8.59709314210385 1209.58
8.619472567021075 1955.16
8.64183487789147 2175.16
8.664214962183097 1727.04
8.686577933647762 850.297
8.708958680784317 315.692
8.731339760774953 146.514
8.753703729764451 106.58
8.77608547780821 96.8642
8.798450116065078 93.8424
8.820832535634787 91.5178
8.843215292401656 91.3592
8.865580941199045 91.1172
8.887964374703538 90.32700000000001
8.910330701447199 91.0283
8.932714815164482 91.1457
8.955099270424924 89.084
8.977466620733543 86.4222
8.999851761421976 84.531
9.022219798361645 83.3704
9.04460562795561 83.3082
9.066991803441677 83.1304
9.089360876979615 83.492
9.111747746589993 83.2302
9.13411751544971 82.2847
9.156505082664324 81.5261
9.178875550323522 81.57
9.20126381862328 81.5209
9.223652438908596 81.6362
9.246023961427412 81.6638
9.26841328802173 81.7889
9.290785518039224 81.9363
9.313175554425882 83.7189
9.335565947154315 84.7584
9.357939245086508 85.3099
9.380330352834827 85.0281
9.40270436697103 84.6864
9.425096193225055 83.8358
9.447488380180165 84.1899
9.469863475295412 84.2509
9.492256385987508 83.9666
9.514632206018318 84.7999
9.537025843935714 85.0945
9.559402392368193 86.7173
9.581796761000229 88.7803
9.604191496441521 90.6634
9.626569144158516 92.9683
9.648964615551032 95.5423
9.671343000390081 95.1112
9.693739211225699 93.4356
9.716135793237463 92.4309
9.738515290448102 92.9975
9.760912617143402 94.0531
9.783292860202891 95.9287
9.805690935076182 98.2173
9.828089385495742 99.2884
9.850470754023561 100.64200000000001
9.872869957865444 104.682
9.89525208097539 112.76299999999999
9.917652041736662 120.975
9.940052382417589 127.40799999999999
9.962435644102392 149.77200000000002
9.984836746950979 189.46599999999998
10.007220771957746 245.168
10.029622640473708 345.876
10.052007432299963 523.092
10.074410069984072 841.924
10.096813093716005 1309.76
10.119199042482517 1821.17
10.141602840636468 1981.4
10.163989564971628 1509.74
10.186394141051062 812.4989999999999
10.208799107559706 346.88800000000003
10.231187001965623 168.238
10.253592751657669 120.041
10.275981430388155 110.32
10.298387966769793 108.74
10.320794897965431 109.24600000000001
10.343184759907361 108.369
10.36559248305461 105.169
10.387983138083852 104.094
10.410391656691655 110.118
10.432800574501677 121.87899999999999
10.455192425893369 136.804
10.47760214443012 161.804
10.499994797678786 208.43599999999998
10.522405320453982 292.56
10.54479877906917 422.63800000000003
10.567210109595656 536.758
10.5896218454736 573.62
10.612016518879773 479.565
10.634429067781074 317.86400000000003
10.656824555333241 182.452
10.679237920773568 114.671
10.701651695961992 93.4531
10.724048411481384 87.8118
10.746463008485165 85.2362
10.768860546937125 83.8602
10.791275969274796 82.4303
10.81369180576079 81.5487
10.836090585366925 80.1814
10.858507252467449 79.0155
10.88090686379991 78.2432
10.903324365036394 77.5195
10.925724811614439 77.4094
10.948143150509463 78.0246
10.970561909719066 77.595
10.992963615930844 76.1157
11.015383218085756 74.3417
11.037785768347074 73.0531
11.06020621697282 72.2042
11.082627090322113 71.4637
11.105030913430326 70.715
11.12745263854165 70.7955
11.149857314510728 71.9703
11.172279894912576 74.8799
11.194702904450653 74.786
11.217108866490921 72.4466
11.239532736615194 70.3009
11.26193956033512 69.0025
11.284364294577085 68.1607
11.306789462371718 67.1451
11.329197585398376 66.5918
11.351623622610898 66.3947
11.37403261614354 65.4287
11.396459526308487 65.4079
11.418869393879497 65.1285
11.441297180532617 64.6501
11.463725406927658 64.2844
11.486136592353875 64.0495
11.508565700543707 64.079
11.530977768845315 64.9641
11.553407762368774 65.3005
11.575838200059769 65.1461
11.598251599479612 63.989
11.620682927815501 62.8716
11.64309721895548 62.6513
11.665529441478206 62.5941
11.687962112597958 62.2228
11.710377748130886 62.5586
11.732811318753434 62.3281
11.755227854859067 62.2456
11.777662328529495 62.0391
11.800079768750786 61.926
11.822515149015453 62.3924
11.844950984084935 62.2651
11.867369787303163 61.9315
11.889806534289491 61.8408
11.912226250487029 62.0554
11.934663912939751 62.2017
11.9571020346363 62.4571
11.979523127133968 62.8678
12.001962169624331 64.0463
12.024384183972964 65.5821
12.046824150809913 68.4407
12.069264581333726 72.4976
12.091687985297767 78.0134
12.11412934550045 87.1053
12.136553680195208 102.662
12.158995973632788 127.696
12.181438735204349 158.054
12.20386447284199 192.382
12.226308172985636 216.66
12.24873485024193 203.987
12.271179492516982 165.597
12.293607112949127 117.334
12.316052700916226 87.589
12.338498763250042 72.734
12.360927805303868 66.5672
12.383374818673879 64.4333
12.405804812803074 63.3379
12.428252780773262 63.247
12.45070122756722 63.3898
12.473132656675375 63.6622
12.49558206341869 64.2847
12.518014453510101 64.2375
12.540464823770117 64.2535
12.562915677315177 64.0896
12.58534951575545 64.6542
12.607801338171472 65.6328
12.630236146511358 68.2898
12.652688941369085 70.5665
12.675124723177234 70.9815
12.697578494048786 69.7554
12.720032754458185 67.6265
12.742470003354093 66.7728
12.764925245138771 66.9865
12.787363476431278 67.4757
12.809819703166806 67.7881
12.83227642391173 68.2567
12.854716135692716 69.179
12.877173846755147 70.1475
12.899614549869717 70.7059
12.9220732548287 71.5769
12.94453245827299 72.2958
12.966974655289818 73.1484
12.989434858002571 73.8189
13.011878055298721 74.57600000000001
13.034339260862497 75.6598
13.056800969391883 76.7101
13.079245674017244 79.7054
13.101708390774869 83.4756
13.12415410463411 91.4958
13.146617833206086 101.419
13.169064559883248 111.41799999999999
13.191529303857127 125.87100000000001
13.213994557076367 149.597
13.236442809902437 189.167
13.258909083908291 248.646
13.28135835851934 315.353
13.30382565690295 392.598
13.326293469022952 431.04
13.348744283242008 414.967
13.371213125129904 335.789
13.39366497011003 235.968
13.416134845360597 156.517
13.438605238843131 118.189
13.46105863690397 105.24
13.483530069144786 105.863
13.505984506951902 110.25
13.528456981549432 119.79
13.550929978879088 135.207
13.573385983253365 160.524
13.595860028340867 201.155
13.618317081455832 258.317
13.64079217790333 316.858
13.663250283359057 366.48800000000006
13.685726434770173 375.926
13.708203115221277 329.226
13.730662806148091 245.732
13.75314054697177 168.56599999999997
13.775601299246777 117.27600000000001
13.798080104050406 92.76899999999999
13.820559442405358 83.6601
13.843021793671388 80.5523
13.865502201420897 79.0589
13.887965623051947 78.8244
13.910447103807167 77.8873
13.932929122629764 76.6291
13.955394156785959 75.9729
13.977877254034569 75.046
14.000343367582113 74.2632
14.022827546871707 73.4967
14.045294743423524 73.08
14.06778000837062 72.3525
14.090265817715476 72.1416
14.112734645763819 71.5688
14.13522154619454 71.3109
14.157691466286913 71.2315
14.180179461423874 71.0911
14.202668005486178 70.553
14.22513957064374 70.0565
14.247629214846473 69.7798
14.270101881097517 69.5169
14.29259262906496 69.4803
14.315083930490205 69.8988
14.337558255389705 69.9904
14.360050666019726 69.8945
14.382526101071944 69.2368
14.405019624534942 68.4091
14.427513705993134 68.2067
14.449990813291825 68.305
14.47248601302899 67.8503
14.49496423954951 67.9606
14.517460561197822 68.2292
14.539939910570322 68.0612
14.562437357763558 68.2994
14.58493536931253 69.1236
14.607416409993311 69.5768
14.62991555254159 69.7767
14.652397725157423 70.0066
14.674898002342799 70.07
14.697398848433282 70.2012
14.719882725991326 71.1002
14.74238471217934 73.0849
14.764869730765593 76.4787
14.787372860692983 79.223
14.809876564079925 82.9944
14.83236330125751 88.67
14.854868153850365 97.8259
14.877356041159485 111.709
14.899862046604186 131.704
14.922351087688757 159.888
14.944858249632887 189.743
14.967365991421232 219.335
14.989856770231246 227.487
15.012365673994204 219.226
15.03485761569738 186.35299999999998
15.05736768508665 139.045
15.07987833888692 106.289
15.102372032001655 85.6667
15.124883856909658 74.6252
15.14737872204565 71.0394
15.169891721717274 69.9504
15.192405310371893 69.7999
15.214901940621196 69.5805
15.237416709527137 69.2082
15.259914520936249 68.9089
15.282430473753607 68.1565
15.304947020131227 67.5095
15.327446610371178 66.7701
15.349964346154254 66.1044
15.372465126703139 65.97800000000001
15.394984055556009 65.8954
15.417486030076159 65.7393
15.44000615566487 65.4142
15.462526881230803 65.3956
15.485030653812652 65.2085
15.507552581617434 65.2439
15.530057557334603 65.2414
15.55258069104857 65.4207
15.575104429329837 65.6126
15.597611216864632 65.2714
15.620136166564563 65.9081
15.6426441664095 67.3933
15.665170331202765 69.9864
15.687697105158826 72.4558
15.710206930593545 75.6698
15.732734925158933 79.3378
15.755245972089478 85.6711
15.77777519094324 95.4364
15.800287463046663 109.477
15.822817909869592 129.906
15.84534897229804 152.668
15.867863089299354 178.252
15.890395385222186 194.882
15.912910736597423 195.03799999999998
15.935444269699861 178.623
15.957978423016485 145.769
15.980495633101265 112.54299999999999
16.003031029129367 89.3378
16.02554948280019 72.4912
16.048086125229432 65.8238
16.070623392487107 63.4752
16.09314371869582 62.4746
16.11568223789321 61.591
16.13820381691126 60.9744
16.160743591742527 60.3683
16.183283996022084 59.4807
16.205807461423195 58.7488
16.228349126881973 58.3242
16.25087385432698 58.295
16.27341678466365 57.5567
16.29594277784926 57.4795
16.31848697676433 57.3921
16.341031811604868 57.3672
16.36355971058487 57.363
16.3861058195587 57.0493
16.40863499352978 56.3192
16.431182380342005 55.873000000000005
16.453730407713202 55.4793
16.476261501364792 55.2453
16.498810812136167 54.8548
16.52134319004079 54.8944
16.54389378792203 54.7457
16.566445031001553 54.5879
16.588979342490088 54.4842
16.61153187824822 54.4174
16.634067483263312 54.2984
16.656621315414416 54.3285
16.679175797408888 53.8622
16.701713349928728 54.0599
16.72426913389191 54.1526
16.74680798922351 54.2232
16.76936507887444 54.1296
16.791905240734874 54.2934
16.814463639794468 54.236000000000004
16.837022695210294 54.3882
16.859564824093756 54.5482
16.882125194503903 54.8068
16.904668639217885 55.1888
16.927230328348003 55.1129
16.949792678493612 55.2438
16.972338104193863 55.1181
16.994901778652235 54.7812
17.017448529496576 55.0616
17.040013531998152 55.6005
17.06257920018044 56.3256
17.0851279459922 56.7494
17.107694947817667 57.5873
17.130245028099072 58.3557
17.15281336730298 59.5784
17.17536478578733 61.3132
17.19793446610687 63.6317
17.220504818648422 66.7092
17.243058251703697 70.2233
17.265629950971032 75.42
17.288184731571736 80.3684
17.310757781306908 83.4376
17.33333150794385 83.696
17.355888317140174 80.503
17.37846339986244 74.9824
17.401021565958885 68.3075
17.42359800851343 63.3816
17.44617513265564 60.7524
17.468735341390783 59.2138
17.491261035594565 58.4961
17.51396340099364 58.3697
17.536490463869136 58.5836
17.559018209820174 58.6574
17.58154663977963 58.6906
17.604251766089718 58.8175
17.626781572227713 58.9847
17.64931206518155 59.3878
17.671843245885103 59.5458
17.69455114821572 59.7311
17.717083712612634 60.2147
17.739616967569667 60.3835
17.762150914021706 60.6831
17.78486160749854 61.0028
17.807396945166804 61.8931
17.829932977143503 62.9279
17.85246970436452 64.7022
17.875183204129467 66.199
17.897721330097664 67.8864
17.920260154126645 69.9712
17.942799677153296 73.2205
17.9655159983646 77.101
17.988056927677544 82.6881
18.010598558807683 90.8885
18.033140892692916 101.749
18.05586005052525 113.53299999999999
18.07840379824407 125.31299999999999
18.10094825154059 135.619
18.12366954819864 141.66299999999998
18.146215420998306 137.749
18.16876200220057 126.956
18.191309292745153 112.235
18.214033452627167 98.8976
18.236582170236648 88.6644
18.259131600016456 84.7664
18.281681742907335 86.006
18.304408781233683 91.4489
18.32696035875955 97.4543
18.349512652227624 102.008
18.372065662579683 106.036
18.394795594587553 105.646
18.41735004715306 100.166
18.43990521943684 92.1076
18.46246111238171 82.7589
18.485193953325208 74.2212
18.507751296070428 67.9088
18.530309362314178 64.4665
18.552868153000343 62.5397
18.57560391815056 61.3784
18.59816416623245 61.0451
18.620725141597372 60.6071
18.643286845190268 60.0752
18.666025549835414 59.5659
18.688588718427933 59.0806
18.711152618092243 58.8976
18.73389353884365 58.7127
18.75645890921984 58.2413
18.77902501351406 58.0661
18.801591852673102 58.2083
18.824335739722738 57.5642
18.846904057212626 57.4341
18.8694731124168 56.9797
18.89204290628315 57.1889
18.914789774966803 56.958999999999996
18.937361054791623 56.6522
18.959933076131318 56.4252
18.982505839934877 56.4739
19.00525570560582 56.4043
19.027829963004184 56.2644
19.05040496572238 56.5364
19.072980714710468 56.4647
19.095733592739563 56.5903
19.11831084296757 56.9211
19.140888842324735 57.3532
19.16346759176222 57.1601
19.18622349753803 57.7111
19.208803755869358 58.8438
19.231384767143577 59.9658
19.253966532312948 61.4845
19.276725481241822 63.7093
19.29930876296784 66.5252
19.3218928014549 69.7499
19.34465404436217 72.2651
19.36723960516257 74.9427
19.389825925592426 75.7542
19.412413006605938 73.8622
19.43517731967805 69.7431
19.457765930683355 65.3456
19.48035530514408 60.8235
19.50294544401556 57.6617
19.525712842708348 55.3752
19.54830451925909 54.4783
19.570896963095727 53.3598
19.593490175174704 53.1551
19.616260674962184 53.295
19.638855432416964 53.0667
19.661450960992624 53.0606
19.68404726164677 52.7719
19.706820878021247 52.7405
19.729418731756834 53.0596
19.752017360452857 52.6882
19.77461676506804 52.9235
19.797393513540218 53.1999
19.819994478951667 53.4476
19.84259622316767 53.7848
19.8651987471481 54.211999999999996
19.887978643247177 54.3006
19.91058273574792 54.8887
19.933187610901943 55.6613
19.955969879466828 57.0898
19.97857632894404 58.6173
20.00118356396599 60.5009
20.023791585494575 62.7762
20.046577028914875 65.556
20.069186632506966 68.0001
20.091797025500632 69.6206
20.114408208858933 69.7506
20.137196842715273 69.0191
20.159809615886765 66.9236
20.18242318232135 64.3126
20.20503754298326 62.2706
20.227829382875154 61.4489
20.250445341109344 61.7085
20.27306209647285 62.6791
20.29567964993108 64.0439
20.31847471147704 65.1251
20.34109387027612 65.2776
20.363713830075454 64.45100000000001
20.386334591841646 62.6149
20.409132890679302 59.8719
20.431755265564437 56.722
20.454378445325528 53.8881
20.477002430930366 52.3427
20.499803982716553 51.2226
20.522429589228004 50.6981
20.54505600449589 50.1724
20.567683229489194 50.1886
20.590488049900088 49.8092
20.61311690359731 49.7123
20.63574656993626 49.4341
20.658553853717297 49.0919
20.681185154618298 49.0559
20.703817271080066 49.0936
20.72645020407368 48.7229
20.749260783967177 48.5076
20.771895359337133 48.5035
20.794530754161617 48.4285
20.817166969412938 48.3532
20.83998086114876 48.3383
20.86261872660049 48.2138
20.885257415405402 48.0611
20.90789692853701 48.0902
20.930714147864748 48.1729
20.953355319030678 48.1448
20.97599731745334 48.2464
20.99864014410749 48.0641
21.021460706796564 48.1228
21.044105199328826 48.2993
21.06675052302631 48.4374
21.089396678865015 48.6217
21.112220600704806 48.9906
21.134868430275347 49.405
21.15751709492456 49.761
21.180166595629693 50.1187
21.202993892429635 50.4209
21.22564507473034 50.7492
21.24829709602816 51.0866
21.27112693608965 50.9069
21.293780644891275 50.9263
21.316435195634053 50.1698
21.339090589297417 49.3864
21.361923832041875 49.0104
21.384580921090404 48.4914
21.407238856007325 47.9679
21.429897637773326 47.9273
21.45273429906592 47.8527
21.475394784108598 48.0719
21.498056118951983 47.9562
21.520718304578022 48.1626
21.543558400304388 48.1433
21.566222297108816 48.4017
21.58888704765135 48.6137
21.61155265291521 48.8885
21.63439619898156 49.1592
21.657063523335786 49.4364
21.67973170537063 49.9302
21.7024007460706 50.4752
21.72524775840385 51.1865
21.747918526116475 52.48
21.770590155457388 53.6252
21.79326264741238 55.2807
21.816113141960237 57.276
21.838787368860547 59.3268
21.861462461341976 60.9594
21.884315579735777 62.8404
21.90699241312273 64.0258
21.92967011506078 64.2465
21.95234868653799 63.4009
21.9752053151131 61.9244
21.997885635446785 59.6537
22.020566828293532 57.9991
22.04324889464272 56.7862
22.066109049404666 55.8471
22.088792872571794 55.5688
22.111477572219204 56.1023
22.1341631493376 55.8219
22.157026846313123 55.4741
22.179714188221507 54.4661
22.202402410582668 53.2648
22.22509151438863 51.7604
22.24795876962584 50.4815
22.270649646204486 49.6512
22.293341407213727 49.0663
22.316034053646906 48.7031
22.338904883215342 48.5969
22.36159931041458 48.4013
22.38429462602756 48.4208
22.40699083104897 48.1289
22.429865251039757 48.2042
22.452563244831367 48.1262
22.47526213102522 48.2118
22.49813925616515 48.0698
22.520839937143307 47.9685
22.543541513520587 48.0393
22.56624398629403 47.9801
22.589124730075895 47.9087
22.611829005656723 48.3062
22.63453418063466 48.3245
22.657240256008077 48.3307
22.680124634582935 48.508
22.70283252079775 48.8302
22.725541310413075 48.9893
22.74825100442868 49.2741
22.771139033969575 49.806000000000004
22.79385054687155 50.0745
22.81656296718292 50.9408
22.83927629590484 51.6337
22.862167992606945 52.7095
22.88488314827121 54.1374
22.907599215359284 54.9984
22.93031619487366 56.2772
22.953211574954405 56.9845
22.975930389478226 57.4417
22.998650119445763 57.3913
23.02137076586092 56.5301
23.044269845560063 55.0498
23.06699233506288 53.2995
23.089715744034912 51.6777
23.112617610931565 50.1733
23.135342869061212 49.13399999999999
23.158069049684816 48.5609
23.1807961538087 48.1723
23.20370174880544 48.3434
23.226430710184808 48.5446
23.249160598093425 48.5059
23.271891413539002 48.4013
23.294800752937697 48.3556
23.31753343374794 48.6096
23.340267045128353 48.4967
23.36300158808808 48.9242
23.38591468821339 49.3293
23.408651104658304 49.872
23.431388455719986 50.5635
23.454126742409 51.3501
23.4770436196085 52.4329
23.499783787914662 53.7455
23.522524894889884 54.8024
23.54526694154616 55.9828
23.56818761219047 57.1663
23.59093154860734 57.4463
23.613676427751283 57.43
23.636422250635754 56.1292
23.659346731118656 54.4225
23.68209445191868 52.4427
23.704843119509587 50.3114
23.72759273490623 48.5325
23.750521041644767 47.3871
23.77327256312355 46.3319
23.796025035462787 46.0102
23.818956224555475 45.6161
23.841710609113413 45.4596
23.86446594758979 45.2319
23.887222241002014 45.0285
23.910157285144578 44.6191
23.932915498962537 44.6248
23.955674670778713 44.6627
23.978434801611975 44.3817
24.001373717286125 44.3183
24.024135776723917 44.1817
24.046898798245582 43.9938
24.06966278287146 43.8979
24.092605586582614 43.6171
24.115371508023642 43.4262
24.1381383956401 43.4343
24.16090625045381 43.4881
24.183852958731244 43.3672
24.206622758582608 43.1662
24.229393528706886 43.038000000000004
24.252165270127392 43.1043
24.27511589952438 43.2179
24.297889594216997 43.0929
24.32066426328598 42.8417
24.34343990775613 42.7785
24.36639447485003 42.7478
24.38917208083877 42.6507
24.41195066531332 42.6383
24.43490819850244 42.6327
24.457688750692377 42.5972
24.48047028445616 42.606
24.503252800821233 42.7429
24.526214300784112 42.7612
24.548998793132213 42.6807
24.57178427117417 42.5941
24.59457073593893 42.5007
24.617536219319863 42.5979
24.64032466834748 42.4371
24.663114107195035 42.2591
24.685904536893013 42.0627
24.708874020360852 41.9834
24.731666442613744 41.9373
24.754459858818787 41.7823
24.777254270007962 41.7724
24.80022777025625 41.8126
24.82302418230472 41.8664
24.845821592443674 41.872
24.86862000170663 41.7852
24.891597535453727 41.7127
24.914397953892728 41.8954
24.93719937456671 41.7539
24.96000179851076 42.0335
24.98298338249997 42.1867
25.00578782394922 42.4697
25.028593271784167 42.5351
25.05157790644186 42.8974
25.07438537804115 43.0117
25.097193859145293 43.1991
25.120003350792075 43.4101
25.142992065061257 43.8058
25.165803588823465 43.9012
25.18861612625217 44.2721
25.211429678386736 44.2133
25.234422489079968 44.2714
25.257238081693636 44.3388
25.280054692141732 44.5014
25.3028723214652 44.4926
25.325869245420463 44.6167
25.348688923599397 44.6047
25.371509623787006 44.3949
25.394331347025812 43.9833
25.41733240110666 43.4539
25.440156181590016 42.7251
25.46298098826268 42.2382
25.48580682216873 41.8377
25.50881202326435 41.2139
25.53163992281684 40.8929
25.55446885274561 40.7492
25.577298814096377 40.4783
25.600308179121807 40.3698
25.623140214533745 40.4073
25.64597328451537 40.3163
25.66898578564376 40.1845
25.691820936010206 40.2072
25.714657124097695 40.1965
25.737494350954734 40.0577
25.760511045684957 39.9114
25.783350361364224 40.094
25.806190718969255 40.1174
25.82903211955018 40.3431
25.852053024868923 40.2446
25.874896522722523 40.1412
25.897741066713106 40.0671
25.920586657892454 40.2564
25.943611790812668 40.4645
25.966459487728237 40.5397
25.989308234998564 40.6266
26.01215803367705 40.9637
26.03518741123814 41.0821
26.05803932412957 41.2108
26.080892291600094 41.1946
26.10374631470478 41.3285
26.12677995397268 41.3979
26.14963609978026 41.388000000000005
26.172493304397875 40.8179
26.19535156888223 40.6884
26.218389486949604 40.356
26.241249882640123 40.1476
26.26411134137826 39.8524
26.28715248187403 39.8353
26.31001607820869 39.7194
26.3328807407756 39.5581
26.35574647063438 39.7312
26.37879191991473 39.6921
26.401659795896734 39.6768
26.424528742360263 39.8083
26.447398760366614 40.0416
26.470448535598294 40.2007
26.49332070826805 40.4353
26.516193955675355 40.7104
26.53906827888316 40.9391
26.562122397260108 41.1336
26.584998883685063 41.4683
26.607876449110325 41.6127
26.63075509460056 41.7249
26.65381357334404 41.8024
26.67669439061878 41.7857
26.699576291163382 41.7785
26.722459276044212 41.4788
26.745522132402975 41.1994
26.768407297649354 40.9107
26.791293550442003 40.5417
26.814180891848974 40.3926
26.837248143099337 40.0863
26.860137673466657 40.0153
26.88302829566349 39.7197
26.90592001075963 39.4822
26.92899167420566 39.2961
26.951885586870763 39.0673
26.974780595655517 38.8059
26.99785558178161 38.7569
27.020752794605112 38.5804
27.043651106772522 38.4338
27.06655051935668 38.4652
27.089629948036183 38.2399
27.112531573292053 38.3037
27.135434302194138 38.3709
27.158338135817015 38.1668
27.181422024430987 38.1481
27.204328079372566 38.103
27.22723524226965 38.1921
27.250143514198573 38.2187
27.273231880156334 38.1342
27.296142382065014 38.0355
27.319053996245536 37.9897
27.341966723775965 38.128
27.365059584515222 38.1188
27.38797455070062 38.0861
27.410890633481237 38.0104
27.433807833936918 38.1061
27.456905206923906 38.1749
27.47982465472398 38.1327
27.502745223449743 38.3068
27.525666914182825 38.2583
27.548768816912457 38.1787
27.571692763693633 38.0368
27.59461783573812 37.963
27.617723149491244 37.8378
27.640650484125285 37.718
27.66357894728264 37.7175
27.686508540048052 37.6929
27.709618414237887 37.654
27.732550278321757 37.5253
27.755483275279115 37.3765
27.778417406196485 37.5432
27.801531858397514 37.383
27.824468269376716 37.3863
27.847405817586786 37.4288
27.870344504116094 37.5928
27.893463551932008 37.7399
27.916404527281053 37.8779
27.93934664422563 38.0053
27.962289903855886 38.0859
27.98541356491974 38.3116
28.00835912214229 38.3971
28.03130582533231 38.7007
28.054253675581805 38.8625
28.077381967556104 38.7105
28.100332124185126 38.7163
28.123283431160893 38.5336
28.146235889577238 38.3736
28.169368830154156 38.1699
28.192323603752033 38.0376
28.215279532083304 37.8017
28.238415973016764 37.5581
28.261374223145094 37.4927
28.284333631303806 37.2371
28.307294198589954 36.9899
28.330435319167677 36.7028
28.353398217078915 36.4945
28.376362277420153 36.2816
28.39932750129032 36.1677
28.422473319286713 36.1179
28.44544088262495 35.9119
28.468409612800283 35.8942
28.491379510913497 35.6833
28.51453004413313 35.4836
28.53750229057244 35.4616
28.56047570826344 35.555
28.583450298308804 35.5253
28.606605564586562 35.3217
28.629582511831156 35.3721
28.65256063474956 35.3122
28.675539934446338 35.346
28.698699951647605 35.2374
28.72168161743193 35.1397
28.74466446331978 35.0131
28.767648490417624 35.0479
28.790813276438353 35.0431
28.813799678527303 35.03
28.836787265157085 34.9909
28.859955641890075 34.9716
28.882945610203045 35.0286
28.905936766392035 35.0212
28.928929111566863 35.043
28.952102288520145 34.9483
28.975097024308607 34.7945
28.998092952423807 34.7039
29.021090073977508 34.5759
29.04426806913204 34.4977
29.067267590245258 34.28
29.090268308143695 34.2514
29.11327022394099 34.2381
29.13645305530891 34.066
29.159457379627167 33.9472
29.18246290519685 33.8656
29.20546963313352 33.9285
29.22865731875826 33.9395
29.25166646419296 33.9625
29.27467681535305 33.9199
29.29768837335608 34.0073
29.320880931312562 33.9908
29.34389491580634 33.9133
29.366910110507334 33.9352
29.38992651653503 33.9098
29.41312396492981 33.9538
29.436142806456754 33.7728
29.45916286268059 33.7567
29.48236399319994 33.6067
29.50538649169417 33.3776
29.528410208259935 33.2944
29.55143514402014 33.1367
29.574641196749695 33.0841
29.597668583816574 32.8959
29.6206971934585 32.8088
29.64372702680042 32.8887
29.666938019934474 32.7392
29.689970313635285 32.6066
29.713003834422636 32.6129
29.73603858342347 32.6064
29.759254535188578 32.4949
29.78229175361658 32.4624
29.80533020365064 32.4765
29.82836988641968 32.5166
29.85159081507472 32.3361
29.874632976355343 32.3793
29.89767637376955 32.3708
29.920721008448314 32.1833
29.9439469322847 32.2969
29.96699405457564 32.1961
29.9900424175358 32.2866
30.013092022298157 32.169000000000004
30.03632295963995 32.1758
30.059375061131373 32.1891
30.08242840783577 32.2004
30.105483000888153 32.1314
30.128718970092244 32.1637
30.151776069006917 32.1613
30.17483441768648 32.0182
30.198074175317235 32.0319
30.221135036724256 32.0848
30.24419715131772 32.0109
30.267260520236203 31.9351
30.290505341942243 31.9719
30.313571232750228 32.0449
30.336638381310948 31.9783
30.35970678876503 31.8939
30.38295669299435 31.873
30.40602763151657 31.8237
30.429099832366074 31.7173
30.452173296685572 31.7828
30.47542830191959 31.8375
30.498504306502497 31.7246
30.521581577995562 31.8644
30.544660117543582 31.7493
30.56792024229725 31.8987
30.59100133132069 31.8284
30.614083691845494 31.8772
30.637167325018545 31.8526
30.660432587840603 31.9479
30.683518779717886 31.9058
30.70660624769615 31.9576
30.729694992924372 31.8964
30.75296541239743 31.8932
30.77605672557558 31.8607
30.799149319462742 31.6974
30.8224236211637 31.6499
30.845518789950724 31.5287
30.868615242910597 31.4529
30.891712981195973 31.3778
30.91499247215866 31.2909
30.938092794619365 31.2526
30.96119440587579 31.1638
30.984297307082752 31.0483
31.00758200598383 30.9012
31.030687500658694 30.9048
31.053794288760695 30.8176
31.076902371446767 30.7096
31.100192296997445 30.7936
31.12330298246119 30.7229
31.14641496599209 30.6213
31.169528248749216 30.6607
31.19282341969534 30.6396
31.215939314557186 30.6261
31.239056512134788 30.5961
31.262175013589378 30.5875
31.28547544871168 30.5148
31.30859657161541 30.5086
31.331719001892175 30.5459
31.35484274070538 30.6832
31.378148458819545 30.6416
31.401274828443725 30.6277
31.424402510106933 30.5469
31.447712205419993 30.5795
31.470842524931633 30.4346
31.493974159989783 30.5485
31.51710711176168 30.4904
31.54042212308802 30.4805
31.563557722100917 30.443
31.586694641341655 30.3006
31.609832881979628 30.1088
31.63315322823208 30.1019
31.656294125521327 30.0037
31.679436347728515 29.9744
31.70257989602529 29.9013
31.725905596152327 29.7851
31.74905181052835 29.8428
31.772199354521323 29.9474
31.79534822930507 29.9136
31.818679302290967 29.8549
31.84183085259981 29.8441
31.864983737233473 29.7531
31.88813795736804 29.8208
31.911474422233013 29.6739
31.934631327356435 29.7496
31.9577895715215 29.7462
31.980949155906522 29.6614
32.004291031706956 29.703000000000003
32.027453310562606 29.6311
32.05061693318573 29.5027
32.07396288236386 29.4658
32.09712920658542 29.4201
32.12029687812702 29.2899
32.14346589817093 29.1722
32.166817291729984 29.1718
32.18998902288583 29.1754
32.21316210610336 29.1337
32.23633654256711 28.9925
32.259693399663725 29.0082
32.282870556771144 28.8744
32.30604907069099 28.8174
32.329228942610065 28.7228
32.35259128243769 28.6573
32.375773884550505 28.611
32.398957848235646 28.6378
32.422143174682176 28.5829
32.445511016471215 28.5617
32.468699082679954 28.4054
32.49188851523011 28.4299
32.51507931531304 28.3702
32.538452678331 28.3586
32.56164622776311 28.2584
32.58484114831493 28.193
32.60803744118015 28.1746
32.631416344731896 28.2715
32.654615396551876 28.2054
32.67781582427913 28.1211
32.701198898634416 28.0612
32.72440209253756 28.054000000000002
32.747606665947124 27.9284
32.77081262006088 27.7832
32.79420126883317 27.8035
32.81740999876112 27.794
32.840620112999424 27.754
32.86383161274818 27.7818
32.88722585534586 27.7607
32.91044014056596 27.8015
32.933655814909734 27.7151
32.95687287957963 27.7122
32.98027273544904 27.6373
33.00349259526636 27.6204
33.026713849030116 27.6536
33.04993649794511 27.5882
33.073341986570746 27.517
33.09656744032826 27.4226
33.11979429286444 27.4804
33.14302254538647 27.605
33.166433686291185 27.4736
33.18966475336992 27.4432
33.212897224069096 27.2863
33.23613109959831 27.3454
33.259547912343415 27.3396
33.2827846121627 27.2627
33.306022720453775 27.2712
33.32926223842861 27.0982
33.352684742614166 27.1312
33.37592709463173 27.1443
33.399170859982064 27.098000000000003
33.422597648419426 26.9487
33.44584425514446 26.9078
33.46909227885668 26.8334
33.4923417207723 26.7454
33.51577423505344 26.7404
33.539026528130385 26.6348
33.56228024307245 26.5916
33.585535381098246 26.4845
33.60897364093058 26.414
33.63223163992385 26.3649
33.6554910656699 26.3005
33.678751919389796 26.4068
33.702195944520106 26.2796
33.72545966903325 26.3113
33.74872482519663 26.2324
33.771991414233746 26.2192
33.79544122444841 26.2577
33.81871069412428 26.0989
33.84198160035767 26.0687
33.86525394437455 26.1504
33.88870955949969 26.1084
33.911984794020626 26.0067
33.93526147001624 26.0862
33.958539588715006 25.963
33.98200102861669 25.8854
34.0052820477047 25.7131
34.02856451319451 25.7831
34.05203033759056 25.6864
34.07531571090147 25.6152
34.09860253431845 25.69
34.121890809074316 25.6393
34.145362493118924 25.6506
34.16865368561615 25.531999999999996
34.191946333164054 25.5162
34.21524043699793 25.4758
34.23871800066799 25.4342
34.26201503218366 25.3606
34.28531352370466 25.3517
34.30861347646881 25.3969
34.33209693978188 25.3155
34.3553998301885 25.2962
34.378704185565205 25.2024
34.402010007152356 25.1037
34.42549939016683 25.1658
34.44880815937748 25.0699
34.472118398533134 25.0164
34.49543010887669 24.9526
34.51892543169198 24.8218
34.54224009966052 24.9266
34.56555624255917 24.8623
34.58887386163339 24.7834
34.61237514439016 24.7271
34.6356957311114 24.6576
34.65901779775809 24.6394
34.68252356662995 24.6024
34.705848608458616 24.7123
34.72917513396849 24.5578
34.75250314440949 24.5271
34.77601490857862 24.5162
34.799345904259795 24.3909
34.82267838863559 24.3731
34.846012362958525 24.3855
34.869530142679984 24.4011
34.89286711232212 24.375999999999998
34.91620557568269 24.34
34.93954553401677 24.3112
34.9630693495876 24.2197
34.986412313340814 24.2748
35.00975677584668 24.2004
35.033102738362956 24.1603
35.05663261012228 24.1447
35.0799815881786 24.1388
35.10333207003229 24.0198
35.12668405694369 24.1391
35.150220005273056 24.1148
35.17357501786656 23.9496
35.19693153931268 23.9294
35.220289570874385 23.8417
35.24383161619786 23.9004
35.267192683604904 23.9212
35.290555264930376 23.875999999999998
35.314101899412165 23.8925
35.33746752422433 23.8102
35.36083466676374 23.8557
35.38420332829803 23.7629
35.407756095629054 23.8246
35.43112781085063 23.772
35.45450104888391 23.6106
35.477875810999194 23.6898
35.50143473172161 23.6639
35.52481255774625 23.6145
35.54819191167777 23.6164
35.57157279478914 23.528000000000002
35.595137889488406 23.5399
35.61852184675279 23.3827
35.641907337029984 23.3924
35.665294361595684 23.3038
35.68886565090076 23.3317
35.7122557598848 23.2723
35.73564740699838 23.284000000000002
35.759040593519934 23.2916
35.78261809810353 23.2438
35.80601437933051 23.092
35.829412203814705 23.1077
35.85281157283719 23.0006
35.876395313415884 23.0645
35.8997977874528 22.9846
35.92320180988546 22.9324
35.946790244133936 22.8621
35.97019737933222 22.8383
35.993606066789866 22.8346
36.01701630779276 22.7248
36.04061101440684 22.7944
36.06402437852291 22.7727
36.08743930005611 22.7803
36.1108557802951 22.7045
36.13445678011326 22.6534
36.15787639383515 22.6607
36.18129757014299 22.5617
36.20472031032821 22.6062
36.22832762423364 22.4968
36.25175350829375 22.4521
36.275180960119776 22.4659
36.298609981005924 22.474
36.32222362992669 22.4388
36.34565580510207 22.3795
36.36908955323448 22.2446
36.39252487562093 22.2153
36.416144880530226 22.1821
36.43958336764275 22.2547
36.463023432914625 22.2042
36.486465077645676 22.133000000000003
36.51009145956204 22.1849
36.53353627947859 22.1931
36.55698268276811 22.128
36.58043067073321 22.0836
36.60406345072071 21.9649
36.62751462435344 21.9381
36.65096738658405 21.9971
36.67460498210655 21.9928
36.69806093788647 21.8283
36.72151848619297 21.8072
36.744977628333636 21.8734
36.76862165890998 21.6946
36.79208400512205 21.651
36.81554794910557 21.6787
36.83901349217101 21.5832
36.862663978991606 21.5775
36.88613273667352 21.5612
36.90960309738324 21.6209
36.933075062434064 21.4895
36.95673202673572 21.4235
36.98020721697122 21.3977
37.003684015502365 21.4119
37.027162423645365 21.3645
37.050825886711465 21.3724
37.07430753063053 21.2247
37.09779078812467 21.2764
37.121275660513014 21.2394
37.144945643673694 21.1558
37.16843376245278 21.149
37.19192350009803 21.2214
37.215414857931435 21.1511
37.239091382563885 21.0711
37.262585997426164 21.0429
37.28608223645736 20.9921
37.309763684451696 20.9431
37.33326318851098 20.9092
37.356764320726555 21.0082
37.380267082425526 20.9272
37.40395510942588 20.8657
37.42746114683234 20.7676
37.45096881771841 20.7691
37.474478123414166 20.7789
37.49817275092816 20.6857
37.52168534303452 20.719
37.54519957395567 20.6011
37.568715445024665 20.6343
37.592416694607714 20.5258
37.61593586281424 20.587
37.63945667518264 20.6007
37.66297913304891 20.5003
37.68668702630454 20.5401
37.710212792059274 20.4003
37.733740207334854 20.4504
37.757269273470364 20.3417
37.780983832050374 20.3021
37.80451621684926 20.3208
37.82805025654007 20.2795
37.851585952464795 20.2226
37.8753071980695 20.1849
37.89884622345676 20.1009
37.92238690911902 20.1272
37.94611318753442 20.1316
37.969657210779765 20.092
37.99320289834801 20.0729
38.016750251586465 19.971
38.04048325513017 20.0279
38.06403395679343 19.9161
38.087586328183946 19.8115
38.11114037065203 19.8742
38.13488012115898 19.8913
38.1584375229181 19.8173
38.181996599821 19.8098
38.205557353221124 19.8004
38.229303872575656 19.7232
38.2528679961576 19.746
38.27643380031219 19.7013
38.30000128639589 19.6235
38.32375459653193 19.5847
38.34732546371299 19.5809
38.37089801690786 19.5448
38.39447225747609 19.542
38.418232380377425 19.4953
38.441810012983396 19.4698
38.46538933705673 19.4067
38.488970353960084 19.397000000000002
38.51273731166058 19.3424
38.536321731567014 19.3399
38.55990784840681 19.324
38.58367995004091 19.2761
38.60726947812959 19.155
38.63086070726198 19.1585
38.654453638806274 19.2584
38.678232613930824 19.1529
38.70182896773327 19.0926
38.72542702806741 19.0635
38.7490267963045 19.0616
38.77281266709232 19.0057
38.79641586862214 18.9823
38.8200207821842 18.9316
38.843627409152944 18.924
38.86742019782782 18.8546
38.891030269149255 18.8103
38.914642058016156 18.8629
38.938255565806124 18.8137
38.96205529464307 18.7753
38.98567225787121 18.7691
39.00929094417078 18.7694
39.03291135492255 18.7545
39.05671804624804 18.6549
39.080341923549106 18.6862
39.103967529460334 18.6401
39.127594865365744 18.5409
39.15140854155791 18.5318
39.17503935514948 18.4971
39.19867190290282 18.4295
39.22249083587951 18.4423
39.24612686969409 18.4544
39.269764641845306 18.4164
39.293404153722804 18.3439
39.317230110864074 18.337
39.34087311998506 18.2928
39.36451787301696 18.2779
39.388164371352595 18.2562
39.41199737518003 18.1645
39.43564738196752 18.1109
39.45929913825317 18.1166
39.48295264543308 18.0951
39.506792718520884 18.075
39.530449745387216 18.0708
39.55410852735203 18.0261
39.57776906581474 18.0237
39.60161623079 18.0279
39.625280300200025 17.9614
39.64894613032202 17.8864
39.67261372255866 17.9266
39.6964680021016 17.8863
39.72013913657293 17.9158
39.74381203738292 17.9061
39.76748670593756 17.8195
39.79134812278169 17.7845
39.81502634488497 17.7883
39.83870633896685 17.6992
39.862388106436654 17.6713
39.88625668336918 17.6128
39.90994201572829 17.6138
39.933629125719285 17.6018
39.957503091207826 17.5746
39.9811937746168 17.5442
40.00488623990914 17.5128
40.02858048850006 17.4675
40.05246165409549 17.4461
40.076159487492085 17.422
40.099859108448875 17.4085
40.123560518384345 17.3338
40.1474489070226 17.3506
40.171153913178564 17.2993
40.194860712584955 17.2424
40.2185693066637 17.2205
40.242464941335314 17.2093
40.26617714307655 17.1963
40.289891143772046 17.1905
40.3136069448471 17.2139
40.33750984859743 17.1453
40.3612292688043 17.1156
40.3849504936829 17.0423
40.40867352466194 17.0874
40.43258372059144 17.0385
40.45631038219906 17.0529
40.48003885420956 16.9779
40.503769138055105 16.9546
40.52768664931955 16.9005
40.55142057531802 16.9085
40.57515631746428 16.8391
40.599079334038514 16.8439
40.62281872700477 16.7611
40.64655994043941 16.7459
40.67030297578061 16.8126
40.69423334835778 16.7669
40.71798004609188 16.7036
40.74172857006355 16.6901
40.76547892171441 16.7024
40.7894166736039 16.6334
40.813170699248566 16.5917
40.83692655691388 16.5893
40.86068424804498 16.5943
40.884629402612525 16.5362
40.908390779366385 16.5139
40.932153993938 16.4658
40.95591904777605 16.4232
40.979871628443995 16.4658
41.003640379561936 16.3813
41.02741097430883 16.3329
41.05118341413683 16.3479
41.075143444384416 16.2846
41.098919593177826 16.3096
41.1226975914255 16.3084
41.14647744058318 16.2468
41.170444943946755 16.1993
41.19422851378379 16.1872
41.218013938914645 16.131
41.24198706625173 16.1129
41.26577622087193 16.1288
41.289567235177785 16.0792
41.31336011063129 16.0206
41.337340752422875 15.9765
41.361137369129835 16.0119
41.38493585138705 15.9693
41.40873620066004 15.9211
41.43272438060107 15.8986
41.45652848292052 15.8548
41.48033445666918 15.811
41.50414230331616 15.8629
41.528138045159764 15.804
41.551949656675205 15.729000000000001
41.575763145513235 15.6708
41.59957851314666 15.7311
41.62358184070442 15.6693
41.64740098505737 15.6694
41.6712220126409 15.624
41.69504492493139 15.6154
41.71905586207357 15.6052
41.74288256296395 15.5071
41.766711153007456 15.4962
41.79054163368412 15.4716
41.814560204340054 15.4514
41.838394485526365 15.4689
41.86223066180303 15.401
41.88625497706819 15.4377
41.910094962812 15.4136
41.93393684811168 15.3605
41.95778063445365 15.2846
41.981812625263366 15.2905
42.00566023303407 15.2305
42.029509746323676 15.2129
42.05336116662236 15.1919
42.077400857069705 15.1772
42.10125611078846 15.1416
42.12511327600405 15.1197
42.14897235421036 15.1103
42.173019768448455 15.0478
42.19688269209613 15.0154
42.22074753323349 15.0542
42.24461429335818 15.0818
42.268669455600495 15.0064
42.292540073217886 14.9723
42.31641261433284 14.9728
42.34028708044675 14.9415
42.36435001496739 14.9509
42.38822835065557 14.9032
42.41210861586426 14.8538
42.4359908120986 14.8518
42.46006154323262 14.7908
42.48394762115317 14.722999999999999
42.507835634632315 14.7701
42.531912233047436 14.7165
42.55580413732265 14.7047
42.579697981698 14.6195
42.60359376768525 14.623
42.62767820545945 14.6289
42.65157789440821 14.6232
42.67547952952185 14.569
42.699383112316 14.6084
42.72347541395347 14.5319
42.74738291190531 14.4752
42.771292362102166 14.5016
42.795203766063516 14.4328
42.819303956130405 14.4377
42.843219287476536 14.4062
42.86713657716324 14.3758
42.89105582671383 14.2999
42.91516392983864 14.2913
42.939087119032166 14.3246
42.963012272677304 14.2707
42.98693939230129 14.2483
43.01105543317513 14.227
43.034986504731386 14.2234
43.05891954686589 14.1673
43.08285456110972 14.1624
43.10697856448665 14.1039
43.130917542983475 14.0561
43.15485849820081 14.0399
43.17880143167367 14.0481
43.20293342237094 14.0284
43.226880332449 14.0317
43.25082922540554 13.9865
43.27496722682525 13.9923
43.29892010567796 13.9644
43.32287497204102 13.9281
43.34683182745632 13.8726
43.370977859791836 13.8906
43.39493871351105 13.8658
43.41890156092628 13.8129
43.44286640358341 13.7995
43.46702049182749 13.8024
43.49098934522816 13.7274
43.51496019852649 13.7059
43.5389330532723 13.6725
43.56309522248204 13.6853
43.58707210044314 13.6688
43.61105098451946 13.6095
43.63503187626491 13.6087
43.659202151562134 13.5494
43.68318707902681 13.5594
43.70717401884041 13.5269
43.731162972560874 13.5382
43.75534137913236 13.4895
43.779334381108384 13.4339
43.803329401683186 13.4665
43.82732644241872 13.4223
43.8515130055166 13.3822
43.87551410707659 13.3668
43.89951723350145 13.3628
43.923709934595614 13.3031
43.94771713129917 13.2895
43.97172635758096 13.2912
43.99573761501002 13.282
44.0199385169922 13.2184
44.04395385732619 13.2085
44.067971233533086 13.1989
44.09199064718605 13.1384
44.11619977548961 13.1629
44.14022328470671 13.113
44.16424883610785 13.1511
44.18827643127035 13.0492
44.21249381139513 13.0113
44.236525514814076 12.9939
44.26055926674478 13.0456
44.28459506876863 12.9747
44.3088207262813 12.9512
44.33286064928722 12.9109
44.35690262714919 12.8675
44.38094666145278 12.8581
44.4051806219871 12.8724
44.42922879003185 12.8597
44.45327901929361 12.7965
44.477331311362136 12.7816
44.501573600619416 12.7211
44.525630039221795 12.7085
44.54968854541895 12.7176
44.573937102200176 12.7053
44.5979997645541 12.6976
44.622064499300315 12.639000000000001
44.64613130803592 12.6317
44.67038823869318 12.6129
44.69445921643748 12.6053
44.718532272981385 12.5225
44.742607409926194 12.4946
44.76687274034801 12.5284
44.79095205918753 12.4968
44.81503346325094 12.499
44.839116954143876 12.4412
44.86339071028742 12.4457
44.88747839599524 12.4443
44.91156817336837 12.3651
44.93566004401666 12.3874
44.959942251908146 12.3686
44.984038330325966 12.3808
45.00813650686762 12.3156
45.03223678314731 12.3037
45.05652746888232 12.2708
45.08063196592069 12.2572
45.104738567558705 12.212
45.128847275414856 12.1413
45.15314646515866 12.1294
45.17725940679741 12.1761
45.20137445952892 12.1449
45.22568004865265 12.1048
45.24979934496396 12.0935
45.27392075725247 12.0685
45.29804428714431 12.0496
45.322358426247604 12.0234
45.346486212804315 11.9851
45.370616121861914 11.9775
45.39474815505086 11.9627
45.41907087049246 11.9499
45.4432071734666 11.8671
45.46734560548283 11.9063
45.49148616817604 11.9011
45.51581748638564 11.8703
45.5399623320197 11.8575
45.56410931325473 11.8043
45.58825843173002 11.8456
45.61259837920865 11.7736
45.636751793816 11.7579
45.66090735060093 11.7478
45.68506505120716 11.7378
45.7094136545275 11.6825
45.73357566449271 11.6537
45.75773982322992 11.6452
45.78190613238733 11.6108
45.806263418194064 11.5964
45.83043404997326 11.5643
45.85460683713677 11.5784
45.87897065658495 11.5544
45.90314777634752 11.5409
45.92732705646868 11.5071
45.9515084986045 11.4632
45.97588104735473 11.4276
46.00006683541565 11.4232
46.02425479047904 11.4177
46.04844491420549 11.3982
46.0728262191024 11.388
46.09702070211635 11.3565
46.12121735879483 11.37
46.14541619080294 11.3366
46.169806278764455 11.3556
46.194009483459034 11.2975
46.21821486849841 11.2557
46.24242243555223 11.225999999999999
46.266821333570014 11.1963
46.29103328674601 11.1686
46.31524742696538 11.1993
46.33946375590237 11.18
46.36387149104216 11.15
46.38809221957392 11.0798
46.41231514186606 11.0991
46.436540259597464 11.0902
46.460956858999374 11.0483
46.48518638983522 11.0385
46.509418121166966 11.022
46.533652054678114 10.9932
46.55807754555709 10.9704
46.58231590571962 10.9489
46.60655647313217 10.9097
46.630988654873654 10.9005
46.655233659129024 10.8702
46.67948087571551 10.8937
46.70373030632484 10.8698
46.72817142736393 10.8878
46.752425308428684 10.8268
46.77668140861147 10.7917
46.80093972960865 10.7184
46.82538981736788 10.7495
46.849652602470904 10.7236
46.87391761349769 10.7058
46.8981848521493 10.6925
46.9226439341274 10.6809
46.946915650573224 10.6382
46.97118959976749 10.6253
46.99546578341598 10.5937
47.019933887188216 10.5681
47.04421456235744 10.5842
47.06849747711879 10.5976
47.09278263318286 10.5376
47.11725978640143 10.5116
47.14154944775105 10.5068
47.165841355555656 10.5098
47.1901355115306 10.4425
47.214621741924994 10.4659
47.23892041698887 10.4406
47.26322134538975 10.3939
47.28771440635075 10.3632
47.31201986422527 10.3796
47.33632758061436 10.3684
47.360637557241866 10.3404
47.38513974410611 10.3399
47.40945426407847 10.2989
47.43377104948137 10.2519
47.45809010204344 10.2467
47.48260144275502 10.2214
47.506925052572285 10.2151
47.53125093475548 10.1566
47.55557909103813 10.1789
47.58009961361992 10.1764
47.60443234110732 10.1355
47.62876734791564 10.1423
47.65310463578333 10.1097
47.6776343683373 10.0903
47.7019762413987 10.0478
47.72632040075572 10.0177
47.75066684815169 10.0075
47.77520581885936 9.99535
47.799556865477655 9.95728
47.823910205386 9.96084
47.84826584033272 9.9615
47.87281407745551 9.894219999999999
47.89717432569297 9.935310000000001
47.92153687423484 9.93126
47.94609208429692 9.90846
47.97045925671401 9.85122
47.99482873471275 9.83152
48.01920052005013 9.84918
48.04376504619224 9.83795
48.068141469543484 9.80573
48.09252020552573 9.78155
48.11690125590099 9.77454
48.1414751266064 9.72085
48.16586082917454 9.72666
48.19024885144316 9.71284
48.2146391951793 9.66837
48.239222439012764 9.68933
48.26361744916137 9.65851
48.28801478610016 9.66907
48.31241445160131 9.62537
48.337007097209366 9.540610000000001
48.36141144338331 9.572330000000001
48.38581812345755 9.52952
48.41022713920929 9.577010000000001
48.434829215320704 9.55105
48.45924292604658 9.52759
48.48365897780325 9.55492
48.50807737237308 9.49419
48.532688907799276 9.43698
48.55711201168574 9.43524
48.581537463754074 9.41935
48.60615611725119 9.4094
48.63058628942721 9.41192
48.65501881516546 9.36237
48.6794536962573 9.366439999999999
48.70408185970339 9.32766
48.72852147531801 9.31562
48.75296345168211 9.307739999999999
48.77740779059232 9.32899
48.80204549302823 9.29599
48.82649458091802 9.2563
48.85094603676547 9.27387
48.87539986237231 9.21212
48.90004713292306 9.150739999999999
48.92450572200832 9.161389999999999
48.94896668628025 9.14665
48.97343002754588 9.17278
48.99808689542115 9.16544
49.02255501470614 9.157680000000001
49.04702551642794 9.0923
49.0714984023988 9.08987
49.096164896893235 9.06312
49.120642575466796 9.08077
49.145122643748394 9.05885
49.16960510355558 9.01229
49.19428125404938 8.98364
49.2187685210852 8.99269
49.243258185121555 8.93972
49.26794160167084 8.91182
49.2924360839405 8.9413
49.31693296869764 8.9555
49.34143225776915 8.89445
49.36612538195438 8.87622
49.39062950396021 8.90655
49.41513603578346 8.85717
49.4396449792564 8.77937
49.46434784069503 8.801839999999999
49.488861631846454 8.75543
49.513377840166804 8.74358
49.537896467493745 8.77242
49.56260909589029 8.73247
49.587132585683285 8.70912
49.611658500018365 8.72898
49.636186840738596 8.70503
49.66090926588511 8.64472
49.685442483902584 8.60633
49.70997813385706 8.60106
49.734516217597076 8.622110000000001
49.75924846937352 8.58864
49.7837914452858 8.590069999999999
49.80833686055187 8.57235
49.83288471702571 8.53275
49.85762682540054 8.53422
49.882179588965734 8.531039999999999
49.9067347993235 8.492939999999999
49.93129245833333 8.47406
49.95604445336378 8.4913
49.98060703442832 8.42932
50.005172069746266 8.40355
50.02993150438364 8.41272
50.05450147301533 8.42981
50.07907390151433 8.3868
50.10364879174981 8.40129
50.12841816587289 8.34183
50.1529980044635 8.32756
50.17758031042124 8.314739999999999
50.20216508562089 8.32944
50.22694442953363 8.30278
50.25153416817468 8.290980000000001
50.27612638170508 8.24344
50.300721072005196 8.22071
50.325510416102105 8.21187
50.350110084975064 8.21932
50.37471223628208 8.202539999999999
50.39931687190919 8.2118
50.424116246675766 8.18569
50.44872587605249 8.16467
50.47333799543065 8.123569999999999
50.49795260670191 8.13907
50.52276204271512 8.109210000000001
50.54738166295838 8.0968
50.57200378079314 8.0754
50.596628398116835 8.022680000000001
50.62144792604559 8.020560000000001
50.646077567609396 8.02287
50.670709714377715 8.04092
50.69553683636198 7.992319999999999
50.72017401885922 7.97036
50.7448137122895 7.97042
50.76945591856022 7.955769999999999
50.79429318636823 7.926880000000001
50.818940443716784 7.92433
50.84359021965163 7.90676
50.868242516085964 7.89578
50.893089960641895 7.885689999999999
50.917747323549435 7.858160000000001
50.94240721271973 7.841419999999999
50.96706963007175 7.79175
50.99192728239342 7.78464
51.01659478166073 7.765960000000001
51.04126481489051 7.7761
51.06593738400761 7.78183
51.090805275207074 7.77716
51.11548294172845 7.72855
51.14016314993547 7.7065600000000005
51.164845901758845 7.7162
51.18972406304274 7.65327
51.21441192780656 7.6749600000000004
51.23910234200271 7.6338
51.2637953075678 7.65492
51.288683770237945 7.63329
51.31338186432707 7.5810699999999995
51.33808251561888 7.59187
51.362978729967345 7.5766100000000005
51.387684521509755 7.5552399999999995
51.41239287610203 7.52355
51.437103795691165 7.499810000000001
51.46201036644977 7.50738
51.486726441956634 7.498589999999999
51.51144508832545 7.510739999999999
51.536166307509156 7.4787
51.56108326624387 7.440230000000001
51.58580965706056 7.44844
51.61053862657523 7.42386
51.635270176746864 7.41375
51.66019755512065 7.38087
51.68493429268881 7.36936
51.70967361681515 7.387230000000001
51.73441552946465 7.343610000000001
51.759353359237934 7.3173
51.7841004750961 7.32759
51.80885018539685 7.28
51.833602492111254 7.25678
51.8585508051424 7.261310000000001
51.883308330926425 7.27893
51.90806845906181 7.231439999999999
51.932831191525715 7.20025
51.95779001977161 7.20965
51.98255798721516 7.20682
52.00732856494335 7.190119999999999
52.03229530577543 7.15228
52.057071130455945 7.16455
52.081849571391054 7.15146
52.106630630568695 7.128260000000001
52.13160794279417 7.08365
52.15639426492067 7.0991800000000005
52.18118321127822 7.099260000000001
52.205974783860896 7.015289999999999
52.23096269971011 7.02312
52.255759551287994 7.006469999999999
52.280559035098186 7.01169
52.30536115314103 7.0175
52.33035970494467 6.9952
52.35516711807904 7.012410000000001
52.37997717147198 6.95412
52.40478986713005 6.95823
52.42979908731974 6.922839999999999
52.454617094216 6.902989999999999
52.47943774942214 6.9266
52.50426105495102 6.887460000000001
52.529280976059844 6.89125
52.554109609024096 6.907430000000001
52.57894089837482 6.84738
52.60377484613117 6.83375
52.62880550079408 6.82073
52.65364479223379 6.812539999999999
52.67848674816189 6.75714
52.70352547971946 6.78406
52.72837279155837 6.7906699999999995
52.753222773982785 6.71445
52.778075429022984 6.7497
52.80312495150885 6.74023
52.827982978797436 6.7227
52.85284368481815 6.68595
52.87770707160767 6.6413199999999994
52.90276741793998 6.65543
52.92763619336701 6.60986
52.952507655698504 6.655639999999999
52.977381806977576 6.6086800000000006
53.00245301017842 6.60695
53.02733256653592 6.59593
53.052214817996074 6.59207
53.077099766608484 6.572369999999999
53.102181859804446 6.52033
53.127072229988265 6.58015
53.15196530349892 6.54635
53.17686108239249 6.5111
53.20195409881522 6.5269699999999995
53.22685531582556 6.4845
53.25175924441303 6.48071
53.27666588664027 6.4577599999999995
53.30176985962693 6.4352599999999995
53.3266819565689 6.43318
53.35159677336455 6.438680000000001
53.376514312083096 6.4252199999999995
53.40162927507703 6.41994
53.42655228516116 6.4149400000000005
53.45147802340193 6.34741
53.47660125628886 6.32672
53.50153247842639 6.30044
53.52646643496923 6.29556
53.55140312799818 6.29824
53.576537409691696 6.2840300000000004
53.60147960336152 6.28806
53.626424539786164 6.29082
53.65137222105307 6.2779
53.67651758529126 6.228269999999999
53.70147078399681 6.26023
53.72642673383343 6.24627
53.75138543689533 6.21165
53.776541917524526 6.17638
53.801506154876755 6.18026
53.826473151763246 6.16787
53.851442910284916 6.116169999999999
53.87661054126026 6.12308
53.9015858509782 6.080769999999999
53.92656392866066 6.11756
53.95154477641532 6.11163
53.976723591801296 6.06991
54.00171000771266 6.0197400000000005
54.02669920004598 6.03461
54.051691170915745 6.02957
54.076881204886796 6.03493
54.101878760928514 6.014819999999999
54.12687910187696 6.03069
54.152077577768296 5.9946
54.1770835166946 5.9346
54.20209224691339 5.98006
54.22710377055121 5.92802
54.25231352511594 5.911969999999999
54.27733066384342 5.89623
54.30235060239643 5.89194
54.32737334290836 5.88826
54.35259441062629 5.86797
54.377622783395324 5.83544
54.40265396455061 5.855630000000001
54.42768795623251 5.82445
54.45292037169559 5.79951
54.477960012857906 5.78033
54.50300247099511 5.77154
54.52804774825457 5.752619999999999
54.55329154616743 5.72104
54.57834249018678 5.6757
54.6033962597977 5.669919999999999
54.6284528571545 5.65806
54.653708072335164 5.599419999999999
54.67877035378786 5.6113
54.70383546947698 5.58081
54.72890342156389 5.56427
54.7541700889442 5.54704
54.77924374251975 5.54828
54.8043202390049 5.53453
54.82959552413022 5.55309
54.8546777351945 5.4833300000000005
54.87976279569621 5.46001
54.90485070780914 5.4673
54.930137506558005 5.4240699999999995
54.95523115074295 5.44115
54.98032765308844 5.38431
55.005427015775496 5.34399
55.03072536339621 5.36026
55.05583047570572 5.32116
55.080938454927676 5.30536
55.10604930325027 5.32425
55.131359235107396 5.3247599999999995
55.15647585066083 5.260669999999999
55.181595341907496 5.220940000000001
55.20671771104285 5.16314
55.232039262617704 5.16932
55.25716741665048 5.137569999999999
55.28229845518636 5.1602
55.30743238042802 5.08999
55.33276558731939 5.0911800000000005
55.357905315183636 5.0681400000000005
55.383047936390035 5.02583
55.40819345314859 5.0054099999999995
55.433538351073295 5.02977
55.458689688238415 5.00966
55.483843927614096 4.9493599999999995
55.509197623043605 4.98683
55.53435769621134 4.914219999999999
55.55952067826466 4.88172
55.5846865714265 4.90294
55.61005202069737 4.89
55.63522376553902 4.8137099999999995
55.66039842818645 4.77389
55.68557601087004 4.78989
55.7109532500271 4.71817
55.73613670233794 4.73703
