TT I
1.2716486653135266 8.03083
1.2939594142134223 7.737769999999999
1.3162702121660406 7.24947
1.3385810600174564 6.76395
1.3608919586137629 6.9549
1.383202908801069 6.40394
1.405513911425503 6.70455
1.4278249673332093 6.54633
1.4501343378461518 5.77347
1.4724455028545926 5.946359999999999
1.4947567236847858 5.92537
1.517068001182951 5.82008
1.5393793361953272 6.06813
1.5616907295681737 5.92818
1.5840021821477681 5.647880000000001
1.60631369478041 5.50044
1.6286252683124185 5.417730000000001
1.6509369035901333 4.6955599999999995
1.6732468618895553 5.0339
1.695558623192809 4.8416
1.7178704487808514 4.60689
1.7401823395001077 5.191319999999999
1.7625012545597203 5.56234
1.7848028405262486 5.4678
1.8071218901122095 5.41654
1.8294236121921872 4.6902
1.8517427996910911 5.33458
1.8740620574440425 4.66594
1.8963639900671978 5.0831599999999995
1.9186833908139995 4.5142
1.9409854680117449 4.6064300000000005
1.9633050151394713 4.749630000000001
1.9856246367570705 4.86002
2.0079269371922672 4.92931
2.03024671027244 4.73516
2.0525491637446027 4.33174
2.074869091674931 4.83094
2.097171701569106 4.47858
2.1194917877373847 5.0380400000000005
2.141811954326636 5.24972
2.164114805233074 5.33513
2.186435135143035 6.502190000000001
2.208738150935709 16.9816
2.231058647554722 38.4981
2.2533792288321184 29.4841
2.275682498336085 12.2615
2.298003251406138 6.09938
2.3203066942619714 4.79191
2.3426276225136022 4.993
2.3649486396617507 5.43464
2.387252348930071 5.5160800000000005
2.4095735463442893 5.35001
2.4318774374315884 5.84785
2.4541988185014043 5.925619999999999
2.476502894794693 6.31046
2.498824462909887 6.1409400000000005
2.521146125856138 6.31152
2.5434504863470337 6.69353
2.5657723414244717 7.02716
2.588076895590662 7.09537
2.610398946189713 7.22795
2.6327210958598384 7.065869999999999
2.6550259469304716 7.4744399999999995
2.6773482972090137 7.59585
2.6996533504259 7.89946
2.7219759047039602 7.32827
2.744298562293959 7.98538
2.7666039251246595 7.58707
2.7889267918020164 8.00577
2.8112323652516555 8.051060000000001
2.833555444408179 7.919389999999999
2.8558786311183852 7.979989999999999
2.8781845268938557 8.6762
2.9005079311721484 8.67745
2.9228140460410397 8.675180000000001
2.9451376712799635 9.233839999999999
2.967444008632326 9.621139999999999
2.9897678582247247 9.9845
3.0120918213106695 10.4468
3.0343984987899373 11.1844
3.0567226913198637 11.5025
3.079029599759726 11.9949
3.101354025127254 12.6018
3.123678568232338 12.9295
3.145985829517914 13.3094
3.16831061055229 13.8567
3.1906181112775593 13.9335
3.212943133635653 14.6443
3.2352682779763207 15.2133
3.2575761442691227 15.4186
3.2799015350264273 15.9083
3.302209649240067 16.3141
3.3245352898092655 16.8242
3.3468436553365257 17.6252
3.369169549113219 17.9691
3.3914955708171384 19.4389
3.413804319727358 19.1088
3.4361305997334863 19.5604
3.4584396084414553 20.137999999999998
3.4807661501462652 20.5469
3.503092824025881 21.2794
3.5254022288463154 21.6654
3.5477291695206588 22.3947
3.5700388426251948 23.3872
3.5923660534916446 24.8141
3.6146934007816114 45.1663
3.637003482731501 119.06299999999999
3.6593311053109985 134.375
3.681641464033634 73.5434
3.7039693653009733 34.2976
3.726297407241705 27.4107
3.7486081875460804 26.5741
3.7709365132734978 27.2064
3.793247578841633 27.0105
3.8155761917550093 27.1744
3.8378875459837216 27.6319
3.8602164494827234 28.0533
3.882545499606844 28.9288
3.9048572932539183 29.4623
3.9271866390645718 29.9252
3.9494987298666713 30.5998
3.971828374764527 31.1692
3.9941581705403255 31.605
4.016470713506008 32.1726
4.038800813471445 32.7328
4.061113662089144 33.6886
4.0834440696459176 34.5726
4.105774632334751 35.0695
4.128087945865126 35.5573
4.150418821249301 36.5798
4.172732448931298 38.0155
4.195063640413578 39.9565
4.2173775856475215 45.8552
4.239709096631102 88.4472
4.262040768704612 323.96299999999997
4.284355196706267 449.4
4.306687193387355 285.54400000000004
4.329001947444346 101.04799999999999
4.35133427213731 52.2362
4.373666762177566 46.4498
4.395982011761091 46.0638
4.418314834921175 47.5681
4.44063041906622 57.4168
4.4629635787515625 73.7991
4.4852969080429785 73.4631
4.5076130004776225 58.2492
4.529946671403969 52.3058
4.552263106909177 51.8005
4.574597122877047 52.343999999999994
4.596931312711224 52.9781
4.619248269273446 54.4437
4.6415828092605835 55.3373
4.663900117405352 56.356
4.686235010953232 57.4265
4.708552674085913 59.0245
4.730887924602802 60.5673
4.753223354952695 62.0519
4.775541557023902 63.4872
4.797877349456786 64.9761
4.820195915032126 66.7874
4.842532072957498 68.6292
4.864868414979744 70.4641
4.88718753227192 72.5507
4.909524244902505 74.3607
4.931843734218147 76.2251
4.954180820867835 78.9888
4.976518095879839 82.4054
4.998838149695359 85.0051
5.021175803844231 88.3863
5.043496238205739 92.0098
5.065834274903528 96.8938
5.088172504230693 102.42
5.1104935158799565 109.72399999999999
5.132832132875765 139.463
5.155153533596801 201.64
5.1774925416746225 243.834
5.199814334878411 421.704
5.2221537374521505 1139.4
5.244493338631803 2871.85
5.266815727034316 6775.58
5.289155727832427 11426.2
5.311478517248165 9375.27
5.333818921080011 3534.69
5.356159527788849 750.182
5.3784829252032536 222.84599999999998
5.400823940070432 159.89700000000002
5.423147747031976 137.564
5.445489173474152 125.456
5.467830807066149 118.80799999999999
5.490155234831516 113.84200000000001
5.512497285125229 109.488
5.534822130975162 107.75299999999999
5.557164601388673 104.963
5.579489868738879 101.76799999999999
5.601832762690846 101.23200000000001
5.6241758697774475 100.319
5.646501775867269 99.2812
5.668845311622074 98.0344
5.691171647754637 96.2863
5.713515615597765 94.7143
5.735859800852677 94.2991
5.758186788542988 93.5747
5.780531411018185 94.1967
5.802858837297399 93.1448
5.825203900414495 93.5732
5.8475491852224 93.5135
5.869877275883075 93.6107
5.892223006467101 95.1874
5.914551544266608 96.7344
5.936897724049891 100.258
5.959244129804903 106.509
5.981573344815301 127.109
6.0039202049061 228.148
6.026249875609095 491.05400000000003
6.04859719346037 1005.11
6.070927323278297 2010.58
6.093275102315365 3857.54
6.115623113320588 4990.41
6.137953938319995 3560.93
6.160302415650845 1281.19
6.182633708324452 312.66700000000003
6.2049826554078376 130.096
6.227331838745022 100.00299999999999
6.249663839443684 90.8225
6.27201349767565 87.2996
6.294345974611799 96.6345
6.316696111167083 114.766
6.339046488263839 107.624
6.361379686074702 86.3855
6.383730546639482 74.5433
6.406064229255215 70.7887
6.428415576718203 70.2436
6.450749747566656 68.9642
6.47310158535871 67.4567
6.495453669698332 66.8855
6.517788579421056 66.4236
6.540141159237969 65.3945
6.562476565766648 65.3216
6.5848296444934045 64.7642
6.607182974060425 64.4605
6.6295191323281015 64.6609
6.651872965955752 69.4999
6.6742096296068985 105.46
6.6965639707294615 175.43900000000002
6.71891856698715 177.796
6.741255995248479 112.87
6.763611104154477 73.6878
6.785949046381137 63.2497
6.808304671371482 60.4085
6.8306605557940046 59.726000000000006
6.852999275508618 58.8494
6.875355681171544 58.4859
6.897694923437771 58.3694
6.92005185377892 58.2053
6.9423916220322655 57.9856
6.964749080490181 57.3845
6.987106804399774 57.53
7.009447368180821 57.3906
7.031805625367033 56.9061
7.054146723727803 57.5061
7.076505517631004 56.8783
7.098864581288365 57.1251
7.121206488070854 56.9206
7.143566093607822 56.7199
7.165908543567245 57.0117
7.188268694426048 57.2236
7.2106291193438095 57.3228
7.232972390625943 59.3766
7.255333366030969 76.7079
7.277677189091925 153.863
7.300038718428332 228.243
7.322400526130865 192.51
7.344745183422596 108.194
7.367107550224791 66.8875
7.389452767901992 58.9375
7.411815697249891 57.3083
7.434161478756298 56.2714
7.456524974096713 56.1554
7.478888753837185 55.9365
7.501235387657368 56.2438
7.523599738562711 56.1755
7.545946944825532 56.5872
7.568311870344528 56.8741
7.5906770845765665 57.2476
7.613025156078678 59.0659
7.635390950099687 60.5972
7.657739602662809 59.2105
7.680105979923558 57.91
7.702472650212829 57.4995
7.724822180948224 57.1606
7.747189439655568 57.6514
7.769539560075357 57.9416
7.791907410653562 58.1128
7.81425812420825 57.9485
7.836626570110925 58.2031
7.858995315087906 58.8549
7.881346924933401 58.82899999999999
7.903716270417482 59.5281
7.926068482028405 59.8258
7.948438431475253 60.4844
7.9708086843180235 61.3308
7.993161805171116 61.9677
8.015532667162402 62.3604
8.037886398416653 63.0369
8.060257873014221 63.4854
8.082629655331942 64.1814
8.104984308787587 65.1922
8.127356708900503 69.7313
8.149711981398308 77.9105
8.172085002766314 81.218
8.194458336181368 76.0786
8.216814543847752 71.6794
8.23918850371002 71.0044
8.26154533906492 71.411
8.283919928836452 72.9525
8.306277395339652 73.7149
8.328652618483376 75.1971
8.351028159736202 77.6309
8.373386579575245 79.9716
8.395762759396959 81.7943
8.418121819038275 87.6245
8.440498640894003 105.64
8.462875785192262 125.46600000000001
8.485235811156207 137.55100000000002
8.507613602688501 175.396
8.529974277114228 265.193
8.552352719347912 399.13699999999994
8.574731488360351 630.033
8.59709314210385 1062.13
8.619472567021075 1640.68
8.64183487789147 2076.66
8.664214962183097 1858.74
8.686577933647762 1128.2
8.708958680784317 463.055
8.731339760774953 194.63099999999997
8.753703729764451 121.085
8.77608547780821 104.475
8.798450116065078 99.0493
8.820832535634787 95.7187
8.843215292401656 93.5154
8.865580941199045 92.0245
8.887964374703538 91.1135
8.910330701447199 92.4195
8.932714815164482 96.4728
8.955099270424924 95.8576
8.977466620733543 91.5858
8.999851761421976 87.7145
9.022219798361645 85.5669
9.04460562795561 84.8543
9.066991803441677 84.3998
9.089360876979615 84.321
9.111747746589993 84.0848
9.13411751544971 83.4094
9.156505082664324 83.0383
9.178875550323522 83.1793
9.20126381862328 84.2596
9.223652438908596 84.382
9.246023961427412 84.5196
9.26841328802173 83.4716
9.290785518039224 83.4829
9.313175554425882 84.4227
9.335565947154315 83.8898
9.357939245086508 84.1436
9.380330352834827 84.0137
9.40270436697103 84.5085
9.425096193225055 84.2491
9.447488380180165 84.9635
9.469863475295412 85.6149
9.492256385987508 86.0029
9.514632206018318 86.7589
9.537025843935714 87.0712
9.559402392368193 87.6324
9.581796761000229 88.6499
9.604191496441521 90.08
9.626569144158516 94.7652
9.648964615551032 101.45100000000001
9.671343000390081 103.825
9.693739211225699 99.8706
9.716135793237463 95.8436
9.738515290448102 94.5323
9.760912617143402 95.23899999999999
9.783292860202891 96.6792
9.805690935076182 98.3085
9.828089385495742 99.1723
9.850470754023561 102.045
9.872869957865444 112.19200000000001
9.89525208097539 133.362
9.917652041736662 151.67
9.940052382417589 149.309
9.962435644102392 151.094
9.984836746950979 184.702
10.007220771957746 251.38400000000001
10.029622640473708 353.735
10.052007432299963 510.032
10.074410069984072 746.4839999999999
10.096813093716005 1112.14
10.119199042482517 1577.51
10.141602840636468 1914.71
10.163989564971628 1769.54
10.186394141051062 1106.67
10.208799107559706 513.123
10.231187001965623 235.757
10.253592751657669 141.221
10.275981430388155 119.95200000000001
10.298387966769793 119.633
10.320794897965431 123.23200000000001
10.343184759907361 121.506
10.36559248305461 114.055
10.387983138083852 108.075
10.410391656691655 109.945
10.432800574501677 121.329
10.455192425893369 138.93
10.47760214443012 162.79
10.499994797678786 200.04
10.522405320453982 262.663
10.54479877906917 356.385
10.567210109595656 472.83
10.5896218454736 559.456
10.612016518879773 529.9730000000001
10.634429067781074 395.91
10.656824555333241 231.416
10.679237920773568 139.59
10.701651695961992 102.447
10.724048411481384 92.4949
10.746463008485165 88.9347
10.768860546937125 87.2448
10.791275969274796 85.3605
10.81369180576079 83.8533
10.836090585366925 82.7629
10.858507252467449 81.832
10.88090686379991 80.8714
10.903324365036394 80.5011
10.925724811614439 80.4738
10.948143150509463 82.8431
10.970561909719066 82.206
10.992963615930844 79.5861
11.015383218085756 76.8216
11.037785768347074 75.2007
11.06020621697282 74.6998
11.082627090322113 73.7273
11.105030913430326 73.8477
11.12745263854165 74.8783
11.149857314510728 79.7018
11.172279894912576 88.861
11.194702904450653 90.6756
11.217108866490921 84.699
11.239532736615194 78.3349
11.26193956033512 75.2605
11.284364294577085 73.0441
11.306789462371718 70.7305
11.329197585398376 69.3611
11.351623622610898 68.7529
11.37403261614354 67.5964
11.396459526308487 67.4257
11.418869393879497 67.2273
11.441297180532617 66.9072
11.463725406927658 66.7259
11.486136592353875 66.2505
11.508565700543707 66.9721
11.530977768845315 70.1183
11.553407762368774 71.6071
11.575838200059769 70.7491
11.598251599479612 67.6382
11.620682927815501 65.6686
11.64309721895548 64.9685
11.665529441478206 64.7601
11.687962112597958 64.236
11.710377748130886 64.551
11.732811318753434 64.4015
11.755227854859067 64.2053
11.777662328529495 64.3338
11.800079768750786 64.2577
11.822515149015453 64.1933
11.844950984084935 64.1288
11.867369787303163 63.8433
11.889806534289491 63.7732
11.912226250487029 64.2812
11.934663912939751 64.4249
11.9571020346363 64.4206
11.979523127133968 64.3974
12.001962169624331 65.0312
12.024384183972964 66.1716
12.046824150809913 69.5181
12.069264581333726 75.0014
12.091687985297767 81.4229
12.11412934550045 90.5164
12.136553680195208 102.073
12.158995973632788 120.685
12.181438735204349 141.399
12.20386447284199 171.31599999999997
12.226308172985636 199.595
12.24873485024193 209.21099999999998
12.271179492516982 184.449
12.293607112949127 145.569
12.316052700916226 110.071
12.338498763250042 86.9498
12.360927805303868 74.8813
12.383374818673879 69.3061
12.405804812803074 66.7094
12.428252780773262 66.2224
12.45070122756722 65.7224
12.473132656675375 65.7163
12.49558206341869 65.8971
12.518014453510101 66.0296
12.540464823770117 66.1727
12.562915677315177 66.0656
12.58534951575545 67.2097
12.607801338171472 70.1067
12.630236146511358 77.664
12.652688941369085 84.9234
12.675124723177234 85.2471
12.697578494048786 79.3597
12.720032754458185 72.9842
12.742470003354093 70.0485
12.764925245138771 69.366
12.787363476431278 69.6543
12.809819703166806 69.685
12.83227642391173 70.4019
12.854716135692716 71.1985
12.877173846755147 72.2653
12.899614549869717 72.3802
12.9220732548287 73.3122
12.94453245827299 73.7176
12.966974655289818 74.6443
12.989434858002571 75.5088
13.011878055298721 76.1184
13.034339260862497 77.3081
13.056800969391883 78.2901
13.079245674017244 80.4889
13.101708390774869 82.74799999999999
13.12415410463411 90.0983
13.146617833206086 102.721
13.169064559883248 115.803
13.191529303857127 130.069
13.213994557076367 149.877
13.236442809902437 178.80900000000003
13.258909083908291 221.926
13.28135835851934 274.637
13.30382565690295 336.20599999999996
13.326293469022952 404.038
13.348744283242008 431.74
13.371213125129904 389.961
13.39366497011003 299.783
13.416134845360597 200.801
13.438605238843131 138.446
13.46105863690397 112.516
13.483530069144786 109.56
13.505984506951902 114.166
13.528456981549432 123.835
13.550929978879088 136.901
13.573385983253365 156.422
13.595860028340867 185.637
13.618317081455832 227.19099999999997
13.64079217790333 277.353
13.663250283359057 328.825
13.685726434770173 370.88199999999995
13.708203115221277 363.539
13.730662806148091 299.0
13.75314054697177 219.356
13.775601299246777 148.624
13.798080104050406 106.882
13.820559442405358 89.59100000000001
13.843021793671388 84.5369
13.865502201420897 82.6133
13.887965623051947 81.453
13.910447103807167 80.2467
13.932929122629764 78.755
13.955394156785959 78.3817
13.977877254034569 77.4405
14.000343367582113 76.3656
14.022827546871707 76.1433
14.045294743423524 75.4733
14.06778000837062 74.6316
14.090265817715476 74.4595
14.112734645763819 74.1444
14.13522154619454 74.1261
14.157691466286913 74.5361
14.180179461423874 74.1645
14.202668005486178 73.3869
14.22513957064374 72.3985
14.247629214846473 72.1661
14.270101881097517 71.678
14.29259262906496 72.138
14.315083930490205 73.2626
14.337558255389705 73.8132
14.360050666019726 73.6009
14.382526101071944 72.2614
14.405019624534942 70.97800000000001
14.427513705993134 70.4012
14.449990813291825 70.3051
14.47248601302899 70.0937
14.49496423954951 70.4688
14.517460561197822 70.517
14.539939910570322 69.9804
14.562437357763558 70.3864
14.58493536931253 72.0398
14.607416409993311 73.2537
14.62991555254159 74.3908
14.652397725157423 74.1856
14.674898002342799 73.0091
14.697398848433282 72.0927
14.719882725991326 72.3263
14.74238471217934 73.3364
14.764869730765593 76.6525
14.787372860692983 80.3826
14.809876564079925 85.1186
14.83236330125751 90.9986
14.854868153850365 98.2166
14.877356041159485 109.355
14.899862046604186 124.109
14.922351087688757 144.007
14.944858249632887 167.83599999999998
14.967365991421232 193.453
14.989856770231246 215.484
15.012365673994204 223.101
15.03485761569738 204.666
15.05736768508665 164.479
15.07987833888692 128.994
15.102372032001655 100.48100000000001
15.124883856909658 82.3534
15.14737872204565 74.9882
15.169891721717274 72.7034
15.192405310371893 72.562
15.214901940621196 73.0859
15.237416709527137 73.8261
15.259914520936249 74.0475
15.282430473753607 72.8391
15.304947020131227 71.4397
15.327446610371178 70.13
15.349964346154254 68.7794
15.372465126703139 68.3018
15.394984055556009 68.2073
15.417486030076159 67.851
15.44000615566487 67.56
15.462526881230803 67.3982
15.485030653812652 67.9808
15.507552581617434 68.1654
15.530057557334603 67.8661
15.55258069104857 67.7819
15.575104429329837 67.7789
15.597611216864632 67.1152
15.620136166564563 67.1804
15.6426441664095 68.2478
15.665170331202765 70.63
15.687697105158826 73.7842
15.710206930593545 77.564
15.732734925158933 81.7674
15.755245972089478 87.3102
15.77777519094324 94.8398
15.800287463046663 104.98
15.822817909869592 119.583
15.84534897229804 137.21200000000002
15.867863089299354 157.756
15.890395385222186 178.033
15.912910736597423 192.96
15.935444269699861 191.333
15.957978423016485 171.30900000000003
15.980495633101265 138.533
16.003031029129367 108.16
16.02554948280019 84.1455
16.048086125229432 72.0757
16.070623392487107 68.0385
16.09314371869582 67.39
16.11568223789321 66.6478
16.13820381691126 65.0257
16.160743591742527 63.7109
16.183283996022084 62.5077
16.205807461423195 61.1584
16.228349126881973 60.4586
16.25087385432698 60.5449
16.27341678466365 59.9054
16.29594277784926 59.8834
16.31848697676433 60.5013
16.341031811604868 61.1999
16.36355971058487 61.8472
16.3861058195587 61.4869
16.40863499352978 59.7623
16.431182380342005 58.486000000000004
16.453730407713202 57.8216
16.476261501364792 57.2392
16.498810812136167 56.9434
16.52134319004079 57.0777
16.54389378792203 56.6998
16.566445031001553 56.5012
16.588979342490088 56.4882
16.61153187824822 56.2808
16.634067483263312 56.3351
16.656621315414416 56.2465
16.679175797408888 55.918
16.701713349928728 55.9695
16.72426913389191 56.3219
16.74680798922351 56.3845
16.76936507887444 56.4054
16.791905240734874 56.5087
16.814463639794468 56.2114
16.837022695210294 56.1888
16.859564824093756 56.628
16.882125194503903 57.7373
16.904668639217885 58.8077
16.927230328348003 59.2111
16.949792678493612 59.288999999999994
16.972338104193863 58.0453
16.994901778652235 57.1209
17.017448529496576 57.0548
17.040013531998152 57.2748
17.06257920018044 57.5802
17.0851279459922 58.125
17.107694947817667 59.3248
17.130245028099072 60.1023
17.15281336730298 61.419
17.17536478578733 62.8933
17.19793446610687 64.5843
17.220504818648422 66.6398
17.243058251703697 69.2059
17.265629950971032 73.1646
17.288184731571736 77.1749
17.310757781306908 81.0601
17.33333150794385 83.934
17.355888317140174 83.7209
17.37846339986244 80.237
17.401021565958885 74.6897
17.42359800851343 69.055
17.44617513265564 64.6162
17.468735341390783 61.9318
17.491261035594565 60.5741
17.51396340099364 60.2853
17.536490463869136 60.3783
17.559018209820174 60.5323
17.58154663977963 60.6812
17.604251766089718 60.5264
17.626781572227713 60.7062
17.64931206518155 61.074
17.671843245885103 61.7263
17.69455114821572 62.1862
17.717083712612634 62.2941
17.739616967569667 62.3152
17.762150914021706 62.5382
17.78486160749854 62.6618
17.807396945166804 63.125
17.829932977143503 63.8456
17.85246970436452 65.5602
17.875183204129467 67.4807
17.897721330097664 69.7901
17.920260154126645 72.2432
17.942799677153296 75.4158
17.9655159983646 78.4349
17.988056927677544 82.7728
18.010598558807683 88.9071
18.033140892692916 96.58200000000001
18.05586005052525 104.961
18.07840379824407 115.10700000000001
18.10094825154059 126.88
18.12366954819864 136.716
18.146215420998306 141.697
18.16876200220057 137.69799999999998
18.191309292745153 126.081
18.214033452627167 112.103
18.236582170236648 97.8421
18.259131600016456 89.5251
18.281681742907335 87.131
18.304408781233683 89.3713
18.32696035875955 93.1178
18.349512652227624 97.5809
18.372065662579683 103.57
18.394795594587553 107.274
18.41735004715306 106.792
18.43990521943684 101.928
18.46246111238171 92.9898
18.485193953325208 82.7067
18.507751296070428 74.3178
18.530309362314178 68.8538
18.552868153000343 65.6095
18.57560391815056 63.9077
18.59816416623245 63.2062
18.620725141597372 62.7501
18.643286845190268 62.4484
18.666025549835414 62.0942
18.688588718427933 61.3649
18.711152618092243 61.1826
18.73389353884365 60.9282
18.75645890921984 60.4098
18.77902501351406 60.0311
18.801591852673102 60.012
18.824335739722738 59.3106
18.846904057212626 59.2369
18.8694731124168 58.9364
18.89204290628315 59.2141
18.914789774966803 58.7135
18.937361054791623 58.3893
18.959933076131318 58.3211
18.982505839934877 58.3942
19.00525570560582 58.4918
19.027829963004184 58.4604
19.05040496572238 58.2005
19.072980714710468 58.2886
19.095733592739563 58.4188
19.11831084296757 58.8452
19.140888842324735 59.4677
19.16346759176222 59.7946
19.18622349753803 60.3522
19.208803755869358 61.1534
19.231384767143577 61.6462
19.253966532312948 62.8331
19.276725481241822 64.2936
19.29930876296784 66.1988
19.3218928014549 68.9149
19.34465404436217 72.2543
19.36723960516257 75.4571
19.389825925592426 77.5731
19.412413006605938 78.0248
19.43517731967805 75.5466
19.457765930683355 71.5708
19.48035530514408 66.6023
19.50294544401556 62.1165
19.525712842708348 58.946000000000005
19.54830451925909 57.1951
19.570896963095727 55.6947
19.593490175174704 55.1771
19.616260674962184 55.2281
19.638855432416964 54.7421
19.661450960992624 55.0461
19.68404726164677 54.9166
19.706820878021247 54.5458
19.729418731756834 54.5467
19.752017360452857 54.567
19.77461676506804 54.6353
19.797393513540218 54.7722
19.819994478951667 55.2869
19.84259622316767 55.6786
19.8651987471481 56.2349
19.887978643247177 56.4086
19.91058273574792 56.8425
19.933187610901943 57.4732
19.955969879466828 58.3793
19.97857632894404 59.4723
20.00118356396599 60.5525
20.023791585494575 62.3465
20.046577028914875 64.8449
20.069186632506966 66.9363
20.091797025500632 68.9103
20.114408208858933 70.8058
20.137196842715273 71.5408
20.159809615886765 70.5627
20.18242318232135 68.2294
20.20503754298326 65.8239
20.227829382875154 63.7636
20.250445341109344 62.863
20.27306209647285 62.977
20.29567964993108 63.8551
20.31847471147704 64.9329
20.34109387027612 66.2653
20.363713830075454 67.0456
20.386334591841646 66.3288
20.409132890679302 64.5697
20.431755265564437 61.095
20.454378445325528 58.2699
20.477002430930366 55.7931
20.499803982716553 54.3839
20.522429589228004 53.2092
20.54505600449589 52.6282
20.567683229489194 52.4367
20.590488049900088 52.0264
20.61311690359731 51.6033
20.63574656993626 51.2596
20.658553853717297 50.9667
20.681185154618298 50.8776
20.703817271080066 50.8157
20.72645020407368 50.1822
20.749260783967177 50.2606
20.771895359337133 50.1483
20.794530754161617 50.1122
20.817166969412938 49.8942
20.83998086114876 50.0636
20.86261872660049 49.9005
20.885257415405402 49.8458
20.90789692853701 49.6423
20.930714147864748 49.5626
20.953355319030678 49.8135
20.97599731745334 49.9513
20.99864014410749 49.6313
21.021460706796564 49.8129
21.044105199328826 49.9846
21.06675052302631 50.1403
21.089396678865015 50.3335
21.112220600704806 50.5493
21.134868430275347 50.8787
21.15751709492456 50.9766
21.180166595629693 50.9669
21.202993892429635 51.5174
21.22564507473034 52.0308
21.24829709602816 52.3125
21.27112693608965 52.5526
21.293780644891275 52.6398
21.316435195634053 52.0582
21.339090589297417 51.5974
21.361923832041875 51.0207
21.384580921090404 50.2175
21.407238856007325 49.8181
21.429897637773326 49.4529
21.45273429906592 49.4596
21.475394784108598 49.4029
21.498056118951983 49.3287
21.520718304578022 49.6631
21.543558400304388 49.5743
21.566222297108816 49.9017
21.58888704765135 49.9464
21.61155265291521 50.2578
21.63439619898156 50.5317
21.657063523335786 51.0816
21.67973170537063 51.3565
21.7024007460706 52.1288
21.72524775840385 52.5404
21.747918526116475 53.4233
21.770590155457388 54.4407
21.79326264741238 55.7806
21.816113141960237 57.2462
21.838787368860547 58.7519
21.861462461341976 60.5333
21.884315579735777 62.6286
21.90699241312273 64.2052
21.92967011506078 65.6176
21.95234868653799 66.1794
21.9752053151131 65.8952
21.997885635446785 64.0979
22.020566828293532 62.0338
22.04324889464272 59.9697
22.066109049404666 58.0117
22.088792872571794 57.0337
22.111477572219204 56.9769
22.1341631493376 57.0761
22.157026846313123 57.2734
22.179714188221507 56.9037
22.202402410582668 56.2462
22.22509151438863 54.7463
22.24795876962584 53.2612
22.270649646204486 52.0102
22.293341407213727 51.3143
22.316034053646906 50.71
22.338904883215342 50.353
22.36159931041458 50.4103
22.38429462602756 50.2839
22.40699083104897 50.2189
22.429865251039757 50.2566
22.452563244831367 50.1602
22.47526213102522 50.2212
22.49813925616515 50.02
22.520839937143307 49.9203
22.543541513520587 49.875
22.56624398629403 49.586999999999996
22.589124730075895 49.4922
22.611829005656723 49.868
22.63453418063466 49.6972
22.657240256008077 49.9157
22.680124634582935 50.0033
22.70283252079775 50.4272
22.725541310413075 50.7186
22.74825100442868 50.8355
22.771139033969575 51.3568
22.79385054687155 51.4823
22.81656296718292 52.0578
22.83927629590484 52.7108
22.862167992606945 53.5651
22.88488314827121 54.3456
22.907599215359284 55.1587
22.93031619487366 56.3846
22.953211574954405 57.1885
22.975930389478226 58.3853
22.998650119445763 59.3033
23.02137076586092 59.1858
23.044269845560063 58.2661
23.06699233506288 56.7101
23.089715744034912 54.8589
23.112617610931565 53.0191
23.135342869061212 51.5703
23.158069049684816 50.7
23.1807961538087 50.0919
23.20370174880544 49.9112
23.226430710184808 50.0195
23.249160598093425 49.8928
23.271891413539002 49.9363
23.294800752937697 50.0377
23.31753343374794 50.1705
23.340267045128353 50.1274
23.36300158808808 50.4054
23.38591468821339 50.5537
23.408651104658304 51.0164
23.431388455719986 51.5995
23.454126742409 52.1943
23.4770436196085 52.986000000000004
23.499783787914662 54.0404
23.522524894889884 54.8042
23.54526694154616 55.8441
23.56818761219047 57.1243
23.59093154860734 58.0404
23.613676427751283 58.988
23.636422250635754 58.8552
23.659346731118656 57.6897
23.68209445191868 56.1849
23.704843119509587 54.0088
23.72759273490623 51.7456
23.750521041644767 49.8264
23.77327256312355 48.6377
23.796025035462787 47.8912
23.818956224555475 47.3238
23.841710609113413 47.1767
23.86446594758979 46.9271
23.887222241002014 46.6213
23.910157285144578 46.2513
23.932915498962537 46.303999999999995
23.955674670778713 46.0591
23.978434801611975 45.977
24.001373717286125 45.7924
24.024135776723917 45.685
24.046898798245582 45.5622
24.06966278287146 45.4619
24.092605586582614 45.2666
24.115371508023642 45.2581
24.1381383956401 45.1647
24.16090625045381 45.0757
24.183852958731244 45.1262
24.206622758582608 44.9472
24.229393528706886 44.8232
24.252165270127392 44.897
24.27511589952438 44.7062
24.297889594216997 44.5398
24.32066426328598 44.3331
24.34343990775613 44.2654
24.36639447485003 44.2694
24.38917208083877 44.2736
24.41195066531332 44.0809
24.43490819850244 44.1628
24.457688750692377 43.9123
24.48047028445616 43.8942
24.503252800821233 43.9143
24.526214300784112 43.958
24.548998793132213 43.9862
24.57178427117417 43.8007
24.59457073593893 43.9783
24.617536219319863 43.9738
24.64032466834748 44.0707
24.663114107195035 43.9903
24.685904536893013 43.6129
24.708874020360852 43.5666
24.731666442613744 43.5025
24.754459858818787 43.4224
24.777254270007962 43.3004
24.80022777025625 43.3317
24.82302418230472 43.3049
24.845821592443674 43.2295
24.86862000170663 43.2892
24.891597535453727 42.972
24.914397953892728 43.1807
24.93719937456671 43.1572
24.96000179851076 43.3528
24.98298338249997 43.3539
25.00578782394922 43.641999999999996
25.028593271784167 43.7074
25.05157790644186 43.9672
25.07438537804115 44.0825
25.097193859145293 44.4055
25.120003350792075 44.4702
25.142992065061257 44.8307
25.165803588823465 45.0718
25.18861612625217 45.4624
25.211429678386736 45.5667
25.234422489079968 45.7967
25.257238081693636 45.6894
25.280054692141732 45.6141
25.3028723214652 45.5391
25.325869245420463 45.626000000000005
25.348688923599397 45.6928
25.371509623787006 45.9897
25.394331347025812 45.6882
25.41733240110666 45.2553
25.440156181590016 44.93899999999999
25.46298098826268 44.5122
25.48580682216873 43.8736
25.50881202326435 43.1941
25.53163992281684 42.6124
25.55446885274561 42.2334
25.577298814096377 41.9581
25.600308179121807 41.887
25.623140214533745 41.8393
25.64597328451537 41.70399999999999
25.66898578564376 41.4768
25.691820936010206 41.5552
25.714657124097695 41.5235
25.737494350954734 41.5919
25.760511045684957 41.2831
25.783350361364224 41.4793
25.806190718969255 41.521
25.82903211955018 41.5922
25.852053024868923 41.5678
25.874896522722523 41.6734
25.897741066713106 41.5513
25.920586657892454 41.562
25.943611790812668 41.7618
25.966459487728237 41.8418
25.989308234998564 41.7293
26.01215803367705 42.0769
26.03518741123814 42.199
26.05803932412957 42.2536
26.080892291600094 42.3694
26.10374631470478 42.3992
26.12677995397268 42.6182
26.14963609978026 42.9242
26.172493304397875 42.463
26.19535156888223 42.3431
26.218389486949604 41.8494
26.241249882640123 41.573
26.26411134137826 41.2682
26.28715248187403 41.1669
26.31001607820869 41.0079
26.3328807407756 40.9873
26.35574647063438 41.0915
26.37879191991473 40.9585
26.401659795896734 40.9764
26.424528742360263 41.2062
26.447398760366614 41.3125
26.470448535598294 41.3912
26.49332070826805 41.4647
26.516193955675355 41.8622
26.53906827888316 42.1014
26.562122397260108 42.0746
26.584998883685063 42.4318
26.607876449110325 42.6597
26.63075509460056 42.7223
26.65381357334404 43.0165
26.67669439061878 43.0358
26.699576291163382 43.1118
26.722459276044212 43.043
26.745522132402975 42.8161
26.768407297649354 42.5729
26.791293550442003 42.1461
26.814180891848974 41.92100000000001
26.837248143099337 41.4449
26.860137673466657 41.4382
26.88302829566349 41.2313
26.90592001075963 41.0371
26.92899167420566 40.8886
26.951885586870763 40.4786
26.974780595655517 40.2263
26.99785558178161 40.166
27.020752794605112 40.033
27.043651106772522 39.896
27.06655051935668 39.8309
27.089629948036183 39.6316
27.112531573292053 39.5372
27.135434302194138 39.7594
27.158338135817015 39.4651
27.181422024430987 39.4735
27.204328079372566 39.4777
27.22723524226965 39.5107
27.250143514198573 39.4885
27.273231880156334 39.3998
27.296142382065014 39.2242
27.319053996245536 39.1969
27.341966723775965 39.2215
27.365059584515222 39.381
27.38797455070062 39.3385
27.410890633481237 39.2423
27.433807833936918 39.1113
27.456905206923906 39.3166
27.47982465472398 39.3239
27.502745223449743 39.3398
27.525666914182825 39.446999999999996
27.548768816912457 39.3863
27.571692763693633 39.292
27.59461783573812 39.2678
27.617723149491244 39.1811
27.640650484125285 39.1685
27.66357894728264 39.0305
27.686508540048052 39.0386
27.709618414237887 38.8915
27.732550278321757 38.8605
27.755483275279115 38.801
27.778417406196485 38.6904
27.801531858397514 38.6561
27.824468269376716 38.756
27.847405817586786 38.6636
27.870344504116094 38.7512
27.893463551932008 38.861999999999995
27.916404527281053 39.0394
27.93934664422563 39.049
27.962289903855886 39.0926
27.98541356491974 39.4398
28.00835912214229 39.4987
28.03130582533231 39.6853
28.054253675581805 39.8319
28.077381967556104 39.7897
28.100332124185126 39.8365
28.123283431160893 39.8252
28.146235889577238 39.7491
28.169368830154156 39.5679
28.192323603752033 39.3516
28.215279532083304 39.1013
28.238415973016764 38.8407
28.261374223145094 38.8139
28.284333631303806 38.5668
28.307294198589954 38.6069
28.330435319167677 38.1692
28.353398217078915 37.8721
28.376362277420153 37.5612
28.39932750129032 37.5338
28.422473319286713 37.3561
28.44544088262495 37.4111
28.468409612800283 37.1199
28.491379510913497 36.9094
28.51453004413313 36.8166
28.53750229057244 36.7922
28.56047570826344 36.7022
28.583450298308804 36.6826
28.606605564586562 36.5607
28.629582511831156 36.4768
28.65256063474956 36.3499
28.675539934446338 36.4829
28.698699951647605 36.4715
28.72168161743193 36.2865
28.74466446331978 36.3606
28.767648490417624 36.2787
28.790813276438353 36.2285
28.813799678527303 36.2687
28.836787265157085 36.2562
28.859955641890075 36.3081
28.882945610203045 36.272
28.905936766392035 36.1283
28.928929111566863 36.157
28.952102288520145 36.0731
28.975097024308607 36.150999999999996
28.998092952423807 35.8707
29.021090073977508 35.7823
29.04426806913204 35.6783
29.067267590245258 35.5047
29.090268308143695 35.4599
29.11327022394099 35.4077
29.13645305530891 35.2778
29.159457379627167 35.2145
29.18246290519685 35.1668
29.20546963313352 35.1307
29.22865731875826 35.1109
29.25166646419296 35.0419
29.27467681535305 35.003
29.29768837335608 35.2043
29.320880931312562 35.0415
29.34389491580634 35.0034
29.366910110507334 35.0192
29.38992651653503 35.0196
29.41312396492981 35.0729
29.436142806456754 34.9837
29.45916286268059 34.9409
29.48236399319994 34.8454
29.50538649169417 34.6643
29.528410208259935 34.658
29.55143514402014 34.2953
29.574641196749695 34.2765
29.597668583816574 34.2163
29.6206971934585 33.8392
29.64372702680042 33.9259
29.666938019934474 33.8432
29.689970313635285 33.7713
29.713003834422636 33.672
29.73603858342347 33.6553
29.759254535188578 33.684
29.78229175361658 33.6038
29.80533020365064 33.6524
29.82836988641968 33.6445
29.85159081507472 33.5988
29.874632976355343 33.5874
29.89767637376955 33.5743
29.920721008448314 33.3961
29.9439469322847 33.3964
29.96699405457564 33.3381
29.9900424175358 33.3098
30.013092022298157 33.2658
30.03632295963995 33.1936
30.059375061131373 33.1985
30.08242840783577 33.1691
30.105483000888153 33.1319
30.128718970092244 33.0918
30.151776069006917 33.0523
30.17483441768648 33.1316
30.198074175317235 33.1425
30.221135036724256 33.2474
30.24419715131772 33.1099
30.267260520236203 32.9804
30.290505341942243 33.1278
30.313571232750228 33.1515
30.336638381310948 33.0999
30.35970678876503 32.986999999999995
30.38295669299435 32.9051
30.40602763151657 33.0113
30.429099832366074 32.9354
30.452173296685572 32.7203
30.47542830191959 32.7524
30.498504306502497 32.7507
30.521581577995562 32.8617
30.544660117543582 32.8565
30.56792024229725 32.9339
30.59100133132069 32.7326
30.614083691845494 32.7827
30.637167325018545 32.8873
30.660432587840603 32.7859
30.683518779717886 32.7489
30.70660624769615 32.881
30.729694992924372 33.0163
30.75296541239743 32.935
30.77605672557558 32.8217
30.799149319462742 32.8411
30.8224236211637 32.7411
30.845518789950724 32.6913
30.868615242910597 32.6422
30.891712981195973 32.4079
30.91499247215866 32.3498
30.938092794619365 32.3648
30.96119440587579 32.2796
30.984297307082752 32.1873
31.00758200598383 32.0611
31.030687500658694 31.9767
31.053794288760695 31.8609
31.076902371446767 31.7994
31.100192296997445 31.8516
31.12330298246119 31.7676
31.14641496599209 31.6312
31.169528248749216 31.6177
31.19282341969534 31.6915
31.215939314557186 31.5888
31.239056512134788 31.680999999999997
31.262175013589378 31.6004
31.28547544871168 31.5633
31.30859657161541 31.5596
31.331719001892175 31.5258
31.35484274070538 31.5884
31.378148458819545 31.5998
31.401274828443725 31.5539
31.424402510106933 31.6161
31.447712205419993 31.5732
31.470842524931633 31.6315
31.493974159989783 31.5661
31.51710711176168 31.5683
31.54042212308802 31.4981
31.563557722100917 31.381999999999998
31.586694641341655 31.2836
31.609832881979628 31.2605
31.63315322823208 31.1961
31.656294125521327 31.0611
31.679436347728515 31.1128
31.70257989602529 30.9379
31.725905596152327 30.8536
31.74905181052835 30.6688
31.772199354521323 30.8025
31.79534822930507 30.8771
31.818679302290967 30.883000000000003
31.84183085259981 30.7813
31.864983737233473 30.7499
31.88813795736804 30.8189
31.911474422233013 30.6811
31.934631327356435 30.788
31.9577895715215 30.7655
31.980949155906522 30.6684
32.004291031706956 30.7785
32.027453310562606 30.6406
32.05061693318573 30.5202
32.07396288236386 30.5858
32.09712920658542 30.4559
32.12029687812702 30.3356
32.14346589817093 30.3182
32.166817291729984 30.3275
32.18998902288583 30.2098
32.21316210610336 30.0464
32.23633654256711 29.9239
32.259693399663725 30.05
32.282870556771144 29.8614
32.30604907069099 29.8388
32.329228942610065 29.7287
32.35259128243769 29.6093
32.375773884550505 29.6589
32.398957848235646 29.5683
32.422143174682176 29.518
32.445511016471215 29.4087
32.468699082679954 29.4177
32.49188851523011 29.3348
32.51507931531304 29.3272
32.538452678331 29.3725
32.56164622776311 29.2169
32.58484114831493 29.195999999999998
32.60803744118015 29.1993
32.631416344731896 29.2504
32.654615396551876 29.1484
32.67781582427913 29.0478
32.701198898634416 28.9903
32.72440209253756 28.9015
32.747606665947124 28.9798
32.77081262006088 28.8195
32.79420126883317 28.7367
32.81740999876112 28.7659
32.840620112999424 28.6696
32.86383161274818 28.6283
32.88722585534586 28.6784
32.91044014056596 28.8059
32.933655814909734 28.5694
32.95687287957963 28.6311
32.98027273544904 28.5767
33.00349259526636 28.5068
33.026713849030116 28.5658
33.04993649794511 28.4492
33.073341986570746 28.4242
33.09656744032826 28.436999999999998
33.11979429286444 28.4794
33.14302254538647 28.4634
33.166433686291185 28.3584
33.18966475336992 28.3302
33.212897224069096 28.2197
33.23613109959831 28.3212
33.259547912343415 28.1914
33.2827846121627 28.1177
33.306022720453775 28.1571
33.32926223842861 28.0967
33.352684742614166 28.0095
33.37592709463173 28.0441
33.399170859982064 27.9759
33.422597648419426 27.9018
33.44584425514446 27.7047
33.46909227885668 27.7929
33.4923417207723 27.6886
33.51577423505344 27.6739
33.539026528130385 27.5931
33.56228024307245 27.5502
33.585535381098246 27.3504
33.60897364093058 27.3591
33.63223163992385 27.3966
33.6554910656699 27.3079
33.678751919389796 27.3322
33.702195944520106 27.2384
33.72545966903325 27.2753
33.74872482519663 27.1089
33.771991414233746 27.0586
33.79544122444841 27.0381
33.81871069412428 27.0432
33.84198160035767 26.9652
33.86525394437455 26.9312
33.88870955949969 26.8682
33.911984794020626 26.9646
33.93526147001624 26.9312
33.958539588715006 26.8126
33.98200102861669 26.8397
34.0052820477047 26.6847
34.02856451319451 26.6744
34.05203033759056 26.6356
34.07531571090147 26.5355
34.09860253431845 26.6151
34.121890809074316 26.5152
34.145362493118924 26.4598
34.16865368561615 26.4451
34.191946333164054 26.4201
34.21524043699793 26.366
34.23871800066799 26.3262
34.26201503218366 26.2041
34.28531352370466 26.2963
34.30861347646881 26.1727
34.33209693978188 26.0727
34.3553998301885 26.0679
34.378704185565205 26.0497
34.402010007152356 25.9322
34.42549939016683 26.0449
34.44880815937748 25.9141
34.472118398533134 25.8794
34.49543010887669 25.8956
34.51892543169198 25.7226
34.54224009966052 25.7932
34.56555624255917 25.8303
34.58887386163339 25.6944
34.61237514439016 25.6188
34.6356957311114 25.5722
34.65901779775809 25.5808
34.68252356662995 25.4877
34.705848608458616 25.5012
34.72917513396849 25.3721
34.75250314440949 25.386999999999997
34.77601490857862 25.2308
34.799345904259795 25.1301
34.82267838863559 25.2309
34.846012362958525 25.2639
34.869530142679984 25.2056
34.89286711232212 25.1307
34.91620557568269 25.1438
34.93954553401677 25.0897
34.9630693495876 24.9729
34.986412313340814 25.1274
35.00975677584668 25.0769
35.033102738362956 24.99
35.05663261012228 24.895
35.0799815881786 24.933000000000003
35.10333207003229 24.8585
35.12668405694369 24.9028
35.150220005273056 24.8094
35.17357501786656 24.7533
35.19693153931268 24.7534
35.220289570874385 24.7019
35.24383161619786 24.7292
35.267192683604904 24.7152
35.290555264930376 24.5998
35.314101899412165 24.6115
35.33746752422433 24.511999999999997
35.36083466676374 24.5606
35.38420332829803 24.5252
35.407756095629054 24.5577
35.43112781085063 24.519000000000002
35.45450104888391 24.4554
35.477875810999194 24.4873
35.50143473172161 24.394000000000002
35.52481255774625 24.4396
35.54819191167777 24.3469
35.57157279478914 24.3065
35.595137889488406 24.2477
35.61852184675279 24.238000000000003
35.641907337029984 24.0949
35.665294361595684 24.1623
35.68886565090076 24.1464
35.7122557598848 24.090999999999998
35.73564740699838 24.0749
35.759040593519934 23.9657
35.78261809810353 23.9504
35.80601437933051 23.9207
35.829412203814705 23.8558
35.85281157283719 23.793000000000003
35.876395313415884 23.8164
35.8997977874528 23.6686
35.92320180988546 23.7257
35.946790244133936 23.7083
35.97019737933222 23.67
35.993606066789866 23.6003
36.01701630779276 23.6304
36.04061101440684 23.6071
36.06402437852291 23.5975
36.08743930005611 23.5096
36.1108557802951 23.4189
36.13445678011326 23.386999999999997
36.15787639383515 23.2887
36.18129757014299 23.3236
36.20472031032821 23.2482
36.22832762423364 23.259
36.25175350829375 23.2607
36.275180960119776 23.2058
36.298609981005924 23.1666
36.32222362992669 23.179000000000002
36.34565580510207 23.1481
36.36908955323448 23.0591
36.39252487562093 22.9771
36.416144880530226 22.8834
36.43958336764275 22.9134
36.463023432914625 23.0268
36.486465077645676 22.868000000000002
36.51009145956204 22.9449
36.53353627947859 22.8993
36.55698268276811 22.9031
36.58043067073321 22.8359
36.60406345072071 22.6735
36.62751462435344 22.6516
36.65096738658405 22.6988
36.67460498210655 22.6428
36.69806093788647 22.599
36.72151848619297 22.4831
36.744977628333636 22.5278
36.76862165890998 22.3926
36.79208400512205 22.4546
36.81554794910557 22.5123
36.83901349217101 22.3544
36.862663978991606 22.3073
36.88613273667352 22.2856
36.90960309738324 22.2467
36.933075062434064 22.1903
36.95673202673572 22.1743
36.98020721697122 22.1756
37.003684015502365 22.1688
37.027162423645365 22.1008
37.050825886711465 22.0315
37.07430753063053 21.9801
37.09779078812467 21.9599
37.121275660513014 21.965
37.144945643673694 21.9175
37.16843376245278 21.8962
37.19192350009803 21.8869
37.215414857931435 21.8179
37.239091382563885 21.7859
37.262585997426164 21.7123
37.28608223645736 21.8079
37.309763684451696 21.6578
37.33326318851098 21.5865
37.356764320726555 21.6192
37.380267082425526 21.6102
37.40395510942588 21.6183
37.42746114683234 21.5507
37.45096881771841 21.4832
37.474478123414166 21.4969
37.49817275092816 21.4741
37.52168534303452 21.3969
37.54519957395567 21.3636
37.568715445024665 21.3362
37.592416694607714 21.2552
37.61593586281424 21.2687
37.63945667518264 21.3371
37.66297913304891 21.1418
37.68668702630454 21.1685
37.710212792059274 21.1528
37.733740207334854 21.1042
37.757269273470364 21.0185
37.780983832050374 21.0134
37.80451621684926 21.038
37.82805025654007 21.0468
37.851585952464795 20.9526
37.8753071980695 20.8498
37.89884622345676 20.8632
37.92238690911902 20.7943
37.94611318753442 20.7161
37.969657210779765 20.6309
37.99320289834801 20.7131
38.016750251586465 20.6886
38.04048325513017 20.5967
38.06403395679343 20.6175
38.087586328183946 20.6489
38.11114037065203 20.6161
38.13488012115898 20.5799
38.1584375229181 20.463
38.181996599821 20.4045
38.205557353221124 20.3877
38.229303872575656 20.3786
38.2528679961576 20.307000000000002
38.27643380031219 20.3171
38.30000128639589 20.3049
38.32375459653193 20.3279
38.34732546371299 20.311
38.37089801690786 20.1698
38.39447225747609 20.1137
38.418232380377425 20.1352
38.441810012983396 20.1515
38.46538933705673 20.0924
38.488970353960084 20.0896
38.51273731166058 19.9799
38.536321731567014 19.9213
38.55990784840681 19.9599
38.58367995004091 19.8923
38.60726947812959 19.8897
38.63086070726198 19.834
38.654453638806274 19.8378
38.678232613930824 19.7949
38.70182896773327 19.7464
38.72542702806741 19.7023
38.7490267963045 19.679000000000002
38.77281266709232 19.6189
38.79641586862214 19.665
38.8200207821842 19.5948
38.843627409152944 19.5932
38.86742019782782 19.5597
38.891030269149255 19.4746
38.914642058016156 19.5088
38.938255565806124 19.4191
38.96205529464307 19.352999999999998
38.98567225787121 19.3362
39.00929094417078 19.2535
39.03291135492255 19.2863
39.05671804624804 19.3332
39.080341923549106 19.2689
39.103967529460334 19.2252
39.127594865365744 19.1809
39.15140854155791 19.1834
39.17503935514948 19.1872
39.19867190290282 19.1502
39.22249083587951 19.1009
39.24612686969409 19.06
39.269764641845306 19.083
39.293404153722804 19.0349
39.317230110864074 18.9399
39.34087311998506 18.8716
39.36451787301696 18.8864
39.388164371352595 18.7911
39.41199737518003 18.7724
39.43564738196752 18.782
39.45929913825317 18.7609
39.48295264543308 18.7299
39.506792718520884 18.662
39.530449745387216 18.6473
39.55410852735203 18.6332
39.57776906581474 18.6897
39.60161623079 18.6312
39.625280300200025 18.6003
39.64894613032202 18.4895
39.67261372255866 18.5127
39.6964680021016 18.4906
39.72013913657293 18.472
39.74381203738292 18.4188
39.76748670593756 18.4217
39.79134812278169 18.3772
39.81502634488497 18.3417
39.83870633896685 18.3263
39.862388106436654 18.2498
39.88625668336918 18.2211
39.90994201572829 18.2667
39.933629125719285 18.2117
39.957503091207826 18.1599
39.9811937746168 18.2373
40.00488623990914 18.0381
40.02858048850006 18.0652
40.05246165409549 18.0358
40.076159487492085 18.026
40.099859108448875 17.9601
40.123560518384345 17.9323
40.1474489070226 17.9135
40.171153913178564 17.8479
40.194860712584955 17.8836
40.2185693066637 17.8744
40.242464941335314 17.8186
40.26617714307655 17.7594
40.289891143772046 17.7606
40.3136069448471 17.742
40.33750984859743 17.7479
40.3612292688043 17.7022
40.3849504936829 17.6554
40.40867352466194 17.6418
40.43258372059144 17.5392
40.45631038219906 17.5779
40.48003885420956 17.5601
40.503769138055105 17.5092
40.52768664931955 17.5126
40.55142057531802 17.4769
40.57515631746428 17.3813
40.599079334038514 17.396
40.62281872700477 17.3446
40.64655994043941 17.2947
40.67030297578061 17.3251
40.69423334835778 17.2782
40.71798004609188 17.2291
40.74172857006355 17.1898
40.76547892171441 17.2054
40.7894166736039 17.2314
40.813170699248566 17.1498
40.83692655691388 17.1136
40.86068424804498 17.0837
40.884629402612525 17.0681
40.908390779366385 17.0941
40.932153993938 17.0214
40.95591904777605 16.9612
40.979871628443995 17.0028
41.003640379561936 16.951
41.02741097430883 16.9073
41.05118341413683 16.8785
41.075143444384416 16.8328
41.098919593177826 16.9128
41.1226975914255 16.8297
41.14647744058318 16.7926
41.170444943946755 16.7544
41.19422851378379 16.7523
41.218013938914645 16.7208
41.24198706625173 16.6028
41.26577622087193 16.6273
41.289567235177785 16.5918
41.31336011063129 16.6016
41.337340752422875 16.5412
41.361137369129835 16.5556
41.38493585138705 16.4888
41.40873620066004 16.4664
41.43272438060107 16.4566
41.45652848292052 16.4132
41.48033445666918 16.4009
41.50414230331616 16.3348
41.528138045159764 16.2827
41.551949656675205 16.2364
41.575763145513235 16.2352
41.59957851314666 16.2491
41.62358184070442 16.1942
41.64740098505737 16.2395
41.6712220126409 16.1695
41.69504492493139 16.094
41.71905586207357 16.1074
41.74288256296395 16.027
41.766711153007456 16.0527
41.79054163368412 16.0127
41.814560204340054 16.0456
41.838394485526365 16.0104
41.86223066180303 15.9214
41.88625497706819 15.9398
41.910094962812 15.9051
41.93393684811168 15.8944
41.95778063445365 15.7875
41.981812625263366 15.8091
42.00566023303407 15.8037
42.029509746323676 15.7452
42.05336116662236 15.7225
42.077400857069705 15.7618
42.10125611078846 15.6922
42.12511327600405 15.6319
42.14897235421036 15.5987
42.173019768448455 15.5988
42.19688269209613 15.5756
42.22074753323349 15.4398
42.24461429335818 15.5187
42.268669455600495 15.522
42.292540073217886 15.484000000000002
42.31641261433284 15.4684
42.34028708044675 15.387
42.36435001496739 15.4362
42.38822835065557 15.3256
42.41210861586426 15.32
42.4359908120986 15.2751
42.46006154323262 15.298
42.48394762115317 15.2686
42.507835634632315 15.265
42.531912233047436 15.1957
42.55580413732265 15.162
42.579697981698 15.1562
42.60359376768525 15.1143
42.62767820545945 15.1285
42.65157789440821 15.1357
42.67547952952185 15.0775
42.699383112316 15.0499
42.72347541395347 15.0107
42.74738291190531 15.0009
42.771292362102166 14.967
42.795203766063516 15.0085
42.819303956130405 14.9396
42.843219287476536 14.8898
42.86713657716324 14.8356
42.89105582671383 14.7742
42.91516392983864 14.7293
42.939087119032166 14.7506
42.963012272677304 14.7385
42.98693939230129 14.7151
43.01105543317513 14.7318
43.034986504731386 14.7111
43.05891954686589 14.6196
43.08285456110972 14.6407
43.10697856448665 14.6626
43.130917542983475 14.5358
43.15485849820081 14.5437
43.17880143167367 14.5047
43.20293342237094 14.514000000000001
43.226880332449 14.4352
43.25082922540554 14.4285
43.27496722682525 14.4446
43.29892010567796 14.3972
43.32287497204102 14.3799
43.34683182745632 14.3521
43.370977859791836 14.311
43.39493871351105 14.3193
43.41890156092628 14.2831
43.44286640358341 14.2106
43.46702049182749 14.1994
43.49098934522816 14.1915
43.51496019852649 14.1861
43.5389330532723 14.1554
43.56309522248204 14.1366
43.58707210044314 14.1014
43.61105098451946 14.0909
43.63503187626491 14.1012
43.659202151562134 14.0392
43.68318707902681 14.0481
43.70717401884041 13.9384
43.731162972560874 13.974
43.75534137913236 13.9523
43.779334381108384 13.9159
43.803329401683186 13.8921
43.82732644241872 13.8825
43.8515130055166 13.8368
43.87551410707659 13.8178
43.89951723350145 13.8389
43.923709934595614 13.7311
43.94771713129917 13.7457
43.97172635758096 13.7401
43.99573761501002 13.6872
44.0199385169922 13.6852
44.04395385732619 13.7011
44.067971233533086 13.6624
44.09199064718605 13.585999999999999
44.11619977548961 13.5385
44.14022328470671 13.5453
44.16424883610785 13.5566
44.18827643127035 13.514000000000001
44.21249381139513 13.5001
44.236525514814076 13.449000000000002
44.26055926674478 13.4436
44.28459506876863 13.4293
44.3088207262813 13.4049
44.33286064928722 13.3509
44.35690262714919 13.3323
44.38094666145278 13.3045
44.4051806219871 13.3099
44.42922879003185 13.262
44.45327901929361 13.2544
44.477331311362136 13.2626
44.501573600619416 13.190999999999999
44.525630039221795 13.1576
44.54968854541895 13.1564
44.573937102200176 13.1337
44.5979997645541 13.1449
44.622064499300315 13.100999999999999
44.64613130803592 13.0604
44.67038823869318 13.0455
44.69445921643748 13.0068
44.718532272981385 12.9571
44.742607409926194 12.9731
44.76687274034801 12.9588
44.79095205918753 12.8636
44.81503346325094 12.9095
44.839116954143876 12.8884
44.86339071028742 12.8909
44.88747839599524 12.8644
44.91156817336837 12.8091
44.93566004401666 12.8059
44.959942251908146 12.7833
44.984038330325966 12.7795
45.00813650686762 12.6789
45.03223678314731 12.6925
45.05652746888232 12.6976
45.08063196592069 12.6557
45.104738567558705 12.6708
45.128847275414856 12.6502
45.15314646515866 12.5706
45.17725940679741 12.6007
45.20137445952892 12.5095
45.22568004865265 12.54
45.24979934496396 12.5194
45.27392075725247 12.4741
45.29804428714431 12.4617
45.322358426247604 12.466
45.346486212804315 12.4528
45.370616121861914 12.4462
45.39474815505086 12.369000000000002
45.41907087049246 12.3043
45.4432071734666 12.3123
45.46734560548283 12.2988
45.49148616817604 12.312999999999999
45.51581748638564 12.2546
45.5399623320197 12.2223
45.56410931325473 12.2518
45.58825843173002 12.2195
45.61259837920865 12.2088
45.636751793816 12.1625
45.66090735060093 12.1004
45.68506505120716 12.0612
45.7094136545275 12.0479
45.73357566449271 12.0189
45.75773982322992 12.0142
45.78190613238733 12.0311
45.806263418194064 11.9695
45.83043404997326 11.9634
45.85460683713677 11.9849
45.87897065658495 11.937000000000001
45.90314777634752 11.8808
45.92732705646868 11.9178
45.9515084986045 11.8755
45.97588104735473 11.842
46.00006683541565 11.7909
46.02425479047904 11.8252
46.04844491420549 11.7928
46.0728262191024 11.7957
46.09702070211635 11.7513
46.12121735879483 11.7289
46.14541619080294 11.7404
46.169806278764455 11.6925
46.194009483459034 11.6647
46.21821486849841 11.6934
46.24242243555223 11.67
46.266821333570014 11.5705
46.29103328674601 11.5749
46.31524742696538 11.5709
46.33946375590237 11.492
46.36387149104216 11.4943
46.38809221957392 11.4816
46.41231514186606 11.5046
46.436540259597464 11.4643
46.460956858999374 11.4672
46.48518638983522 11.4275
46.509418121166966 11.3845
46.533652054678114 11.325999999999999
46.55807754555709 11.3279
46.58231590571962 11.3661
46.60655647313217 11.3084
46.630988654873654 11.2922
46.655233659129024 11.2543
46.67948087571551 11.2639
46.70373030632484 11.2213
46.72817142736393 11.1544
46.752425308428684 11.187000000000001
46.77668140861147 11.155999999999999
46.80093972960865 11.1402
46.82538981736788 11.1114
46.849652602470904 11.1057
46.87391761349769 11.0905
46.8981848521493 11.0591
46.9226439341274 10.9865
46.946915650573224 11.0514
46.97118959976749 10.9883
46.99546578341598 10.9971
47.019933887188216 11.007
47.04421456235744 10.9247
47.06849747711879 10.9261
47.09278263318286 10.9028
47.11725978640143 10.8705
47.14154944775105 10.8417
47.165841355555656 10.8023
47.1901355115306 10.8003
47.214621741924994 10.8104
47.23892041698887 10.7913
47.26322134538975 10.7457
47.28771440635075 10.720999999999998
47.31201986422527 10.7047
47.33632758061436 10.6972
47.360637557241866 10.6605
47.38513974410611 10.6859
47.40945426407847 10.6208
47.43377104948137 10.5589
47.45809010204344 10.5784
47.48260144275502 10.5798
47.506925052572285 10.5271
47.53125093475548 10.5279
47.55557909103813 10.509
47.58009961361992 10.474
47.60443234110732 10.4777
47.62876734791564 10.4868
47.65310463578333 10.4436
47.6776343683373 10.4259
47.7019762413987 10.3887
47.72632040075572 10.3887
47.75066684815169 10.3594
47.77520581885936 10.3808
47.799556865477655 10.3055
47.823910205386 10.3239
47.84826584033272 10.2539
47.87281407745551 10.2128
47.89717432569297 10.2694
47.92153687423484 10.23
47.94609208429692 10.2083
47.97045925671401 10.1795
47.99482873471275 10.166
48.01920052005013 10.1423
48.04376504619224 10.124
48.068141469543484 10.1466
48.09252020552573 10.11
48.11690125590099 10.0794
48.1414751266064 10.0538
48.16586082917454 10.0577
48.19024885144316 10.0372
48.2146391951793 10.0131
48.239222439012764 10.0105
48.26361744916137 9.99467
48.28801478610016 9.96042
48.31241445160131 9.96003
48.337007097209366 9.9367
48.36141144338331 9.9124
48.38581812345755 9.901019999999999
48.41022713920929 9.892439999999999
48.434829215320704 9.8753
48.45924292604658 9.84642
48.48365897780325 9.87803
48.50807737237308 9.81841
48.532688907799276 9.82328
48.55711201168574 9.75683
48.581537463754074 9.72839
48.60615611725119 9.745519999999999
48.63058628942721 9.73863
48.65501881516546 9.68621
48.6794536962573 9.69793
48.70408185970339 9.65805
48.72852147531801 9.6631
48.75296345168211 9.63544
48.77740779059232 9.60154
48.80204549302823 9.62921
48.82649458091802 9.57322
48.85094603676547 9.53935
48.87539986237231 9.52164
48.90004713292306 9.48767
48.92450572200832 9.50773
48.94896668628025 9.45629
48.97343002754588 9.450339999999999
48.99808689542115 9.41361
49.02255501470614 9.44477
49.04702551642794 9.41136
49.0714984023988 9.41353
49.096164896893235 9.37548
49.120642575466796 9.32801
49.145122643748394 9.34003
49.16960510355558 9.29491
49.19428125404938 9.294139999999999
49.2187685210852 9.30868
49.243258185121555 9.286760000000001
49.26794160167084 9.255189999999999
49.2924360839405 9.23292
49.31693296869764 9.21246
49.34143225776915 9.18774
49.36612538195438 9.17494
49.39062950396021 9.17264
49.41513603578346 9.1646
49.4396449792564 9.0889
49.46434784069503 9.11091
49.488861631846454 9.09272
49.513377840166804 9.08344
49.537896467493745 9.03631
49.56260909589029 9.01273
49.587132585683285 9.02647
49.611658500018365 8.9999
49.636186840738596 8.92623
49.66090926588511 8.962860000000001
49.685442483902584 8.94877
49.70997813385706 8.89465
49.734516217597076 8.900319999999999
49.75924846937352 8.92067
49.7837914452858 8.89248
49.80833686055187 8.869589999999999
49.83288471702571 8.85869
49.85762682540054 8.87595
49.882179588965734 8.82559
49.9067347993235 8.792689999999999
49.93129245833333 8.784839999999999
49.95604445336378 8.7729
49.98060703442832 8.748510000000001
50.005172069746266 8.75762
50.02993150438364 8.748619999999999
50.05450147301533 8.69758
50.07907390151433 8.687339999999999
50.10364879174981 8.6489
50.12841816587289 8.61076
50.1529980044635 8.6288
50.17758031042124 8.62158
50.20216508562089 8.581669999999999
50.22694442953363 8.570730000000001
50.25153416817468 8.60768
50.27612638170508 8.554910000000001
50.300721072005196 8.49087
50.325510416102105 8.4992
50.350110084975064 8.48846
50.37471223628208 8.48516
50.39931687190919 8.48398
50.424116246675766 8.43632
50.44872587605249 8.42185
50.47333799543065 8.40968
50.49795260670191 8.392330000000001
50.52276204271512 8.38129
50.54738166295838 8.36974
50.57200378079314 8.33574
50.596628398116835 8.34559
50.62144792604559 8.327580000000001
50.646077567609396 8.31476
50.670709714377715 8.312610000000001
50.69553683636198 8.30659
50.72017401885922 8.2548
50.7448137122895 8.23573
50.76945591856022 8.259260000000001
50.79429318636823 8.22413
50.818940443716784 8.23906
50.84359021965163 8.191939999999999
50.868242516085964 8.15675
50.893089960641895 8.15041
50.917747323549435 8.13175
50.94240721271973 8.143939999999999
50.96706963007175 8.09705
50.99192728239342 8.08896
51.01659478166073 8.07125
51.04126481489051 8.06378
51.06593738400761 8.01656
51.090805275207074 7.98941
51.11548294172845 8.00423
51.14016314993547 7.97518
51.164845901758845 7.9554800000000006
51.18972406304274 7.96368
51.21441192780656 7.93705
51.23910234200271 7.9390600000000004
51.2637953075678 7.8806
51.288683770237945 7.89432
51.31338186432707 7.840730000000001
51.33808251561888 7.819310000000001
51.362978729967345 7.82557
51.387684521509755 7.8413
51.41239287610203 7.8228800000000005
51.437103795691165 7.79943
51.46201036644977 7.75705
51.486726441956634 7.69545
51.51144508832545 7.7268300000000005
51.536166307509156 7.741289999999999
51.56108326624387 7.705889999999999
51.58580965706056 7.73544
51.61053862657523 7.65193
51.635270176746864 7.66051
51.66019755512065 7.65343
51.68493429268881 7.61868
51.70967361681515 7.646380000000001
51.73441552946465 7.65176
51.759353359237934 7.59095
51.7841004750961 7.6033100000000005
51.80885018539685 7.57863
51.833602492111254 7.5294
51.8585508051424 7.50375
51.883308330926425 7.52151
51.90806845906181 7.49507
51.932831191525715 7.49635
51.95779001977161 7.45971
51.98255798721516 7.414789999999999
52.00732856494335 7.38293
52.03229530577543 7.398110000000001
52.057071130455945 7.43203
52.081849571391054 7.37982
52.106630630568695 7.37033
52.13160794279417 7.33303
52.15639426492067 7.33206
52.18118321127822 7.32464
52.205974783860896 7.325010000000001
52.23096269971011 7.30305
52.255759551287994 7.2894
52.280559035098186 7.27035
52.30536115314103 7.2353
52.33035970494467 7.19543
52.35516711807904 7.20069
52.37997717147198 7.19068
52.40478986713005 7.1917800000000005
52.42979908731974 7.17897
52.454617094216 7.13437
52.47943774942214 7.15183
52.50426105495102 7.15027
52.529280976059844 7.11066
52.554109609024096 7.10913
52.57894089837482 7.09225
52.60377484613117 7.10032
52.62880550079408 7.08298
52.65364479223379 6.9945699999999995
52.67848674816189 7.0404100000000005
52.70352547971946 7.03985
52.72837279155837 6.9979
52.753222773982785 6.960839999999999
52.778075429022984 6.9783100000000005
52.80312495150885 6.9272100000000005
52.827982978797436 6.940939999999999
52.85284368481815 6.915939999999999
52.87770707160767 6.89802
52.90276741793998 6.9115
52.92763619336701 6.8891100000000005
52.952507655698504 6.88305
52.977381806977576 6.9007
53.00245301017842 6.8553
53.02733256653592 6.846989999999999
53.052214817996074 6.7754
53.077099766608484 6.766430000000001
53.102181859804446 6.78212
53.127072229988265 6.76973
53.15196530349892 6.73643
53.17686108239249 6.6992899999999995
53.20195409881522 6.702160000000001
53.22685531582556 6.71714
53.25175924441303 6.66056
53.27666588664027 6.64775
53.30176985962693 6.66415
53.3266819565689 6.64248
53.35159677336455 6.64898
53.376514312083096 6.67099
53.40162927507703 6.6344199999999995
53.42655228516116 6.571560000000001
53.45147802340193 6.56372
53.47660125628886 6.573519999999999
53.50153247842639 6.55344
53.52646643496923 6.53041
53.55140312799818 6.55187
53.576537409691696 6.5141
53.60147960336152 6.45464
53.626424539786164 6.46141
53.65137222105307 6.43425
53.67651758529126 6.47589
53.70147078399681 6.4166300000000005
53.72642673383343 6.43401
53.75138543689533 6.42309
53.776541917524526 6.40008
53.801506154876755 6.3585400000000005
53.826473151763246 6.38364
53.851442910284916 6.3594
53.87661054126026 6.27147
53.9015858509782 6.28368
53.92656392866066 6.29706
53.95154477641532 6.26555
53.976723591801296 6.25476
54.00171000771266 6.2302599999999995
54.02669920004598 6.2426699999999995
54.051691170915745 6.27192
54.076881204886796 6.269369999999999
54.101878760928514 6.23904
54.12687910187696 6.1610000000000005
54.152077577768296 6.15584
54.1770835166946 6.14668
54.20209224691339 6.18585
54.22710377055121 6.11774
54.25231352511594 6.1085400000000005
54.27733066384342 6.09544
54.30235060239643 6.12317
54.32737334290836 6.07027
54.35259441062629 6.00589
54.377622783395324 6.01269
54.40265396455061 6.0080599999999995
54.42768795623251 5.99982
54.45292037169559 5.94977
54.477960012857906 5.98177
54.50300247099511 5.93544
54.52804774825457 5.91582
54.55329154616743 5.86742
54.57834249018678 5.87154
54.6033962597977 5.8457300000000005
54.6284528571545 5.8204199999999995
54.653708072335164 5.78489
54.67877035378786 5.84589
54.70383546947698 5.79582
54.72890342156389 5.79185
54.7541700889442 5.7836
54.77924374251975 5.7131300000000005
54.8043202390049 5.69175
54.82959552413022 5.676819999999999
54.8546777351945 5.67742
54.87976279569621 5.63039
54.90485070780914 5.67014
54.930137506558005 5.55549
54.95523115074295 5.57635
54.98032765308844 5.58818
55.005427015775496 5.56094
55.03072536339621 5.58758
55.05583047570572 5.5022400000000005
55.080938454927676 5.480919999999999
55.10604930325027 5.45247
55.131359235107396 5.43074
55.15647585066083 5.43196
55.181595341907496 5.42518
55.20671771104285 5.41327
55.232039262617704 5.36921
55.25716741665048 5.34509
55.28229845518636 5.31305
55.30743238042802 5.2990699999999995
55.33276558731939 5.27719
55.357905315183636 5.20115
55.383047936390035 5.16228
55.40819345314859 5.2085099999999995
55.433538351073295 5.23111
55.458689688238415 5.14377
55.483843927614096 5.12846
55.509197623043605 5.1418
55.53435769621134 5.05026
55.55952067826466 5.06529
55.5846865714265 5.041440000000001
55.61005202069737 5.02959
55.63522376553902 5.038209999999999
55.66039842818645 4.9573599999999995
55.68557601087004 4.9943
55.7109532500271 4.87774
55.73613670233794 4.9144
