TT I
1.2716486653135266 7.6390199999999995
1.2939594142134223 6.66067
1.3162702121660406 6.936710000000001
1.3385810600174564 6.60177
1.3608919586137629 6.00598
1.383202908801069 6.20822
1.405513911425503 6.7358899999999995
1.4278249673332093 6.64107
1.4501343378461518 6.0123
1.4724455028545926 6.12889
1.4947567236847858 6.76308
1.517068001182951 6.73009
1.5393793361953272 5.7259400000000005
1.5616907295681737 5.74089
1.5840021821477681 5.5813
1.60631369478041 4.72726
1.6286252683124185 5.64726
1.6509369035901333 5.63483
1.6732468618895553 5.84936
1.695558623192809 5.20425
1.7178704487808514 4.92991
1.7401823395001077 4.47385
1.7625012545597203 5.13784
1.7848028405262486 4.77832
1.8071218901122095 5.28008
1.8294236121921872 4.99774
1.8517427996910911 5.14754
1.8740620574440425 4.53084
1.8963639900671978 4.420719999999999
1.9186833908139995 4.84615
1.9409854680117449 5.07996
1.9633050151394713 4.45204
1.9856246367570705 4.39542
2.0079269371922672 4.61154
2.03024671027244 4.23555
2.0525491637446027 4.2777
2.074869091674931 4.65913
2.097171701569106 5.10271
2.1194917877373847 4.84106
2.141811954326636 4.2607800000000005
2.164114805233074 5.71295
2.186435135143035 6.4092199999999995
2.208738150935709 15.9317
2.231058647554722 35.4953
2.2533792288321184 26.6817
2.275682498336085 11.4329
2.298003251406138 5.93283
2.3203066942619714 5.419969999999999
2.3426276225136022 5.00246
2.3649486396617507 5.13825
2.387252348930071 5.38854
2.4095735463442893 5.1052800000000005
2.4318774374315884 5.41102
2.4541988185014043 5.81104
2.476502894794693 6.19255
2.498824462909887 5.4019
2.521146125856138 5.6627
2.5434504863470337 6.03589
2.5657723414244717 6.77018
2.588076895590662 7.4118
2.610398946189713 7.463210000000001
2.6327210958598384 7.403980000000001
2.6550259469304716 7.4847600000000005
2.6773482972090137 7.76962
2.6996533504259 7.44176
2.7219759047039602 7.920780000000001
2.744298562293959 7.950130000000001
2.7666039251246595 7.3925399999999994
2.7889267918020164 7.5171600000000005
2.8112323652516555 7.6813199999999995
2.833555444408179 8.26415
2.8558786311183852 8.19796
2.8781845268938557 8.71467
2.9005079311721484 8.5914
2.9228140460410397 8.38888
2.9451376712799635 9.46076
2.967444008632326 10.1406
2.9897678582247247 10.0044
3.0120918213106695 10.6325
3.0343984987899373 10.2674
3.0567226913198637 11.0524
3.079029599759726 11.5861
3.101354025127254 12.1523
3.123678568232338 12.3983
3.145985829517914 12.7643
3.16831061055229 13.7224
3.1906181112775593 13.9881
3.212943133635653 14.7612
3.2352682779763207 14.8549
3.2575761442691227 15.3702
3.2799015350264273 15.7572
3.302209649240067 16.2544
3.3245352898092655 17.0648
3.3468436553365257 17.9986
3.369169549113219 18.1099
3.3914955708171384 18.8376
3.413804319727358 19.0159
3.4361305997334863 19.5482
3.4584396084414553 19.6482
3.4807661501462652 20.7214
3.503092824025881 21.1177
3.5254022288463154 21.3336
3.5477291695206588 22.0265
3.5700388426251948 22.8491
3.5923660534916446 24.7801
3.6146934007816114 43.3466
3.637003482731501 109.448
3.6593311053109985 121.554
3.681641464033634 66.4257
3.7039693653009733 32.7651
3.726297407241705 26.77
3.7486081875460804 26.0622
3.7709365132734978 26.7101
3.793247578841633 26.8614
3.8155761917550093 27.4606
3.8378875459837216 27.3999
3.8602164494827234 28.1678
3.882545499606844 28.7506
3.9048572932539183 29.354
3.9271866390645718 29.6462
3.9494987298666713 30.8098
3.971828374764527 31.3258
3.9941581705403255 31.5662
4.016470713506008 32.189
4.038800813471445 32.3859
4.061113662089144 33.5797
4.0834440696459176 34.9075
4.105774632334751 34.9383
4.128087945865126 35.6614
4.150418821249301 36.4829
4.172732448931298 38.235
4.195063640413578 40.3401
4.2173775856475215 45.1925
4.239709096631102 85.8542
4.262040768704612 296.33299999999997
4.284355196706267 404.657
4.306687193387355 256.346
4.329001947444346 93.4146
4.35133427213731 50.5901
4.373666762177566 46.3943
4.395982011761091 46.2531
4.418314834921175 47.4958
4.44063041906622 56.9407
4.4629635787515625 71.3258
4.4852969080429785 70.7034
4.5076130004776225 56.8799
4.529946671403969 51.9864
4.552263106909177 52.0315
4.574597122877047 52.6427
4.596931312711224 53.7849
4.619248269273446 54.4066
4.6415828092605835 55.4812
4.663900117405352 56.6743
4.686235010953232 58.1248
4.708552674085913 59.3831
4.730887924602802 60.4876
4.753223354952695 62.5164
4.775541557023902 64.1654
4.797877349456786 65.7513
4.820195915032126 67.2877
4.842532072957498 68.7052
4.864868414979744 70.9696
4.88718753227192 73.0021
4.909524244902505 74.9593
4.931843734218147 77.2071
4.954180820867835 79.6335
4.976518095879839 82.7198
4.998838149695359 85.2882
5.021175803844231 88.9636
5.043496238205739 93.2211
5.065834274903528 97.4908
5.088172504230693 102.99
5.1104935158799565 111.31299999999999
5.132832132875765 140.451
5.155153533596801 197.77599999999998
5.1774925416746225 241.33
5.199814334878411 436.336
5.2221537374521505 1199.39
5.244493338631803 3000.12
5.266815727034316 6888.04
5.289155727832427 11695.9
5.311478517248165 9234.32
5.333818921080011 3545.04
5.356159527788849 758.4639999999999
5.3784829252032536 223.398
5.400823940070432 160.775
5.423147747031976 138.662
5.445489173474152 126.147
5.467830807066149 119.184
5.490155234831516 115.041
5.512497285125229 109.708
5.534822130975162 108.13
5.557164601388673 105.447
5.579489868738879 102.19200000000001
5.601832762690846 101.72200000000001
5.6241758697774475 100.84899999999999
5.646501775867269 100.176
5.668845311622074 97.9892
5.691171647754637 96.5137
5.713515615597765 96.0561
5.735859800852677 95.1395
5.758186788542988 94.4734
5.780531411018185 95.0469
5.802858837297399 94.1682
5.825203900414495 94.6026
5.8475491852224 95.0497
5.869877275883075 95.4612
5.892223006467101 96.6973
5.914551544266608 97.7466
5.936897724049891 100.948
5.959244129804903 107.18
5.981573344815301 129.941
6.0039202049061 235.81599999999997
6.026249875609095 516.061
6.04859719346037 1043.34
6.070927323278297 2101.85
6.093275102315365 3956.33
6.115623113320588 4942.65
6.137953938319995 3441.92
6.160302415650845 1223.71
6.182633708324452 301.723
6.2049826554078376 129.36700000000002
6.227331838745022 100.595
6.249663839443684 90.7481
6.27201349767565 87.48899999999999
6.294345974611799 95.45
6.316696111167083 111.75299999999999
6.339046488263839 104.041
6.361379686074702 84.7444
6.383730546639482 74.7294
6.406064229255215 71.5353
6.428415576718203 70.8078
6.450749747566656 69.4656
6.47310158535871 68.1991
6.495453669698332 67.30199999999999
6.517788579421056 66.7806
6.540141159237969 65.7832
6.562476565766648 65.2579
6.5848296444934045 65.0193
6.607182974060425 64.1188
6.6295191323281015 64.6452
6.651872965955752 69.7411
6.6742096296068985 102.852
6.6965639707294615 163.982
6.71891856698715 164.922
6.741255995248479 106.43299999999999
6.763611104154477 72.5069
6.785949046381137 62.7956
6.808304671371482 60.6772
6.8306605557940046 59.8117
6.852999275508618 58.9903
6.875355681171544 59.0263
6.897694923437771 58.0706
6.92005185377892 58.4692
6.9423916220322655 57.9489
6.964749080490181 57.2533
6.987106804399774 57.4345
7.009447368180821 57.7608
7.031805625367033 57.0846
7.054146723727803 57.5502
7.076505517631004 56.9727
7.098864581288365 56.9573
7.121206488070854 56.8198
7.143566093607822 56.4523
7.165908543567245 57.3427
7.188268694426048 57.3888
7.2106291193438095 57.6454
7.232972390625943 59.6146
7.255333366030969 75.4886
7.277677189091925 147.579
7.300038718428332 210.49
7.322400526130865 173.555
7.344745183422596 100.425
7.367107550224791 65.4856
7.389452767901992 58.527
7.411815697249891 56.9204
7.434161478756298 56.2529
7.456524974096713 55.9579
7.478888753837185 55.6753
7.501235387657368 56.275
7.523599738562711 56.3811
7.545946944825532 56.34
7.568311870344528 56.92
7.5906770845765665 57.2898
7.613025156078678 59.1024
7.635390950099687 60.6406
7.657739602662809 59.4943
7.680105979923558 58.1989
7.702472650212829 57.6859
7.724822180948224 57.3896
7.747189439655568 57.5885
7.769539560075357 57.795
7.791907410653562 58.3271
7.81425812420825 58.047
7.836626570110925 58.0687
7.858995315087906 59.0563
7.881346924933401 59.2874
7.903716270417482 59.6966
7.926068482028405 60.3203
7.948438431475253 60.8526
7.9708086843180235 61.4075
7.993161805171116 61.9279
8.015532667162402 62.3318
8.037886398416653 63.1232
8.060257873014221 63.6651
8.082629655331942 64.5626
8.104984308787587 65.6659
8.127356708900503 69.95100000000001
8.149711981398308 77.1138
8.172085002766314 79.5309
8.194458336181368 75.0349
8.216814543847752 71.5321
8.23918850371002 71.4031
8.26154533906492 71.8742
8.283919928836452 73.5055
8.306277395339652 74.5675
8.328652618483376 75.9351
8.351028159736202 77.9993
8.373386579575245 80.4784
8.395762759396959 82.3481
8.418121819038275 88.4504
8.440498640894003 105.66799999999999
8.462875785192262 123.34299999999999
8.485235811156207 136.408
8.507613602688501 179.46099999999998
8.529974277114228 277.94599999999997
8.552352719347912 419.634
8.574731488360351 659.7669999999999
8.59709314210385 1099.23
8.619472567021075 1663.86
8.64183487789147 2085.54
8.664214962183097 1858.81
8.686577933647762 1117.29
8.708958680784317 471.205
8.731339760774953 198.52599999999998
8.753703729764451 122.18700000000001
8.77608547780821 104.744
8.798450116065078 99.7458
8.820832535634787 95.7883
8.843215292401656 94.1504
8.865580941199045 92.3069
8.887964374703538 91.2499
8.910330701447199 92.8912
8.932714815164482 95.9014
8.955099270424924 94.9057
8.977466620733543 91.4586
8.999851761421976 87.7915
9.022219798361645 85.6638
9.04460562795561 85.8037
9.066991803441677 84.87700000000001
9.089360876979615 84.7644
9.111747746589993 84.6514
9.13411751544971 84.2374
9.156505082664324 83.8224
9.178875550323522 84.2216
9.20126381862328 84.3761
9.223652438908596 85.1133
9.246023961427412 84.5725
9.26841328802173 84.1609
9.290785518039224 84.2716
9.313175554425882 84.8795
9.335565947154315 84.7409
9.357939245086508 84.8957
9.380330352834827 84.6992
9.40270436697103 85.1047
9.425096193225055 84.9953
9.447488380180165 85.9869
9.469863475295412 86.4505
9.492256385987508 86.331
9.514632206018318 87.1668
9.537025843935714 87.662
9.559402392368193 88.2842
9.581796761000229 89.4231
9.604191496441521 90.8386
9.626569144158516 95.65799999999999
9.648964615551032 101.031
9.671343000390081 102.615
9.693739211225699 99.6061
9.716135793237463 96.1968
9.738515290448102 95.28299999999999
9.760912617143402 96.1757
9.783292860202891 97.6679
9.805690935076182 99.1427
9.828089385495742 99.9861
9.850470754023561 103.0
9.872869957865444 112.137
9.89525208097539 131.392
9.917652041736662 147.714
9.940052382417589 145.852
9.962435644102392 150.937
9.984836746950979 189.02
10.007220771957746 260.33799999999997
10.029622640473708 366.31699999999995
10.052007432299963 530.086
10.074410069984072 778.01
10.096813093716005 1150.01
10.119199042482517 1593.67
10.141602840636468 1887.89
10.163989564971628 1721.6
10.186394141051062 1099.85
10.208799107559706 497.597
10.231187001965623 232.62099999999998
10.253592751657669 140.822
10.275981430388155 119.926
10.298387966769793 119.296
10.320794897965431 122.119
10.343184759907361 121.13
10.36559248305461 113.256
10.387983138083852 108.213
10.410391656691655 111.24600000000001
10.432800574501677 123.1
10.455192425893369 141.782
10.47760214443012 167.183
10.499994797678786 204.857
10.522405320453982 271.101
10.54479877906917 370.176
10.567210109595656 481.333
10.5896218454736 550.893
10.612016518879773 542.246
10.634429067781074 387.54
10.656824555333241 229.27
10.679237920773568 140.095
10.701651695961992 102.584
10.724048411481384 92.6686
10.746463008485165 89.2423
10.768860546937125 87.4484
10.791275969274796 85.6857
10.81369180576079 84.5107
10.836090585366925 83.1494
10.858507252467449 82.0531
10.88090686379991 81.0094
10.903324365036394 80.5679
10.925724811614439 80.8566
10.948143150509463 82.8657
10.970561909719066 81.8534
10.992963615930844 79.8401
11.015383218085756 77.25399999999999
11.037785768347074 75.2177
11.06020621697282 74.719
11.082627090322113 74.3023
11.105030913430326 73.913
11.12745263854165 74.8092
11.149857314510728 79.6471
11.172279894912576 87.6377
11.194702904450653 88.617
11.217108866490921 83.0609
11.239532736615194 77.3911
11.26193956033512 74.825
11.284364294577085 72.898
11.306789462371718 70.3265
11.329197585398376 68.8834
11.351623622610898 68.7073
11.37403261614354 67.6348
11.396459526308487 67.6759
11.418869393879497 67.3143
11.441297180532617 66.965
11.463725406927658 66.8292
11.486136592353875 66.5303
11.508565700543707 67.2566
11.530977768845315 69.8071
11.553407762368774 71.4035
11.575838200059769 70.3883
11.598251599479612 67.562
11.620682927815501 65.8022
11.64309721895548 65.2871
11.665529441478206 64.8196
11.687962112597958 64.2672
11.710377748130886 64.5765
11.732811318753434 64.6677
11.755227854859067 64.6709
11.777662328529495 64.4513
11.800079768750786 64.4772
11.822515149015453 64.2394
11.844950984084935 64.4546
11.867369787303163 64.0483
11.889806534289491 63.7694
11.912226250487029 64.3897
11.934663912939751 64.582
11.9571020346363 64.8163
11.979523127133968 64.8074
12.001962169624331 65.0188
12.024384183972964 66.4011
12.046824150809913 69.9302
12.069264581333726 75.3875
12.091687985297767 82.2202
12.11412934550045 91.2771
12.136553680195208 103.478
12.158995973632788 122.432
12.181438735204349 145.755
12.20386447284199 174.407
12.226308172985636 200.291
12.24873485024193 208.097
12.271179492516982 182.368
12.293607112949127 142.41
12.316052700916226 108.08200000000001
12.338498763250042 85.5744
12.360927805303868 74.0164
12.383374818673879 68.9637
12.405804812803074 66.4724
12.428252780773262 66.2588
12.45070122756722 66.2733
12.473132656675375 66.2833
12.49558206341869 66.4114
12.518014453510101 65.9942
12.540464823770117 66.1852
12.562915677315177 66.4925
12.58534951575545 67.468
12.607801338171472 70.0329
12.630236146511358 77.0463
12.652688941369085 83.4798
12.675124723177234 83.2427
12.697578494048786 78.4356
12.720032754458185 72.365
12.742470003354093 69.8145
12.764925245138771 69.3812
12.787363476431278 69.7473
12.809819703166806 70.1463
12.83227642391173 70.8657
12.854716135692716 71.5343
12.877173846755147 72.5323
12.899614549869717 72.5228
12.9220732548287 73.42699999999999
12.94453245827299 73.9419
12.966974655289818 75.007
12.989434858002571 75.4856
13.011878055298721 76.3238
13.034339260862497 77.619
13.056800969391883 78.4897
13.079245674017244 80.729
13.101708390774869 83.3418
13.12415410463411 90.8725
13.146617833206086 103.84700000000001
13.169064559883248 117.072
13.191529303857127 132.09
13.213994557076367 152.736
13.236442809902437 183.046
13.258909083908291 227.80200000000002
13.28135835851934 281.11
13.30382565690295 343.909
13.326293469022952 402.782
13.348744283242008 427.658
13.371213125129904 382.418
13.39366497011003 292.936
13.416134845360597 198.132
13.438605238843131 137.61
13.46105863690397 112.811
13.483530069144786 110.171
13.505984506951902 115.506
13.528456981549432 125.689
13.550929978879088 139.209
13.573385983253365 159.80100000000002
13.595860028340867 191.232
13.618317081455832 231.765
13.64079217790333 281.872
13.663250283359057 328.05699999999996
13.685726434770173 365.871
13.708203115221277 354.55300000000005
13.730662806148091 291.961
13.75314054697177 215.04
13.775601299246777 145.925
13.798080104050406 106.177
13.820559442405358 89.4646
13.843021793671388 84.44
13.865502201420897 82.3556
13.887965623051947 81.7901
13.910447103807167 80.5245
13.932929122629764 79.2089
13.955394156785959 78.5705
13.977877254034569 77.5849
14.000343367582113 76.6051
14.022827546871707 76.2052
14.045294743423524 75.4238
14.06778000837062 74.7841
14.090265817715476 74.8699
14.112734645763819 74.4394
14.13522154619454 74.4457
14.157691466286913 74.6353
14.180179461423874 74.1543
14.202668005486178 73.2923
14.22513957064374 72.283
14.247629214846473 72.3739
14.270101881097517 72.157
14.29259262906496 72.5288
14.315083930490205 73.6888
14.337558255389705 74.0038
14.360050666019726 73.4771
14.382526101071944 72.0509
14.405019624534942 71.3726
14.427513705993134 70.2931
14.449990813291825 70.2734
14.47248601302899 70.2282
14.49496423954951 70.4178
14.517460561197822 70.4929
14.539939910570322 70.3519
14.562437357763558 70.8435
14.58493536931253 72.1211
14.607416409993311 73.2187
14.62991555254159 74.2154
14.652397725157423 73.8876
14.674898002342799 72.95100000000001
14.697398848433282 72.1677
14.719882725991326 72.7522
14.74238471217934 73.9223
14.764869730765593 77.3713
14.787372860692983 80.9805
14.809876564079925 85.9814
14.83236330125751 92.1853
14.854868153850365 100.25200000000001
14.877356041159485 111.476
14.899862046604186 126.265
14.922351087688757 146.612
14.944858249632887 170.889
14.967365991421232 196.025
14.989856770231246 214.859
15.012365673994204 219.22799999999998
15.03485761569738 200.511
15.05736768508665 164.111
15.07987833888692 127.97
15.102372032001655 99.9872
15.124883856909658 82.7286
15.14737872204565 75.3421
15.169891721717274 72.7463
15.192405310371893 72.8426
15.214901940621196 73.369
15.237416709527137 73.4815
15.259914520936249 73.7218
15.282430473753607 72.6117
15.304947020131227 71.1699
15.327446610371178 70.0722
15.349964346154254 68.88
15.372465126703139 68.3882
15.394984055556009 68.2495
15.417486030076159 68.0688
15.44000615566487 67.8283
15.462526881230803 68.0005
15.485030653812652 68.0528
15.507552581617434 68.0097
15.530057557334603 67.9433
15.55258069104857 67.9626
15.575104429329837 67.8392
15.597611216864632 67.4596
15.620136166564563 67.5236
15.6426441664095 68.3857
15.665170331202765 70.9049
15.687697105158826 74.3697
15.710206930593545 78.2546
15.732734925158933 82.6904
15.755245972089478 88.3041
15.77777519094324 96.3616
15.800287463046663 106.896
15.822817909869592 121.764
15.84534897229804 139.579
15.867863089299354 160.47799999999998
15.890395385222186 179.21900000000002
15.912910736597423 193.075
15.935444269699861 189.202
15.957978423016485 169.945
15.980495633101265 137.497
16.003031029129367 106.729
16.02554948280019 83.3477
16.048086125229432 71.8239
16.070623392487107 68.1887
16.09314371869582 67.1538
16.11568223789321 66.1052
16.13820381691126 64.9988
16.160743591742527 63.5101
16.183283996022084 62.2748
16.205807461423195 61.1228
16.228349126881973 60.6715
16.25087385432698 60.3854
16.27341678466365 59.9951
16.29594277784926 60.0311
16.31848697676433 60.5493
16.341031811604868 61.0135
16.36355971058487 61.4954
16.3861058195587 61.1411
16.40863499352978 59.543
16.431182380342005 58.4862
16.453730407713202 57.68899999999999
16.476261501364792 57.5432
16.498810812136167 57.1707
16.52134319004079 57.1797
16.54389378792203 57.1511
16.566445031001553 56.8316
16.588979342490088 56.7992
16.61153187824822 56.5469
16.634067483263312 56.3173
16.656621315414416 56.1886
16.679175797408888 55.958
16.701713349928728 56.0231
16.72426913389191 56.5011
16.74680798922351 56.4201
16.76936507887444 56.3867
16.791905240734874 56.68600000000001
16.814463639794468 56.4486
16.837022695210294 56.2995
16.859564824093756 56.778999999999996
16.882125194503903 57.7517
16.904668639217885 58.4929
16.927230328348003 58.748000000000005
16.949792678493612 58.6516
16.972338104193863 58.0298
16.994901778652235 57.3504
17.017448529496576 57.1309
17.040013531998152 57.1086
17.06257920018044 57.6027
17.0851279459922 58.3908
17.107694947817667 59.3513
17.130245028099072 60.1546
17.15281336730298 61.6276
17.17536478578733 63.0873
17.19793446610687 64.9218
17.220504818648422 67.2331
17.243058251703697 69.9159
17.265629950971032 73.7673
17.288184731571736 77.6983
17.310757781306908 81.9772
17.33333150794385 84.0643
17.355888317140174 83.37799999999999
17.37846339986244 79.5418
17.401021565958885 74.2172
17.42359800851343 68.7986
17.44617513265564 64.4658
17.468735341390783 61.923
17.491261035594565 60.8395
17.51396340099364 60.5788
17.536490463869136 60.562
17.559018209820174 60.7424
17.58154663977963 60.8087
17.604251766089718 60.5307
17.626781572227713 60.9479
17.64931206518155 61.2634
17.671843245885103 61.8754
17.69455114821572 62.1539
17.717083712612634 62.5332
17.739616967569667 62.6939
17.762150914021706 62.7776
17.78486160749854 62.6334
17.807396945166804 63.0951
17.829932977143503 64.1331
17.85246970436452 65.9613
17.875183204129467 67.6201
17.897721330097664 70.248
17.920260154126645 72.8751
17.942799677153296 75.6235
17.9655159983646 78.9181
17.988056927677544 83.3103
18.010598558807683 89.7086
18.033140892692916 97.8741
18.05586005052525 106.339
18.07840379824407 117.179
18.10094825154059 128.02100000000002
18.12366954819864 137.304
18.146215420998306 141.308
18.16876200220057 137.215
18.191309292745153 125.125
18.214033452627167 110.75200000000001
18.236582170236648 97.2806
18.259131600016456 89.6515
18.281681742907335 87.5142
18.304408781233683 89.816
18.32696035875955 93.7177
18.349512652227624 98.4355
18.372065662579683 103.977
18.394795594587553 106.943
18.41735004715306 106.07
18.43990521943684 101.525
18.46246111238171 92.5307
18.485193953325208 82.1045
18.507751296070428 73.5746
18.530309362314178 68.3928
18.552868153000343 65.4489
18.57560391815056 63.8881
18.59816416623245 63.283
18.620725141597372 62.7385
18.643286845190268 62.2004
18.666025549835414 62.0824
18.688588718427933 61.4189
18.711152618092243 61.1728
18.73389353884365 60.9185
18.75645890921984 60.3954
18.77902501351406 60.1847
18.801591852673102 60.2044
18.824335739722738 59.5933
18.846904057212626 59.4831
18.8694731124168 58.9734
18.89204290628315 59.026
18.914789774966803 58.9264
18.937361054791623 58.6507
18.959933076131318 58.4481
18.982505839934877 58.7494
19.00525570560582 58.6539
19.027829963004184 58.5321
19.05040496572238 58.5753
19.072980714710468 58.3325
19.095733592739563 58.7223
19.11831084296757 58.873999999999995
19.140888842324735 59.6185
19.16346759176222 59.93899999999999
19.18622349753803 60.4795
19.208803755869358 61.1052
19.231384767143577 61.8863
19.253966532312948 62.913999999999994
19.276725481241822 64.866
19.29930876296784 66.7566
19.3218928014549 69.5044
19.34465404436217 72.4279
19.36723960516257 75.4389
19.389825925592426 77.4383
19.412413006605938 77.3088
19.43517731967805 74.8598
19.457765930683355 70.7406
19.48035530514408 66.1665
19.50294544401556 61.8961
19.525712842708348 59.0083
19.54830451925909 57.2137
19.570896963095727 55.7997
19.593490175174704 55.313
19.616260674962184 55.2256
19.638855432416964 54.9177
19.661450960992624 55.1081
19.68404726164677 55.0369
19.706820878021247 54.8178
19.729418731756834 54.9908
19.752017360452857 54.5931
19.77461676506804 54.8302
19.797393513540218 54.7669
19.819994478951667 55.1982
19.84259622316767 55.7549
19.8651987471481 56.449
19.887978643247177 56.5666
19.91058273574792 57.0433
19.933187610901943 57.6173
19.955969879466828 58.6623
19.97857632894404 59.5535
20.00118356396599 61.0559
20.023791585494575 62.8704
20.046577028914875 64.9784
20.069186632506966 67.0752
20.091797025500632 69.2008
20.114408208858933 70.8273
20.137196842715273 71.2328
20.159809615886765 70.2372
20.18242318232135 67.7573
20.20503754298326 65.5417
20.227829382875154 63.6626
20.250445341109344 63.1694
20.27306209647285 63.2264
20.29567964993108 64.1017
20.31847471147704 65.0684
20.34109387027612 66.2883
20.363713830075454 66.6845
20.386334591841646 65.9778
20.409132890679302 63.8673
20.431755265564437 61.0595
20.454378445325528 58.0043
20.477002430930366 55.7654
20.499803982716553 54.1553
20.522429589228004 53.1857
20.54505600449589 52.628
20.567683229489194 52.3993
20.590488049900088 52.0104
20.61311690359731 51.6821
20.63574656993626 51.2732
20.658553853717297 50.8129
20.681185154618298 50.8282
20.703817271080066 50.9127
20.72645020407368 50.4278
20.749260783967177 50.3484
20.771895359337133 50.3387
20.794530754161617 50.184
20.817166969412938 49.9922
20.83998086114876 50.0817
20.86261872660049 49.8822
20.885257415405402 49.8161
20.90789692853701 49.8289
20.930714147864748 49.7396
20.953355319030678 49.7991
20.97599731745334 49.9705
20.99864014410749 49.7243
21.021460706796564 49.9339
21.044105199328826 50.0399
21.06675052302631 50.3009
21.089396678865015 50.6139
21.112220600704806 50.7853
21.134868430275347 50.9482
21.15751709492456 51.0805
21.180166595629693 51.386
21.202993892429635 51.8388
21.22564507473034 52.2035
21.24829709602816 52.5376
21.27112693608965 52.6813
21.293780644891275 52.8019
21.316435195634053 52.3013
21.339090589297417 51.5518
21.361923832041875 51.1454
21.384580921090404 50.4736
21.407238856007325 49.7903
21.429897637773326 49.6417
21.45273429906592 49.7937
21.475394784108598 49.6901
21.498056118951983 49.5185
21.520718304578022 49.6171
21.543558400304388 49.7831
21.566222297108816 50.0512
21.58888704765135 50.0765
21.61155265291521 50.3275
21.63439619898156 50.8148
21.657063523335786 51.2187
21.67973170537063 51.6818
21.7024007460706 52.1991
21.72524775840385 52.8283
21.747918526116475 53.6903
21.770590155457388 54.6371
21.79326264741238 56.162
21.816113141960237 57.6819
21.838787368860547 59.2162
21.861462461341976 60.7524
21.884315579735777 62.8331
21.90699241312273 64.4175
21.92967011506078 65.5518
21.95234868653799 66.0628
21.9752053151131 65.6339
21.997885635446785 63.9154
22.020566828293532 61.8317
22.04324889464272 59.723
22.066109049404666 57.9378
22.088792872571794 57.0568
22.111477572219204 56.8412
22.1341631493376 57.1618
22.157026846313123 57.1471
22.179714188221507 56.6803
22.202402410582668 55.9285
22.22509151438863 54.4479
22.24795876962584 53.1058
22.270649646204486 52.3274
22.293341407213727 51.4138
22.316034053646906 50.9011
22.338904883215342 50.4712
22.36159931041458 50.4243
22.38429462602756 50.4085
22.40699083104897 50.2128
22.429865251039757 50.201
22.452563244831367 50.3363
22.47526213102522 50.3277
22.49813925616515 50.0855
22.520839937143307 50.0253
22.543541513520587 49.9253
22.56624398629403 49.6587
22.589124730075895 49.6138
22.611829005656723 49.8267
22.63453418063466 49.8888
22.657240256008077 50.0365
22.680124634582935 50.1597
22.70283252079775 50.6655
22.725541310413075 50.7053
22.74825100442868 50.9267
22.771139033969575 51.3888
22.79385054687155 51.5116
22.81656296718292 52.1716
22.83927629590484 52.9373
22.862167992606945 53.6943
22.88488314827121 54.5938
22.907599215359284 55.5866
22.93031619487366 56.3954
22.953211574954405 57.364
22.975930389478226 58.4532
22.998650119445763 59.1158
23.02137076586092 58.983999999999995
23.044269845560063 58.1164
23.06699233506288 56.6589
23.089715744034912 54.5804
23.112617610931565 52.8775
23.135342869061212 51.5122
23.158069049684816 50.7865
23.1807961538087 50.2587
23.20370174880544 50.13
23.226430710184808 49.9638
23.249160598093425 50.1165
23.271891413539002 50.0453
23.294800752937697 50.0247
23.31753343374794 50.3606
23.340267045128353 50.4194
23.36300158808808 50.6766
23.38591468821339 50.9908
23.408651104658304 51.2802
23.431388455719986 51.6363
23.454126742409 52.498999999999995
23.4770436196085 53.236000000000004
23.499783787914662 54.2809
23.522524894889884 55.1906
23.54526694154616 56.089
23.56818761219047 57.1966
23.59093154860734 58.1542
23.613676427751283 58.9717
23.636422250635754 58.5718
23.659346731118656 57.3702
23.68209445191868 55.9216
23.704843119509587 53.8145
23.72759273490623 51.7119
23.750521041644767 49.9379
23.77327256312355 48.8129
23.796025035462787 47.9994
23.818956224555475 47.3607
23.841710609113413 47.3066
23.86446594758979 47.0285
23.887222241002014 46.8162
23.910157285144578 46.4424
23.932915498962537 46.3084
23.955674670778713 46.1467
23.978434801611975 46.0259
24.001373717286125 45.8949
24.024135776723917 45.7027
24.046898798245582 45.6461
24.06966278287146 45.5372
24.092605586582614 45.3564
24.115371508023642 45.2777
24.1381383956401 45.0644
24.16090625045381 45.1904
24.183852958731244 45.0953
24.206622758582608 45.0099
24.229393528706886 44.8045
24.252165270127392 44.7176
24.27511589952438 44.7384
24.297889594216997 44.3791
24.32066426328598 44.3753
24.34343990775613 44.4303
24.36639447485003 44.2786
24.38917208083877 44.3313
24.41195066531332 44.2813
24.43490819850244 44.1923
24.457688750692377 43.9889
24.48047028445616 43.9666
24.503252800821233 44.0904
24.526214300784112 44.175
24.548998793132213 44.1302
24.57178427117417 44.0306
24.59457073593893 44.0177
24.617536219319863 43.9751
24.64032466834748 43.9832
24.663114107195035 43.9597
24.685904536893013 43.6468
24.708874020360852 43.6297
24.731666442613744 43.4726
24.754459858818787 43.4036
24.777254270007962 43.3797
24.80022777025625 43.2509
24.82302418230472 43.3018
24.845821592443674 43.1492
24.86862000170663 43.223
24.891597535453727 43.1084
24.914397953892728 43.3261
24.93719937456671 43.2179
24.96000179851076 43.3953
24.98298338249997 43.6229
25.00578782394922 43.7528
25.028593271784167 43.7944
25.05157790644186 44.1419
25.07438537804115 44.1391
25.097193859145293 44.4688
25.120003350792075 44.50899999999999
25.142992065061257 45.0116
25.165803588823465 45.306000000000004
25.18861612625217 45.4656
25.211429678386736 45.467
25.234422489079968 45.5539
25.257238081693636 45.6527
25.280054692141732 45.8144
25.3028723214652 45.6033
25.325869245420463 45.7732
25.348688923599397 45.875
25.371509623787006 45.9725
25.394331347025812 45.8424
25.41733240110666 45.5789
25.440156181590016 44.8648
25.46298098826268 44.2693
25.48580682216873 43.6731
25.50881202326435 43.1222
25.53163992281684 42.6168
25.55446885274561 42.1597
25.577298814096377 41.9793
25.600308179121807 42.0335
25.623140214533745 42.008
25.64597328451537 41.7594
25.66898578564376 41.5394
25.691820936010206 41.4985
25.714657124097695 41.5979
25.737494350954734 41.6936
25.760511045684957 41.6127
25.783350361364224 41.6999
25.806190718969255 41.6695
25.82903211955018 41.7907
25.852053024868923 41.777
25.874896522722523 41.6709
25.897741066713106 41.6102
25.920586657892454 41.6127
25.943611790812668 41.6602
25.966459487728237 41.7588
25.989308234998564 41.8432
26.01215803367705 42.196999999999996
26.03518741123814 42.243
26.05803932412957 42.4696
26.080892291600094 42.4233
26.10374631470478 42.5333
26.12677995397268 42.5714
26.14963609978026 42.7363
26.172493304397875 42.4235
26.19535156888223 42.3249
26.218389486949604 41.964
26.241249882640123 41.7801
26.26411134137826 41.4765
26.28715248187403 41.455
26.31001607820869 41.1859
26.3328807407756 41.0638
26.35574647063438 41.0557
26.37879191991473 40.9997
26.401659795896734 41.1674
26.424528742360263 41.2481
26.447398760366614 41.4405
26.470448535598294 41.5268
26.49332070826805 41.6861
26.516193955675355 41.9795
26.53906827888316 42.1581
26.562122397260108 42.2668
26.584998883685063 42.4369
26.607876449110325 42.5522
26.63075509460056 42.7583
26.65381357334404 43.1117
26.67669439061878 43.1001
26.699576291163382 43.0201
26.722459276044212 42.9182
26.745522132402975 42.6987
26.768407297649354 42.5257
26.791293550442003 42.1376
26.814180891848974 41.8369
26.837248143099337 41.6191
26.860137673466657 41.568999999999996
26.88302829566349 41.2055
26.90592001075963 40.9343
26.92899167420566 40.8863
26.951885586870763 40.5857
26.974780595655517 40.2878
26.99785558178161 40.2594
27.020752794605112 40.1501
27.043651106772522 39.9627
27.06655051935668 39.7777
27.089629948036183 39.6217
27.112531573292053 39.5967
27.135434302194138 39.7592
27.158338135817015 39.5038
27.181422024430987 39.6037
27.204328079372566 39.4412
27.22723524226965 39.4938
27.250143514198573 39.4674
27.273231880156334 39.4285
27.296142382065014 39.3897
27.319053996245536 39.3154
27.341966723775965 39.4756
27.365059584515222 39.422
27.38797455070062 39.5844
27.410890633481237 39.3802
27.433807833936918 39.3649
27.456905206923906 39.2834
27.47982465472398 39.369
27.502745223449743 39.4968
27.525666914182825 39.4741
27.548768816912457 39.3764
27.571692763693633 39.2169
27.59461783573812 39.3078
27.617723149491244 39.1963
27.640650484125285 39.2296
27.66357894728264 39.1128
27.686508540048052 39.042
27.709618414237887 39.0467
27.732550278321757 38.7927
27.755483275279115 38.6707
27.778417406196485 38.6802
27.801531858397514 38.744
27.824468269376716 38.6784
27.847405817586786 38.6197
27.870344504116094 38.765
27.893463551932008 38.9896
27.916404527281053 39.1311
27.93934664422563 39.2291
27.962289903855886 39.1995
27.98541356491974 39.3997
28.00835912214229 39.556
28.03130582533231 39.8203
28.054253675581805 39.894
28.077381967556104 39.8749
28.100332124185126 39.8402
28.123283431160893 39.8213
28.146235889577238 39.7069
28.169368830154156 39.4318
28.192323603752033 39.3882
28.215279532083304 39.0017
28.238415973016764 38.8472
28.261374223145094 38.8256
28.284333631303806 38.5497
28.307294198589954 38.4855
28.330435319167677 38.1581
28.353398217078915 37.9182
28.376362277420153 37.64
28.39932750129032 37.4538
28.422473319286713 37.3874
28.44544088262495 37.361
28.468409612800283 37.0418
28.491379510913497 36.9847
28.51453004413313 36.8414
28.53750229057244 36.71
28.56047570826344 36.7196
28.583450298308804 36.8737
28.606605564586562 36.6289
28.629582511831156 36.6426
28.65256063474956 36.5357
28.675539934446338 36.5268
28.698699951647605 36.5564
28.72168161743193 36.3399
28.74466446331978 36.3937
28.767648490417624 36.2406
28.790813276438353 36.3085
28.813799678527303 36.2872
28.836787265157085 36.2416
28.859955641890075 36.3072
28.882945610203045 36.249
28.905936766392035 36.1431
28.928929111566863 36.2473
28.952102288520145 36.0995
28.975097024308607 36.0341
28.998092952423807 35.8975
29.021090073977508 35.79
29.04426806913204 35.7348
29.067267590245258 35.5531
29.090268308143695 35.3742
29.11327022394099 35.4007
29.13645305530891 35.3046
29.159457379627167 35.1478
29.18246290519685 35.1746
29.20546963313352 35.1385
29.22865731875826 35.1172
29.25166646419296 35.1219
29.27467681535305 34.9891
29.29768837335608 35.0971
29.320880931312562 35.1379
29.34389491580634 35.0824
29.366910110507334 35.0757
29.38992651653503 35.0752
29.41312396492981 35.1004
29.436142806456754 34.8747
29.45916286268059 34.8694
29.48236399319994 34.8742
29.50538649169417 34.5838
29.528410208259935 34.563
29.55143514402014 34.3473
29.574641196749695 34.2066
29.597668583816574 34.2611
29.6206971934585 34.0602
29.64372702680042 33.9244
29.666938019934474 33.9875
29.689970313635285 33.8645
29.713003834422636 33.8626
29.73603858342347 33.7339
29.759254535188578 33.7433
29.78229175361658 33.7226
29.80533020365064 33.7317
29.82836988641968 33.7345
29.85159081507472 33.6662
29.874632976355343 33.5571
29.89767637376955 33.5404
29.920721008448314 33.3949
29.9439469322847 33.4416
29.96699405457564 33.3037
29.9900424175358 33.3511
30.013092022298157 33.2969
30.03632295963995 33.3137
30.059375061131373 33.2488
30.08242840783577 33.3649
30.105483000888153 33.3037
30.128718970092244 33.2169
30.151776069006917 33.141999999999996
30.17483441768648 33.1475
30.198074175317235 33.1462
30.221135036724256 33.2106
30.24419715131772 33.227
30.267260520236203 33.1186
30.290505341942243 33.0965
30.313571232750228 33.2661
30.336638381310948 33.1925
30.35970678876503 33.0723
30.38295669299435 32.9333
30.40602763151657 32.9589
30.429099832366074 32.9926
30.452173296685572 32.846
30.47542830191959 32.8304
30.498504306502497 32.8381
30.521581577995562 32.968
30.544660117543582 32.9076
30.56792024229725 32.9207
30.59100133132069 32.9442
30.614083691845494 32.925
30.637167325018545 32.8897
30.660432587840603 32.9143
30.683518779717886 32.8936
30.70660624769615 32.9048
30.729694992924372 32.8992
30.75296541239743 33.0031
30.77605672557558 32.8994
30.799149319462742 32.8645
30.8224236211637 32.8234
30.845518789950724 32.7091
30.868615242910597 32.6455
30.891712981195973 32.4484
30.91499247215866 32.3825
30.938092794619365 32.3045
30.96119440587579 32.2752
30.984297307082752 32.1712
31.00758200598383 32.0532
31.030687500658694 31.9861
31.053794288760695 31.9846
31.076902371446767 31.854
31.100192296997445 31.8719
31.12330298246119 31.8268
31.14641496599209 31.7006
31.169528248749216 31.6458
31.19282341969534 31.7032
31.215939314557186 31.683000000000003
31.239056512134788 31.6974
31.262175013589378 31.671
31.28547544871168 31.4939
31.30859657161541 31.4304
31.331719001892175 31.5486
31.35484274070538 31.7132
31.378148458819545 31.6354
31.401274828443725 31.5488
31.424402510106933 31.5887
31.447712205419993 31.5586
31.470842524931633 31.5238
31.493974159989783 31.4385
31.51710711176168 31.5343
31.54042212308802 31.5835
31.563557722100917 31.5005
31.586694641341655 31.3149
31.609832881979628 31.2333
31.63315322823208 31.1777
31.656294125521327 31.1017
31.679436347728515 31.0561
31.70257989602529 31.0351
31.725905596152327 30.9221
31.74905181052835 30.8634
31.772199354521323 30.8513
31.79534822930507 30.8646
31.818679302290967 30.8656
31.84183085259981 30.8642
31.864983737233473 30.7296
31.88813795736804 30.7437
31.911474422233013 30.628
31.934631327356435 30.7802
31.9577895715215 30.6912
31.980949155906522 30.7497
32.004291031706956 30.75
32.027453310562606 30.6439
32.05061693318573 30.5531
32.07396288236386 30.5047
32.09712920658542 30.3716
32.12029687812702 30.398000000000003
32.14346589817093 30.2577
32.166817291729984 30.2284
32.18998902288583 30.1994
32.21316210610336 30.1187
32.23633654256711 29.9776
32.259693399663725 29.9867
32.282870556771144 29.9009
32.30604907069099 29.965999999999998
32.329228942610065 29.8742
32.35259128243769 29.7726
32.375773884550505 29.7182
32.398957848235646 29.6056
32.422143174682176 29.5248
32.445511016471215 29.5672
32.468699082679954 29.4955
32.49188851523011 29.3502
32.51507931531304 29.2561
32.538452678331 29.3215
32.56164622776311 29.2687
32.58484114831493 29.1267
32.60803744118015 29.1769
32.631416344731896 29.135
32.654615396551876 29.2516
32.67781582427913 29.1484
32.701198898634416 28.9616
32.72440209253756 28.9049
32.747606665947124 28.9572
32.77081262006088 28.8255
32.79420126883317 28.8066
32.81740999876112 28.7836
32.840620112999424 28.6921
32.86383161274818 28.7093
32.88722585534586 28.7571
32.91044014056596 28.7159
32.933655814909734 28.6704
32.95687287957963 28.6173
32.98027273544904 28.6235
33.00349259526636 28.5905
33.026713849030116 28.5457
33.04993649794511 28.497
33.073341986570746 28.4326
33.09656744032826 28.5754
33.11979429286444 28.4779
33.14302254538647 28.429000000000002
33.166433686291185 28.4036
33.18966475336992 28.3931
33.212897224069096 28.285999999999998
33.23613109959831 28.3225
33.259547912343415 28.2027
33.2827846121627 28.1599
33.306022720453775 28.095
33.32926223842861 28.1275
33.352684742614166 28.107
33.37592709463173 28.1088
33.399170859982064 27.9928
33.422597648419426 27.8944
33.44584425514446 27.7043
33.46909227885668 27.7361
33.4923417207723 27.6818
33.51577423505344 27.730999999999998
33.539026528130385 27.5044
33.56228024307245 27.5615
33.585535381098246 27.4534
33.60897364093058 27.4247
33.63223163992385 27.307
33.6554910656699 27.4224
33.678751919389796 27.3695
33.702195944520106 27.2233
33.72545966903325 27.2187
33.74872482519663 27.2494
33.771991414233746 27.2366
33.79544122444841 27.1024
33.81871069412428 26.9544
33.84198160035767 26.8931
33.86525394437455 27.0101
33.88870955949969 26.945
33.911984794020626 26.9116
33.93526147001624 26.9172
33.958539588715006 26.8994
33.98200102861669 26.771
34.0052820477047 26.6157
34.02856451319451 26.7141
34.05203033759056 26.506999999999998
34.07531571090147 26.5672
34.09860253431845 26.5873
34.121890809074316 26.526
34.145362493118924 26.5602
34.16865368561615 26.4364
34.191946333164054 26.4477
34.21524043699793 26.3737
34.23871800066799 26.3273
34.26201503218366 26.2222
34.28531352370466 26.2112
34.30861347646881 26.2275
34.33209693978188 26.1767
34.3553998301885 26.1766
34.378704185565205 26.0309
34.402010007152356 26.002
34.42549939016683 26.059
34.44880815937748 25.9571
34.472118398533134 25.8964
34.49543010887669 25.7914
34.51892543169198 25.7877
34.54224009966052 25.8266
34.56555624255917 25.8145
34.58887386163339 25.6711
34.61237514439016 25.6189
34.6356957311114 25.5772
34.65901779775809 25.5291
34.68252356662995 25.5262
34.705848608458616 25.4318
34.72917513396849 25.3544
34.75250314440949 25.3626
34.77601490857862 25.355999999999998
34.799345904259795 25.2483
34.82267838863559 25.2698
34.846012362958525 25.3433
34.869530142679984 25.2734
34.89286711232212 25.1812
34.91620557568269 25.0929
34.93954553401677 25.1778
34.9630693495876 25.0737
34.986412313340814 25.1074
35.00975677584668 25.0678
35.033102738362956 25.0129
35.05663261012228 24.9594
35.0799815881786 24.9823
35.10333207003229 24.8625
35.12668405694369 24.9123
35.150220005273056 24.8662
35.17357501786656 24.7822
35.19693153931268 24.7444
35.220289570874385 24.7839
35.24383161619786 24.7438
35.267192683604904 24.7616
35.290555264930376 24.5901
35.314101899412165 24.6225
35.33746752422433 24.6786
35.36083466676374 24.5976
35.38420332829803 24.4916
35.407756095629054 24.5837
35.43112781085063 24.5022
35.45450104888391 24.5078
35.477875810999194 24.4905
35.50143473172161 24.3935
35.52481255774625 24.4031
35.54819191167777 24.4409
35.57157279478914 24.3099
35.595137889488406 24.2717
35.61852184675279 24.1402
35.641907337029984 24.2204
35.665294361595684 24.1928
35.68886565090076 24.1733
35.7122557598848 24.0739
35.73564740699838 24.0659
35.759040593519934 24.081
35.78261809810353 24.0873
35.80601437933051 23.9667
35.829412203814705 23.8416
35.85281157283719 23.804000000000002
35.876395313415884 23.833000000000002
35.8997977874528 23.7371
35.92320180988546 23.6935
35.946790244133936 23.6622
35.97019737933222 23.6526
35.993606066789866 23.6748
36.01701630779276 23.5863
36.04061101440684 23.5222
36.06402437852291 23.5513
36.08743930005611 23.4695
36.1108557802951 23.4887
36.13445678011326 23.455
36.15787639383515 23.4645
36.18129757014299 23.3811
36.20472031032821 23.2707
36.22832762423364 23.273000000000003
36.25175350829375 23.2689
36.275180960119776 23.1363
36.298609981005924 23.2729
36.32222362992669 23.1765
36.34565580510207 23.1063
36.36908955323448 23.0704
36.39252487562093 23.0217
36.416144880530226 22.9842
36.43958336764275 22.9872
36.463023432914625 22.9643
36.486465077645676 22.9062
36.51009145956204 22.9766
36.53353627947859 22.8906
36.55698268276811 22.8901
36.58043067073321 22.8169
36.60406345072071 22.6879
36.62751462435344 22.7214
36.65096738658405 22.7321
36.67460498210655 22.7063
36.69806093788647 22.6749
36.72151848619297 22.552
36.744977628333636 22.5203
36.76862165890998 22.4797
36.79208400512205 22.4356
36.81554794910557 22.459
36.83901349217101 22.3491
36.862663978991606 22.3057
36.88613273667352 22.2754
36.90960309738324 22.2563
36.933075062434064 22.235
36.95673202673572 22.2261
36.98020721697122 22.1504
37.003684015502365 22.1154
37.027162423645365 22.0627
37.050825886711465 22.1241
37.07430753063053 22.029
37.09779078812467 22.0331
37.121275660513014 21.9824
37.144945643673694 21.9026
37.16843376245278 21.9028
37.19192350009803 21.9461
37.215414857931435 21.8786
37.239091382563885 21.804000000000002
37.262585997426164 21.7125
37.28608223645736 21.7663
37.309763684451696 21.6244
37.33326318851098 21.6066
37.356764320726555 21.5742
37.380267082425526 21.6551
37.40395510942588 21.6431
37.42746114683234 21.5784
37.45096881771841 21.453000000000003
37.474478123414166 21.4886
37.49817275092816 21.4238
37.52168534303452 21.4128
37.54519957395567 21.3405
37.568715445024665 21.32
37.592416694607714 21.3852
37.61593586281424 21.3438
37.63945667518264 21.3762
37.66297913304891 21.2088
37.68668702630454 21.1643
37.710212792059274 21.1719
37.733740207334854 21.1267
37.757269273470364 21.0891
37.780983832050374 21.0232
37.80451621684926 21.0328
37.82805025654007 21.0057
37.851585952464795 20.9967
37.8753071980695 20.8712
37.89884622345676 20.8473
37.92238690911902 20.886
37.94611318753442 20.7825
37.969657210779765 20.7323
37.99320289834801 20.8001
38.016750251586465 20.7418
38.04048325513017 20.6485
38.06403395679343 20.6033
38.087586328183946 20.572
38.11114037065203 20.5429
38.13488012115898 20.5353
38.1584375229181 20.477
38.181996599821 20.3858
38.205557353221124 20.4176
38.229303872575656 20.4841
38.2528679961576 20.4026
38.27643380031219 20.3186
38.30000128639589 20.2617
38.32375459653193 20.2507
38.34732546371299 20.2679
38.37089801690786 20.1837
38.39447225747609 20.1896
38.418232380377425 20.1475
38.441810012983396 20.1291
38.46538933705673 20.1662
38.488970353960084 20.1239
38.51273731166058 19.9964
38.536321731567014 20.0257
38.55990784840681 19.9279
38.58367995004091 19.8743
38.60726947812959 19.8131
38.63086070726198 19.8387
38.654453638806274 19.9188
38.678232613930824 19.8068
38.70182896773327 19.7671
38.72542702806741 19.689
38.7490267963045 19.611
38.77281266709232 19.6565
38.79641586862214 19.6092
38.8200207821842 19.6032
38.843627409152944 19.657
38.86742019782782 19.5541
38.891030269149255 19.428
38.914642058016156 19.4573
38.938255565806124 19.4982
38.96205529464307 19.4509
38.98567225787121 19.3799
39.00929094417078 19.3943
39.03291135492255 19.3756
39.05671804624804 19.2805
39.080341923549106 19.2548
39.103967529460334 19.2711
39.127594865365744 19.1991
39.15140854155791 19.2
39.17503935514948 19.201
39.19867190290282 19.125
39.22249083587951 19.1207
39.24612686969409 19.0663
39.269764641845306 19.0219
39.293404153722804 18.9721
39.317230110864074 18.9188
39.34087311998506 18.8485
39.36451787301696 18.8888
39.388164371352595 18.8714
39.41199737518003 18.8234
39.43564738196752 18.8358
39.45929913825317 18.7774
39.48295264543308 18.7632
39.506792718520884 18.6935
39.530449745387216 18.676
39.55410852735203 18.6552
39.57776906581474 18.6479
39.60161623079 18.5956
39.625280300200025 18.5299
39.64894613032202 18.5319
39.67261372255866 18.5576
39.6964680021016 18.4937
39.72013913657293 18.4943
39.74381203738292 18.4867
39.76748670593756 18.4318
39.79134812278169 18.3746
39.81502634488497 18.3565
39.83870633896685 18.3514
39.862388106436654 18.2569
39.88625668336918 18.2455
39.90994201572829 18.2305
39.933629125719285 18.2515
39.957503091207826 18.214000000000002
39.9811937746168 18.1475
40.00488623990914 18.0795
40.02858048850006 18.1327
40.05246165409549 18.0949
40.076159487492085 18.0357
40.099859108448875 18.0114
40.123560518384345 18.0168
40.1474489070226 17.9394
40.171153913178564 17.9571
40.194860712584955 17.8941
40.2185693066637 17.8851
40.242464941335314 17.7883
40.26617714307655 17.7791
40.289891143772046 17.8094
40.3136069448471 17.7336
40.33750984859743 17.7045
40.3612292688043 17.6931
40.3849504936829 17.6035
40.40867352466194 17.6001
40.43258372059144 17.5896
40.45631038219906 17.6476
40.48003885420956 17.5984
40.503769138055105 17.5815
40.52768664931955 17.5266
40.55142057531802 17.4725
40.57515631746428 17.4661
40.599079334038514 17.4275
40.62281872700477 17.3771
40.64655994043941 17.332
40.67030297578061 17.3436
40.69423334835778 17.2545
40.71798004609188 17.2851
40.74172857006355 17.2246
40.76547892171441 17.2496
40.7894166736039 17.2055
40.813170699248566 17.1757
40.83692655691388 17.1002
40.86068424804498 17.1719
40.884629402612525 17.0471
40.908390779366385 17.0548
40.932153993938 17.0308
40.95591904777605 16.9907
40.979871628443995 17.0197
41.003640379561936 16.9658
41.02741097430883 16.9007
41.05118341413683 16.8882
41.075143444384416 16.8825
41.098919593177826 16.8797
41.1226975914255 16.8631
41.14647744058318 16.7586
41.170444943946755 16.7683
41.19422851378379 16.7511
41.218013938914645 16.6974
41.24198706625173 16.6801
41.26577622087193 16.6701
41.289567235177785 16.6477
41.31336011063129 16.6265
41.337340752422875 16.495
41.361137369129835 16.4875
41.38493585138705 16.5266
41.40873620066004 16.4825
41.43272438060107 16.4795
41.45652848292052 16.451
41.48033445666918 16.3965
41.50414230331616 16.3027
41.528138045159764 16.2855
41.551949656675205 16.2394
41.575763145513235 16.2088
41.59957851314666 16.2018
41.62358184070442 16.1694
41.64740098505737 16.1558
41.6712220126409 16.1747
41.69504492493139 16.1413
41.71905586207357 16.1599
41.74288256296395 16.0695
41.766711153007456 16.0471
41.79054163368412 16.0237
41.814560204340054 16.01
41.838394485526365 15.9775
41.86223066180303 15.904000000000002
41.88625497706819 15.9291
41.910094962812 15.8961
41.93393684811168 15.8482
41.95778063445365 15.8021
41.981812625263366 15.8237
42.00566023303407 15.7986
42.029509746323676 15.7424
42.05336116662236 15.7133
42.077400857069705 15.725999999999999
42.10125611078846 15.7409
42.12511327600405 15.6799
42.14897235421036 15.7227
42.173019768448455 15.6224
42.19688269209613 15.5787
42.22074753323349 15.5523
42.24461429335818 15.5049
42.268669455600495 15.4812
42.292540073217886 15.4495
42.31641261433284 15.4815
42.34028708044675 15.4215
42.36435001496739 15.4362
42.38822835065557 15.4062
42.41210861586426 15.3932
42.4359908120986 15.3696
42.46006154323262 15.3091
42.48394762115317 15.2227
42.507835634632315 15.2778
42.531912233047436 15.2108
42.55580413732265 15.2185
42.579697981698 15.1894
42.60359376768525 15.2117
42.62767820545945 15.185
42.65157789440821 15.1218
42.67547952952185 15.057
42.699383112316 15.0627
42.72347541395347 15.0206
42.74738291190531 15.0055
42.771292362102166 14.985
42.795203766063516 14.9814
42.819303956130405 14.9188
42.843219287476536 14.8629
42.86713657716324 14.8211
42.89105582671383 14.8495
42.91516392983864 14.8415
42.939087119032166 14.7682
42.963012272677304 14.7172
42.98693939230129 14.7283
43.01105543317513 14.6621
43.034986504731386 14.665
43.05891954686589 14.6482
43.08285456110972 14.6103
43.10697856448665 14.6343
43.130917542983475 14.5766
43.15485849820081 14.5843
43.17880143167367 14.5275
43.20293342237094 14.5056
43.226880332449 14.4829
43.25082922540554 14.456
43.27496722682525 14.4509
43.29892010567796 14.3903
43.32287497204102 14.3453
43.34683182745632 14.3439
43.370977859791836 14.3303
43.39493871351105 14.3188
43.41890156092628 14.3134
43.44286640358341 14.2301
43.46702049182749 14.2265
43.49098934522816 14.2197
43.51496019852649 14.1492
43.5389330532723 14.1809
43.56309522248204 14.1403
43.58707210044314 14.1182
43.61105098451946 14.0773
43.63503187626491 14.0671
43.659202151562134 14.0723
43.68318707902681 13.9728
43.70717401884041 13.9621
43.731162972560874 13.9436
43.75534137913236 13.9387
43.779334381108384 13.9339
43.803329401683186 13.9121
43.82732644241872 13.867
43.8515130055166 13.8858
43.87551410707659 13.8391
43.89951723350145 13.7924
43.923709934595614 13.8
43.94771713129917 13.7541
43.97172635758096 13.7193
43.99573761501002 13.6566
44.0199385169922 13.6604
44.04395385732619 13.6616
44.067971233533086 13.6685
44.09199064718605 13.6297
44.11619977548961 13.5786
44.14022328470671 13.5468
44.16424883610785 13.5526
44.18827643127035 13.5456
44.21249381139513 13.515999999999998
44.236525514814076 13.4656
44.26055926674478 13.3873
44.28459506876863 13.4338
44.3088207262813 13.3646
44.33286064928722 13.3265
44.35690262714919 13.3366
44.38094666145278 13.3685
44.4051806219871 13.3379
44.42922879003185 13.3111
44.45327901929361 13.2837
44.477331311362136 13.262
44.501573600619416 13.1774
44.525630039221795 13.138
44.54968854541895 13.2181
44.573937102200176 13.1816
44.5979997645541 13.1553
44.622064499300315 13.1341
44.64613130803592 13.0874
44.67038823869318 13.09
44.69445921643748 13.0414
44.718532272981385 13.0187
44.742607409926194 13.005
44.76687274034801 12.9829
44.79095205918753 12.9286
44.81503346325094 12.8999
44.839116954143876 12.902000000000001
44.86339071028742 12.874
44.88747839599524 12.8426
44.91156817336837 12.8351
44.93566004401666 12.8375
44.959942251908146 12.8441
44.984038330325966 12.7735
45.00813650686762 12.7057
45.03223678314731 12.7185
45.05652746888232 12.677999999999999
45.08063196592069 12.6816
45.104738567558705 12.6036
45.128847275414856 12.6017
45.15314646515866 12.5969
45.17725940679741 12.6185
45.20137445952892 12.5616
45.22568004865265 12.5607
45.24979934496396 12.4741
45.27392075725247 12.453
45.29804428714431 12.4461
45.322358426247604 12.4246
45.346486212804315 12.4101
45.370616121861914 12.4132
45.39474815505086 12.3853
45.41907087049246 12.3357
45.4432071734666 12.3149
45.46734560548283 12.3274
45.49148616817604 12.3076
45.51581748638564 12.2668
45.5399623320197 12.247
45.56410931325473 12.227
45.58825843173002 12.2241
45.61259837920865 12.1572
45.636751793816 12.177999999999999
45.66090735060093 12.1322
45.68506505120716 12.1525
45.7094136545275 12.1058
45.73357566449271 12.06
45.75773982322992 12.0657
45.78190613238733 12.0351
45.806263418194064 11.9658
45.83043404997326 11.9788
45.85460683713677 11.9709
45.87897065658495 11.8989
45.90314777634752 11.9176
45.92732705646868 11.9184
45.9515084986045 11.8955
45.97588104735473 11.8905
46.00006683541565 11.8289
46.02425479047904 11.8023
46.04844491420549 11.8812
46.0728262191024 11.814
46.09702070211635 11.7647
46.12121735879483 11.7275
46.14541619080294 11.7262
46.169806278764455 11.7027
46.194009483459034 11.689
46.21821486849841 11.6524
46.24242243555223 11.6169
46.266821333570014 11.5785
46.29103328674601 11.5896
46.31524742696538 11.5876
46.33946375590237 11.5505
46.36387149104216 11.4911
46.38809221957392 11.4863
46.41231514186606 11.5328
46.436540259597464 11.4819
46.460956858999374 11.4617
46.48518638983522 11.4344
46.509418121166966 11.3813
46.533652054678114 11.3538
46.55807754555709 11.3837
46.58231590571962 11.3596
46.60655647313217 11.2811
46.630988654873654 11.2941
46.655233659129024 11.2644
46.67948087571551 11.2483
46.70373030632484 11.2043
46.72817142736393 11.2105
46.752425308428684 11.1799
46.77668140861147 11.1858
46.80093972960865 11.1536
46.82538981736788 11.0816
46.849652602470904 11.0657
46.87391761349769 11.0777
46.8981848521493 11.0692
46.9226439341274 11.023
46.946915650573224 10.9844
46.97118959976749 11.0
46.99546578341598 11.0153
47.019933887188216 10.9855
47.04421456235744 10.9691
47.06849747711879 10.9128
47.09278263318286 10.9048
47.11725978640143 10.8938
47.14154944775105 10.873
47.165841355555656 10.8422
47.1901355115306 10.8184
47.214621741924994 10.8068
47.23892041698887 10.7849
47.26322134538975 10.7571
47.28771440635075 10.7285
47.31201986422527 10.7508
47.33632758061436 10.7006
47.360637557241866 10.6505
47.38513974410611 10.6679
47.40945426407847 10.6421
47.43377104948137 10.5971
47.45809010204344 10.6035
47.48260144275502 10.5863
47.506925052572285 10.5839
47.53125093475548 10.5415
47.55557909103813 10.5198
47.58009961361992 10.5024
47.60443234110732 10.4713
47.62876734791564 10.4666
47.65310463578333 10.4429
47.6776343683373 10.4329
47.7019762413987 10.4006
47.72632040075572 10.433
47.75066684815169 10.3826
47.77520581885936 10.3448
47.799556865477655 10.2969
47.823910205386 10.3066
47.84826584033272 10.2871
47.87281407745551 10.2414
47.89717432569297 10.287
47.92153687423484 10.2414
47.94609208429692 10.2496
47.97045925671401 10.19
47.99482873471275 10.174
48.01920052005013 10.1835
48.04376504619224 10.1714
48.068141469543484 10.151
48.09252020552573 10.1092
48.11690125590099 10.1071
48.1414751266064 10.0817
48.16586082917454 10.054
48.19024885144316 9.997110000000001
48.2146391951793 10.0141
48.239222439012764 10.0045
48.26361744916137 9.98863
48.28801478610016 9.97708
48.31241445160131 9.93069
48.337007097209366 9.95093
48.36141144338331 9.92687
48.38581812345755 9.874989999999999
48.41022713920929 9.87941
48.434829215320704 9.87278
48.45924292604658 9.834660000000001
48.48365897780325 9.8297
48.50807737237308 9.81138
48.532688907799276 9.79994
48.55711201168574 9.74618
48.581537463754074 9.7061
48.60615611725119 9.77155
48.63058628942721 9.70209
48.65501881516546 9.68365
48.6794536962573 9.67752
48.70408185970339 9.64493
48.72852147531801 9.6282
48.75296345168211 9.64018
48.77740779059232 9.61706
48.80204549302823 9.5937
48.82649458091802 9.570160000000001
48.85094603676547 9.54504
48.87539986237231 9.51648
48.90004713292306 9.51623
48.92450572200832 9.5238
48.94896668628025 9.46166
48.97343002754588 9.47862
48.99808689542115 9.45969
49.02255501470614 9.46543
49.04702551642794 9.39631
49.0714984023988 9.40748
49.096164896893235 9.40898
49.120642575466796 9.37273
49.145122643748394 9.33237
49.16960510355558 9.32757
49.19428125404938 9.29353
49.2187685210852 9.2922
49.243258185121555 9.28605
49.26794160167084 9.26102
49.2924360839405 9.242469999999999
49.31693296869764 9.2339
49.34143225776915 9.21841
49.36612538195438 9.17707
49.39062950396021 9.15691
49.41513603578346 9.12087
49.4396449792564 9.12502
49.46434784069503 9.09781
49.488861631846454 9.09773
49.513377840166804 9.092839999999999
49.537896467493745 9.04513
49.56260909589029 9.0278
49.587132585683285 9.04853
49.611658500018365 9.00689
49.636186840738596 8.9904
49.66090926588511 8.97724
49.685442483902584 8.94384
49.70997813385706 8.88597
49.734516217597076 8.86979
49.75924846937352 8.86775
49.7837914452858 8.84946
49.80833686055187 8.846810000000001
49.83288471702571 8.84568
49.85762682540054 8.85143
49.882179588965734 8.81737
49.9067347993235 8.77492
49.93129245833333 8.789539999999999
49.95604445336378 8.775360000000001
49.98060703442832 8.753969999999999
50.005172069746266 8.72204
50.02993150438364 8.70833
50.05450147301533 8.70476
50.07907390151433 8.61833
50.10364879174981 8.66053
50.12841816587289 8.651819999999999
50.1529980044635 8.629589999999999
50.17758031042124 8.63453
50.20216508562089 8.584480000000001
50.22694442953363 8.554960000000001
50.25153416817468 8.52476
50.27612638170508 8.54002
50.300721072005196 8.515369999999999
50.325510416102105 8.504589999999999
50.350110084975064 8.464789999999999
50.37471223628208 8.47829
50.39931687190919 8.47021
50.424116246675766 8.45913
50.44872587605249 8.45402
50.47333799543065 8.418330000000001
50.49795260670191 8.4092
50.52276204271512 8.4035
50.54738166295838 8.3901
50.57200378079314 8.34179
50.596628398116835 8.35764
50.62144792604559 8.33874
50.646077567609396 8.33075
50.670709714377715 8.33162
50.69553683636198 8.28325
50.72017401885922 8.25023
50.7448137122895 8.26715
50.76945591856022 8.23318
50.79429318636823 8.208169999999999
50.818940443716784 8.2243
50.84359021965163 8.17052
50.868242516085964 8.19383
50.893089960641895 8.18008
50.917747323549435 8.12579
50.94240721271973 8.1206
50.96706963007175 8.057139999999999
50.99192728239342 8.0839
51.01659478166073 8.068589999999999
51.04126481489051 8.04398
51.06593738400761 8.03476
51.090805275207074 8.01347
51.11548294172845 8.01388
51.14016314993547 8.0085
51.164845901758845 7.9341
51.18972406304274 7.954039999999999
51.21441192780656 7.93875
51.23910234200271 7.90808
51.2637953075678 7.896319999999999
51.288683770237945 7.87149
51.31338186432707 7.856839999999999
51.33808251561888 7.861619999999999
51.362978729967345 7.86185
51.387684521509755 7.82981
51.41239287610203 7.82298
51.437103795691165 7.80337
51.46201036644977 7.7847100000000005
51.486726441956634 7.76473
51.51144508832545 7.792330000000001
51.536166307509156 7.73348
51.56108326624387 7.7170000000000005
51.58580965706056 7.6874899999999995
51.61053862657523 7.661989999999999
51.635270176746864 7.6787
51.66019755512065 7.68355
51.68493429268881 7.6687
51.70967361681515 7.62143
51.73441552946465 7.615880000000001
51.759353359237934 7.582439999999999
51.7841004750961 7.58225
51.80885018539685 7.564439999999999
51.833602492111254 7.543260000000001
51.8585508051424 7.55503
51.883308330926425 7.509689999999999
51.90806845906181 7.4941
51.932831191525715 7.4909
51.95779001977161 7.46935
51.98255798721516 7.4287
52.00732856494335 7.41477
52.03229530577543 7.42625
52.057071130455945 7.40508
52.081849571391054 7.37747
52.106630630568695 7.32981
52.13160794279417 7.3326
52.15639426492067 7.30293
52.18118321127822 7.33799
52.205974783860896 7.2895
52.23096269971011 7.27658
52.255759551287994 7.26795
52.280559035098186 7.26968
52.30536115314103 7.24455
52.33035970494467 7.246569999999999
52.35516711807904 7.20315
52.37997717147198 7.18655
52.40478986713005 7.175330000000001
52.42979908731974 7.170039999999999
52.454617094216 7.160189999999999
52.47943774942214 7.126
52.50426105495102 7.12211
52.529280976059844 7.09227
52.554109609024096 7.09897
52.57894089837482 7.049189999999999
52.60377484613117 7.0480100000000006
52.62880550079408 7.052110000000001
52.65364479223379 7.04236
52.67848674816189 7.004910000000001
52.70352547971946 6.989730000000001
52.72837279155837 6.98371
52.753222773982785 6.968439999999999
52.778075429022984 6.970039999999999
52.80312495150885 6.98071
52.827982978797436 6.947889999999999
52.85284368481815 6.90348
52.87770707160767 6.86913
52.90276741793998 6.88692
52.92763619336701 6.868989999999999
52.952507655698504 6.85226
52.977381806977576 6.88585
53.00245301017842 6.8273
53.02733256653592 6.84806
53.052214817996074 6.842339999999999
53.077099766608484 6.797810000000001
53.102181859804446 6.76842
53.127072229988265 6.79018
53.15196530349892 6.739330000000001
53.17686108239249 6.73428
53.20195409881522 6.7140699999999995
53.22685531582556 6.70565
53.25175924441303 6.680210000000001
53.27666588664027 6.68819
53.30176985962693 6.62097
53.3266819565689 6.61977
53.35159677336455 6.64385
53.376514312083096 6.63508
53.40162927507703 6.606560000000001
53.42655228516116 6.56843
53.45147802340193 6.54493
53.47660125628886 6.55915
53.50153247842639 6.566610000000001
53.52646643496923 6.52915
53.55140312799818 6.53503
53.576537409691696 6.50471
53.60147960336152 6.48401
53.626424539786164 6.45038
53.65137222105307 6.44198
53.67651758529126 6.43029
53.70147078399681 6.44079
53.72642673383343 6.40187
53.75138543689533 6.40822
53.776541917524526 6.41354
53.801506154876755 6.36571
53.826473151763246 6.38727
53.851442910284916 6.3445599999999995
53.87661054126026 6.34794
53.9015858509782 6.33609
53.92656392866066 6.33355
53.95154477641532 6.28337
53.976723591801296 6.2869
54.00171000771266 6.2754199999999996
54.02669920004598 6.30126
54.051691170915745 6.22729
54.076881204886796 6.23856
54.101878760928514 6.24106
54.12687910187696 6.16881
54.152077577768296 6.18724
54.1770835166946 6.18594
54.20209224691339 6.18644
54.22710377055121 6.15538
54.25231352511594 6.159009999999999
54.27733066384342 6.12469
54.30235060239643 6.1089400000000005
54.32737334290836 6.082269999999999
54.35259441062629 5.9965
54.377622783395324 6.026590000000001
54.40265396455061 6.02203
54.42768795623251 6.01288
54.45292037169559 5.98623
54.477960012857906 5.95205
54.50300247099511 5.94105
54.52804774825457 5.94869
54.55329154616743 5.88973
54.57834249018678 5.91728
54.6033962597977 5.86415
54.6284528571545 5.80732
54.653708072335164 5.783580000000001
54.67877035378786 5.82693
54.70383546947698 5.78702
54.72890342156389 5.75755
54.7541700889442 5.71405
54.77924374251975 5.69311
54.8043202390049 5.68519
54.82959552413022 5.68151
54.8546777351945 5.64173
54.87976279569621 5.67
54.90485070780914 5.6288
54.930137506558005 5.53637
54.95523115074295 5.64299
54.98032765308844 5.60607
55.005427015775496 5.59784
55.03072536339621 5.57048
55.05583047570572 5.50943
55.080938454927676 5.51527
55.10604930325027 5.464119999999999
55.131359235107396 5.4695
55.15647585066083 5.45731
55.181595341907496 5.4253800000000005
55.20671771104285 5.40152
55.232039262617704 5.36618
55.25716741665048 5.34663
55.28229845518636 5.3487800000000005
55.30743238042802 5.2990699999999995
55.33276558731939 5.27136
55.357905315183636 5.28608
55.383047936390035 5.23172
55.40819345314859 5.1967
55.433538351073295 5.1544099999999995
55.458689688238415 5.15302
55.483843927614096 5.11209
55.509197623043605 5.12688
55.53435769621134 5.08804
55.55952067826466 5.0347
55.5846865714265 5.07443
55.61005202069737 5.02738
55.63522376553902 5.01314
55.66039842818645 4.9634599999999995
55.68557601087004 4.96632
55.7109532500271 4.90749
55.73613670233794 4.94972
