TT I
1.2716486653135266 7.318919999999999
1.2939594142134223 6.8998800000000005
1.3162702121660406 6.22203
1.3385810600174564 7.1193100000000005
1.3608919586137629 7.150980000000001
1.383202908801069 6.909269999999999
1.405513911425503 5.81467
1.4278249673332093 5.83777
1.4501343378461518 6.4745
1.4724455028545926 5.905130000000001
1.4947567236847858 5.52273
1.517068001182951 5.9926699999999995
1.5393793361953272 5.55545
1.5616907295681737 5.45553
1.5840021821477681 5.4798800000000005
1.60631369478041 5.01704
1.6286252683124185 5.4619800000000005
1.6509369035901333 4.85986
1.6732468618895553 5.04835
1.695558623192809 5.20854
1.7178704487808514 5.06947
1.7401823395001077 4.91901
1.7625012545597203 5.0117
1.7848028405262486 4.71402
1.8071218901122095 5.26077
1.8294236121921872 4.4553199999999995
1.8517427996910911 4.72778
1.8740620574440425 5.18348
1.8963639900671978 4.6555800000000005
1.9186833908139995 4.51751
1.9409854680117449 4.9143300000000005
1.9633050151394713 5.02471
1.9856246367570705 4.66662
2.0079269371922672 4.6763
2.03024671027244 4.57218
2.0525491637446027 4.56126
2.074869091674931 4.64473
2.097171701569106 4.70295
2.1194917877373847 5.02985
2.141811954326636 5.0696
2.164114805233074 4.81577
2.186435135143035 5.93604
2.208738150935709 9.86646
2.231058647554722 14.4981
2.2533792288321184 11.9256
2.275682498336085 7.15411
2.298003251406138 5.50345
2.3203066942619714 6.01189
2.3426276225136022 5.80845
2.3649486396617507 6.03258
2.387252348930071 6.39131
2.4095735463442893 6.84554
2.4318774374315884 6.9905800000000005
2.4541988185014043 7.0700199999999995
2.476502894794693 7.619269999999999
2.498824462909887 7.33402
2.521146125856138 7.8097
2.5434504863470337 7.46355
2.5657723414244717 8.000869999999999
2.588076895590662 8.56439
2.610398946189713 9.08253
2.6327210958598384 8.87984
2.6550259469304716 9.00645
2.6773482972090137 8.58727
2.6996533504259 9.151010000000001
2.7219759047039602 8.38143
2.744298562293959 8.756680000000001
2.7666039251246595 8.366010000000001
2.7889267918020164 8.48051
2.8112323652516555 8.48793
2.833555444408179 9.19303
2.8558786311183852 8.68388
2.8781845268938557 8.93747
2.9005079311721484 9.245510000000001
2.9228140460410397 8.9762
2.9451376712799635 9.536589999999999
2.967444008632326 9.85803
2.9897678582247247 9.844289999999999
3.0120918213106695 10.3738
3.0343984987899373 11.4759
3.0567226913198637 11.5661
3.079029599759726 12.0347
3.101354025127254 12.2583
3.123678568232338 13.3041
3.145985829517914 13.5249
3.16831061055229 13.8095
3.1906181112775593 14.8553
3.212943133635653 15.5175
3.2352682779763207 15.3487
3.2575761442691227 15.543
3.2799015350264273 15.7936
3.302209649240067 16.1631
3.3245352898092655 16.7158
3.3468436553365257 17.0905
3.369169549113219 17.7741
3.3914955708171384 18.4479
3.413804319727358 18.316
3.4361305997334863 18.9485
3.4584396084414553 19.3482
3.4807661501462652 19.9491
3.503092824025881 20.3301
3.5254022288463154 20.6295
3.5477291695206588 21.3722
3.5700388426251948 22.0091
3.5923660534916446 23.2924
3.6146934007816114 29.8308
3.637003482731501 51.0368
3.6593311053109985 54.1848
3.681641464033634 37.0881
3.7039693653009733 27.1278
3.726297407241705 25.5234
3.7486081875460804 25.5485
3.7709365132734978 26.0095
3.793247578841633 26.1556
3.8155761917550093 26.2486
3.8378875459837216 26.718000000000004
3.8602164494827234 27.2697
3.882545499606844 27.7039
3.9048572932539183 28.9674
3.9271866390645718 28.9696
3.9494987298666713 29.4322
3.971828374764527 30.0757
3.9941581705403255 30.3679
4.016470713506008 31.0873
4.038800813471445 31.3911
4.061113662089144 32.3942
4.0834440696459176 33.0688
4.105774632334751 33.083
4.128087945865126 33.7112
4.150418821249301 34.7628
4.172732448931298 35.8655
4.195063640413578 37.4761
4.2173775856475215 39.1077
4.239709096631102 54.4629
4.262040768704612 121.616
4.284355196706267 153.041
4.306687193387355 104.60799999999999
4.329001947444346 56.8637
4.35133427213731 43.7151
4.373666762177566 42.5576
4.395982011761091 43.3178
4.418314834921175 44.5825
4.44063041906622 48.541000000000004
4.4629635787515625 52.9768
4.4852969080429785 53.5151
4.5076130004776225 52.7161
4.529946671403969 57.0149
4.552263106909177 60.5968
4.574597122877047 58.1007
4.596931312711224 53.7513
4.619248269273446 53.2949
4.6415828092605835 54.042
4.663900117405352 54.9406
4.686235010953232 56.4504
4.708552674085913 57.6087
4.730887924602802 59.2119
4.753223354952695 60.8465
4.775541557023902 64.6754
4.797877349456786 67.8679
4.820195915032126 68.2207
4.842532072957498 68.1743
4.864868414979744 70.8475
4.88718753227192 74.8773
4.909524244902505 76.7553
4.931843734218147 76.5154
4.954180820867835 77.4793
4.976518095879839 80.0112
4.998838149695359 82.7866
5.021175803844231 86.225
5.043496238205739 89.1938
5.065834274903528 93.5787
5.088172504230693 98.4139
5.1104935158799565 104.281
5.132832132875765 124.166
5.155153533596801 154.404
5.1774925416746225 190.91
5.199814334878411 369.75300000000004
5.2221537374521505 951.192
5.244493338631803 2769.94
5.266815727034316 7997.13
5.289155727832427 13502.2
5.311478517248165 8990.99
5.333818921080011 2646.82
5.356159527788849 487.616
5.3784829252032536 191.415
5.400823940070432 151.567
5.423147747031976 129.002
5.445489173474152 118.455
5.467830807066149 118.322
5.490155234831516 118.51899999999999
5.512497285125229 111.92399999999999
5.534822130975162 104.905
5.557164601388673 101.21
5.579489868738879 98.3089
5.601832762690846 96.9401
5.6241758697774475 95.4659
5.646501775867269 94.9836
5.668845311622074 93.9958
5.691171647754637 93.1228
5.713515615597765 92.1907
5.735859800852677 91.736
5.758186788542988 93.9454
5.780531411018185 97.5329
5.802858837297399 97.4881
5.825203900414495 97.2623
5.8475491852224 101.243
5.869877275883075 100.65
5.892223006467101 95.7461
5.914551544266608 94.1128
5.936897724049891 96.0054
5.959244129804903 102.194
5.981573344815301 126.69
6.0039202049061 226.39700000000002
6.026249875609095 447.61800000000005
6.04859719346037 937.069
6.070927323278297 2246.38
6.093275102315365 4689.14
6.115623113320588 5268.29
6.137953938319995 2981.62
6.160302415650845 799.17
6.182633708324452 189.453
6.2049826554078376 103.96600000000001
6.227331838745022 87.9776
6.249663839443684 81.8481
6.27201349767565 78.7859
6.294345974611799 80.1573
6.316696111167083 83.9367
6.339046488263839 80.3288
6.361379686074702 73.3826
6.383730546639482 69.8544
6.406064229255215 69.3526
6.428415576718203 70.3563
6.450749747566656 69.0545
6.47310158535871 66.1445
6.495453669698332 64.5886
6.517788579421056 63.4859
6.540141159237969 62.6437
6.562476565766648 62.0933
6.5848296444934045 62.1709
6.607182974060425 62.3135
6.6295191323281015 62.1982
6.651872965955752 63.1512
6.6742096296068985 72.8237
6.6965639707294615 91.5068
6.71891856698715 89.8782
6.741255995248479 72.2986
6.763611104154477 61.4911
6.785949046381137 58.373000000000005
6.808304671371482 58.7578
6.8306605557940046 60.3718
6.852999275508618 59.4259
6.875355681171544 57.5258
6.897694923437771 56.1913
6.92005185377892 55.5243
6.9423916220322655 55.2314
6.964749080490181 54.4672
6.987106804399774 55.0465
7.009447368180821 55.6077
7.031805625367033 55.1721
7.054146723727803 55.0532
7.076505517631004 53.9365
7.098864581288365 54.0552
7.121206488070854 54.2942
7.143566093607822 54.5406
7.165908543567245 55.7652
7.188268694426048 55.9219
7.2106291193438095 54.7874
7.232972390625943 54.5251
7.255333366030969 60.4785
7.277677189091925 82.7578
7.300038718428332 100.09200000000001
7.322400526130865 88.4977
7.344745183422596 67.0521
7.367107550224791 56.5063
7.389452767901992 54.2999
7.411815697249891 53.7286
7.434161478756298 53.1602
7.456524974096713 53.1488
7.478888753837185 53.0878
7.501235387657368 53.4832
7.523599738562711 53.5201
7.545946944825532 53.79
7.568311870344528 54.2509
7.5906770845765665 53.9093
7.613025156078678 54.6886
7.635390950099687 55.586000000000006
7.657739602662809 55.4702
7.680105979923558 55.6368
7.702472650212829 56.3436
7.724822180948224 56.00899999999999
7.747189439655568 55.8682
7.769539560075357 55.1573
7.791907410653562 55.8411
7.81425812420825 55.3649
7.836626570110925 55.8264
7.858995315087906 56.894
7.881346924933401 56.9253
7.903716270417482 57.4888
7.926068482028405 57.7738
7.948438431475253 58.2987
7.9708086843180235 59.0494
7.993161805171116 59.6198
8.015532667162402 60.0738
8.037886398416653 61.4701
8.060257873014221 61.9146
8.082629655331942 62.6899
8.104984308787587 63.5814
8.127356708900503 65.915
8.149711981398308 70.7703
8.172085002766314 72.7115
8.194458336181368 70.0429
8.216814543847752 68.2197
8.23918850371002 68.4431
8.26154533906492 69.4063
8.283919928836452 70.8165
8.306277395339652 72.0878
8.328652618483376 73.4523
8.351028159736202 74.9849
8.373386579575245 77.5882
8.395762759396959 79.1195
8.418121819038275 82.5711
8.440498640894003 90.2947
8.462875785192262 101.288
8.485235811156207 123.55799999999999
8.507613602688501 170.25599999999997
8.529974277114228 246.66299999999998
8.552352719347912 365.94300000000004
8.574731488360351 625.386
8.59709314210385 1204.36
8.619472567021075 1976.86
8.64183487789147 2270.44
8.664214962183097 1720.34
8.686577933647762 844.618
8.708958680784317 303.566
8.731339760774953 141.602
8.753703729764451 104.681
8.77608547780821 95.6719
8.798450116065078 93.0811
8.820832535634787 91.1182
8.843215292401656 91.2926
8.865580941199045 91.3078
8.887964374703538 91.1505
8.910330701447199 91.4739
8.932714815164482 91.7503
8.955099270424924 89.2282
8.977466620733543 85.9236
8.999851761421976 84.6285
9.022219798361645 83.4688
9.04460562795561 83.0561
9.066991803441677 82.6793
9.089360876979615 83.0977
9.111747746589993 82.9915
9.13411751544971 82.096
9.156505082664324 81.3672
9.178875550323522 80.9347
9.20126381862328 81.0764
9.223652438908596 80.9278
9.246023961427412 81.3304
9.26841328802173 81.3166
9.290785518039224 81.9522
9.313175554425882 83.8234
9.335565947154315 85.2046
9.357939245086508 85.6835
9.380330352834827 85.2215
9.40270436697103 85.0348
9.425096193225055 84.4351
9.447488380180165 84.9777
9.469863475295412 83.6922
9.492256385987508 83.7342
9.514632206018318 84.3062
9.537025843935714 84.7516
9.559402392368193 86.2035
9.581796761000229 88.6748
9.604191496441521 91.0266
9.626569144158516 93.7536
9.648964615551032 95.0674
9.671343000390081 94.5579
9.693739211225699 92.8202
9.716135793237463 92.0844
9.738515290448102 92.4066
9.760912617143402 93.8028
9.783292860202891 95.9753
9.805690935076182 98.1709
9.828089385495742 99.3177
9.850470754023561 100.15700000000001
9.872869957865444 104.006
9.89525208097539 111.38799999999999
9.917652041736662 118.05
9.940052382417589 124.7
9.962435644102392 146.815
9.984836746950979 184.80900000000003
10.007220771957746 240.113
10.029622640473708 331.431
10.052007432299963 512.85
10.074410069984072 833.035
10.096813093716005 1312.75
10.119199042482517 1876.1
10.141602840636468 2002.55
10.163989564971628 1468.54
10.186394141051062 773.3689999999999
10.208799107559706 322.107
10.231187001965623 161.975
10.253592751657669 118.385
10.275981430388155 109.59200000000001
10.298387966769793 107.62299999999999
10.320794897965431 107.77799999999999
10.343184759907361 106.661
10.36559248305461 103.87799999999999
10.387983138083852 103.31
10.410391656691655 109.071
10.432800574501677 119.186
10.455192425893369 133.111
10.47760214443012 157.19799999999998
10.499994797678786 203.292
10.522405320453982 290.443
10.54479877906917 413.76800000000003
10.567210109595656 549.11
10.5896218454736 587.8
10.612016518879773 487.099
10.634429067781074 315.33799999999997
10.656824555333241 176.447
10.679237920773568 112.109
10.701651695961992 91.7454
10.724048411481384 86.9205
10.746463008485165 84.7348
10.768860546937125 83.7892
10.791275969274796 82.0067
10.81369180576079 80.934
10.836090585366925 79.7595
10.858507252467449 78.6621
10.88090686379991 78.0043
10.903324365036394 77.7538
10.925724811614439 76.9728
10.948143150509463 77.9502
10.970561909719066 77.2334
10.992963615930844 76.1381
11.015383218085756 74.4159
11.037785768347074 72.5873
11.06020621697282 71.9206
11.082627090322113 71.1744
11.105030913430326 70.456
11.12745263854165 70.5746
11.149857314510728 71.4446
11.172279894912576 73.6868
11.194702904450653 73.1806
11.217108866490921 71.2714
11.239532736615194 69.1484
11.26193956033512 68.2131
11.284364294577085 67.7202
11.306789462371718 66.71600000000001
11.329197585398376 65.7785
11.351623622610898 65.8906
11.37403261614354 65.1282
11.396459526308487 65.3039
11.418869393879497 64.6406
11.441297180532617 64.1294
11.463725406927658 63.8527
11.486136592353875 63.5064
11.508565700543707 63.7444
11.530977768845315 64.5908
11.553407762368774 64.5433
11.575838200059769 64.2524
11.598251599479612 63.1379
11.620682927815501 62.7334
11.64309721895548 62.3476
11.665529441478206 62.3245
11.687962112597958 61.8748
11.710377748130886 61.9625
11.732811318753434 61.766000000000005
11.755227854859067 61.8209
11.777662328529495 61.8705
11.800079768750786 61.8868
11.822515149015453 61.7808
11.844950984084935 61.8547
11.867369787303163 61.555
11.889806534289491 61.6391
11.912226250487029 62.0226
11.934663912939751 62.0922
11.9571020346363 62.226000000000006
11.979523127133968 62.1081
12.001962169624331 63.3496
12.024384183972964 64.6234
12.046824150809913 67.4228
12.069264581333726 71.5273
12.091687985297767 77.1657
12.11412934550045 85.9754
12.136553680195208 101.698
12.158995973632788 127.693
12.181438735204349 158.681
12.20386447284199 188.69299999999998
12.226308172985636 210.976
12.24873485024193 198.679
12.271179492516982 153.14600000000002
12.293607112949127 112.65299999999999
12.316052700916226 84.9862
12.338498763250042 70.8025
12.360927805303868 65.7964
12.383374818673879 63.7997
12.405804812803074 63.1018
12.428252780773262 63.037
12.45070122756722 63.1176
12.473132656675375 62.9594
12.49558206341869 63.7588
12.518014453510101 64.0893
12.540464823770117 63.9451
12.562915677315177 63.9008
12.58534951575545 64.1549
12.607801338171472 65.1023
12.630236146511358 67.1234
12.652688941369085 69.4118
12.675124723177234 69.4493
12.697578494048786 68.4247
12.720032754458185 67.0156
12.742470003354093 66.7112
12.764925245138771 66.6897
12.787363476431278 66.8984
12.809819703166806 67.488
12.83227642391173 68.3189
12.854716135692716 69.0556
12.877173846755147 70.305
12.899614549869717 70.4883
12.9220732548287 71.5591
12.94453245827299 71.8814
12.966974655289818 72.8742
12.989434858002571 73.3751
13.011878055298721 73.9915
13.034339260862497 74.8524
13.056800969391883 76.4148
13.079245674017244 79.2892
13.101708390774869 82.7584
13.12415410463411 90.8512
13.146617833206086 100.227
13.169064559883248 109.431
13.191529303857127 122.77
13.213994557076367 145.57
13.236442809902437 184.44799999999998
13.258909083908291 246.102
13.28135835851934 315.655
13.30382565690295 390.652
13.326293469022952 441.005
13.348744283242008 420.176
13.371213125129904 330.98199999999997
13.39366497011003 228.525
13.416134845360597 152.358
13.438605238843131 114.292
13.46105863690397 103.333
13.483530069144786 104.53200000000001
13.505984506951902 108.756
13.528456981549432 117.92399999999999
13.550929978879088 132.563
13.573385983253365 157.514
13.595860028340867 200.53799999999998
13.618317081455832 258.564
13.64079217790333 326.517
13.663250283359057 379.165
13.685726434770173 385.26
13.708203115221277 325.935
13.730662806148091 240.283
13.75314054697177 166.25900000000001
13.775601299246777 115.14299999999999
13.798080104050406 91.4639
13.820559442405358 82.7931
13.843021793671388 80.1315
13.865502201420897 78.8675
13.887965623051947 78.1413
13.910447103807167 77.3634
13.932929122629764 76.0434
13.955394156785959 75.705
13.977877254034569 74.6236
14.000343367582113 73.752
14.022827546871707 73.1634
14.045294743423524 72.3539
14.06778000837062 71.7216
14.090265817715476 71.5796
14.112734645763819 71.2087
14.13522154619454 71.0013
14.157691466286913 70.7464
14.180179461423874 70.6523
14.202668005486178 70.1131
14.22513957064374 69.617
14.247629214846473 69.2641
14.270101881097517 69.0228
14.29259262906496 68.9716
14.315083930490205 69.4349
14.337558255389705 69.1808
14.360050666019726 69.1146
14.382526101071944 68.5663
14.405019624534942 67.9877
14.427513705993134 67.9128
14.449990813291825 67.834
14.47248601302899 67.8388
14.49496423954951 67.7654
14.517460561197822 67.7396
14.539939910570322 67.4626
14.562437357763558 67.9496
14.58493536931253 68.5447
14.607416409993311 68.8796
14.62991555254159 69.2277
14.652397725157423 69.4368
14.674898002342799 69.4705
14.697398848433282 69.5404
14.719882725991326 70.6592
14.74238471217934 72.4981
14.764869730765593 75.5877
14.787372860692983 78.1753
14.809876564079925 82.0255
14.83236330125751 87.292
14.854868153850365 95.8087
14.877356041159485 110.135
14.899862046604186 130.769
14.922351087688757 158.74200000000002
14.944858249632887 189.38099999999997
14.967365991421232 217.398
14.989856770231246 228.2
15.012365673994204 214.41400000000002
15.03485761569738 178.12099999999998
15.05736768508665 136.947
15.07987833888692 103.147
15.102372032001655 83.8912
15.124883856909658 73.9699
15.14737872204565 70.4845
15.169891721717274 69.2926
15.192405310371893 68.8187
15.214901940621196 68.9311
15.237416709527137 68.4781
15.259914520936249 68.497
15.282430473753607 67.6499
15.304947020131227 66.8371
15.327446610371178 66.3796
15.349964346154254 65.7635
15.372465126703139 65.4985
15.394984055556009 65.4063
15.417486030076159 65.3605
15.44000615566487 64.763
15.462526881230803 64.7381
15.485030653812652 64.9446
15.507552581617434 64.7509
15.530057557334603 64.8853
15.55258069104857 64.814
15.575104429329837 64.9355
15.597611216864632 64.8783
15.620136166564563 65.4998
15.6426441664095 66.97800000000001
15.665170331202765 69.1433
15.687697105158826 71.5728
15.710206930593545 74.847
15.732734925158933 78.9042
15.755245972089478 84.7394
15.77777519094324 94.3783
15.800287463046663 108.541
15.822817909869592 129.08
15.84534897229804 153.246
15.867863089299354 177.90599999999998
15.890395385222186 194.86900000000003
15.912910736597423 195.377
15.935444269699861 176.983
15.957978423016485 144.649
15.980495633101265 111.236
16.003031029129367 86.6145
16.02554948280019 71.4526
16.048086125229432 64.3887
16.070623392487107 62.5802
16.09314371869582 61.9961
16.11568223789321 61.2318
16.13820381691126 60.3851
16.160743591742527 59.7871
16.183283996022084 59.0922
16.205807461423195 58.2958
16.228349126881973 57.6917
16.25087385432698 57.7642
16.27341678466365 57.1086
16.29594277784926 56.9884
16.31848697676433 56.9918
16.341031811604868 56.8722
16.36355971058487 56.7444
16.3861058195587 56.6275
16.40863499352978 56.0488
16.431182380342005 55.3179
16.453730407713202 55.0558
16.476261501364792 54.8362
16.498810812136167 54.4932
16.52134319004079 54.6009
16.54389378792203 54.5776
16.566445031001553 54.5299
16.588979342490088 54.2462
16.61153187824822 54.0977
16.634067483263312 53.6859
16.656621315414416 53.7218
16.679175797408888 53.525
16.701713349928728 53.6181
16.72426913389191 53.7164
16.74680798922351 53.8277
16.76936507887444 53.6912
16.791905240734874 53.7809
16.814463639794468 53.5916
16.837022695210294 53.611999999999995
16.859564824093756 53.9777
16.882125194503903 54.1804
16.904668639217885 54.7068
16.927230328348003 54.6088
16.949792678493612 54.8156
16.972338104193863 54.66
16.994901778652235 54.4585
17.017448529496576 54.5491
17.040013531998152 54.9815
17.06257920018044 55.687
17.0851279459922 56.1637
17.107694947817667 56.9491
17.130245028099072 57.7286
17.15281336730298 58.9698
17.17536478578733 60.4645
17.19793446610687 62.7449
17.220504818648422 65.858
17.243058251703697 69.7109
17.265629950971032 74.4584
17.288184731571736 79.3191
17.310757781306908 83.0841
17.33333150794385 82.6804
17.355888317140174 79.7539
17.37846339986244 73.8865
17.401021565958885 67.3405
17.42359800851343 63.1207
17.44617513265564 60.1343
17.468735341390783 58.8268
17.491261035594565 58.1511
17.51396340099364 57.9982
17.536490463869136 58.0345
17.559018209820174 58.0947
17.58154663977963 58.3465
17.604251766089718 58.3528
17.626781572227713 58.5711
17.64931206518155 58.9521
17.671843245885103 59.2033
17.69455114821572 59.2737
17.717083712612634 59.818999999999996
17.739616967569667 60.0608
17.762150914021706 60.6448
17.78486160749854 60.6789
17.807396945166804 61.4026
17.829932977143503 62.69
17.85246970436452 64.1548
17.875183204129467 65.4995
17.897721330097664 67.2173
17.920260154126645 69.3591
17.942799677153296 72.3593
17.9655159983646 76.3088
17.988056927677544 81.73899999999999
18.010598558807683 90.1212
18.033140892692916 101.14299999999999
18.05586005052525 113.584
18.07840379824407 125.59100000000001
18.10094825154059 134.607
18.12366954819864 139.836
18.146215420998306 136.18200000000002
18.16876200220057 125.069
18.191309292745153 109.916
18.214033452627167 95.9217
18.236582170236648 86.6144
18.259131600016456 83.725
18.281681742907335 85.2384
18.304408781233683 90.8268
18.32696035875955 96.8109
18.349512652227624 102.15299999999999
18.372065662579683 106.314
18.394795594587553 105.47399999999999
18.41735004715306 99.1142
18.43990521943684 90.5934
18.46246111238171 81.2943
18.485193953325208 73.0966
18.507751296070428 67.2465
18.530309362314178 63.9012
18.552868153000343 62.068999999999996
18.57560391815056 60.9708
18.59816416623245 60.6321
18.620725141597372 60.1462
18.643286845190268 59.8406
18.666025549835414 59.233999999999995
18.688588718427933 58.5596
18.711152618092243 58.4517
18.73389353884365 58.3296
18.75645890921984 58.0842
18.77902501351406 57.6492
18.801591852673102 57.7535
18.824335739722738 57.1425
18.846904057212626 57.0505
18.8694731124168 56.7414
18.89204290628315 56.8978
18.914789774966803 56.6001
18.937361054791623 56.3241
18.959933076131318 56.0196
18.982505839934877 55.9482
19.00525570560582 55.9549
19.027829963004184 55.8134
19.05040496572238 56.0971
19.072980714710468 56.086000000000006
19.095733592739563 56.191
19.11831084296757 56.5052
19.140888842324735 56.6069
19.16346759176222 56.7623
19.18622349753803 57.388000000000005
19.208803755869358 58.2268
19.231384767143577 59.3442
19.253966532312948 61.3903
19.276725481241822 63.488
19.29930876296784 66.2927
19.3218928014549 69.3602
19.34465404436217 72.355
19.36723960516257 74.9554
19.389825925592426 74.8618
19.412413006605938 73.2334
19.43517731967805 69.2849
19.457765930683355 64.836
19.48035530514408 60.7311
19.50294544401556 57.173
19.525712842708348 55.0046
19.54830451925909 54.1243
19.570896963095727 53.1651
19.593490175174704 52.8444
19.616260674962184 52.9202
19.638855432416964 52.7056
19.661450960992624 52.7868
19.68404726164677 52.7189
19.706820878021247 52.534
19.729418731756834 52.6843
19.752017360452857 52.3112
19.77461676506804 52.6441
19.797393513540218 52.6979
19.819994478951667 53.0302
19.84259622316767 53.4435
19.8651987471481 53.8015
19.887978643247177 54.0083
19.91058273574792 54.4699
19.933187610901943 55.2771
19.955969879466828 56.5174
19.97857632894404 58.0552
20.00118356396599 59.8719
20.023791585494575 62.5872
20.046577028914875 65.187
20.069186632506966 67.4855
20.091797025500632 69.0682
20.114408208858933 69.2919
20.137196842715273 68.0781
20.159809615886765 66.2912
20.18242318232135 63.4329
20.20503754298326 61.5872
20.227829382875154 60.9565
20.250445341109344 61.5027
20.27306209647285 62.803000000000004
20.29567964993108 64.0789
20.31847471147704 64.8699
20.34109387027612 65.1885
20.363713830075454 64.1637
20.386334591841646 62.1219
20.409132890679302 59.2182
20.431755265564437 55.9507
20.454378445325528 53.6545
20.477002430930366 51.8771
20.499803982716553 50.7889
20.522429589228004 50.0891
20.54505600449589 49.8685
20.567683229489194 49.6729
20.590488049900088 49.4454
20.61311690359731 49.2425
20.63574656993626 49.027
20.658553853717297 48.7937
20.681185154618298 48.8777
20.703817271080066 48.7094
20.72645020407368 48.3455
20.749260783967177 48.1282
20.771895359337133 48.242
20.794530754161617 48.0873
20.817166969412938 48.0736
20.83998086114876 48.0575
20.86261872660049 47.918
20.885257415405402 47.9614
20.90789692853701 47.8163
20.930714147864748 47.8278
20.953355319030678 47.6777
20.97599731745334 47.8796
20.99864014410749 47.7473
21.021460706796564 47.9403
21.044105199328826 48.1569
21.06675052302631 48.1502
21.089396678865015 48.174
21.112220600704806 48.846000000000004
21.134868430275347 48.9862
21.15751709492456 49.3723
21.180166595629693 49.8165
21.202993892429635 50.1239
21.22564507473034 50.5338
21.24829709602816 50.8666
21.27112693608965 50.5896
21.293780644891275 50.4826
21.316435195634053 49.8181
21.339090589297417 49.082
21.361923832041875 48.4442
21.384580921090404 47.9554
21.407238856007325 47.4897
21.429897637773326 47.5362
21.45273429906592 47.6979
21.475394784108598 47.6292
21.498056118951983 47.4777
21.520718304578022 47.8078
21.543558400304388 47.9555
21.566222297108816 48.2002
21.58888704765135 48.2709
21.61155265291521 48.43600000000001
21.63439619898156 48.7331
21.657063523335786 49.1088
21.67973170537063 49.7257
21.7024007460706 49.943999999999996
21.72524775840385 50.6734
21.747918526116475 51.9138
21.770590155457388 53.262
21.79326264741238 54.9535
21.816113141960237 57.0819
21.838787368860547 59.005
21.861462461341976 61.0096
21.884315579735777 63.0158
21.90699241312273 63.9582
21.92967011506078 64.0565
21.95234868653799 63.108000000000004
21.9752053151131 61.2657
21.997885635446785 59.2277
22.020566828293532 57.6043
22.04324889464272 56.1622
22.066109049404666 55.3004
22.088792872571794 55.3639
22.111477572219204 55.5558
22.1341631493376 55.458
22.157026846313123 55.0151
22.179714188221507 53.9925
22.202402410582668 52.5407
22.22509151438863 51.1708
22.24795876962584 50.0548
22.270649646204486 49.1337
22.293341407213727 48.562
22.316034053646906 48.3973
22.338904883215342 48.3355
22.36159931041458 48.1528
22.38429462602756 48.0035
22.40699083104897 47.7946
22.429865251039757 47.6824
22.452563244831367 47.8697
22.47526213102522 47.8639
22.49813925616515 47.7762
22.520839937143307 47.6376
22.543541513520587 47.8178
22.56624398629403 47.7222
22.589124730075895 47.615
22.611829005656723 47.7886
22.63453418063466 47.882
22.657240256008077 48.1135
22.680124634582935 48.2539
22.70283252079775 48.3145
22.725541310413075 48.5807
22.74825100442868 48.8343
22.771139033969575 49.3638
22.79385054687155 49.5593
22.81656296718292 50.2746
22.83927629590484 51.3299
22.862167992606945 52.4829
22.88488314827121 53.6136
22.907599215359284 54.8215
22.93031619487366 55.9485
22.953211574954405 56.7919
22.975930389478226 57.3534
22.998650119445763 57.2232
23.02137076586092 55.8957
23.044269845560063 54.3955
23.06699233506288 52.6951
23.089715744034912 50.9419
23.112617610931565 49.683
23.135342869061212 48.8168
23.158069049684816 48.1589
23.1807961538087 47.92100000000001
23.20370174880544 48.0667
23.226430710184808 48.0239
23.249160598093425 48.1386
23.271891413539002 48.18600000000001
23.294800752937697 48.113
23.31753343374794 48.355
23.340267045128353 48.2515
23.36300158808808 48.5479
23.38591468821339 48.8491
23.408651104658304 49.2936
23.431388455719986 50.0668
23.454126742409 51.0933
23.4770436196085 52.192
23.499783787914662 53.4783
23.522524894889884 54.7326
23.54526694154616 55.8385
23.56818761219047 57.0903
23.59093154860734 57.2817
23.613676427751283 57.3775
23.636422250635754 56.1094
23.659346731118656 53.9895
23.68209445191868 51.8295
23.704843119509587 49.7365
23.72759273490623 48.1068
23.750521041644767 46.7608
23.77327256312355 46.0031
23.796025035462787 45.7231
23.818956224555475 45.2023
23.841710609113413 45.3114
23.86446594758979 45.0138
23.887222241002014 44.8671
23.910157285144578 44.4047
23.932915498962537 44.4846
23.955674670778713 44.1537
23.978434801611975 44.0078
24.001373717286125 43.9645
24.024135776723917 43.9124
24.046898798245582 43.8107
24.06966278287146 43.6149
24.092605586582614 43.5396
24.115371508023642 43.3902
24.1381383956401 43.2575
24.16090625045381 43.1135
24.183852958731244 43.1309
24.206622758582608 43.1138
24.229393528706886 42.8448
24.252165270127392 42.9004
24.27511589952438 42.7565
24.297889594216997 42.6309
24.32066426328598 42.4852
24.34343990775613 42.4225
24.36639447485003 42.3654
24.38917208083877 42.3834
24.41195066531332 42.4046
24.43490819850244 42.3903
24.457688750692377 42.2916
24.48047028445616 42.3061
24.503252800821233 42.3432
24.526214300784112 42.4242
24.548998793132213 42.3592
24.57178427117417 42.2887
24.59457073593893 42.2838
24.617536219319863 42.2779
24.64032466834748 42.2255
24.663114107195035 42.0192
24.685904536893013 41.705
24.708874020360852 41.7836
24.731666442613744 41.6868
24.754459858818787 41.777
24.777254270007962 41.6796
24.80022777025625 41.5006
24.82302418230472 41.3629
24.845821592443674 41.6056
24.86862000170663 41.5884
24.891597535453727 41.4234
24.914397953892728 41.6067
24.93719937456671 41.6286
24.96000179851076 41.8566
24.98298338249997 41.9277
25.00578782394922 42.0571
25.028593271784167 42.184
25.05157790644186 42.5269
25.07438537804115 42.6272
25.097193859145293 42.8913
25.120003350792075 43.2467
25.142992065061257 43.4475
25.165803588823465 43.8007
25.18861612625217 44.005
25.211429678386736 44.0081
25.234422489079968 44.1729
25.257238081693636 44.1201
25.280054692141732 44.3356
25.3028723214652 44.4014
25.325869245420463 44.351000000000006
25.348688923599397 44.36
25.371509623787006 44.023999999999994
25.394331347025812 43.6718
25.41733240110666 43.1818
25.440156181590016 42.4309
25.46298098826268 41.8609
25.48580682216873 41.4026
25.50881202326435 40.9737
25.53163992281684 40.6175
25.55446885274561 40.4011
25.577298814096377 40.178000000000004
25.600308179121807 40.0965
25.623140214533745 40.1645
25.64597328451537 40.0859
25.66898578564376 39.7967
25.691820936010206 39.7874
25.714657124097695 39.7302
25.737494350954734 39.8482
25.760511045684957 39.6965
25.783350361364224 39.6945
25.806190718969255 39.726
25.82903211955018 39.8536
25.852053024868923 39.8483
25.874896522722523 39.813
25.897741066713106 39.8091
25.920586657892454 40.0411
25.943611790812668 40.2646
25.966459487728237 40.3362
25.989308234998564 40.4413
26.01215803367705 40.7143
26.03518741123814 40.9681
26.05803932412957 41.0749
26.080892291600094 41.0446
26.10374631470478 41.063
26.12677995397268 40.9906
26.14963609978026 40.9292
26.172493304397875 40.5796
26.19535156888223 40.4116
26.218389486949604 40.092
26.241249882640123 39.7007
26.26411134137826 39.6401
26.28715248187403 39.5713
26.31001607820869 39.3427
26.3328807407756 39.2659
26.35574647063438 39.4936
26.37879191991473 39.3504
26.401659795896734 39.414
26.424528742360263 39.62
26.447398760366614 39.7606
26.470448535598294 39.9113
26.49332070826805 40.1526
26.516193955675355 40.3627
26.53906827888316 40.6056
26.562122397260108 40.8577
26.584998883685063 41.2061
26.607876449110325 41.4269
26.63075509460056 41.6226
26.65381357334404 41.7442
26.67669439061878 41.4586
26.699576291163382 41.3304
26.722459276044212 41.2383
26.745522132402975 40.9963
26.768407297649354 40.6544
26.791293550442003 40.2103
26.814180891848974 40.1239
26.837248143099337 39.8103
26.860137673466657 39.7313
26.88302829566349 39.4994
26.90592001075963 39.3807
26.92899167420566 39.0654
26.951885586870763 38.6535
26.974780595655517 38.7055
26.99785558178161 38.4388
27.020752794605112 38.4993
27.043651106772522 38.2885
27.06655051935668 38.2693
27.089629948036183 38.1876
27.112531573292053 37.9862
27.135434302194138 38.0212
27.158338135817015 37.8361
27.181422024430987 37.9702
27.204328079372566 37.7807
27.22723524226965 37.8538
27.250143514198573 37.927
27.273231880156334 37.8549
27.296142382065014 37.7983
27.319053996245536 37.6779
27.341966723775965 37.8541
27.365059584515222 37.914
27.38797455070062 37.8432
27.410890633481237 37.75
27.433807833936918 37.8116
27.456905206923906 37.911
27.47982465472398 37.8814
27.502745223449743 37.912
27.525666914182825 38.0637
27.548768816912457 37.9947
27.571692763693633 37.9297
27.59461783573812 37.824
27.617723149491244 37.5326
27.640650484125285 37.3688
27.66357894728264 37.3907
27.686508540048052 37.3205
27.709618414237887 37.3918
27.732550278321757 37.2035
27.755483275279115 37.1641
27.778417406196485 37.3039
27.801531858397514 37.2559
27.824468269376716 37.1863
27.847405817586786 37.2374
27.870344504116094 37.3753
27.893463551932008 37.5211
27.916404527281053 37.7055
27.93934664422563 37.9256
27.962289903855886 37.8835
27.98541356491974 38.1521
28.00835912214229 38.2091
28.03130582533231 38.4763
28.054253675581805 38.6259
28.077381967556104 38.513000000000005
28.100332124185126 38.4106
28.123283431160893 38.3003
28.146235889577238 38.055
28.169368830154156 38.0019
28.192323603752033 37.7419
28.215279532083304 37.4482
28.238415973016764 37.314
28.261374223145094 37.2502
28.284333631303806 36.9942
28.307294198589954 36.7945
28.330435319167677 36.4832
28.353398217078915 36.2722
28.376362277420153 36.0386
28.39932750129032 35.8088
28.422473319286713 35.7551
28.44544088262495 35.8365
28.468409612800283 35.5686
28.491379510913497 35.4363
28.51453004413313 35.3809
28.53750229057244 35.3539
28.56047570826344 35.2479
28.583450298308804 35.2081
28.606605564586562 35.1183
28.629582511831156 35.1197
28.65256063474956 34.9334
28.675539934446338 35.125
28.698699951647605 34.9415
28.72168161743193 34.8653
28.74466446331978 35.0738
28.767648490417624 34.9449
28.790813276438353 34.8669
28.813799678527303 34.8965
28.836787265157085 34.9176
28.859955641890075 34.9462
28.882945610203045 34.8369
28.905936766392035 34.6993
28.928929111566863 34.7078
28.952102288520145 34.6859
28.975097024308607 34.5147
28.998092952423807 34.3795
29.021090073977508 34.352
29.04426806913204 34.1911
29.067267590245258 34.0259
29.090268308143695 33.9832
29.11327022394099 33.9967
29.13645305530891 33.9083
29.159457379627167 33.841
29.18246290519685 33.7791
29.20546963313352 33.8295
29.22865731875826 33.7631
29.25166646419296 33.7626
29.27467681535305 33.5537
29.29768837335608 33.713
29.320880931312562 33.7344
29.34389491580634 33.6752
29.366910110507334 33.6711
29.38992651653503 33.7627
29.41312396492981 33.7035
29.436142806456754 33.4528
29.45916286268059 33.4836
29.48236399319994 33.356
29.50538649169417 33.2311
29.528410208259935 33.1683
29.55143514402014 32.9115
29.574641196749695 32.8722
29.597668583816574 32.7862
29.6206971934585 32.5491
29.64372702680042 32.6876
29.666938019934474 32.5866
29.689970313635285 32.4408
29.713003834422636 32.5048
29.73603858342347 32.355
29.759254535188578 32.2951
29.78229175361658 32.251999999999995
29.80533020365064 32.3598
29.82836988641968 32.417
29.85159081507472 32.2346
29.874632976355343 32.168
29.89767637376955 32.1629
29.920721008448314 31.9866
29.9439469322847 31.9508
29.96699405457564 31.9796
29.9900424175358 32.1205
30.013092022298157 31.9913
30.03632295963995 31.8393
30.059375061131373 31.9602
30.08242840783577 32.0518
30.105483000888153 32.0273
30.128718970092244 31.8834
30.151776069006917 31.9041
30.17483441768648 31.9558
30.198074175317235 31.839000000000002
30.221135036724256 31.8411
30.24419715131772 31.8431
30.267260520236203 31.7501
30.290505341942243 31.796
30.313571232750228 31.8566
30.336638381310948 31.7458
30.35970678876503 31.5874
30.38295669299435 31.579
30.40602763151657 31.5263
30.429099832366074 31.5662
30.452173296685572 31.4857
30.47542830191959 31.5593
30.498504306502497 31.5455
30.521581577995562 31.6425
30.544660117543582 31.6558
30.56792024229725 31.6891
30.59100133132069 31.5659
30.614083691845494 31.6541
30.637167325018545 31.7073
30.660432587840603 31.7842
30.683518779717886 31.6574
30.70660624769615 31.7364
30.729694992924372 31.7764
30.75296541239743 31.5682
30.77605672557558 31.6474
30.799149319462742 31.537
30.8224236211637 31.4268
30.845518789950724 31.2701
30.868615242910597 31.2382
30.891712981195973 31.1014
30.91499247215866 31.0481
30.938092794619365 31.0243
30.96119440587579 30.9545
30.984297307082752 30.8261
31.00758200598383 30.7694
31.030687500658694 30.6876
31.053794288760695 30.6049
31.076902371446767 30.5104
31.100192296997445 30.5778
31.12330298246119 30.5663
31.14641496599209 30.4311
31.169528248749216 30.405
31.19282341969534 30.4318
31.215939314557186 30.4665
31.239056512134788 30.475
31.262175013589378 30.4123
31.28547544871168 30.3606
31.30859657161541 30.3396
31.331719001892175 30.379
31.35484274070538 30.3565
31.378148458819545 30.441
31.401274828443725 30.4224
31.424402510106933 30.3676
31.447712205419993 30.3898
31.470842524931633 30.3649
31.493974159989783 30.2648
31.51710711176168 30.2862
31.54042212308802 30.2741
31.563557722100917 30.1561
31.586694641341655 30.0554
31.609832881979628 30.0589
31.63315322823208 29.9043
31.656294125521327 29.7353
31.679436347728515 29.805
31.70257989602529 29.7124
31.725905596152327 29.6118
31.74905181052835 29.6483
31.772199354521323 29.7062
31.79534822930507 29.6883
31.818679302290967 29.719
31.84183085259981 29.6593
31.864983737233473 29.6066
31.88813795736804 29.6679
31.911474422233013 29.5714
31.934631327356435 29.6405
31.9577895715215 29.6007
31.980949155906522 29.5154
32.004291031706956 29.4694
32.027453310562606 29.3703
32.05061693318573 29.2467
32.07396288236386 29.2967
32.09712920658542 29.2923
32.12029687812702 29.0727
32.14346589817093 29.1207
32.166817291729984 28.9775
32.18998902288583 28.9634
32.21316210610336 28.7568
32.23633654256711 28.7668
32.259693399663725 28.7934
32.282870556771144 28.641
32.30604907069099 28.7341
32.329228942610065 28.6108
32.35259128243769 28.4636
32.375773884550505 28.4633
32.398957848235646 28.4227
32.422143174682176 28.3187
32.445511016471215 28.2474
32.468699082679954 28.3089
32.49188851523011 28.2634
32.51507931531304 28.1578
32.538452678331 28.1486
32.56164622776311 28.0489
32.58484114831493 28.0884
32.60803744118015 28.1108
32.631416344731896 28.0131
32.654615396551876 27.8937
32.67781582427913 27.9831
32.701198898634416 27.8888
32.72440209253756 27.7794
32.747606665947124 27.7657
32.77081262006088 27.7075
32.79420126883317 27.6534
32.81740999876112 27.6606
32.840620112999424 27.5588
32.86383161274818 27.5428
32.88722585534586 27.6018
32.91044014056596 27.5418
32.933655814909734 27.5863
32.95687287957963 27.5678
32.98027273544904 27.4588
33.00349259526636 27.4221
33.026713849030116 27.4494
33.04993649794511 27.4147
33.073341986570746 27.357
33.09656744032826 27.3107
33.11979429286444 27.2786
33.14302254538647 27.3225
33.166433686291185 27.3003
33.18966475336992 27.2814
33.212897224069096 27.1838
33.23613109959831 27.1611
33.259547912343415 27.1153
33.2827846121627 27.0747
33.306022720453775 26.9875
33.32926223842861 26.9168
33.352684742614166 26.9552
33.37592709463173 26.9001
33.399170859982064 26.8445
33.422597648419426 26.679000000000002
33.44584425514446 26.6556
33.46909227885668 26.7223
33.4923417207723 26.432
33.51577423505344 26.5635
33.539026528130385 26.4199
33.56228024307245 26.4271
33.585535381098246 26.2979
33.60897364093058 26.2827
33.63223163992385 26.3003
33.6554910656699 26.2125
33.678751919389796 26.1735
33.702195944520106 26.1384
33.72545966903325 26.1571
33.74872482519663 26.1245
33.771991414233746 26.131
33.79544122444841 26.0135
33.81871069412428 25.961
33.84198160035767 25.8186
33.86525394437455 25.9843
33.88870955949969 25.9249
33.911984794020626 25.8086
33.93526147001624 25.8041
33.958539588715006 25.7945
33.98200102861669 25.7773
34.0052820477047 25.6391
34.02856451319451 25.5876
34.05203033759056 25.5843
34.07531571090147 25.6197
34.09860253431845 25.4845
34.121890809074316 25.4513
34.145362493118924 25.5115
34.16865368561615 25.3781
34.191946333164054 25.3267
34.21524043699793 25.3186
34.23871800066799 25.2871
34.26201503218366 25.1925
34.28531352370466 25.2494
34.30861347646881 25.1167
34.33209693978188 25.1704
34.3553998301885 25.1109
34.378704185565205 24.9803
34.402010007152356 24.9281
34.42549939016683 24.915
34.44880815937748 24.8767
34.472118398533134 24.8527
34.49543010887669 24.8809
34.51892543169198 24.7523
34.54224009966052 24.8134
34.56555624255917 24.7434
34.58887386163339 24.6338
34.61237514439016 24.5239
34.6356957311114 24.5992
34.65901779775809 24.5282
34.68252356662995 24.4934
34.705848608458616 24.4478
34.72917513396849 24.4579
34.75250314440949 24.3465
34.77601490857862 24.2995
34.799345904259795 24.2979
34.82267838863559 24.3206
34.846012362958525 24.1804
34.869530142679984 24.2298
34.89286711232212 24.2141
34.91620557568269 24.1545
34.93954553401677 24.0876
34.9630693495876 24.0951
34.986412313340814 24.0603
35.00975677584668 24.0558
35.033102738362956 24.0273
35.05663261012228 23.9236
35.0799815881786 23.9745
35.10333207003229 23.9072
35.12668405694369 23.9093
35.150220005273056 23.8498
35.17357501786656 23.86
35.19693153931268 23.781
35.220289570874385 23.7474
35.24383161619786 23.7542
35.267192683604904 23.6812
35.290555264930376 23.7291
35.314101899412165 23.6975
35.33746752422433 23.6218
35.36083466676374 23.6814
35.38420332829803 23.593000000000004
35.407756095629054 23.6071
35.43112781085063 23.5998
35.45450104888391 23.5597
35.477875810999194 23.6102
35.50143473172161 23.505
35.52481255774625 23.5638
35.54819191167777 23.4721
35.57157279478914 23.3717
35.595137889488406 23.3636
35.61852184675279 23.2578
35.641907337029984 23.1953
35.665294361595684 23.1893
35.68886565090076 23.1122
35.7122557598848 23.1281
35.73564740699838 23.135
35.759040593519934 23.0514
35.78261809810353 23.0885
35.80601437933051 22.9642
35.829412203814705 22.9067
35.85281157283719 22.8237
35.876395313415884 22.9014
35.8997977874528 22.8339
35.92320180988546 22.805
35.946790244133936 22.682
35.97019737933222 22.6547
35.993606066789866 22.7276
36.01701630779276 22.6607
36.04061101440684 22.6382
36.06402437852291 22.5707
36.08743930005611 22.5608
36.1108557802951 22.3843
36.13445678011326 22.4573
36.15787639383515 22.4439
36.18129757014299 22.4048
36.20472031032821 22.3641
36.22832762423364 22.2446
36.25175350829375 22.2768
36.275180960119776 22.2838
36.298609981005924 22.2933
36.32222362992669 22.2429
36.34565580510207 22.2939
36.36908955323448 22.1495
36.39252487562093 22.026999999999997
36.416144880530226 22.0614
36.43958336764275 22.0701
36.463023432914625 22.0232
36.486465077645676 21.9612
36.51009145956204 22.0811
36.53353627947859 22.0732
36.55698268276811 22.0222
36.58043067073321 21.9904
36.60406345072071 21.7967
36.62751462435344 21.7607
36.65096738658405 21.7471
36.67460498210655 21.6755
36.69806093788647 21.776
36.72151848619297 21.7018
36.744977628333636 21.7432
36.76862165890998 21.5819
36.79208400512205 21.6092
36.81554794910557 21.5988
36.83901349217101 21.5485
36.862663978991606 21.4178
36.88613273667352 21.4256
36.90960309738324 21.465999999999998
36.933075062434064 21.3795
36.95673202673572 21.3503
36.98020721697122 21.2977
37.003684015502365 21.2473
37.027162423645365 21.1692
37.050825886711465 21.2397
37.07430753063053 21.1177
37.09779078812467 21.09
37.121275660513014 21.1296
37.144945643673694 21.0912
37.16843376245278 21.1119
37.19192350009803 21.0399
37.215414857931435 20.9986
37.239091382563885 20.8784
37.262585997426164 20.8683
37.28608223645736 20.8836
37.309763684451696 20.8819
37.33326318851098 20.7776
37.356764320726555 20.7974
37.380267082425526 20.8475
37.40395510942588 20.7686
37.42746114683234 20.6401
37.45096881771841 20.6549
37.474478123414166 20.6364
37.49817275092816 20.5851
37.52168534303452 20.5968
37.54519957395567 20.496
37.568715445024665 20.4724
37.592416694607714 20.4244
37.61593586281424 20.4551
37.63945667518264 20.4252
37.66297913304891 20.3073
37.68668702630454 20.3398
37.710212792059274 20.2996
37.733740207334854 20.2836
37.757269273470364 20.2105
37.780983832050374 20.1688
37.80451621684926 20.1299
37.82805025654007 20.1224
37.851585952464795 20.0935
37.8753071980695 20.0442
37.89884622345676 19.9952
37.92238690911902 20.0313
37.94611318753442 19.9325
37.969657210779765 19.9525
37.99320289834801 19.9049
38.016750251586465 19.8664
38.04048325513017 19.8454
38.06403395679343 19.7699
38.087586328183946 19.7154
38.11114037065203 19.7855
38.13488012115898 19.7669
38.1584375229181 19.7187
38.181996599821 19.6566
38.205557353221124 19.6367
38.229303872575656 19.6066
38.2528679961576 19.5742
38.27643380031219 19.4937
38.30000128639589 19.4964
38.32375459653193 19.4925
38.34732546371299 19.5074
38.37089801690786 19.4396
38.39447225747609 19.3823
38.418232380377425 19.3818
38.441810012983396 19.2986
38.46538933705673 19.2879
38.488970353960084 19.2413
38.51273731166058 19.2089
38.536321731567014 19.1846
38.55990784840681 19.1283
38.58367995004091 19.1479
38.60726947812959 19.0641
38.63086070726198 19.0214
38.654453638806274 19.1225
38.678232613930824 19.0592
38.70182896773327 18.9191
38.72542702806741 18.9018
38.7490267963045 18.8312
38.77281266709232 18.8507
38.79641586862214 18.8475
38.8200207821842 18.7898
38.843627409152944 18.8041
38.86742019782782 18.7609
38.891030269149255 18.6612
38.914642058016156 18.7066
38.938255565806124 18.7269
38.96205529464307 18.6804
38.98567225787121 18.6182
39.00929094417078 18.6038
39.03291135492255 18.6117
39.05671804624804 18.5915
39.080341923549106 18.5203
39.103967529460334 18.5505
39.127594865365744 18.3858
39.15140854155791 18.4
39.17503935514948 18.3905
39.19867190290282 18.3493
39.22249083587951 18.305999999999997
39.24612686969409 18.3083
39.269764641845306 18.2313
39.293404153722804 18.2213
39.317230110864074 18.2143
39.34087311998506 18.1314
39.36451787301696 18.2466
39.388164371352595 18.1232
39.41199737518003 18.0803
39.43564738196752 18.0462
39.45929913825317 18.0101
39.48295264543308 18.0125
39.506792718520884 17.9366
39.530449745387216 17.8889
39.55410852735203 17.9429
39.57776906581474 17.9124
39.60161623079 17.8559
39.625280300200025 17.8677
39.64894613032202 17.7865
39.67261372255866 17.83
39.6964680021016 17.8142
39.72013913657293 17.747
39.74381203738292 17.7736
39.76748670593756 17.7016
39.79134812278169 17.6574
39.81502634488497 17.6665
39.83870633896685 17.5613
39.862388106436654 17.5565
39.88625668336918 17.575
39.90994201572829 17.6006
39.933629125719285 17.4846
39.957503091207826 17.4557
39.9811937746168 17.4634
40.00488623990914 17.385
40.02858048850006 17.3126
40.05246165409549 17.3575
40.076159487492085 17.2893
40.099859108448875 17.3363
40.123560518384345 17.2469
40.1474489070226 17.2629
40.171153913178564 17.2285
40.194860712584955 17.1797
40.2185693066637 17.2004
40.242464941335314 17.1137
40.26617714307655 17.0808
40.289891143772046 17.0668
40.3136069448471 17.0532
40.33750984859743 16.9587
40.3612292688043 16.913
40.3849504936829 16.9019
40.40867352466194 16.9411
40.43258372059144 16.8701
40.45631038219906 16.8737
40.48003885420956 16.7983
40.503769138055105 16.8153
40.52768664931955 16.7591
40.55142057531802 16.7967
40.57515631746428 16.715
40.599079334038514 16.7353
40.62281872700477 16.6509
40.64655994043941 16.6404
40.67030297578061 16.6543
40.69423334835778 16.6248
40.71798004609188 16.5513
40.74172857006355 16.5922
40.76547892171441 16.5239
40.7894166736039 16.5234
40.813170699248566 16.4413
40.83692655691388 16.4703
40.86068424804498 16.4291
40.884629402612525 16.4799
40.908390779366385 16.4318
40.932153993938 16.3589
40.95591904777605 16.3511
40.979871628443995 16.3266
41.003640379561936 16.2888
41.02741097430883 16.261
41.05118341413683 16.3142
41.075143444384416 16.2606
41.098919593177826 16.2257
41.1226975914255 16.1313
41.14647744058318 16.1278
41.170444943946755 16.0737
41.19422851378379 16.0576
41.218013938914645 16.0397
41.24198706625173 15.9725
41.26577622087193 16.008
41.289567235177785 15.9466
41.31336011063129 15.9468
41.337340752422875 15.9058
41.361137369129835 15.8661
41.38493585138705 15.8633
41.40873620066004 15.8024
41.43272438060107 15.7741
41.45652848292052 15.7633
41.48033445666918 15.7323
41.50414230331616 15.6827
41.528138045159764 15.6417
41.551949656675205 15.6209
41.575763145513235 15.6813
41.59957851314666 15.6706
41.62358184070442 15.5924
41.64740098505737 15.5699
41.6712220126409 15.5099
41.69504492493139 15.4419
41.71905586207357 15.3929
41.74288256296395 15.4328
41.766711153007456 15.3949
41.79054163368412 15.3387
41.814560204340054 15.3745
41.838394485526365 15.3536
41.86223066180303 15.349
41.88625497706819 15.2853
41.910094962812 15.2491
41.93393684811168 15.2155
41.95778063445365 15.2453
41.981812625263366 15.1863
42.00566023303407 15.1534
42.029509746323676 15.1021
42.05336116662236 15.0702
42.077400857069705 15.1185
42.10125611078846 15.0852
42.12511327600405 15.0344
42.14897235421036 15.0035
42.173019768448455 14.9862
42.19688269209613 14.9935
42.22074753323349 14.9967
42.24461429335818 14.9221
42.268669455600495 14.8948
42.292540073217886 14.8652
42.31641261433284 14.8956
42.34028708044675 14.8136
42.36435001496739 14.7946
42.38822835065557 14.8057
42.41210861586426 14.7614
42.4359908120986 14.7765
42.46006154323262 14.7318
42.48394762115317 14.6306
42.507835634632315 14.6638
42.531912233047436 14.6195
42.55580413732265 14.5786
42.579697981698 14.5423
42.60359376768525 14.5492
42.62767820545945 14.5229
42.65157789440821 14.5031
42.67547952952185 14.4885
42.699383112316 14.4589
42.72347541395347 14.3824
42.74738291190531 14.3854
42.771292362102166 14.3777
42.795203766063516 14.302999999999999
42.819303956130405 14.3328
42.843219287476536 14.3274
42.86713657716324 14.2629
42.89105582671383 14.2661
42.91516392983864 14.2727
42.939087119032166 14.1702
42.963012272677304 14.1993
42.98693939230129 14.1928
43.01105543317513 14.1309
43.034986504731386 14.1314
43.05891954686589 14.0598
43.08285456110972 14.0755
43.10697856448665 14.0166
43.130917542983475 13.9704
43.15485849820081 13.9694
43.17880143167367 13.9398
43.20293342237094 13.9203
43.226880332449 13.8672
43.25082922540554 13.92
43.27496722682525 13.89
43.29892010567796 13.8167
43.32287497204102 13.8227
43.34683182745632 13.7183
43.370977859791836 13.7073
43.39493871351105 13.7572
43.41890156092628 13.7472
43.44286640358341 13.6959
43.46702049182749 13.6416
43.49098934522816 13.604000000000001
43.51496019852649 13.6098
43.5389330532723 13.6174
43.56309522248204 13.5661
43.58707210044314 13.5176
43.61105098451946 13.5103
43.63503187626491 13.5494
43.659202151562134 13.4702
43.68318707902681 13.4392
43.70717401884041 13.4346
43.731162972560874 13.4066
43.75534137913236 13.4528
43.779334381108384 13.367
43.803329401683186 13.3824
43.82732644241872 13.3743
43.8515130055166 13.3124
43.87551410707659 13.2502
43.89951723350145 13.273
43.923709934595614 13.1943
43.94771713129917 13.1977
43.97172635758096 13.1586
43.99573761501002 13.1474
44.0199385169922 13.0893
44.04395385732619 13.0613
44.067971233533086 13.0878
44.09199064718605 13.0479
44.11619977548961 13.0246
44.14022328470671 12.9595
44.16424883610785 13.0484
44.18827643127035 13.0193
44.21249381139513 12.9636
44.236525514814076 12.9581
44.26055926674478 12.9683
44.28459506876863 12.9102
44.3088207262813 12.87
44.33286064928722 12.8219
44.35690262714919 12.8518
44.38094666145278 12.8014
44.4051806219871 12.7927
44.42922879003185 12.7247
44.45327901929361 12.7671
44.477331311362136 12.7276
44.501573600619416 12.683
44.525630039221795 12.6762
44.54968854541895 12.6338
44.573937102200176 12.5661
44.5979997645541 12.5893
44.622064499300315 12.6206
44.64613130803592 12.5631
44.67038823869318 12.5907
44.69445921643748 12.4677
44.718532272981385 12.4793
44.742607409926194 12.4857
44.76687274034801 12.477
44.79095205918753 12.3796
44.81503346325094 12.4093
44.839116954143876 12.3878
44.86339071028742 12.3519
44.88747839599524 12.3223
44.91156817336837 12.35
44.93566004401666 12.3155
44.959942251908146 12.2739
44.984038330325966 12.215
45.00813650686762 12.2247
45.03223678314731 12.2166
45.05652746888232 12.2237
45.08063196592069 12.1434
45.104738567558705 12.1087
45.128847275414856 12.129000000000001
45.15314646515866 12.0399
45.17725940679741 12.0442
45.20137445952892 12.0048
45.22568004865265 12.0521
45.24979934496396 11.9748
45.27392075725247 11.9932
45.29804428714431 11.9884
45.322358426247604 11.9628
45.346486212804315 11.9221
45.370616121861914 11.9264
45.39474815505086 11.9144
45.41907087049246 11.8851
45.4432071734666 11.8442
45.46734560548283 11.8517
45.49148616817604 11.8474
45.51581748638564 11.7991
45.5399623320197 11.7248
45.56410931325473 11.6916
45.58825843173002 11.735999999999999
45.61259837920865 11.7148
45.636751793816 11.698
45.66090735060093 11.6904
45.68506505120716 11.6423
45.7094136545275 11.6138
45.73357566449271 11.557
45.75773982322992 11.5892
45.78190613238733 11.5603
45.806263418194064 11.5224
45.83043404997326 11.5057
45.85460683713677 11.4762
45.87897065658495 11.5024
45.90314777634752 11.4556
45.92732705646868 11.4592
45.9515084986045 11.4299
45.97588104735473 11.3953
46.00006683541565 11.3707
46.02425479047904 11.334000000000001
46.04844491420549 11.3401
46.0728262191024 11.3157
46.09702070211635 11.318
46.12121735879483 11.2916
46.14541619080294 11.2815
46.169806278764455 11.1833
46.194009483459034 11.1899
46.21821486849841 11.1904
46.24242243555223 11.1637
46.266821333570014 11.1462
46.29103328674601 11.125
46.31524742696538 11.1581
46.33946375590237 11.0619
46.36387149104216 11.0832
46.38809221957392 11.0278
46.41231514186606 10.9973
46.436540259597464 11.0289
46.460956858999374 11.0032
46.48518638983522 10.9005
46.509418121166966 10.9305
46.533652054678114 10.9493
46.55807754555709 10.889000000000001
46.58231590571962 10.8993
46.60655647313217 10.8448
46.630988654873654 10.8409
46.655233659129024 10.824000000000002
46.67948087571551 10.7845
46.70373030632484 10.7774
46.72817142736393 10.7741
46.752425308428684 10.7764
46.77668140861147 10.7205
46.80093972960865 10.6585
46.82538981736788 10.6906
46.849652602470904 10.6734
46.87391761349769 10.6418
46.8981848521493 10.6074
46.9226439341274 10.6086
46.946915650573224 10.540999999999999
46.97118959976749 10.5796
46.99546578341598 10.5459
47.019933887188216 10.5305
47.04421456235744 10.5428
47.06849747711879 10.4572
47.09278263318286 10.4583
47.11725978640143 10.4379
47.14154944775105 10.4037
47.165841355555656 10.4179
47.1901355115306 10.3508
47.214621741924994 10.3703
47.23892041698887 10.3413
47.26322134538975 10.3204
47.28771440635075 10.2808
47.31201986422527 10.2921
47.33632758061436 10.267000000000001
47.360637557241866 10.2304
47.38513974410611 10.2423
47.40945426407847 10.1952
47.43377104948137 10.198
47.45809010204344 10.1908
47.48260144275502 10.1753
47.506925052572285 10.1435
47.53125093475548 10.0956
47.55557909103813 10.0902
47.58009961361992 10.0927
47.60443234110732 10.0457
47.62876734791564 10.0254
47.65310463578333 10.0397
47.6776343683373 10.0151
47.7019762413987 9.994580000000001
47.72632040075572 9.938310000000001
47.75066684815169 9.95698
47.77520581885936 9.94248
47.799556865477655 9.90762
47.823910205386 9.9034
47.84826584033272 9.893139999999999
47.87281407745551 9.86378
47.89717432569297 9.85351
47.92153687423484 9.83591
47.94609208429692 9.805530000000001
47.97045925671401 9.7943
47.99482873471275 9.76728
48.01920052005013 9.74447
48.04376504619224 9.74792
48.068141469543484 9.75883
48.09252020552573 9.69026
48.11690125590099 9.695310000000001
48.1414751266064 9.67159
48.16586082917454 9.63016
48.19024885144316 9.61922
48.2146391951793 9.62167
48.239222439012764 9.63181
48.26361744916137 9.578660000000001
48.28801478610016 9.55407
48.31241445160131 9.558060000000001
48.337007097209366 9.55072
48.36141144338331 9.52594
48.38581812345755 9.51825
48.41022713920929 9.49885
48.434829215320704 9.507489999999999
48.45924292604658 9.5181
48.48365897780325 9.46531
48.50807737237308 9.42114
48.532688907799276 9.398660000000001
48.55711201168574 9.34732
48.581537463754074 9.379439999999999
48.60615611725119 9.3908
48.63058628942721 9.37883
48.65501881516546 9.31528
48.6794536962573 9.27655
48.70408185970339 9.276860000000001
48.72852147531801 9.25274
48.75296345168211 9.21775
48.77740779059232 9.25752
48.80204549302823 9.24536
48.82649458091802 9.21331
48.85094603676547 9.16767
48.87539986237231 9.14032
48.90004713292306 9.10693
48.92450572200832 9.11357
48.94896668628025 9.12704
48.97343002754588 9.116810000000001
48.99808689542115 9.07493
49.02255501470614 9.06221
49.04702551642794 9.02385
49.0714984023988 9.02041
49.096164896893235 8.98506
49.120642575466796 8.95138
49.145122643748394 8.98145
49.16960510355558 8.944139999999999
49.19428125404938 8.90729
49.2187685210852 8.93276
49.243258185121555 8.92268
49.26794160167084 8.901860000000001
49.2924360839405 8.8563
49.31693296869764 8.8074
49.34143225776915 8.80182
49.36612538195438 8.803939999999999
49.39062950396021 8.84125
49.41513603578346 8.80664
49.4396449792564 8.810030000000001
49.46434784069503 8.725769999999999
49.488861631846454 8.71653
49.513377840166804 8.73391
49.537896467493745 8.71599
49.56260909589029 8.67815
49.587132585683285 8.66897
49.611658500018365 8.6597
49.636186840738596 8.64028
49.66090926588511 8.62628
49.685442483902584 8.620560000000001
49.70997813385706 8.58601
49.734516217597076 8.57307
49.75924846937352 8.52794
49.7837914452858 8.53117
49.80833686055187 8.51688
49.83288471702571 8.48648
49.85762682540054 8.51518
49.882179588965734 8.46752
49.9067347993235 8.43043
49.93129245833333 8.42689
49.95604445336378 8.38654
49.98060703442832 8.36912
50.005172069746266 8.333839999999999
50.02993150438364 8.34713
50.05450147301533 8.348519999999999
50.07907390151433 8.35255
50.10364879174981 8.27523
50.12841816587289 8.29106
50.1529980044635 8.27557
50.17758031042124 8.24145
50.20216508562089 8.24308
50.22694442953363 8.246319999999999
50.25153416817468 8.20298
50.27612638170508 8.20265
50.300721072005196 8.20176
50.325510416102105 8.15722
50.350110084975064 8.15132
50.37471223628208 8.121789999999999
50.39931687190919 8.134739999999999
50.424116246675766 8.11514
50.44872587605249 8.102139999999999
50.47333799543065 8.07415
50.49795260670191 8.07981
50.52276204271512 8.03422
50.54738166295838 8.041210000000001
50.57200378079314 8.02588
50.596628398116835 8.02339
50.62144792604559 7.983289999999999
50.646077567609396 7.94406
50.670709714377715 7.947760000000001
50.69553683636198 7.93257
50.72017401885922 7.90102
50.7448137122895 7.929060000000001
50.76945591856022 7.88972
50.79429318636823 7.88523
50.818940443716784 7.87029
50.84359021965163 7.84745
50.868242516085964 7.85723
50.893089960641895 7.777419999999999
50.917747323549435 7.75802
50.94240721271973 7.8085
50.96706963007175 7.766310000000001
50.99192728239342 7.76518
51.01659478166073 7.75395
51.04126481489051 7.75052
51.06593738400761 7.72841
51.090805275207074 7.709289999999999
51.11548294172845 7.68593
51.14016314993547 7.665960000000001
51.164845901758845 7.634469999999999
51.18972406304274 7.6048
51.21441192780656 7.63306
51.23910234200271 7.640969999999999
51.2637953075678 7.59161
51.288683770237945 7.59006
51.31338186432707 7.534510000000001
51.33808251561888 7.53224
51.362978729967345 7.51975
51.387684521509755 7.50898
51.41239287610203 7.48406
51.437103795691165 7.445469999999999
51.46201036644977 7.4416199999999995
51.486726441956634 7.42945
51.51144508832545 7.4331
51.536166307509156 7.4611
51.56108326624387 7.43611
51.58580965706056 7.416339999999999
51.61053862657523 7.371980000000001
51.635270176746864 7.35186
51.66019755512065 7.32137
51.68493429268881 7.317589999999999
51.70967361681515 7.3236300000000005
51.73441552946465 7.28768
51.759353359237934 7.29385
51.7841004750961 7.29196
51.80885018539685 7.267919999999999
51.833602492111254 7.225169999999999
51.8585508051424 7.206810000000001
51.883308330926425 7.221019999999999
51.90806845906181 7.184989999999999
51.932831191525715 7.181189999999999
51.95779001977161 7.178889999999999
51.98255798721516 7.144889999999999
52.00732856494335 7.125360000000001
52.03229530577543 7.13045
52.057071130455945 7.075939999999999
52.081849571391054 7.06964
52.106630630568695 7.083639999999999
52.13160794279417 7.025919999999999
52.15639426492067 7.041239999999999
52.18118321127822 7.04666
52.205974783860896 7.03083
52.23096269971011 7.049460000000001
52.255759551287994 6.966
52.280559035098186 6.94769
52.30536115314103 6.97245
52.33035970494467 6.95925
52.35516711807904 6.95282
52.37997717147198 6.89813
52.40478986713005 6.91633
52.42979908731974 6.8826
52.454617094216 6.877330000000001
52.47943774942214 6.85583
52.50426105495102 6.865
52.529280976059844 6.86678
52.554109609024096 6.864089999999999
52.57894089837482 6.8101899999999995
52.60377484613117 6.78097
52.62880550079408 6.76293
52.65364479223379 6.77151
52.67848674816189 6.766039999999999
52.70352547971946 6.740660000000001
52.72837279155837 6.71806
52.753222773982785 6.70175
52.778075429022984 6.69716
52.80312495150885 6.689310000000001
52.827982978797436 6.69278
52.85284368481815 6.641380000000001
52.87770707160767 6.61999
52.90276741793998 6.59563
52.92763619336701 6.625369999999999
52.952507655698504 6.599989999999999
52.977381806977576 6.56385
53.00245301017842 6.57768
53.02733256653592 6.559480000000001
53.052214817996074 6.52281
53.077099766608484 6.53426
53.102181859804446 6.52634
53.127072229988265 6.49434
53.15196530349892 6.479019999999999
53.17686108239249 6.471480000000001
53.20195409881522 6.47243
53.22685531582556 6.45868
53.25175924441303 6.413530000000001
53.27666588664027 6.39885
53.30176985962693 6.3497900000000005
53.3266819565689 6.36142
53.35159677336455 6.3872
53.376514312083096 6.3803
53.40162927507703 6.34968
53.42655228516116 6.32905
53.45147802340193 6.3227400000000005
53.47660125628886 6.30135
53.50153247842639 6.31455
53.52646643496923 6.26649
53.55140312799818 6.28691
53.576537409691696 6.26847
53.60147960336152 6.22225
53.626424539786164 6.24202
53.65137222105307 6.1784
53.67651758529126 6.18869
53.70147078399681 6.17314
53.72642673383343 6.17457
53.75138543689533 6.15019
53.776541917524526 6.12717
53.801506154876755 6.13026
53.826473151763246 6.09765
53.851442910284916 6.06056
53.87661054126026 6.1178300000000005
53.9015858509782 6.08047
53.92656392866066 6.0433699999999995
53.95154477641532 6.030819999999999
53.976723591801296 6.03897
54.00171000771266 5.98418
54.02669920004598 6.02227
54.051691170915745 6.00761
54.076881204886796 5.99929
54.101878760928514 5.98045
54.12687910187696 5.9488900000000005
54.152077577768296 5.97384
54.1770835166946 5.92595
54.20209224691339 5.91424
54.22710377055121 5.87934
54.25231352511594 5.890280000000001
54.27733066384342 5.87993
54.30235060239643 5.89059
54.32737334290836 5.84258
54.35259441062629 5.81986
54.377622783395324 5.826919999999999
54.40265396455061 5.817069999999999
54.42768795623251 5.76979
54.45292037169559 5.82009
54.477960012857906 5.7648
54.50300247099511 5.68194
54.52804774825457 5.69602
54.55329154616743 5.6940599999999995
54.57834249018678 5.67709
54.6033962597977 5.68609
54.6284528571545 5.61503
54.653708072335164 5.616680000000001
54.67877035378786 5.57897
54.70383546947698 5.560169999999999
54.72890342156389 5.568169999999999
54.7541700889442 5.50261
54.77924374251975 5.49106
54.8043202390049 5.493519999999999
54.82959552413022 5.4839400000000005
54.8546777351945 5.4676800000000005
54.87976279569621 5.4204099999999995
54.90485070780914 5.43159
54.930137506558005 5.32784
54.95523115074295 5.39631
54.98032765308844 5.3583
55.005427015775496 5.36828
55.03072536339621 5.371180000000001
55.05583047570572 5.27803
55.080938454927676 5.26558
55.10604930325027 5.25933
55.131359235107396 5.26794
55.15647585066083 5.21014
55.181595341907496 5.24224
55.20671771104285 5.13589
55.232039262617704 5.15881
55.25716741665048 5.17208
55.28229845518636 5.17812
55.30743238042802 5.09165
55.33276558731939 5.092169999999999
55.357905315183636 5.05903
55.383047936390035 5.03587
55.40819345314859 4.98988
55.433538351073295 4.96744
55.458689688238415 4.96645
55.483843927614096 4.90756
55.509197623043605 4.95235
55.53435769621134 4.90471
55.55952067826466 4.8947199999999995
55.5846865714265 4.80905
55.61005202069737 4.8469
55.63522376553902 4.83082
55.66039842818645 4.74325
55.68557601087004 4.77447
55.7109532500271 4.78196
55.73613670233794 4.78166
