TT I
1.2716486653135266 8.17492
1.2939594142134223 7.4097100000000005
1.3162702121660406 7.211139999999999
1.3385810600174564 7.39135
1.3608919586137629 6.966189999999999
1.383202908801069 7.119389999999999
1.405513911425503 6.62815
1.4278249673332093 6.656460000000001
1.4501343378461518 6.790089999999999
1.4724455028545926 6.165430000000001
1.4947567236847858 6.3485
1.517068001182951 6.0489
1.5393793361953272 5.93612
1.5616907295681737 5.5289
1.5840021821477681 5.97296
1.60631369478041 6.290019999999999
1.6286252683124185 5.74371
1.6509369035901333 4.815580000000001
1.6732468618895553 5.30989
1.695558623192809 5.46261
1.7178704487808514 5.26711
1.7401823395001077 5.55504
1.7625012545597203 5.293419999999999
1.7848028405262486 4.9964900000000005
1.8071218901122095 5.38359
1.8294236121921872 5.31001
1.8517427996910911 5.20329
1.8740620574440425 5.03579
1.8963639900671978 4.83076
1.9186833908139995 5.03835
1.9409854680117449 5.707000000000001
1.9633050151394713 4.84031
1.9856246367570705 4.7874300000000005
2.0079269371922672 5.494190000000001
2.03024671027244 4.899719999999999
2.0525491637446027 4.8123
2.074869091674931 4.74602
2.097171701569106 4.59868
2.1194917877373847 4.78268
2.141811954326636 4.84582
2.164114805233074 4.5716
2.186435135143035 4.98891
2.208738150935709 4.30309
2.231058647554722 4.14495
2.2533792288321184 4.39918
2.275682498336085 4.57251
2.298003251406138 4.37625
2.3203066942619714 4.8484
2.3426276225136022 4.4642800000000005
2.3649486396617507 3.9676400000000003
2.387252348930071 4.13887
2.4095735463442893 4.27151
2.4318774374315884 3.9990300000000003
2.4541988185014043 4.14893
2.476502894794693 4.4137
2.498824462909887 4.66535
2.521146125856138 4.01696
2.5434504863470337 4.85752
2.5657723414244717 5.17459
2.588076895590662 5.55635
2.610398946189713 4.639130000000001
2.6327210958598384 4.2735
2.6550259469304716 4.946680000000001
2.6773482972090137 5.18561
2.6996533504259 5.43925
2.7219759047039602 5.836130000000001
2.744298562293959 5.98576
2.7666039251246595 5.8814
2.7889267918020164 6.711
2.8112323652516555 6.9045
2.833555444408179 7.30273
2.8558786311183852 6.49835
2.8781845268938557 7.378710000000001
2.9005079311721484 8.36307
2.9228140460410397 8.93623
2.9451376712799635 8.38655
2.967444008632326 8.97049
2.9897678582247247 9.381910000000001
3.0120918213106695 10.286
3.0343984987899373 10.5069
3.0567226913198637 11.155999999999999
3.079029599759726 12.0824
3.101354025127254 12.3169
3.123678568232338 12.7964
3.145985829517914 13.1628
3.16831061055229 13.9747
3.1906181112775593 14.0606
3.212943133635653 14.3673
3.2352682779763207 14.9745
3.2575761442691227 15.2768
3.2799015350264273 15.5912
3.302209649240067 16.0576
3.3245352898092655 16.4702
3.3468436553365257 17.1511
3.369169549113219 17.644000000000002
3.3914955708171384 18.039
3.413804319727358 18.3473
3.4361305997334863 18.3493
3.4584396084414553 19.2773
3.4807661501462652 19.851
3.503092824025881 20.7849
3.5254022288463154 20.4571
3.5477291695206588 20.8856
3.5700388426251948 20.8944
3.5923660534916446 21.3472
3.6146934007816114 22.017
3.637003482731501 22.4593
3.6593311053109985 23.1267
3.681641464033634 23.1404
3.7039693653009733 23.4767
3.726297407241705 24.4761
3.7486081875460804 24.3579
3.7709365132734978 24.8624
3.793247578841633 25.5825
3.8155761917550093 26.1837
3.8378875459837216 26.0528
3.8602164494827234 26.6184
3.882545499606844 26.9688
3.9048572932539183 27.7822
3.9271866390645718 28.0884
3.9494987298666713 28.6012
3.971828374764527 29.0151
3.9941581705403255 29.3553
4.016470713506008 29.9945
4.038800813471445 30.7099
4.061113662089144 30.9007
4.0834440696459176 31.586
4.105774632334751 31.8738
4.128087945865126 32.6968
4.150418821249301 33.3482
4.172732448931298 33.7538
4.195063640413578 34.6209
4.2173775856475215 35.3229
4.239709096631102 35.7489
4.262040768704612 36.1331
4.284355196706267 36.7728
4.306687193387355 37.681
4.329001947444346 38.8359
4.35133427213731 39.3694
4.373666762177566 40.5494
4.395982011761091 41.2086
4.418314834921175 41.3413
4.44063041906622 42.8071
4.4629635787515625 43.3426
4.4852969080429785 44.4557
4.5076130004776225 45.8936
4.529946671403969 47.0525
4.552263106909177 47.701
4.574597122877047 49.1817
4.596931312711224 50.2339
4.619248269273446 51.4663
4.6415828092605835 52.4739
4.663900117405352 53.6039
4.686235010953232 55.0009
4.708552674085913 56.6377
4.730887924602802 57.7269
4.753223354952695 58.8867
4.775541557023902 60.6787
4.797877349456786 62.5401
4.820195915032126 64.3668
4.842532072957498 65.5398
4.864868414979744 67.8528
4.88718753227192 70.7528
4.909524244902505 73.1163
4.931843734218147 74.7857
4.954180820867835 78.4838
4.976518095879839 81.9902
4.998838149695359 85.5321
5.021175803844231 90.5912
5.043496238205739 95.0173
5.065834274903528 101.295
5.088172504230693 108.279
5.1104935158799565 117.083
5.132832132875765 131.761
5.155153533596801 155.06
5.1774925416746225 211.243
5.199814334878411 556.387
5.2221537374521505 1955.9
5.244493338631803 3768.71
5.266815727034316 5321.58
5.289155727832427 8125.91
5.311478517248165 9552.58
5.333818921080011 6385.91
5.356159527788849 2003.19
5.3784829252032536 461.63599999999997
5.400823940070432 214.69
5.423147747031976 164.185
5.445489173474152 140.861
5.467830807066149 127.771
5.490155234831516 119.77799999999999
5.512497285125229 113.729
5.534822130975162 110.911
5.557164601388673 107.32799999999999
5.579489868738879 103.756
5.601832762690846 101.625
5.6241758697774475 99.9196
5.646501775867269 98.7595
5.668845311622074 98.0967
5.691171647754637 97.44
5.713515615597765 95.965
5.735859800852677 95.1489
5.758186788542988 94.5426
5.780531411018185 95.0556
5.802858837297399 94.5639
5.825203900414495 95.2608
5.8475491852224 96.6165
5.869877275883075 98.3557
5.892223006467101 101.333
5.914551544266608 105.493
5.936897724049891 112.35799999999999
5.959244129804903 124.7
5.981573344815301 155.91299999999998
6.0039202049061 290.642
6.026249875609095 754.742
6.04859719346037 1382.37
6.070927323278297 1902.64
6.093275102315365 2665.86
6.115623113320588 3762.8
6.137953938319995 4064.68
6.160302415650845 2283.81
6.182633708324452 729.2860000000001
6.2049826554078376 222.727
6.227331838745022 123.959
6.249663839443684 99.9437
6.27201349767565 89.3896
6.294345974611799 83.1369
6.316696111167083 77.8209
6.339046488263839 75.3452
6.361379686074702 72.3728
6.383730546639482 70.2745
6.406064229255215 68.2878
6.428415576718203 67.7266
6.450749747566656 66.1747
6.47310158535871 64.7297
6.495453669698332 63.8854
6.517788579421056 63.3649
6.540141159237969 62.0954
6.562476565766648 61.0311
6.5848296444934045 60.5329
6.607182974060425 60.1966
6.6295191323281015 59.5859
6.651872965955752 59.1214
6.6742096296068985 58.06399999999999
6.6965639707294615 57.7621
6.71891856698715 57.3445
6.741255995248479 57.103
6.763611104154477 56.3553
6.785949046381137 56.1128
6.808304671371482 55.596000000000004
6.8306605557940046 55.4135
6.852999275508618 54.8306
6.875355681171544 54.5371
6.897694923437771 54.4604
6.92005185377892 54.0037
6.9423916220322655 53.8166
6.964749080490181 53.24
6.987106804399774 53.2625
7.009447368180821 53.1073
7.031805625367033 52.6951
7.054146723727803 52.8615
7.076505517631004 52.2598
7.098864581288365 52.4446
7.121206488070854 51.955
7.143566093607822 51.7616
7.165908543567245 52.2191
7.188268694426048 51.727
7.2106291193438095 51.8537
7.232972390625943 51.8055
7.255333366030969 51.7314
7.277677189091925 51.5091
7.300038718428332 51.6514
7.322400526130865 51.5792
7.344745183422596 51.9386
7.367107550224791 51.6135
7.389452767901992 51.8863
7.411815697249891 52.0232
7.434161478756298 51.9719
7.456524974096713 51.6174
7.478888753837185 51.8738
7.501235387657368 52.54
7.523599738562711 55.9407
7.545946944825532 62.2284
7.568311870344528 64.1019
7.5906770845765665 59.5468
7.613025156078678 55.3286
7.635390950099687 53.7158
7.657739602662809 53.1442
7.680105979923558 53.176
7.702472650212829 54.0155
7.724822180948224 53.6655
7.747189439655568 54.0712
7.769539560075357 54.1481
7.791907410653562 55.0354
7.81425812420825 54.7823
7.836626570110925 55.0782
7.858995315087906 55.8743
7.881346924933401 56.0174
7.903716270417482 56.3973
7.926068482028405 56.6161
7.948438431475253 57.5613
7.9708086843180235 58.284
7.993161805171116 58.4304
8.015532667162402 58.9439
8.037886398416653 59.9674
8.060257873014221 60.2633
8.082629655331942 60.8668
8.104984308787587 61.7408
8.127356708900503 62.6822
8.149711981398308 63.461999999999996
8.172085002766314 64.2951
8.194458336181368 65.4148
8.216814543847752 65.9299
8.23918850371002 67.7533
8.26154533906492 68.7586
8.283919928836452 70.8781
8.306277395339652 71.7094
8.328652618483376 73.2608
8.351028159736202 75.33800000000001
8.373386579575245 77.9025
8.395762759396959 80.0925
8.418121819038275 83.2251
8.440498640894003 87.7741
8.462875785192262 95.059
8.485235811156207 110.494
8.507613602688501 172.93599999999998
8.529974277114228 369.04699999999997
8.552352719347912 603.451
8.574731488360351 769.46
8.59709314210385 873.778
8.619472567021075 1074.59
8.64183487789147 1458.31
8.664214962183097 1832.21
8.686577933647762 1646.45
8.708958680784317 967.8660000000001
8.731339760774953 420.599
8.753703729764451 176.007
8.77608547780821 116.214
8.798450116065078 103.833
8.820832535634787 96.9483
8.843215292401656 93.6734
8.865580941199045 90.3669
8.887964374703538 88.9782
8.910330701447199 87.3667
8.932714815164482 86.1866
8.955099270424924 84.7866
8.977466620733543 84.0904
8.999851761421976 83.4939
9.022219798361645 82.62700000000001
9.04460562795561 82.6263
9.066991803441677 82.2644
9.089360876979615 81.7898
9.111747746589993 81.4419
9.13411751544971 81.0562
9.156505082664324 80.6866
9.178875550323522 81.2655
9.20126381862328 82.0227
9.223652438908596 86.7436
9.246023961427412 95.9779
9.26841328802173 97.9875
9.290785518039224 92.5305
9.313175554425882 86.8619
9.335565947154315 83.0363
9.357939245086508 81.9362
9.380330352834827 81.7552
9.40270436697103 81.88
9.425096193225055 81.5555
9.447488380180165 82.5213
9.469863475295412 82.6076
9.492256385987508 83.4205
9.514632206018318 83.7528
9.537025843935714 84.2908
9.559402392368193 84.6362
9.581796761000229 85.7006
9.604191496441521 85.9011
9.626569144158516 87.0073
9.648964615551032 87.7443
9.671343000390081 88.8127
9.693739211225699 89.3312
9.716135793237463 90.1259
9.738515290448102 91.02799999999999
9.760912617143402 92.7675
9.783292860202891 93.7237
9.805690935076182 94.7355
9.828089385495742 96.4223
9.850470754023561 98.4236
9.872869957865444 100.744
9.89525208097539 103.559
9.917652041736662 107.521
9.940052382417589 113.527
9.962435644102392 130.007
9.984836746950979 185.87
10.007220771957746 342.49199999999996
10.029622640473708 547.331
10.052007432299963 677.543
10.074410069984072 729.5830000000001
10.096813093716005 810.91
10.119199042482517 1010.21
10.141602840636468 1352.77
10.163989564971628 1638.54
10.186394141051062 1551.77
10.208799107559706 994.919
10.231187001965623 487.767
10.253592751657669 219.435
10.275981430388155 135.183
10.298387966769793 116.38600000000001
10.320794897965431 111.258
10.343184759907361 107.875
10.36559248305461 105.081
10.387983138083852 104.035
10.410391656691655 106.069
10.432800574501677 121.046
10.455192425893369 164.168
10.47760214443012 215.78900000000002
10.499994797678786 247.364
10.522405320453982 259.563
10.54479877906917 279.586
10.567210109595656 325.791
10.5896218454736 402.58
10.612016518879773 491.37
10.634429067781074 495.402
10.656824555333241 385.836
10.679237920773568 235.813
10.701651695961992 136.162
10.724048411481384 100.954
10.746463008485165 90.265
10.768860546937125 86.2707
10.791275969274796 83.384
10.81369180576079 81.8931
10.836090585366925 80.3569
10.858507252467449 78.9655
10.88090686379991 77.9296
10.903324365036394 77.0431
10.925724811614439 75.3516
10.948143150509463 75.06
10.970561909719066 73.9753
10.992963615930844 73.0535
11.015383218085756 72.3467
11.037785768347074 71.7088
11.06020621697282 71.1446
11.082627090322113 70.4449
11.105030913430326 70.0165
11.12745263854165 69.145
11.149857314510728 68.3499
11.172279894912576 68.5678
11.194702904450653 67.2657
11.217108866490921 66.9029
11.239532736615194 66.3051
11.26193956033512 66.2923
11.284364294577085 65.9069
11.306789462371718 65.1797
11.329197585398376 65.0075
11.351623622610898 65.0227
11.37403261614354 64.4418
11.396459526308487 64.4161
11.418869393879497 63.8201
11.441297180532617 63.1837
11.463725406927658 63.1733
11.486136592353875 62.9047
11.508565700543707 62.4193
11.530977768845315 62.3853
11.553407762368774 61.8869
11.575838200059769 61.8869
11.598251599479612 61.8049
11.620682927815501 61.8334
11.64309721895548 62.0352
11.665529441478206 61.4148
11.687962112597958 61.07
11.710377748130886 61.4557
11.732811318753434 61.1273
11.755227854859067 61.107
11.777662328529495 60.9787
11.800079768750786 60.839
11.822515149015453 60.7421
11.844950984084935 61.1861
11.867369787303163 61.0357
11.889806534289491 61.1351
11.912226250487029 62.2408
11.934663912939751 64.093
11.9571020346363 65.7267
11.979523127133968 65.6699
12.001962169624331 65.4968
12.024384183972964 64.8728
12.046824150809913 67.3476
12.069264581333726 77.0072
12.091687985297767 90.17200000000001
12.11412934550045 101.279
12.136553680195208 107.64399999999999
12.158995973632788 111.182
12.181438735204349 116.67299999999999
12.20386447284199 127.587
12.226308172985636 148.122
12.24873485024193 174.208
12.271179492516982 189.57299999999998
12.293607112949127 176.139
12.316052700916226 138.695
12.338498763250042 97.898
12.360927805303868 74.9198
12.383374818673879 66.567
12.405804812803074 63.7105
12.428252780773262 63.4797
12.45070122756722 63.1942
12.473132656675375 62.5648
12.49558206341869 62.7035
12.518014453510101 62.6697
12.540464823770117 62.983999999999995
12.562915677315177 63.0632
12.58534951575545 63.3338
12.607801338171472 63.1045
12.630236146511358 63.2286
12.652688941369085 63.6787
12.675124723177234 64.2932
12.697578494048786 64.8997
12.720032754458185 65.0653
12.742470003354093 65.5005
12.764925245138771 65.7987
12.787363476431278 66.1438
12.809819703166806 66.705
12.83227642391173 67.3625
12.854716135692716 67.8776
12.877173846755147 68.8419
12.899614549869717 69.2975
12.9220732548287 70.3456
12.94453245827299 70.9808
12.966974655289818 72.1716
12.989434858002571 73.0428
13.011878055298721 73.6709
13.034339260862497 74.7103
13.056800969391883 76.3163
13.079245674017244 79.0235
13.101708390774869 80.8497
13.12415410463411 86.3069
13.146617833206086 102.432
13.169064559883248 132.861
13.191529303857127 164.33
13.213994557076367 186.835
13.236442809902437 196.261
13.258909083908291 202.165
13.28135835851934 214.44099999999997
13.30382565690295 241.196
13.326293469022952 285.099
13.348744283242008 344.651
13.371213125129904 389.54400000000004
13.39366497011003 382.153
13.416134845360597 310.087
13.438605238843131 214.351
13.46105863690397 145.842
13.483530069144786 120.35600000000001
13.505984506951902 129.868
13.528456981549432 154.438
13.550929978879088 173.09599999999998
13.573385983253365 182.02200000000002
13.595860028340867 184.06
13.618317081455832 190.032
13.64079217790333 205.579
13.663250283359057 233.554
13.685726434770173 277.01099999999997
13.708203115221277 327.621
13.730662806148091 340.875
13.75314054697177 307.494
13.775601299246777 231.333
13.798080104050406 153.85299999999998
13.820559442405358 106.428
13.843021793671388 88.1672
13.865502201420897 82.3936
13.887965623051947 80.3956
13.910447103807167 78.952
13.932929122629764 77.09
13.955394156785959 76.686
13.977877254034569 75.6923
14.000343367582113 74.8743
14.022827546871707 74.1799
14.045294743423524 73.2889
14.06778000837062 72.6865
14.090265817715476 72.3862
14.112734645763819 72.4397
14.13522154619454 73.3668
14.157691466286913 74.2058
14.180179461423874 73.5833
14.202668005486178 72.6527
14.22513957064374 71.2843
14.247629214846473 70.3014
14.270101881097517 69.5937
14.29259262906496 69.111
14.315083930490205 68.9878
14.337558255389705 68.6529
14.360050666019726 68.5841
14.382526101071944 68.4124
14.405019624534942 68.0667
14.427513705993134 67.7123
14.449990813291825 67.9557
14.47248601302899 67.8579
14.49496423954951 67.9369
14.517460561197822 68.1002
14.539939910570322 67.7247
14.562437357763558 67.8197
14.58493536931253 68.3462
14.607416409993311 68.14699999999999
14.62991555254159 68.6226
14.652397725157423 68.7655
14.674898002342799 69.1431
14.697398848433282 69.3886
14.719882725991326 70.4138
14.74238471217934 71.1083
14.764869730765593 73.7413
14.787372860692983 80.4166
14.809876564079925 93.5898
14.83236330125751 106.89
14.854868153850365 116.22200000000001
14.877356041159485 120.807
14.899862046604186 122.169
14.922351087688757 125.40899999999999
14.944858249632887 132.816
14.967365991421232 145.789
14.989856770231246 164.021
15.012365673994204 189.704
15.03485761569738 207.262
15.05736768508665 204.705
15.07987833888692 178.68099999999998
15.102372032001655 140.472
15.124883856909658 103.31700000000001
15.14737872204565 82.2624
15.169891721717274 73.8016
15.192405310371893 71.1748
15.214901940621196 69.7719
15.237416709527137 68.8348
15.259914520936249 68.1616
15.282430473753607 67.374
15.304947020131227 66.9039
15.327446610371178 66.5872
15.349964346154254 66.1641
15.372465126703139 65.9688
15.394984055556009 65.7879
15.417486030076159 65.8041
15.44000615566487 65.5159
15.462526881230803 65.141
15.485030653812652 65.3912
15.507552581617434 65.1937
15.530057557334603 65.0717
15.55258069104857 65.0518
15.575104429329837 65.4197
15.597611216864632 65.4888
15.620136166564563 65.7457
15.6426441664095 66.1017
15.665170331202765 67.9057
15.687697105158826 73.6283
15.710206930593545 83.6206
15.732734925158933 94.6944
15.755245972089478 102.75399999999999
15.77777519094324 107.189
15.800287463046663 108.45200000000001
15.822817909869592 109.54700000000001
15.84534897229804 113.59200000000001
15.867863089299354 122.08
15.890395385222186 134.50799999999998
15.912910736597423 151.889
15.935444269699861 172.342
15.957978423016485 184.17
15.980495633101265 177.614
16.003031029129367 153.167
16.02554948280019 117.84299999999999
16.048086125229432 88.984
16.070623392487107 73.1515
16.09314371869582 66.0969
16.11568223789321 62.9554
16.13820381691126 61.5032
16.160743591742527 60.8565
16.183283996022084 60.3402
16.205807461423195 59.1308
16.228349126881973 58.6188
16.25087385432698 58.4714
16.27341678466365 57.7469
16.29594277784926 57.3705
16.31848697676433 56.8683
16.341031811604868 56.4
16.36355971058487 56.2448
16.3861058195587 56.0943
16.40863499352978 55.6305
16.431182380342005 55.39
16.453730407713202 55.4034
16.476261501364792 55.1152
16.498810812136167 54.8874
16.52134319004079 55.0732
16.54389378792203 54.6144
16.566445031001553 54.4338
16.588979342490088 54.3686
16.61153187824822 54.4022
16.634067483263312 54.1062
16.656621315414416 54.1732
16.679175797408888 53.7664
16.701713349928728 53.8199
16.72426913389191 53.9797
16.74680798922351 54.0214
16.76936507887444 53.8749
16.791905240734874 53.9281
16.814463639794468 53.8859
16.837022695210294 54.0136
16.859564824093756 53.9045
16.882125194503903 54.0578
16.904668639217885 54.3825
16.927230328348003 54.4593
16.949792678493612 54.7615
16.972338104193863 54.6026
16.994901778652235 54.6924
17.017448529496576 54.9513
17.040013531998152 55.1634
17.06257920018044 55.3875
17.0851279459922 56.4117
17.107694947817667 58.6156
17.130245028099072 60.7723
17.15281336730298 62.687
17.17536478578733 64.1826
17.19793446610687 64.5634
17.220504818648422 64.9102
17.243058251703697 65.0491
17.265629950971032 66.5678
17.288184731571736 68.569
17.310757781306908 71.7232
17.33333150794385 74.6649
17.355888317140174 78.6866
17.37846339986244 81.0081
17.401021565958885 80.2338
17.42359800851343 76.3732
17.44617513265564 70.8834
17.468735341390783 65.3482
17.491261035594565 61.3626
17.51396340099364 59.305
17.536490463869136 58.68
17.559018209820174 58.5041
17.58154663977963 58.7043
17.604251766089718 58.9832
17.626781572227713 59.0897
17.64931206518155 59.0691
17.671843245885103 59.4916
17.69455114821572 59.5462
17.717083712612634 60.0133
17.739616967569667 60.4418
17.762150914021706 61.0923
17.78486160749854 61.1906
17.807396945166804 61.7384
17.829932977143503 62.4454
17.85246970436452 63.6048
17.875183204129467 66.1877
17.897721330097664 71.9172
17.920260154126645 78.1445
17.942799677153296 83.6428
17.9655159983646 86.7337
17.988056927677544 88.1317
18.010598558807683 88.7825
18.033140892692916 90.2469
18.05586005052525 92.6376
18.07840379824407 97.0381
18.10094825154059 103.675
18.12366954819864 113.43
18.146215420998306 126.32
18.16876200220057 139.332
18.191309292745153 144.805
18.214033452627167 142.002
18.236582170236648 128.374
18.259131600016456 110.815
18.281681742907335 96.0897
18.304408781233683 87.696
18.32696035875955 84.9859
18.349512652227624 85.8465
18.372065662579683 89.5078
18.394795594587553 94.0005
18.41735004715306 99.2164
18.43990521943684 102.495
18.46246111238171 101.859
18.485193953325208 95.0055
18.507751296070428 85.5584
18.530309362314178 76.6286
18.552868153000343 69.4365
18.57560391815056 64.9234
18.59816416623245 62.9036
18.620725141597372 61.9666
18.643286845190268 61.1559
18.666025549835414 60.6592
18.688588718427933 59.9776
18.711152618092243 59.5853
18.73389353884365 59.2746
18.75645890921984 59.0985
18.77902501351406 58.5485
18.801591852673102 58.5442
18.824335739722738 57.9468
18.846904057212626 57.9941
18.8694731124168 57.5044
18.89204290628315 57.4968
18.914789774966803 57.2002
18.937361054791623 57.0726
18.959933076131318 56.7853
18.982505839934877 56.6403
19.00525570560582 56.7134
19.027829963004184 56.4712
19.05040496572238 56.5441
19.072980714710468 56.358999999999995
19.095733592739563 56.5673
19.11831084296757 57.0165
19.140888842324735 58.3167
19.16346759176222 59.4061
19.18622349753803 60.5314
19.208803755869358 61.5637
19.231384767143577 61.9327
19.253966532312948 62.2078
19.276725481241822 62.255
19.29930876296784 62.7417
19.3218928014549 63.6517
19.34465404436217 64.6207
19.36723960516257 66.5538
19.389825925592426 68.6585
19.412413006605938 71.2931
19.43517731967805 73.3682
19.457765930683355 73.8931
19.48035530514408 72.29899999999999
19.50294544401556 68.5806
19.525712842708348 63.8215
19.54830451925909 59.6441
19.570896963095727 56.1562
19.593490175174704 54.4655
19.616260674962184 54.0828
19.638855432416964 53.6344
19.661450960992624 53.6921
19.68404726164677 53.3428
19.706820878021247 53.3026
19.729418731756834 53.4513
19.752017360452857 53.2145
19.77461676506804 53.2248
19.797393513540218 53.3291
19.819994478951667 53.5964
19.84259622316767 54.4638
19.8651987471481 55.6482
19.887978643247177 56.6276
19.91058273574792 57.4666
19.933187610901943 57.9064
19.955969879466828 58.4143
19.97857632894404 58.3279
20.00118356396599 58.3946
20.023791585494575 58.9954
20.046577028914875 59.9435
20.069186632506966 61.4962
20.091797025500632 63.9768
20.114408208858933 66.4367
20.137196842715273 69.4827
20.159809615886765 72.1177
20.18242318232135 72.3642
20.20503754298326 70.8562
20.227829382875154 68.1787
20.250445341109344 65.12
20.27306209647285 62.3621
20.29567964993108 60.7034
20.31847471147704 60.3597
20.34109387027612 61.2338
20.363713830075454 62.7152
20.386334591841646 64.2538
20.409132890679302 65.157
20.431755265564437 64.2311
20.454378445325528 61.9549
20.477002430930366 58.9542
20.499803982716553 55.7736
20.522429589228004 53.2211
20.54505600449589 51.6156
20.567683229489194 50.9185
20.590488049900088 50.5281
20.61311690359731 50.1062
20.63574656993626 49.8349
20.658553853717297 49.6235
20.681185154618298 49.571000000000005
20.703817271080066 49.3536
20.72645020407368 49.2567
20.749260783967177 49.1719
20.771895359337133 49.2533
20.794530754161617 49.1355
20.817166969412938 48.9033
20.83998086114876 48.8843
20.86261872660049 48.8089
20.885257415405402 48.8565
20.90789692853701 48.6659
20.930714147864748 48.327
20.953355319030678 48.464
20.97599731745334 48.6754
20.99864014410749 48.6143
21.021460706796564 48.8306
21.044105199328826 49.1232
21.06675052302631 49.2176
21.089396678865015 49.3168
21.112220600704806 49.3665
21.134868430275347 49.3861
21.15751709492456 49.3506
21.180166595629693 49.4729
21.202993892429635 49.5246
21.22564507473034 49.6427
21.24829709602816 50.0351
21.27112693608965 50.4978
21.293780644891275 51.123999999999995
21.316435195634053 51.3116
21.339090589297417 51.2154
21.361923832041875 51.2243
21.384580921090404 50.3733
21.407238856007325 49.508
21.429897637773326 48.9568
21.45273429906592 48.7425
21.475394784108598 48.5493
21.498056118951983 48.4206
21.520718304578022 48.7421
21.543558400304388 48.7761
21.566222297108816 48.8505
21.58888704765135 48.786
21.61155265291521 49.1698
21.63439619898156 50.0745
21.657063523335786 51.0597
21.67973170537063 52.1844
21.7024007460706 52.9768
21.72524775840385 53.5881
21.747918526116475 53.9947
21.770590155457388 53.8984
21.79326264741238 54.1288
21.816113141960237 54.8259
21.838787368860547 55.5165
21.861462461341976 56.641000000000005
21.884315579735777 58.3152
21.90699241312273 59.7255
21.92967011506078 61.6342
21.95234868653799 63.6774
21.9752053151131 65.297
21.997885635446785 65.9141
22.020566828293532 65.4694
22.04324889464272 63.3445
22.066109049404666 60.5809
22.088792872571794 57.9419
22.111477572219204 56.052
22.1341631493376 55.2991
22.157026846313123 55.2203
22.179714188221507 55.5757
22.202402410582668 56.1574
22.22509151438863 55.8377
22.24795876962584 55.1388
22.270649646204486 53.8014
22.293341407213727 52.32899999999999
22.316034053646906 51.0642
22.338904883215342 49.8822
22.36159931041458 49.4057
22.38429462602756 49.0776
22.40699083104897 48.6804
22.429865251039757 48.6258
22.452563244831367 48.6385
22.47526213102522 48.7906
22.49813925616515 48.5785
22.520839937143307 48.5983
22.543541513520587 48.6251
22.56624398629403 48.4557
22.589124730075895 48.516999999999996
22.611829005656723 48.6936
22.63453418063466 48.6891
22.657240256008077 48.8698
22.680124634582935 49.3419
22.70283252079775 50.1926
22.725541310413075 50.6966
22.74825100442868 51.2809
22.771139033969575 51.8188
22.79385054687155 51.8686
22.81656296718292 51.9049
22.83927629590484 51.8739
22.862167992606945 52.041000000000004
22.88488314827121 52.477
22.907599215359284 52.781000000000006
22.93031619487366 53.1962
22.953211574954405 53.7572
22.975930389478226 54.8057
22.998650119445763 55.9509
23.02137076586092 56.9537
23.044269845560063 57.9398
23.06699233506288 58.2209
23.089715744034912 57.4581
23.112617610931565 55.9921
23.135342869061212 54.0833
23.158069049684816 52.1894
23.1807961538087 50.5404
23.20370174880544 49.7524
23.226430710184808 49.3139
23.249160598093425 49.0802
23.271891413539002 49.1274
23.294800752937697 49.3938
23.31753343374794 50.2274
23.340267045128353 50.7171
23.36300158808808 51.41
23.38591468821339 51.7016
23.408651104658304 51.7996
23.431388455719986 51.6342
23.454126742409 51.5404
23.4770436196085 51.7402
23.499783787914662 51.9272
23.522524894889884 52.2016
23.54526694154616 52.4878
23.56818761219047 53.1602
23.59093154860734 54.0911
23.613676427751283 55.4804
23.636422250635754 56.5875
23.659346731118656 57.4863
23.68209445191868 57.8245
23.704843119509587 57.0826
23.72759273490623 55.2656
23.750521041644767 53.2153
23.77327256312355 50.968999999999994
23.796025035462787 48.9495
23.818956224555475 47.6682
23.841710609113413 46.8852
23.86446594758979 46.303000000000004
23.887222241002014 45.8834
23.910157285144578 45.5809
23.932915498962537 45.571000000000005
23.955674670778713 45.3901
23.978434801611975 45.2035
24.001373717286125 45.0216
24.024135776723917 44.9222
24.046898798245582 44.7372
24.06966278287146 44.6642
24.092605586582614 44.3995
24.115371508023642 44.1377
24.1381383956401 44.0538
24.16090625045381 44.0638
24.183852958731244 43.8711
24.206622758582608 43.8072
24.229393528706886 43.5252
24.252165270127392 43.7149
24.27511589952438 43.5893
24.297889594216997 43.4101
24.32066426328598 43.3303
24.34343990775613 43.3685
24.36639447485003 43.4453
24.38917208083877 43.4335
24.41195066531332 43.1255
24.43490819850244 43.1845
24.457688750692377 42.8797
24.48047028445616 42.8604
24.503252800821233 42.8898
24.526214300784112 42.9196
24.548998793132213 42.9012
24.57178427117417 42.7228
24.59457073593893 42.7156
24.617536219319863 42.9742
24.64032466834748 43.0218
24.663114107195035 43.0538
24.685904536893013 42.8459
24.708874020360852 42.7926
24.731666442613744 42.7368
24.754459858818787 42.6514
24.777254270007962 42.5066
24.80022777025625 42.4006
24.82302418230472 42.3333
24.845821592443674 42.4307
24.86862000170663 42.5105
24.891597535453727 42.4295
24.914397953892728 42.5793
24.93719937456671 42.4331
24.96000179851076 42.6651
24.98298338249997 42.7612
25.00578782394922 42.8887
25.028593271784167 42.9433
25.05157790644186 43.2114
25.07438537804115 43.4574
25.097193859145293 43.6176
25.120003350792075 43.8116
25.142992065061257 44.1507
25.165803588823465 44.1015
25.18861612625217 44.2148
25.211429678386736 44.5338
25.234422489079968 44.8232
25.257238081693636 44.8659
25.280054692141732 44.9328
25.3028723214652 44.7781
25.325869245420463 44.6134
25.348688923599397 44.526
25.371509623787006 44.5743
25.394331347025812 44.5915
25.41733240110666 44.7973
25.440156181590016 44.8725
25.46298098826268 44.8162
25.48580682216873 44.3853
25.50881202326435 43.9044
25.53163992281684 43.0916
25.55446885274561 42.407
25.577298814096377 41.6029
25.600308179121807 41.2257
25.623140214533745 41.1195
25.64597328451537 40.9375
25.66898578564376 40.7773
25.691820936010206 40.7265
25.714657124097695 40.6795
25.737494350954734 40.647
25.760511045684957 40.4557
25.783350361364224 40.7553
25.806190718969255 40.8971
25.82903211955018 41.00899999999999
25.852053024868923 41.034
25.874896522722523 41.0851
25.897741066713106 40.8468
25.920586657892454 40.9276
25.943611790812668 40.9415
25.966459487728237 40.9208
25.989308234998564 40.7498
26.01215803367705 40.9498
26.03518741123814 40.971000000000004
26.05803932412957 41.0447
26.080892291600094 41.0771
26.10374631470478 41.2679
26.12677995397268 41.5412
26.14963609978026 41.8932
26.172493304397875 41.7953
26.19535156888223 42.101000000000006
26.218389486949604 41.8434
26.241249882640123 41.5555
26.26411134137826 41.3231
26.28715248187403 41.0804
26.31001607820869 40.8082
26.3328807407756 40.6099
26.35574647063438 40.6924
26.37879191991473 40.6857
26.401659795896734 40.6485
26.424528742360263 40.8735
26.447398760366614 40.7658
26.470448535598294 40.6609
26.49332070826805 40.8497
26.516193955675355 41.0779
26.53906827888316 41.1423
26.562122397260108 41.001999999999995
26.584998883685063 41.2933
26.607876449110325 41.563
26.63075509460056 41.6575
26.65381357334404 41.6545
26.67669439061878 41.9027
26.699576291163382 42.1067
26.722459276044212 42.4693
26.745522132402975 42.5327
26.768407297649354 42.5907
26.791293550442003 42.2048
26.814180891848974 41.9244
26.837248143099337 41.4336
26.860137673466657 41.2284
26.88302829566349 40.8484
26.90592001075963 40.7549
26.92899167420566 40.7554
26.951885586870763 40.2866
26.974780595655517 40.0954
26.99785558178161 39.9921
27.020752794605112 39.6818
27.043651106772522 39.5118
27.06655051935668 39.3165
27.089629948036183 39.0988
27.112531573292053 38.9523
27.135434302194138 39.0687
27.158338135817015 38.8404
27.181422024430987 38.912
27.204328079372566 38.775999999999996
27.22723524226965 38.9755
27.250143514198573 38.9264
27.273231880156334 38.9049
27.296142382065014 38.7249
27.319053996245536 38.5481
27.341966723775965 38.6066
27.365059584515222 38.7077
27.38797455070062 38.723
27.410890633481237 38.5701
27.433807833936918 38.5745
27.456905206923906 38.6734
27.47982465472398 38.533
27.502745223449743 38.5976
27.525666914182825 38.8113
27.548768816912457 38.6115
27.571692763693633 38.5356
27.59461783573812 38.5881
27.617723149491244 38.5892
27.640650484125285 38.5566
27.66357894728264 38.5421
27.686508540048052 38.7503
27.709618414237887 38.588
27.732550278321757 38.4603
27.755483275279115 38.3526
27.778417406196485 38.3221
27.801531858397514 38.3465
27.824468269376716 38.2886
27.847405817586786 38.1413
27.870344504116094 38.289
27.893463551932008 38.2714
27.916404527281053 38.3804
27.93934664422563 38.4606
27.962289903855886 38.4218
27.98541356491974 38.4654
28.00835912214229 38.5636
28.03130582533231 38.7749
28.054253675581805 38.9542
28.077381967556104 38.9542
28.100332124185126 39.0339
28.123283431160893 39.141
28.146235889577238 39.2525
28.169368830154156 39.3094
28.192323603752033 39.2648
28.215279532083304 38.9948
28.238415973016764 38.7431
28.261374223145094 38.433
28.284333631303806 38.1708
28.307294198589954 38.1434
28.330435319167677 37.8913
28.353398217078915 37.8035
28.376362277420153 37.6826
28.39932750129032 37.3488
28.422473319286713 37.1197
28.44544088262495 36.9967
28.468409612800283 36.5978
28.491379510913497 36.3662
28.51453004413313 36.28
28.53750229057244 36.1164
28.56047570826344 35.9653
28.583450298308804 36.0785
28.606605564586562 35.8506
28.629582511831156 35.993
28.65256063474956 35.8604
28.675539934446338 35.9956
28.698699951647605 35.8815
28.72168161743193 35.5797
28.74466446331978 35.5425
28.767648490417624 35.4957
28.790813276438353 35.4956
28.813799678527303 35.4689
28.836787265157085 35.4089
28.859955641890075 35.4583
28.882945610203045 35.4424
28.905936766392035 35.293
28.928929111566863 35.4927
28.952102288520145 35.4173
28.975097024308607 35.3297
28.998092952423807 35.2954
29.021090073977508 35.2838
29.04426806913204 35.1783
29.067267590245258 35.145
29.090268308143695 35.0166
29.11327022394099 34.9445
29.13645305530891 34.8438
29.159457379627167 34.6906
29.18246290519685 34.4964
29.20546963313352 34.4855
29.22865731875826 34.5219
29.25166646419296 34.4878
29.27467681535305 34.2605
29.29768837335608 34.3953
29.320880931312562 34.3462
29.34389491580634 34.2116
29.366910110507334 34.1221
29.38992651653503 34.1804
29.41312396492981 34.235
29.436142806456754 34.2017
29.45916286268059 34.0999
29.48236399319994 34.0805
29.50538649169417 34.2097
29.528410208259935 34.0804
29.55143514402014 33.8856
29.574641196749695 33.8539
29.597668583816574 33.7466
29.6206971934585 33.4875
29.64372702680042 33.3917
29.666938019934474 33.3447
29.689970313635285 33.1919
29.713003834422636 33.0928
29.73603858342347 32.9638
29.759254535188578 32.9458
29.78229175361658 32.9073
29.80533020365064 33.0658
29.82836988641968 32.8525
29.85159081507472 32.7845
29.874632976355343 32.7573
29.89767637376955 32.8203
29.920721008448314 32.6945
29.9439469322847 32.6932
29.96699405457564 32.7262
29.9900424175358 32.6942
30.013092022298157 32.6258
30.03632295963995 32.4637
30.059375061131373 32.5801
30.08242840783577 32.5427
30.105483000888153 32.4114
30.128718970092244 32.444
30.151776069006917 32.4683
30.17483441768648 32.5076
30.198074175317235 32.4222
30.221135036724256 32.4081
30.24419715131772 32.2928
30.267260520236203 32.3616
30.290505341942243 32.5739
30.313571232750228 32.5331
30.336638381310948 32.4098
30.35970678876503 32.4775
30.38295669299435 32.5302
30.40602763151657 32.4652
30.429099832366074 32.3852
30.452173296685572 32.3725
30.47542830191959 32.1926
30.498504306502497 32.1749
30.521581577995562 32.2777
30.544660117543582 32.323
30.56792024229725 32.2503
30.59100133132069 32.1969
30.614083691845494 32.1339
30.637167325018545 32.1093
30.660432587840603 32.2503
30.683518779717886 32.1573
30.70660624769615 32.2397
30.729694992924372 32.2379
30.75296541239743 32.3343
30.77605672557558 32.3426
30.799149319462742 32.4682
30.8224236211637 32.359
30.845518789950724 32.2478
30.868615242910597 32.2725
30.891712981195973 32.1239
30.91499247215866 32.0312
30.938092794619365 32.0341
30.96119440587579 31.9803
30.984297307082752 31.7496
31.00758200598383 31.6758
31.030687500658694 31.5903
31.053794288760695 31.4557
31.076902371446767 31.3501
31.100192296997445 31.2855
31.12330298246119 31.3255
31.14641496599209 31.2776
31.169528248749216 31.2202
31.19282341969534 31.1444
31.215939314557186 31.18
31.239056512134788 31.1628
31.262175013589378 31.1039
31.28547544871168 31.0684
31.30859657161541 30.913
31.331719001892175 30.9856
31.35484274070538 31.016
31.378148458819545 31.0394
31.401274828443725 30.9985
31.424402510106933 30.9043
31.447712205419993 30.8957
31.470842524931633 30.8658
31.493974159989783 30.8335
31.51710711176168 30.8469
31.54042212308802 30.9438
31.563557722100917 30.984
31.586694641341655 30.8935
31.609832881979628 30.8957
31.63315322823208 30.9144
31.656294125521327 30.7429
31.679436347728515 30.6775
31.70257989602529 30.5929
31.725905596152327 30.612
31.74905181052835 30.4852
31.772199354521323 30.3671
31.79534822930507 30.378
31.818679302290967 30.3678
31.84183085259981 30.3547
31.864983737233473 30.2425
31.88813795736804 30.1829
31.911474422233013 30.1448
31.934631327356435 30.1218
31.9577895715215 30.2277
31.980949155906522 30.3026
32.004291031706956 30.1521
32.027453310562606 30.1485
32.05061693318573 30.0601
32.07396288236386 30.0642
32.09712920658542 30.0188
32.12029687812702 29.9301
32.14346589817093 29.8296
32.166817291729984 29.8583
32.18998902288583 29.7615
32.21316210610336 29.7274
32.23633654256711 29.5966
32.259693399663725 29.5432
32.282870556771144 29.3313
32.30604907069099 29.3647
32.329228942610065 29.3053
32.35259128243769 29.1959
32.375773884550505 29.1978
32.398957848235646 29.0876
32.422143174682176 29.0821
32.445511016471215 28.9101
32.468699082679954 28.8475
32.49188851523011 28.7554
32.51507931531304 28.7564
32.538452678331 28.8684
32.56164622776311 28.6611
32.58484114831493 28.6133
32.60803744118015 28.6405
32.631416344731896 28.6941
32.654615396551876 28.5727
32.67781582427913 28.5581
32.701198898634416 28.5138
32.72440209253756 28.3229
32.747606665947124 28.4298
32.77081262006088 28.2945
32.79420126883317 28.3024
32.81740999876112 28.2697
32.840620112999424 28.2516
32.86383161274818 28.2272
32.88722585534586 28.1726
32.91044014056596 28.2327
32.933655814909734 28.1379
32.95687287957963 28.1157
32.98027273544904 27.9245
33.00349259526636 27.995
33.026713849030116 28.1407
33.04993649794511 27.9899
33.073341986570746 27.962
33.09656744032826 27.8786
33.11979429286444 27.8921
33.14302254538647 27.8281
33.166433686291185 27.8639
33.18966475336992 27.7224
33.212897224069096 27.7717
33.23613109959831 27.7536
33.259547912343415 27.7827
33.2827846121627 27.7212
33.306022720453775 27.6677
33.32926223842861 27.5897
33.352684742614166 27.5904
33.37592709463173 27.5723
33.399170859982064 27.586
33.422597648419426 27.4494
33.44584425514446 27.3251
33.46909227885668 27.3368
33.4923417207723 27.2231
33.51577423505344 27.2246
33.539026528130385 27.0718
33.56228024307245 27.1326
33.585535381098246 26.9762
33.60897364093058 26.858
33.63223163992385 26.888
33.6554910656699 26.8256
33.678751919389796 26.8171
33.702195944520106 26.7081
33.72545966903325 26.65
33.74872482519663 26.5822
33.771991414233746 26.6442
33.79544122444841 26.5477
33.81871069412428 26.5095
33.84198160035767 26.5142
33.86525394437455 26.45
33.88870955949969 26.4503
33.911984794020626 26.4585
33.93526147001624 26.3628
33.958539588715006 26.3245
33.98200102861669 26.3139
34.0052820477047 26.2111
34.02856451319451 26.2747
34.05203033759056 26.1884
34.07531571090147 26.1664
34.09860253431845 26.0284
34.121890809074316 26.0975
34.145362493118924 25.9837
34.16865368561615 25.9505
34.191946333164054 25.8294
34.21524043699793 25.8595
34.23871800066799 25.8331
34.26201503218366 25.795
34.28531352370466 25.6575
34.30861347646881 25.6102
34.33209693978188 25.5894
34.3553998301885 25.6139
34.378704185565205 25.587
34.402010007152356 25.4862
34.42549939016683 25.549
34.44880815937748 25.4006
34.472118398533134 25.3825
34.49543010887669 25.4049
34.51892543169198 25.3434
34.54224009966052 25.3026
34.56555624255917 25.3296
34.58887386163339 25.1763
34.61237514439016 25.0859
34.6356957311114 25.0329
34.65901779775809 25.0444
34.68252356662995 25.0155
34.705848608458616 25.0218
34.72917513396849 24.965999999999998
34.75250314440949 24.9165
34.77601490857862 24.8412
34.799345904259795 24.7641
34.82267838863559 24.8027
34.846012362958525 24.7483
34.869530142679984 24.7445
34.89286711232212 24.6496
34.91620557568269 24.6182
34.93954553401677 24.628
34.9630693495876 24.5206
34.986412313340814 24.61
35.00975677584668 24.5912
35.033102738362956 24.5231
35.05663261012228 24.4513
35.0799815881786 24.5533
35.10333207003229 24.4562
35.12668405694369 24.4378
35.150220005273056 24.386999999999997
35.17357501786656 24.3329
35.19693153931268 24.2389
35.220289570874385 24.2481
35.24383161619786 24.2388
35.267192683604904 24.2545
35.290555264930376 24.1697
35.314101899412165 24.1781
35.33746752422433 24.1385
35.36083466676374 24.1528
35.38420332829803 24.0803
35.407756095629054 24.0786
35.43112781085063 23.9693
35.45450104888391 24.015
35.477875810999194 24.0106
35.50143473172161 23.8609
35.52481255774625 23.9166
35.54819191167777 23.8969
35.57157279478914 23.888
35.595137889488406 23.9174
35.61852184675279 23.9055
35.641907337029984 23.8719
35.665294361595684 23.8091
35.68886565090076 23.7141
35.7122557598848 23.6157
35.73564740699838 23.6639
35.759040593519934 23.6065
35.78261809810353 23.5056
35.80601437933051 23.491999999999997
35.829412203814705 23.408
35.85281157283719 23.3625
35.876395313415884 23.3531
35.8997977874528 23.2776
35.92320180988546 23.2918
35.946790244133936 23.2187
35.97019737933222 23.2567
35.993606066789866 23.2017
36.01701630779276 23.2204
36.04061101440684 23.1557
36.06402437852291 23.1255
36.08743930005611 23.0828
36.1108557802951 23.0379
36.13445678011326 23.0788
36.15787639383515 22.983
36.18129757014299 22.9324
36.20472031032821 22.8245
36.22832762423364 22.7907
36.25175350829375 22.8651
36.275180960119776 22.7998
36.298609981005924 22.7496
36.32222362992669 22.7977
36.34565580510207 22.6893
36.36908955323448 22.6812
36.39252487562093 22.6265
36.416144880530226 22.5785
36.43958336764275 22.6055
36.463023432914625 22.5362
36.486465077645676 22.5229
36.51009145956204 22.5912
36.53353627947859 22.4939
36.55698268276811 22.366999999999997
36.58043067073321 22.4179
36.60406345072071 22.3648
36.62751462435344 22.2755
36.65096738658405 22.2131
36.67460498210655 22.326
36.69806093788647 22.3113
36.72151848619297 22.2068
36.744977628333636 22.191999999999997
36.76862165890998 22.1608
36.79208400512205 22.1103
36.81554794910557 22.1408
36.83901349217101 21.9987
36.862663978991606 21.9771
36.88613273667352 21.9716
36.90960309738324 21.927
36.933075062434064 21.8227
36.95673202673572 21.7902
36.98020721697122 21.7738
37.003684015502365 21.6945
37.027162423645365 21.7189
37.050825886711465 21.6486
37.07430753063053 21.5637
37.09779078812467 21.5094
37.121275660513014 21.5174
37.144945643673694 21.5101
37.16843376245278 21.5133
37.19192350009803 21.5053
37.215414857931435 21.4576
37.239091382563885 21.4277
37.262585997426164 21.3598
37.28608223645736 21.293000000000003
37.309763684451696 21.3141
37.33326318851098 21.2622
37.356764320726555 21.2582
37.380267082425526 21.2452
37.40395510942588 21.2477
37.42746114683234 21.1739
37.45096881771841 21.1269
37.474478123414166 21.0725
37.49817275092816 20.9844
37.52168534303452 21.0236
37.54519957395567 20.8609
37.568715445024665 20.9523
37.592416694607714 20.9197
37.61593586281424 20.8453
37.63945667518264 20.8978
37.66297913304891 20.7776
37.68668702630454 20.7971
37.710212792059274 20.7643
37.733740207334854 20.7612
37.757269273470364 20.609
37.780983832050374 20.6439
37.80451621684926 20.6553
37.82805025654007 20.5645
37.851585952464795 20.5997
37.8753071980695 20.4826
37.89884622345676 20.4001
37.92238690911902 20.4197
37.94611318753442 20.3612
37.969657210779765 20.3521
37.99320289834801 20.3614
38.016750251586465 20.3233
38.04048325513017 20.2617
38.06403395679343 20.1602
38.087586328183946 20.17
38.11114037065203 20.1433
38.13488012115898 20.0997
38.1584375229181 20.1213
38.181996599821 20.0354
38.205557353221124 19.9535
38.229303872575656 19.9928
38.2528679961576 20.0042
38.27643380031219 19.9298
38.30000128639589 19.9304
38.32375459653193 19.9453
38.34732546371299 19.8653
38.37089801690786 19.819000000000003
38.39447225747609 19.7636
38.418232380377425 19.7114
38.441810012983396 19.7565
38.46538933705673 19.684
38.488970353960084 19.6365
38.51273731166058 19.6411
38.536321731567014 19.6
38.55990784840681 19.6074
38.58367995004091 19.5122
38.60726947812959 19.4804
38.63086070726198 19.4606
38.654453638806274 19.4972
38.678232613930824 19.4216
38.70182896773327 19.3521
38.72542702806741 19.3335
38.7490267963045 19.3271
38.77281266709232 19.2725
38.79641586862214 19.2271
38.8200207821842 19.209
38.843627409152944 19.1971
38.86742019782782 19.1819
38.891030269149255 19.1361
38.914642058016156 19.1184
38.938255565806124 19.0687
38.96205529464307 19.0946
38.98567225787121 19.0338
39.00929094417078 19.0359
39.03291135492255 18.9807
39.05671804624804 18.9371
39.080341923549106 18.8354
39.103967529460334 18.8378
39.127594865365744 18.83
39.15140854155791 18.8021
39.17503935514948 18.7658
39.19867190290282 18.7581
39.22249083587951 18.7132
39.24612686969409 18.7173
39.269764641845306 18.6972
39.293404153722804 18.6913
39.317230110864074 18.6275
39.34087311998506 18.5676
39.36451787301696 18.5651
39.388164371352595 18.4394
39.41199737518003 18.4438
39.43564738196752 18.4506
39.45929913825317 18.3883
39.48295264543308 18.3827
39.506792718520884 18.3008
39.530449745387216 18.305
39.55410852735203 18.3529
39.57776906581474 18.3279
39.60161623079 18.2847
39.625280300200025 18.2615
39.64894613032202 18.1432
39.67261372255866 18.1517
39.6964680021016 18.1597
39.72013913657293 18.1466
39.74381203738292 18.1018
39.76748670593756 18.0287
39.79134812278169 18.0028
39.81502634488497 18.0507
39.83870633896685 17.9724
39.862388106436654 17.9348
39.88625668336918 17.9608
39.90994201572829 17.9617
39.933629125719285 17.8389
39.957503091207826 17.8158
39.9811937746168 17.8262
40.00488623990914 17.7682
40.02858048850006 17.708
40.05246165409549 17.7089
40.076159487492085 17.6683
40.099859108448875 17.6275
40.123560518384345 17.6466
40.1474489070226 17.6347
40.171153913178564 17.4962
40.194860712584955 17.5117
40.2185693066637 17.519000000000002
40.242464941335314 17.410999999999998
40.26617714307655 17.4513
40.289891143772046 17.4892
40.3136069448471 17.4898
40.33750984859743 17.3497
40.3612292688043 17.304000000000002
40.3849504936829 17.3381
40.40867352466194 17.3496
40.43258372059144 17.3159
40.45631038219906 17.1975
40.48003885420956 17.2058
40.503769138055105 17.245
40.52768664931955 17.1787
40.55142057531802 17.165
40.57515631746428 17.1374
40.599079334038514 17.0707
40.62281872700477 17.0481
40.64655994043941 16.9902
40.67030297578061 16.988
40.69423334835778 16.9458
40.71798004609188 16.8763
40.74172857006355 16.9017
40.76547892171441 16.8882
40.7894166736039 16.8471
40.813170699248566 16.8592
40.83692655691388 16.8422
40.86068424804498 16.8464
40.884629402612525 16.7348
40.908390779366385 16.7704
40.932153993938 16.7193
40.95591904777605 16.7398
40.979871628443995 16.6861
41.003640379561936 16.5973
41.02741097430883 16.5961
41.05118341413683 16.6002
41.075143444384416 16.5706
41.098919593177826 16.5921
41.1226975914255 16.5512
41.14647744058318 16.5107
41.170444943946755 16.3993
41.19422851378379 16.3831
41.218013938914645 16.3561
41.24198706625173 16.3232
41.26577622087193 16.3032
41.289567235177785 16.2374
41.31336011063129 16.1986
41.337340752422875 16.174
41.361137369129835 16.1687
41.38493585138705 16.1454
41.40873620066004 16.1787
41.43272438060107 16.1377
41.45652848292052 16.0718
41.48033445666918 16.0267
41.50414230331616 16.0333
41.528138045159764 16.0402
41.551949656675205 15.978
41.575763145513235 15.9815
41.59957851314666 15.9338
41.62358184070442 15.9213
41.64740098505737 15.895999999999999
41.6712220126409 15.8202
41.69504492493139 15.8465
41.71905586207357 15.8262
41.74288256296395 15.7628
41.766711153007456 15.7575
41.79054163368412 15.7235
41.814560204340054 15.7588
41.838394485526365 15.7264
41.86223066180303 15.6395
41.88625497706819 15.6516
41.910094962812 15.6407
41.93393684811168 15.6081
41.95778063445365 15.5485
41.981812625263366 15.4982
42.00566023303407 15.5063
42.029509746323676 15.4469
42.05336116662236 15.4169
42.077400857069705 15.4366
42.10125611078846 15.4037
42.12511327600405 15.3501
42.14897235421036 15.3158
42.173019768448455 15.2802
42.19688269209613 15.2827
42.22074753323349 15.2706
42.24461429335818 15.2814
42.268669455600495 15.2587
42.292540073217886 15.2473
42.31641261433284 15.1804
42.34028708044675 15.1144
42.36435001496739 15.1082
42.38822835065557 15.1248
42.41210861586426 15.0597
42.4359908120986 15.0794
42.46006154323262 14.9764
42.48394762115317 14.9432
42.507835634632315 15.0071
42.531912233047436 14.9951
42.55580413732265 14.9054
42.579697981698 14.8799
42.60359376768525 14.8096
42.62767820545945 14.7821
42.65157789440821 14.8343
42.67547952952185 14.787
42.699383112316 14.7978
42.72347541395347 14.7376
42.74738291190531 14.6644
42.771292362102166 14.6528
42.795203766063516 14.667
42.819303956130405 14.6957
42.843219287476536 14.6061
42.86713657716324 14.5857
42.89105582671383 14.5244
42.91516392983864 14.5786
42.939087119032166 14.5248
42.963012272677304 14.4852
42.98693939230129 14.4074
43.01105543317513 14.4185
43.034986504731386 14.425
43.05891954686589 14.4064
43.08285456110972 14.3847
43.10697856448665 14.2947
43.130917542983475 14.2719
43.15485849820081 14.2706
43.17880143167367 14.2261
43.20293342237094 14.2137
43.226880332449 14.1864
43.25082922540554 14.1597
43.27496722682525 14.182
43.29892010567796 14.1287
43.32287497204102 14.1366
43.34683182745632 14.0738
43.370977859791836 14.072000000000001
43.39493871351105 14.0434
43.41890156092628 13.9912
43.44286640358341 14.003
43.46702049182749 13.9526
43.49098934522816 13.9112
43.51496019852649 13.8966
43.5389330532723 13.872
43.56309522248204 13.8745
43.58707210044314 13.8256
43.61105098451946 13.7924
43.63503187626491 13.8026
43.659202151562134 13.7473
43.68318707902681 13.7603
43.70717401884041 13.7097
43.731162972560874 13.6745
43.75534137913236 13.6734
43.779334381108384 13.6858
43.803329401683186 13.697000000000001
43.82732644241872 13.6127
43.8515130055166 13.6085
43.87551410707659 13.5207
43.89951723350145 13.5466
43.923709934595614 13.5035
43.94771713129917 13.4949
43.97172635758096 13.469000000000001
43.99573761501002 13.4689
44.0199385169922 13.4249
44.04395385732619 13.397
44.067971233533086 13.3552
44.09199064718605 13.3367
44.11619977548961 13.3143
44.14022328470671 13.2829
44.16424883610785 13.2723
44.18827643127035 13.2602
44.21249381139513 13.2412
44.236525514814076 13.1881
44.26055926674478 13.1876
44.28459506876863 13.1856
44.3088207262813 13.1047
44.33286064928722 13.0994
44.35690262714919 13.0959
44.38094666145278 13.0461
44.4051806219871 13.0917
44.42922879003185 13.0213
44.45327901929361 12.9786
44.477331311362136 12.9845
44.501573600619416 12.9574
44.525630039221795 12.9663
44.54968854541895 12.9004
44.573937102200176 12.9139
44.5979997645541 12.892000000000001
44.622064499300315 12.8181
44.64613130803592 12.7742
44.67038823869318 12.8158
44.69445921643748 12.761
44.718532272981385 12.7241
44.742607409926194 12.722999999999999
44.76687274034801 12.6927
44.79095205918753 12.6639
44.81503346325094 12.6623
44.839116954143876 12.6525
44.86339071028742 12.6323
44.88747839599524 12.6012
44.91156817336837 12.5586
44.93566004401666 12.5447
44.959942251908146 12.5117
44.984038330325966 12.472999999999999
45.00813650686762 12.4652
45.03223678314731 12.4693
45.05652746888232 12.4418
45.08063196592069 12.4471
45.104738567558705 12.3943
45.128847275414856 12.3446
45.15314646515866 12.3861
45.17725940679741 12.3016
45.20137445952892 12.3139
45.22568004865265 12.274000000000001
45.24979934496396 12.2634
45.27392075725247 12.222000000000001
45.29804428714431 12.1828
45.322358426247604 12.1884
45.346486212804315 12.1402
45.370616121861914 12.1482
45.39474815505086 12.1344
45.41907087049246 12.0969
45.4432071734666 12.047
45.46734560548283 12.0987
45.49148616817604 12.0746
45.51581748638564 12.0555
45.5399623320197 12.0079
45.56410931325473 11.9564
45.58825843173002 12.0052
45.61259837920865 11.9703
45.636751793816 11.9549
45.66090735060093 11.8613
45.68506505120716 11.9249
45.7094136545275 11.86
45.73357566449271 11.8036
45.75773982322992 11.835
45.78190613238733 11.8338
45.806263418194064 11.7362
45.83043404997326 11.7515
45.85460683713677 11.7612
45.87897065658495 11.7463
45.90314777634752 11.6603
45.92732705646868 11.6763
45.9515084986045 11.6572
45.97588104735473 11.6363
46.00006683541565 11.5987
46.02425479047904 11.6193
46.04844491420549 11.582
46.0728262191024 11.5548
46.09702070211635 11.5126
46.12121735879483 11.5279
46.14541619080294 11.5076
46.169806278764455 11.4989
46.194009483459034 11.4485
46.21821486849841 11.4069
46.24242243555223 11.3798
46.266821333570014 11.3894
46.29103328674601 11.352
46.31524742696538 11.3325
46.33946375590237 11.2717
46.36387149104216 11.2818
46.38809221957392 11.2679
46.41231514186606 11.2593
46.436540259597464 11.2375
46.460956858999374 11.2417
46.48518638983522 11.1827
46.509418121166966 11.1517
46.533652054678114 11.177
46.55807754555709 11.1521
46.58231590571962 11.1197
46.60655647313217 11.0602
46.630988654873654 11.0443
46.655233659129024 11.0245
46.67948087571551 11.0533
46.70373030632484 11.0118
46.72817142736393 11.0157
46.752425308428684 10.9448
46.77668140861147 10.9215
46.80093972960865 10.927999999999999
46.82538981736788 10.9163
46.849652602470904 10.8935
46.87391761349769 10.8741
46.8981848521493 10.8266
46.9226439341274 10.776
46.946915650573224 10.8035
46.97118959976749 10.814
46.99546578341598 10.7583
47.019933887188216 10.6817
47.04421456235744 10.7122
47.06849747711879 10.6986
47.09278263318286 10.7016
47.11725978640143 10.6584
47.14154944775105 10.6273
47.165841355555656 10.5907
47.1901355115306 10.5858
47.214621741924994 10.6089
47.23892041698887 10.6075
47.26322134538975 10.57
47.28771440635075 10.5105
47.31201986422527 10.4904
47.33632758061436 10.4785
47.360637557241866 10.4502
47.38513974410611 10.4564
47.40945426407847 10.4394
47.43377104948137 10.4443
47.45809010204344 10.4041
47.48260144275502 10.380999999999998
47.506925052572285 10.3692
47.53125093475548 10.3281
47.55557909103813 10.3159
47.58009961361992 10.257
47.60443234110732 10.2688
47.62876734791564 10.2544
47.65310463578333 10.2089
47.6776343683373 10.2228
47.7019762413987 10.2214
47.72632040075572 10.1679
47.75066684815169 10.1528
47.77520581885936 10.1371
47.799556865477655 10.1077
47.823910205386 10.1123
47.84826584033272 10.0981
47.87281407745551 10.0566
47.89717432569297 10.0617
47.92153687423484 10.0463
47.94609208429692 10.0133
47.97045925671401 9.98517
47.99482873471275 9.98882
48.01920052005013 9.96218
48.04376504619224 9.9414
48.068141469543484 9.9434
48.09252020552573 9.93293
48.11690125590099 9.89514
48.1414751266064 9.9068
48.16586082917454 9.8529
48.19024885144316 9.81518
48.2146391951793 9.82925
48.239222439012764 9.85401
48.26361744916137 9.79187
48.28801478610016 9.79307
48.31241445160131 9.7957
48.337007097209366 9.78909
48.36141144338331 9.74121
48.38581812345755 9.68958
48.41022713920929 9.70059
48.434829215320704 9.655710000000001
48.45924292604658 9.65161
48.48365897780325 9.68998
48.50807737237308 9.604569999999999
48.532688907799276 9.614460000000001
48.55711201168574 9.61046
48.581537463754074 9.588239999999999
48.60615611725119 9.58592
48.63058628942721 9.53758
48.65501881516546 9.52891
48.6794536962573 9.50837
48.70408185970339 9.50492
48.72852147531801 9.41544
48.75296345168211 9.42351
48.77740779059232 9.458860000000001
48.80204549302823 9.452580000000001
48.82649458091802 9.43529
48.85094603676547 9.36145
48.87539986237231 9.35886
48.90004713292306 9.33772
48.92450572200832 9.30998
48.94896668628025 9.3229
48.97343002754588 9.28996
48.99808689542115 9.28679
49.02255501470614 9.29647
49.04702551642794 9.24996
49.0714984023988 9.19709
49.096164896893235 9.18976
49.120642575466796 9.19195
49.145122643748394 9.197460000000001
49.16960510355558 9.1601
49.19428125404938 9.13817
49.2187685210852 9.0957
49.243258185121555 9.09557
49.26794160167084 9.08559
49.2924360839405 9.0576
49.31693296869764 9.04151
49.34143225776915 9.0332
49.36612538195438 8.97429
49.39062950396021 9.00695
49.41513603578346 8.95832
49.4396449792564 8.935839999999999
49.46434784069503 8.9397
49.488861631846454 8.88246
49.513377840166804 8.904710000000001
49.537896467493745 8.89081
49.56260909589029 8.829460000000001
49.587132585683285 8.8368
49.611658500018365 8.84886
49.636186840738596 8.7915
49.66090926588511 8.785689999999999
49.685442483902584 8.78379
49.70997813385706 8.761280000000001
49.734516217597076 8.742289999999999
49.75924846937352 8.70975
49.7837914452858 8.70837
49.80833686055187 8.68239
49.83288471702571 8.67117
49.85762682540054 8.68628
49.882179588965734 8.66915
49.9067347993235 8.60197
49.93129245833333 8.61928
49.95604445336378 8.61627
49.98060703442832 8.56964
50.005172069746266 8.567839999999999
50.02993150438364 8.56327
50.05450147301533 8.55391
50.07907390151433 8.51656
50.10364879174981 8.47617
50.12841816587289 8.47985
50.1529980044635 8.455860000000001
50.17758031042124 8.42609
50.20216508562089 8.45991
50.22694442953363 8.43553
50.25153416817468 8.40656
50.27612638170508 8.385819999999999
50.300721072005196 8.35337
50.325510416102105 8.36438
50.350110084975064 8.362169999999999
50.37471223628208 8.3649
50.39931687190919 8.29774
50.424116246675766 8.27547
50.44872587605249 8.2889
50.47333799543065 8.306389999999999
50.49795260670191 8.24972
50.52276204271512 8.24949
50.54738166295838 8.22043
50.57200378079314 8.21168
50.596628398116835 8.18604
50.62144792604559 8.1372
50.646077567609396 8.1634
50.670709714377715 8.18
50.69553683636198 8.13952
50.72017401885922 8.136439999999999
50.7448137122895 8.07152
50.76945591856022 8.08125
50.79429318636823 8.08414
50.818940443716784 8.07788
50.84359021965163 8.07499
50.868242516085964 8.0523
50.893089960641895 7.99816
50.917747323549435 7.94843
50.94240721271973 7.982260000000001
50.96706963007175 7.957960000000001
50.99192728239342 7.95855
51.01659478166073 7.93725
51.04126481489051 7.903569999999999
51.06593738400761 7.89578
51.090805275207074 7.86809
51.11548294172845 7.865060000000001
51.14016314993547 7.857360000000001
51.164845901758845 7.813839999999999
51.18972406304274 7.84179
51.21441192780656 7.79197
51.23910234200271 7.80054
51.2637953075678 7.756589999999999
51.288683770237945 7.714410000000001
51.31338186432707 7.71575
51.33808251561888 7.69101
51.362978729967345 7.6970600000000005
51.387684521509755 7.681769999999999
51.41239287610203 7.66949
51.437103795691165 7.64185
51.46201036644977 7.61429
51.486726441956634 7.619269999999999
51.51144508832545 7.60601
51.536166307509156 7.6088
51.56108326624387 7.57833
51.58580965706056 7.54845
51.61053862657523 7.534260000000001
51.635270176746864 7.5270399999999995
51.66019755512065 7.55708
51.68493429268881 7.47929
51.70967361681515 7.51767
51.73441552946465 7.47204
51.759353359237934 7.46985
51.7841004750961 7.43784
51.80885018539685 7.399560000000001
51.833602492111254 7.37944
51.8585508051424 7.38497
51.883308330926425 7.3758
51.90806845906181 7.34875
51.932831191525715 7.357480000000001
51.95779001977161 7.334389999999999
51.98255798721516 7.268389999999999
52.00732856494335 7.3012
52.03229530577543 7.27499
52.057071130455945 7.253710000000001
52.081849571391054 7.2475
52.106630630568695 7.2347600000000005
52.13160794279417 7.18204
52.15639426492067 7.21582
52.18118321127822 7.17258
52.205974783860896 7.13294
52.23096269971011 7.14272
52.255759551287994 7.13477
52.280559035098186 7.108910000000001
52.30536115314103 7.053039999999999
52.33035970494467 7.06049
52.35516711807904 7.07397
52.37997717147198 7.03672
52.40478986713005 7.08327
52.42979908731974 7.056939999999999
52.454617094216 7.00585
52.47943774942214 7.01387
52.50426105495102 6.98597
52.529280976059844 6.97969
52.554109609024096 6.95326
52.57894089837482 6.958239999999999
52.60377484613117 6.92133
52.62880550079408 6.9248199999999995
52.65364479223379 6.900360000000001
52.67848674816189 6.9402800000000004
52.70352547971946 6.855760000000001
52.72837279155837 6.834789999999999
52.753222773982785 6.86758
52.778075429022984 6.87078
52.80312495150885 6.82682
52.827982978797436 6.81053
52.85284368481815 6.80435
52.87770707160767 6.808510000000001
52.90276741793998 6.780469999999999
52.92763619336701 6.760860000000001
52.952507655698504 6.7282
52.977381806977576 6.73941
53.00245301017842 6.72368
53.02733256653592 6.72225
53.052214817996074 6.735989999999999
53.077099766608484 6.67028
53.102181859804446 6.66827
53.127072229988265 6.7011199999999995
53.15196530349892 6.65095
53.17686108239249 6.63497
53.20195409881522 6.62373
53.22685531582556 6.61607
53.25175924441303 6.56705
53.27666588664027 6.558669999999999
53.30176985962693 6.52492
53.3266819565689 6.5302
53.35159677336455 6.51436
53.376514312083096 6.54228
53.40162927507703 6.4903900000000005
53.42655228516116 6.47589
53.45147802340193 6.49311
53.47660125628886 6.46729
53.50153247842639 6.43466
53.52646643496923 6.41133
53.55140312799818 6.45057
53.576537409691696 6.42658
53.60147960336152 6.38671
53.626424539786164 6.3701099999999995
53.65137222105307 6.34938
53.67651758529126 6.34168
53.70147078399681 6.29712
53.72642673383343 6.2817099999999995
53.75138543689533 6.33125
53.776541917524526 6.26147
53.801506154876755 6.2649
53.826473151763246 6.26133
53.851442910284916 6.23386
53.87661054126026 6.182519999999999
53.9015858509782 6.2139999999999995
53.92656392866066 6.1769
53.95154477641532 6.17061
53.976723591801296 6.1186300000000005
54.00171000771266 6.11946
54.02669920004598 6.13868
54.051691170915745 6.124680000000001
54.076881204886796 6.10352
54.101878760928514 6.09336
54.12687910187696 6.08375
54.152077577768296 6.08455
54.1770835166946 6.0243
54.20209224691339 5.98845
54.22710377055121 6.02998
54.25231352511594 5.99851
54.27733066384342 5.94268
54.30235060239643 5.95798
54.32737334290836 5.95026
54.35259441062629 5.92791
54.377622783395324 5.93947
54.40265396455061 5.910769999999999
54.42768795623251 5.87148
54.45292037169559 5.8152099999999995
54.477960012857906 5.789680000000001
54.50300247099511 5.7744
54.52804774825457 5.82005
54.55329154616743 5.733569999999999
54.57834249018678 5.74478
54.6033962597977 5.71168
54.6284528571545 5.6726
54.653708072335164 5.68649
54.67877035378786 5.67324
54.70383546947698 5.59853
54.72890342156389 5.60428
54.7541700889442 5.57964
54.77924374251975 5.60993
54.8043202390049 5.5343800000000005
54.82959552413022 5.52022
54.8546777351945 5.56228
54.87976279569621 5.48918
54.90485070780914 5.48449
54.930137506558005 5.42926
54.95523115074295 5.40954
54.98032765308844 5.38209
55.005427015775496 5.3308800000000005
55.03072536339621 5.42103
55.05583047570572 5.36316
55.080938454927676 5.3209
55.10604930325027 5.29956
55.131359235107396 5.297630000000001
55.15647585066083 5.19566
55.181595341907496 5.19808
55.20671771104285 5.21496
55.232039262617704 5.20485
55.25716741665048 5.17243
55.28229845518636 5.11786
55.30743238042802 5.08111
55.33276558731939 5.121230000000001
55.357905315183636 5.06856
55.383047936390035 5.00556
55.40819345314859 5.00195
55.433538351073295 5.016719999999999
55.458689688238415 4.95151
55.483843927614096 4.9082300000000005
55.509197623043605 4.93955
55.53435769621134 4.90433
55.55952067826466 4.86353
55.5846865714265 4.84576
55.61005202069737 4.78884
55.63522376553902 4.86404
55.66039842818645 4.77686
55.68557601087004 4.76403
55.7109532500271 4.7175199999999995
55.73613670233794 4.75542
