TT I
1.2716486653135266 7.59035
1.2939594142134223 6.919560000000001
1.3162702121660406 6.38973
1.3385810600174564 7.0620899999999995
1.3608919586137629 6.6111
1.383202908801069 6.53276
1.405513911425503 6.32811
1.4278249673332093 6.23665
1.4501343378461518 6.8712100000000005
1.4724455028545926 6.3190800000000005
1.4947567236847858 6.6429
1.517068001182951 6.32886
1.5393793361953272 5.79133
1.5616907295681737 5.67218
1.5840021821477681 5.6136800000000004
1.60631369478041 5.36698
1.6286252683124185 5.329
1.6509369035901333 4.98496
1.6732468618895553 5.19471
1.695558623192809 4.9800699999999996
1.7178704487808514 4.82236
1.7401823395001077 5.38941
1.7625012545597203 4.7028099999999995
1.7848028405262486 5.24507
1.8071218901122095 4.87155
1.8294236121921872 4.48851
1.8517427996910911 4.77152
1.8740620574440425 4.83081
1.8963639900671978 4.6123400000000006
1.9186833908139995 4.57751
1.9409854680117449 4.85861
1.9633050151394713 5.39586
1.9856246367570705 5.55317
2.0079269371922672 5.10073
2.03024671027244 4.7779
2.0525491637446027 4.79338
2.074869091674931 4.74531
2.097171701569106 4.80856
2.1194917877373847 5.25714
2.141811954326636 5.114330000000001
2.164114805233074 5.3083
2.186435135143035 5.91648
2.208738150935709 9.97321
2.231058647554722 17.1373
2.2533792288321184 13.2984
2.275682498336085 7.413410000000001
2.298003251406138 5.30044
2.3203066942619714 5.006869999999999
2.3426276225136022 4.96371
2.3649486396617507 5.54988
2.387252348930071 5.38149
2.4095735463442893 5.37044
2.4318774374315884 6.1237699999999995
2.4541988185014043 6.2613
2.476502894794693 6.44517
2.498824462909887 6.42724
2.521146125856138 6.24716
2.5434504863470337 6.96023
2.5657723414244717 6.64375
2.588076895590662 7.10225
2.610398946189713 7.379989999999999
2.6327210958598384 7.66608
2.6550259469304716 7.20148
2.6773482972090137 7.8665
2.6996533504259 8.52642
2.7219759047039602 7.79623
2.744298562293959 7.566730000000001
2.7666039251246595 7.44153
2.7889267918020164 8.36324
2.8112323652516555 8.17521
2.833555444408179 8.3788
2.8558786311183852 8.5418
2.8781845268938557 8.75413
2.9005079311721484 8.835560000000001
2.9228140460410397 9.08342
2.9451376712799635 9.83232
2.967444008632326 9.444280000000001
2.9897678582247247 10.1333
3.0120918213106695 10.5999
3.0343984987899373 10.6602
3.0567226913198637 10.7327
3.079029599759726 11.4981
3.101354025127254 12.0851
3.123678568232338 12.6961
3.145985829517914 12.8472
3.16831061055229 13.4477
3.1906181112775593 14.1185
3.212943133635653 14.3874
3.2352682779763207 14.5319
3.2575761442691227 15.4272
3.2799015350264273 15.5821
3.302209649240067 16.1565
3.3245352898092655 16.8913
3.3468436553365257 17.2411
3.369169549113219 17.8331
3.3914955708171384 18.2463
3.413804319727358 19.0268
3.4361305997334863 19.0989
3.4584396084414553 19.5413
3.4807661501462652 20.3543
3.503092824025881 21.0808
3.5254022288463154 21.5969
3.5477291695206588 22.0172
3.5700388426251948 21.9444
3.5923660534916446 23.6294
3.6146934007816114 32.367
3.637003482731501 59.0574
3.6593311053109985 63.595
3.681641464033634 41.4984
3.7039693653009733 28.118000000000002
3.726297407241705 25.9871
3.7486081875460804 25.7038
3.7709365132734978 25.8807
3.793247578841633 26.2204
3.8155761917550093 26.7475
3.8378875459837216 27.2454
3.8602164494827234 27.7888
3.882545499606844 28.4446
3.9048572932539183 29.1204
3.9271866390645718 29.5088
3.9494987298666713 29.7972
3.971828374764527 30.5115
3.9941581705403255 30.9681
4.016470713506008 31.5401
4.038800813471445 32.3985
4.061113662089144 32.7993
4.0834440696459176 33.9406
4.105774632334751 34.1531
4.128087945865126 34.9087
4.150418821249301 35.5873
4.172732448931298 36.3262
4.195063640413578 38.28
4.2173775856475215 41.2091
4.239709096631102 60.9545
4.262040768704612 147.99200000000002
4.284355196706267 188.42700000000002
4.306687193387355 126.85700000000001
4.329001947444346 63.1134
4.35133427213731 46.2575
4.373666762177566 44.4143
4.395982011761091 44.6709
4.418314834921175 45.5344
4.44063041906622 50.1733
4.4629635787515625 55.858000000000004
4.4852969080429785 56.6227
4.5076130004776225 52.9581
4.529946671403969 53.2466
4.552263106909177 54.3701
4.574597122877047 54.457
4.596931312711224 53.9263
4.619248269273446 54.162
4.6415828092605835 55.6131
4.663900117405352 56.4931
4.686235010953232 58.1377
4.708552674085913 59.2493
4.730887924602802 60.6787
4.753223354952695 62.2965
4.775541557023902 64.6583
4.797877349456786 66.1076
4.820195915032126 67.6213
4.842532072957498 68.7152
4.864868414979744 71.4962
4.88718753227192 74.4593
4.909524244902505 76.3236
4.931843734218147 77.3525
4.954180820867835 79.9313
4.976518095879839 83.0887
4.998838149695359 86.085
5.021175803844231 89.8623
5.043496238205739 94.0047
5.065834274903528 98.6891
5.088172504230693 104.18700000000001
5.1104935158799565 110.82700000000001
5.132832132875765 130.753
5.155153533596801 164.104
5.1774925416746225 216.09799999999998
5.199814334878411 481.464
5.2221537374521505 1326.68
5.244493338631803 3417.54
5.266815727034316 7615.52
5.289155727832427 11595.2
5.311478517248165 8771.74
5.333818921080011 3111.85
5.356159527788849 644.94
5.3784829252032536 210.02
5.400823940070432 156.91899999999998
5.423147747031976 135.847
5.445489173474152 124.29899999999999
5.467830807066149 119.73299999999999
5.490155234831516 115.426
5.512497285125229 110.954
5.534822130975162 107.325
5.557164601388673 104.948
5.579489868738879 102.15700000000001
5.601832762690846 100.794
5.6241758697774475 99.5508
5.646501775867269 98.6303
5.668845311622074 97.3247
5.691171647754637 96.8386
5.713515615597765 95.8544
5.735859800852677 95.3691
5.758186788542988 95.0137
5.780531411018185 96.3359
5.802858837297399 95.891
5.825203900414495 96.3019
5.8475491852224 97.7419
5.869877275883075 97.2138
5.892223006467101 97.5824
5.914551544266608 98.8111
5.936897724049891 101.535
5.959244129804903 109.354
5.981573344815301 141.291
6.0039202049061 271.08
6.026249875609095 569.591
6.04859719346037 1167.09
6.070927323278297 2364.72
6.093275102315365 4180.89
6.115623113320588 5193.29
6.137953938319995 3391.02
6.160302415650845 1178.61
6.182633708324452 297.68
6.2049826554078376 125.863
6.227331838745022 96.9397
6.249663839443684 88.3964
6.27201349767565 83.9106
6.294345974611799 86.0203
6.316696111167083 90.3374
6.339046488263839 86.34100000000001
6.361379686074702 77.5198
6.383730546639482 72.592
6.406064229255215 70.4423
6.428415576718203 70.2607
6.450749747566656 68.8537
6.47310158535871 67.3128
6.495453669698332 66.4834
6.517788579421056 65.9037
6.540141159237969 64.5791
6.562476565766648 64.3197
6.5848296444934045 63.5441
6.607182974060425 63.7289
6.6295191323281015 63.4909
6.651872965955752 64.8727
6.6742096296068985 78.9293
6.6965639707294615 103.50299999999999
6.71891856698715 101.904
6.741255995248479 78.2634
6.763611104154477 64.6123
6.785949046381137 60.5283
6.808304671371482 59.6224
6.8306605557940046 59.6323
6.852999275508618 58.7111
6.875355681171544 57.771
6.897694923437771 57.5036
6.92005185377892 57.2073
6.9423916220322655 56.8828
6.964749080490181 56.3089
6.987106804399774 56.1652
7.009447368180821 56.4551
7.031805625367033 56.3223
7.054146723727803 55.9928
7.076505517631004 55.6953
7.098864581288365 55.5696
7.121206488070854 55.4287
7.143566093607822 55.7645
7.165908543567245 56.5074
7.188268694426048 56.4516
7.2106291193438095 55.7013
7.232972390625943 56.5677
7.255333366030969 64.2586
7.277677189091925 92.5156
7.300038718428332 115.839
7.322400526130865 101.721
7.344745183422596 73.2097
7.367107550224791 58.9881
7.389452767901992 55.9312
7.411815697249891 55.3005
7.434161478756298 54.516000000000005
7.456524974096713 54.6431
7.478888753837185 54.6779
7.501235387657368 55.3054
7.523599738562711 55.0892
7.545946944825532 55.7642
7.568311870344528 56.0494
7.5906770845765665 56.0297
7.613025156078678 56.733000000000004
7.635390950099687 57.5293
7.657739602662809 57.4617
7.680105979923558 56.5829
7.702472650212829 57.199
7.724822180948224 56.6899
7.747189439655568 57.0205
7.769539560075357 56.953
7.791907410653562 57.6531
7.81425812420825 57.6848
7.836626570110925 57.5695
7.858995315087906 58.5159
7.881346924933401 58.5401
7.903716270417482 59.2199
7.926068482028405 59.6553
7.948438431475253 60.2641
7.9708086843180235 60.4983
7.993161805171116 61.477
8.015532667162402 61.6516
8.037886398416653 63.0113
8.060257873014221 63.5822
8.082629655331942 63.7007
8.104984308787587 64.92699999999999
8.127356708900503 67.4525
8.149711981398308 71.484
8.172085002766314 73.0128
8.194458336181368 71.0963
8.216814543847752 70.1052
8.23918850371002 70.3984
8.26154533906492 71.3468
8.283919928836452 73.3466
8.306277395339652 74.3798
8.328652618483376 75.7975
8.351028159736202 78.2986
8.373386579575245 80.4619
8.395762759396959 82.3558
8.418121819038275 86.5252
8.440498640894003 95.7983
8.462875785192262 108.25299999999999
8.485235811156207 133.024
8.507613602688501 194.18
8.529974277114228 297.496
8.552352719347912 455.12800000000004
8.574731488360351 745.62
8.59709314210385 1227.23
8.619472567021075 1776.53
8.64183487789147 2098.35
8.664214962183097 1810.81
8.686577933647762 1032.94
8.708958680784317 417.983
8.731339760774953 181.798
8.753703729764451 116.956
8.77608547780821 102.241
8.798450116065078 98.088
8.820832535634787 95.06299999999999
8.843215292401656 93.9783
8.865580941199045 92.3257
8.887964374703538 91.435
8.910330701447199 91.7061
8.932714815164482 92.3339
8.955099270424924 90.9402
8.977466620733543 88.6194
8.999851761421976 86.839
9.022219798361645 85.3023
9.04460562795561 85.7695
9.066991803441677 85.1279
9.089360876979615 85.0454
9.111747746589993 84.7946
9.13411751544971 83.904
9.156505082664324 83.3024
9.178875550323522 83.8385
9.20126381862328 83.681
9.223652438908596 83.8404
9.246023961427412 83.6667
9.26841328802173 83.416
9.290785518039224 83.9103
9.313175554425882 84.9071
9.335565947154315 85.6708
9.357939245086508 85.7194
9.380330352834827 85.5448
9.40270436697103 85.4835
9.425096193225055 85.3301
9.447488380180165 85.8738
9.469863475295412 85.9802
9.492256385987508 86.4624
9.514632206018318 86.9986
9.537025843935714 87.7761
9.559402392368193 88.2522
9.581796761000229 89.6349
9.604191496441521 91.0211
9.626569144158516 93.3869
9.648964615551032 95.7083
9.671343000390081 96.8529
9.693739211225699 95.6589
9.716135793237463 94.4815
9.738515290448102 95.1078
9.760912617143402 96.1919
9.783292860202891 97.5661
9.805690935076182 99.4062
9.828089385495742 100.33
9.850470754023561 102.51799999999999
9.872869957865444 107.435
9.89525208097539 116.66
9.917652041736662 125.369
9.940052382417589 131.935
9.962435644102392 156.834
9.984836746950979 208.076
10.007220771957746 281.692
10.029622640473708 403.846
10.052007432299963 602.639
10.074410069984072 885.88
10.096813093716005 1273.65
10.119199042482517 1642.7
10.141602840636468 1866.72
10.163989564971628 1634.75
10.186394141051062 997.3989999999999
10.208799107559706 451.336
10.231187001965623 214.28400000000002
10.253592751657669 134.929
10.275981430388155 116.709
10.298387966769793 113.882
10.320794897965431 114.125
10.343184759907361 112.335
10.36559248305461 108.609
10.387983138083852 107.729
10.410391656691655 114.56700000000001
10.432800574501677 128.123
10.455192425893369 147.084
10.47760214443012 177.22400000000002
10.499994797678786 223.15099999999998
10.522405320453982 301.525
10.54479877906917 398.10400000000004
10.567210109595656 488.52
10.5896218454736 540.944
10.612016518879773 498.397
10.634429067781074 367.156
10.656824555333241 218.87599999999998
10.679237920773568 134.244
10.701651695961992 100.24799999999999
10.724048411481384 91.2669
10.746463008485165 88.5031
10.768860546937125 86.6032
10.791275969274796 84.6184
10.81369180576079 83.4494
10.836090585366925 82.7699
10.858507252467449 81.2836
10.88090686379991 80.5063
10.903324365036394 79.5634
10.925724811614439 79.0788
10.948143150509463 79.8923
10.970561909719066 79.2061
10.992963615930844 77.6513
11.015383218085756 76.1349
11.037785768347074 74.6218
11.06020621697282 73.805
11.082627090322113 73.5426
11.105030913430326 72.4469
11.12745263854165 73.0363
11.149857314510728 74.6738
11.172279894912576 77.5877
11.194702904450653 77.4752
11.217108866490921 74.6136
11.239532736615194 72.4525
11.26193956033512 70.9955
11.284364294577085 69.6607
11.306789462371718 68.8242
11.329197585398376 67.9494
11.351623622610898 67.9485
11.37403261614354 67.0042
11.396459526308487 66.8371
11.418869393879497 66.1953
11.441297180532617 66.1576
11.463725406927658 65.9301
11.486136592353875 65.5927
11.508565700543707 65.8654
11.530977768845315 67.255
11.553407762368774 67.1223
11.575838200059769 66.7068
11.598251599479612 65.3985
11.620682927815501 64.5633
11.64309721895548 64.2103
11.665529441478206 64.2603
11.687962112597958 63.7659
11.710377748130886 63.8251
11.732811318753434 63.7799
11.755227854859067 63.7701
11.777662328529495 63.653999999999996
11.800079768750786 63.6183
11.822515149015453 63.6032
11.844950984084935 63.7215
11.867369787303163 63.5307
11.889806534289491 63.4266
11.912226250487029 63.7296
11.934663912939751 63.6513
11.9571020346363 63.8745
11.979523127133968 63.838
12.001962169624331 65.3394
12.024384183972964 67.4775
12.046824150809913 71.07600000000001
12.069264581333726 76.5939
12.091687985297767 83.2001
12.11412934550045 93.84100000000001
12.136553680195208 109.47
12.158995973632788 131.555
12.181438735204349 154.075
12.20386447284199 178.012
12.226308172985636 196.93
12.24873485024193 197.67700000000002
12.271179492516982 171.382
12.293607112949127 129.724
12.316052700916226 96.7843
12.338498763250042 78.0682
12.360927805303868 69.6872
12.383374818673879 66.4235
12.405804812803074 65.5295
12.428252780773262 65.2315
12.45070122756722 65.3061
12.473132656675375 65.3151
12.49558206341869 65.7577
12.518014453510101 65.4591
12.540464823770117 65.461
12.562915677315177 65.5413
12.58534951575545 66.342
12.607801338171472 67.4354
12.630236146511358 70.5776
12.652688941369085 73.1954
12.675124723177234 73.3643
12.697578494048786 71.9596
12.720032754458185 69.4182
12.742470003354093 68.6182
12.764925245138771 68.7863
12.787363476431278 69.137
12.809819703166806 69.4921
12.83227642391173 70.2054
12.854716135692716 70.8668
12.877173846755147 72.0746
12.899614549869717 72.2488
12.9220732548287 73.4768
12.94453245827299 73.9882
12.966974655289818 74.8093
12.989434858002571 75.5229
13.011878055298721 76.0899
13.034339260862497 77.3636
13.056800969391883 78.9511
13.079245674017244 81.3924
13.101708390774869 85.5582
13.12415410463411 94.5688
13.146617833206086 106.941
13.169064559883248 119.852
13.191529303857127 137.106
13.213994557076367 162.424
13.236442809902437 200.172
13.258909083908291 250.37900000000002
13.28135835851934 301.672
13.30382565690295 355.569
13.326293469022952 402.51099999999997
13.348744283242008 412.31699999999995
13.371213125129904 362.569
13.39366497011003 277.62
13.416134845360597 185.446
13.438605238843131 131.905
13.46105863690397 112.869
13.483530069144786 112.65700000000001
13.505984506951902 118.331
13.528456981549432 129.42700000000002
13.550929978879088 146.418
13.573385983253365 172.544
13.595860028340867 208.722
13.618317081455832 252.574
13.64079217790333 293.601
13.663250283359057 328.18800000000005
13.685726434770173 357.972
13.708203115221277 340.70099999999996
13.730662806148091 279.375
13.75314054697177 202.68
13.775601299246777 139.70600000000002
13.798080104050406 102.762
13.820559442405358 88.0996
13.843021793671388 83.5888
13.865502201420897 81.5713
13.887965623051947 81.1937
13.910447103807167 79.9425
13.932929122629764 78.6089
13.955394156785959 78.3005
13.977877254034569 77.3126
14.000343367582113 76.6621
14.022827546871707 75.7275
14.045294743423524 75.035
14.06778000837062 74.1657
14.090265817715476 74.3295
14.112734645763819 73.89
14.13522154619454 73.2162
14.157691466286913 73.4382
14.180179461423874 73.1118
14.202668005486178 72.3004
14.22513957064374 71.9153
14.247629214846473 71.6164
14.270101881097517 71.5794
14.29259262906496 71.7496
14.315083930490205 71.9374
14.337558255389705 72.0454
14.360050666019726 71.6565
14.382526101071944 70.9865
14.405019624534942 70.4535
14.427513705993134 70.2185
14.449990813291825 70.1895
14.47248601302899 69.9204
14.49496423954951 69.8873
14.517460561197822 70.0367
14.539939910570322 70.0927
14.562437357763558 70.28399999999999
14.58493536931253 71.1912
14.607416409993311 71.7
14.62991555254159 72.2527
14.652397725157423 72.2464
14.674898002342799 71.935
14.697398848433282 71.8014
14.719882725991326 72.9791
14.74238471217934 74.8668
14.764869730765593 78.9434
14.787372860692983 82.5202
14.809876564079925 87.709
14.83236330125751 94.2487
14.854868153850365 104.229
14.877356041159485 118.456
14.899862046604186 135.918
14.922351087688757 156.97799999999998
14.944858249632887 179.523
14.967365991421232 197.072
14.989856770231246 211.11700000000002
15.012365673994204 211.793
15.03485761569738 190.649
15.05736768508665 155.911
15.07987833888692 121.344
15.102372032001655 95.0778
15.124883856909658 79.6379
15.14737872204565 73.9393
15.169891721717274 71.8248
15.192405310371893 71.4241
15.214901940621196 71.4031
15.237416709527137 71.2142
15.259914520936249 71.2706
15.282430473753607 70.2924
15.304947020131227 69.4192
15.327446610371178 68.6591
15.349964346154254 68.0443
15.372465126703139 67.9063
15.394984055556009 67.6945
15.417486030076159 67.7177
15.44000615566487 67.3123
15.462526881230803 67.2475
15.485030653812652 67.4932
15.507552581617434 67.2719
15.530057557334603 67.2129
15.55258069104857 67.086
15.575104429329837 67.3786
15.597611216864632 67.0116
15.620136166564563 67.5938
15.6426441664095 69.415
15.665170331202765 72.5817
15.687697105158826 75.5698
15.710206930593545 79.6557
15.732734925158933 84.2002
15.755245972089478 91.3988
15.77777519094324 101.552
15.800287463046663 114.238
15.822817909869592 130.822
15.84534897229804 147.68
15.867863089299354 165.16400000000002
15.890395385222186 177.965
15.912910736597423 185.602
15.935444269699861 179.34599999999998
15.957978423016485 158.852
15.980495633101265 128.621
16.003031029129367 101.73700000000001
16.02554948280019 80.7933
16.048086125229432 69.8908
16.070623392487107 65.9783
16.09314371869582 64.714
16.11568223789321 63.724
16.13820381691126 62.9762
16.160743591742527 62.2507
16.183283996022084 61.6331
16.205807461423195 60.4896
16.228349126881973 59.8358
16.25087385432698 59.8364
16.27341678466365 59.3669
16.29594277784926 59.1493
16.31848697676433 59.1256
16.341031811604868 59.0015
16.36355971058487 59.0543
16.3861058195587 58.8562
16.40863499352978 57.8472
16.431182380342005 57.3387
16.453730407713202 56.8328
16.476261501364792 56.5706
16.498810812136167 56.3307
16.52134319004079 56.4565
16.54389378792203 56.1607
16.566445031001553 56.2669
16.588979342490088 56.202
16.61153187824822 55.9757
16.634067483263312 55.9652
16.656621315414416 55.9799
16.679175797408888 55.5328
16.701713349928728 55.4874
16.72426913389191 55.5493
16.74680798922351 55.6403
16.76936507887444 55.7163
16.791905240734874 55.6759
16.814463639794468 55.495
16.837022695210294 55.5658
16.859564824093756 55.8995
16.882125194503903 56.4041
16.904668639217885 56.8507
16.927230328348003 56.9167
16.949792678493612 56.699
16.972338104193863 56.6504
16.994901778652235 56.3023
17.017448529496576 56.5626
17.040013531998152 57.145
17.06257920018044 57.8539
17.0851279459922 58.5867
17.107694947817667 59.2511
17.130245028099072 60.2697
17.15281336730298 61.5658
17.17536478578733 63.4787
17.19793446610687 66.02
17.220504818648422 68.8351
17.243058251703697 71.3217
17.265629950971032 74.7624
17.288184731571736 78.0008
17.310757781306908 80.9703
17.33333150794385 82.3856
17.355888317140174 81.2578
17.37846339986244 77.9292
17.401021565958885 72.3461
17.42359800851343 67.2766
17.44617513265564 63.7566
17.468735341390783 61.5187
17.491261035594565 60.3737
17.51396340099364 60.1629
17.536490463869136 60.0615
17.559018209820174 60.0856
17.58154663977963 60.1199
17.604251766089718 60.5443
17.626781572227713 60.5782
17.64931206518155 60.8194
17.671843245885103 61.313
17.69455114821572 61.4805
17.717083712612634 61.6363
17.739616967569667 62.0028
17.762150914021706 62.2513
17.78486160749854 62.5438
17.807396945166804 63.6178
17.829932977143503 64.8881
17.85246970436452 66.6309
17.875183204129467 68.4401
17.897721330097664 70.6901
17.920260154126645 73.368
17.942799677153296 76.922
17.9655159983646 81.1284
17.988056927677544 86.6821
18.010598558807683 93.96
18.033140892692916 102.59200000000001
18.05586005052525 111.329
18.07840379824407 119.915
18.10094825154059 129.387
18.12366954819864 136.076
18.146215420998306 137.658
18.16876200220057 133.875
18.191309292745153 122.15899999999999
18.214033452627167 109.258
18.236582170236648 97.2188
18.259131600016456 90.9938
18.281681742907335 89.6179
18.304408781233683 91.9187
18.32696035875955 95.2587
18.349512652227624 99.0609
18.372065662579683 103.527
18.394795594587553 105.167
18.41735004715306 103.37200000000001
18.43990521943684 98.1105
18.46246111238171 89.6262
18.485193953325208 80.1178
18.507751296070428 72.3643
18.530309362314178 67.6169
18.552868153000343 64.9755
18.57560391815056 63.4958
18.59816416623245 63.0333
18.620725141597372 62.4023
18.643286845190268 61.9144
18.666025549835414 61.4102
18.688588718427933 60.9195
18.711152618092243 60.7024
18.73389353884365 60.4457
18.75645890921984 60.0249
18.77902501351406 59.7204
18.801591852673102 59.6324
18.824335739722738 59.2459
18.846904057212626 59.1219
18.8694731124168 58.8902
18.89204290628315 58.8171
18.914789774966803 58.67100000000001
18.937361054791623 58.1901
18.959933076131318 57.8125
18.982505839934877 57.773999999999994
19.00525570560582 57.8719
19.027829963004184 57.8092
19.05040496572238 57.974
19.072980714710468 57.9901
19.095733592739563 58.3056
19.11831084296757 58.5864
19.140888842324735 58.915
19.16346759176222 59.0496
19.18622349753803 59.8349
19.208803755869358 60.9257
19.231384767143577 62.0683
19.253966532312948 63.7348
19.276725481241822 65.5604
19.29930876296784 67.5026
19.3218928014549 69.8565
19.34465404436217 72.1618
19.36723960516257 74.62
19.389825925592426 75.5201
19.412413006605938 75.2601
19.43517731967805 73.2577
19.457765930683355 69.2038
19.48035530514408 65.1039
19.50294544401556 60.9186
19.525712842708348 57.8963
19.54830451925909 56.2651
19.570896963095727 55.1437
19.593490175174704 54.9132
19.616260674962184 54.7035
19.638855432416964 54.2581
19.661450960992624 54.6821
19.68404726164677 54.5528
19.706820878021247 53.9537
19.729418731756834 54.2486
19.752017360452857 54.3045
19.77461676506804 54.4426
19.797393513540218 54.7029
19.819994478951667 54.9625
19.84259622316767 55.4855
19.8651987471481 56.0019
19.887978643247177 56.1402
19.91058273574792 56.5489
19.933187610901943 57.5225
19.955969879466828 59.0348
19.97857632894404 60.3479
20.00118356396599 61.7858
20.023791585494575 63.4044
20.046577028914875 65.4088
20.069186632506966 67.0956
20.091797025500632 68.9006
20.114408208858933 69.9957
20.137196842715273 70.4014
20.159809615886765 69.5889
20.18242318232135 67.6008
20.20503754298326 65.457
20.227829382875154 64.0054
20.250445341109344 63.1261
20.27306209647285 63.1599
20.29567964993108 64.0079
20.31847471147704 64.7814
20.34109387027612 65.3303
20.363713830075454 65.4839
20.386334591841646 64.78399999999999
20.409132890679302 62.4652
20.431755265564437 59.6018
20.454378445325528 56.9696
20.477002430930366 54.7606
20.499803982716553 53.2919
20.522429589228004 52.1703
20.54505600449589 51.8377
20.567683229489194 51.6268
20.590488049900088 51.2934
20.61311690359731 51.0234
20.63574656993626 50.8495
20.658553853717297 50.4651
20.681185154618298 50.5695
20.703817271080066 50.4468
20.72645020407368 49.9445
20.749260783967177 49.9102
20.771895359337133 49.8381
20.794530754161617 49.8988
20.817166969412938 49.8136
20.83998086114876 49.6989
20.86261872660049 49.5676
20.885257415405402 49.4872
20.90789692853701 49.3537
20.930714147864748 49.2709
20.953355319030678 49.3993
20.97599731745334 49.651
20.99864014410749 49.3717
21.021460706796564 49.3781
21.044105199328826 49.7249
21.06675052302631 49.8844
21.089396678865015 50.3264
21.112220600704806 50.4904
21.134868430275347 50.784
21.15751709492456 51.146
21.180166595629693 51.2714
21.202993892429635 51.6314
21.22564507473034 51.7646
21.24829709602816 51.9722
21.27112693608965 52.099
21.293780644891275 52.3053
21.316435195634053 51.621
21.339090589297417 50.9933
21.361923832041875 50.4949
21.384580921090404 50.0138
21.407238856007325 49.4183
21.429897637773326 49.4091
21.45273429906592 49.1692
21.475394784108598 49.2294
21.498056118951983 49.1277
21.520718304578022 49.5399
21.543558400304388 49.6663
21.566222297108816 49.8183
21.58888704765135 49.9199
21.61155265291521 50.3156
21.63439619898156 50.7931
21.657063523335786 50.9008
21.67973170537063 51.4308
21.7024007460706 52.151
21.72524775840385 52.9186
21.747918526116475 54.0486
21.770590155457388 55.4932
21.79326264741238 56.6775
21.816113141960237 58.1903
21.838787368860547 59.6221
21.861462461341976 61.028
21.884315579735777 62.5531
21.90699241312273 63.6618
21.92967011506078 64.5815
21.95234868653799 64.76100000000001
21.9752053151131 64.2318
21.997885635446785 62.5964
22.020566828293532 60.7912
22.04324889464272 58.9619
22.066109049404666 57.4507
22.088792872571794 56.6753
22.111477572219204 56.4775
22.1341631493376 56.3431
22.157026846313123 56.3647
22.179714188221507 55.8859
22.202402410582668 55.3971
22.22509151438863 53.8356
22.24795876962584 52.451
22.270649646204486 51.5162
22.293341407213727 50.6031
22.316034053646906 50.1406
22.338904883215342 49.9501
22.36159931041458 49.9196
22.38429462602756 49.9182
22.40699083104897 49.5093
22.429865251039757 49.4382
22.452563244831367 49.4864
22.47526213102522 49.6718
22.49813925616515 49.4202
22.520839937143307 49.2548
22.543541513520587 49.2542
22.56624398629403 49.376000000000005
22.589124730075895 49.3787
22.611829005656723 49.5081
22.63453418063466 49.659
22.657240256008077 49.8872
22.680124634582935 49.9952
22.70283252079775 50.3128
22.725541310413075 50.5608
22.74825100442868 50.8446
22.771139033969575 51.4327
22.79385054687155 51.7129
22.81656296718292 52.2364
22.83927629590484 53.295
22.862167992606945 53.8967
22.88488314827121 54.8776
22.907599215359284 55.5567
22.93031619487366 56.4891
22.953211574954405 57.0641
22.975930389478226 57.8404
22.998650119445763 58.2106
23.02137076586092 57.7754
23.044269845560063 56.7062
23.06699233506288 55.4335
23.089715744034912 53.7907
23.112617610931565 52.228
23.135342869061212 51.016000000000005
23.158069049684816 50.2451
23.1807961538087 49.7357
23.20370174880544 49.5995
23.226430710184808 49.7554
23.249160598093425 49.8553
23.271891413539002 49.7454
23.294800752937697 49.6193
23.31753343374794 49.9717
23.340267045128353 50.1748
23.36300158808808 50.5127
23.38591468821339 50.8935
23.408651104658304 51.3723
23.431388455719986 52.0578
23.454126742409 52.915
23.4770436196085 53.7251
23.499783787914662 54.6908
23.522524894889884 55.3539
23.54526694154616 56.1294
23.56818761219047 56.9582
23.59093154860734 57.3587
23.613676427751283 57.8765
23.636422250635754 57.5864
23.659346731118656 56.4011
23.68209445191868 54.7458
23.704843119509587 52.651
23.72759273490623 50.9943
23.750521041644767 49.342
23.77327256312355 48.1045
23.796025035462787 47.4827
23.818956224555475 46.9351
23.841710609113413 46.6919
23.86446594758979 46.4679
23.887222241002014 46.0091
23.910157285144578 45.9002
23.932915498962537 45.9376
23.955674670778713 45.7489
23.978434801611975 45.6005
24.001373717286125 45.5
24.024135776723917 45.2988
24.046898798245582 45.2603
24.06966278287146 45.1957
24.092605586582614 44.8453
24.115371508023642 44.8141
24.1381383956401 44.74
24.16090625045381 44.7778
24.183852958731244 44.6556
24.206622758582608 44.5278
24.229393528706886 44.3327
24.252165270127392 44.4169
24.27511589952438 44.4176
24.297889594216997 43.88399999999999
24.32066426328598 43.8708
24.34343990775613 44.0769
24.36639447485003 43.7702
24.38917208083877 43.817
24.41195066531332 43.8153
24.43490819850244 43.9786
24.457688750692377 43.6508
24.48047028445616 43.6178
24.503252800821233 43.7207
24.526214300784112 43.7579
24.548998793132213 43.6517
24.57178427117417 43.5553
24.59457073593893 43.6105
24.617536219319863 43.483000000000004
24.64032466834748 43.548
24.663114107195035 43.3553
24.685904536893013 43.3293
24.708874020360852 43.215
24.731666442613744 43.0195
24.754459858818787 43.0164
24.777254270007962 43.1018
24.80022777025625 42.8455
24.82302418230472 42.9714
24.845821592443674 42.9787
24.86862000170663 42.8809
24.891597535453727 42.7775
24.914397953892728 42.873000000000005
24.93719937456671 43.0119
24.96000179851076 43.2328
24.98298338249997 43.3401
25.00578782394922 43.5832
25.028593271784167 43.5215
25.05157790644186 43.9099
25.07438537804115 43.934
25.097193859145293 44.2429
25.120003350792075 44.3267
25.142992065061257 44.7819
25.165803588823465 44.9227
25.18861612625217 45.2646
25.211429678386736 45.4425
25.234422489079968 45.4806
25.257238081693636 45.4399
25.280054692141732 45.5062
25.3028723214652 45.297
25.325869245420463 45.3204
25.348688923599397 45.3966
25.371509623787006 45.2447
25.394331347025812 45.1065
25.41733240110666 44.8759
25.440156181590016 44.1012
25.46298098826268 43.7846
25.48580682216873 43.2793
25.50881202326435 42.7045
25.53163992281684 42.1644
25.55446885274561 41.9235
25.577298814096377 41.6215
25.600308179121807 41.5762
25.623140214533745 41.4196
25.64597328451537 41.4462
25.66898578564376 41.123000000000005
25.691820936010206 41.2015
25.714657124097695 41.3709
25.737494350954734 41.3387
25.760511045684957 41.1755
25.783350361364224 41.2284
25.806190718969255 41.0883
25.82903211955018 41.2314
25.852053024868923 41.3371
25.874896522722523 41.4835
25.897741066713106 41.2008
25.920586657892454 41.3979
25.943611790812668 41.5873
25.966459487728237 41.7157
25.989308234998564 41.592
26.01215803367705 41.8945
26.03518741123814 41.9531
26.05803932412957 41.9845
26.080892291600094 42.1887
26.10374631470478 42.1205
26.12677995397268 42.2092
26.14963609978026 42.2275
26.172493304397875 41.9788
26.19535156888223 41.8016
26.218389486949604 41.5685
26.241249882640123 41.3974
26.26411134137826 40.9701
26.28715248187403 41.0642
26.31001607820869 40.8804
26.3328807407756 40.7174
26.35574647063438 40.7829
26.37879191991473 40.7337
26.401659795896734 40.7211
26.424528742360263 40.9474
26.447398760366614 41.1709
26.470448535598294 41.3482
26.49332070826805 41.4434
26.516193955675355 41.8008
26.53906827888316 41.8944
26.562122397260108 42.0172
26.584998883685063 42.3253
26.607876449110325 42.4366
26.63075509460056 42.5636
26.65381357334404 42.8289
26.67669439061878 42.6711
26.699576291163382 42.5724
26.722459276044212 42.6349
26.745522132402975 42.4089
26.768407297649354 42.2206
26.791293550442003 41.5896
26.814180891848974 41.3875
26.837248143099337 41.0633
26.860137673466657 41.0253
26.88302829566349 40.7067
26.90592001075963 40.6599
26.92899167420566 40.527
26.951885586870763 40.1551
26.974780595655517 40.0457
26.99785558178161 39.8558
27.020752794605112 39.7479
27.043651106772522 39.4793
27.06655051935668 39.4922
27.089629948036183 39.3953
27.112531573292053 39.273
27.135434302194138 39.2609
27.158338135817015 39.1729
27.181422024430987 39.3129
27.204328079372566 39.0972
27.22723524226965 39.2915
27.250143514198573 39.2656
27.273231880156334 39.099000000000004
27.296142382065014 38.9242
27.319053996245536 38.8821
27.341966723775965 38.9717
27.365059584515222 39.1936
27.38797455070062 39.1325
27.410890633481237 39.0061
27.433807833936918 38.988
27.456905206923906 39.055
27.47982465472398 39.0253
27.502745223449743 39.0899
27.525666914182825 39.2477
27.548768816912457 39.1111
27.571692763693633 39.0495
27.59461783573812 39.0067
27.617723149491244 38.9713
27.640650484125285 38.8595
27.66357894728264 38.7066
27.686508540048052 38.7624
27.709618414237887 38.5791
27.732550278321757 38.4303
27.755483275279115 38.4849
27.778417406196485 38.5742
27.801531858397514 38.4304
27.824468269376716 38.3587
27.847405817586786 38.5044
27.870344504116094 38.6841
27.893463551932008 38.7988
27.916404527281053 38.94
27.93934664422563 38.9221
27.962289903855886 38.943000000000005
27.98541356491974 39.14
28.00835912214229 39.2848
28.03130582533231 39.5296
28.054253675581805 39.571999999999996
28.077381967556104 39.5239
28.100332124185126 39.5453
28.123283431160893 39.5945
28.146235889577238 39.448
28.169368830154156 39.2985
28.192323603752033 39.1581
28.215279532083304 38.7069
28.238415973016764 38.32
28.261374223145094 38.3841
28.284333631303806 38.1742
28.307294198589954 38.0429
28.330435319167677 37.7539
28.353398217078915 37.5904
28.376362277420153 37.2871
28.39932750129032 37.1856
28.422473319286713 37.0059
28.44544088262495 37.0073
28.468409612800283 36.8916
28.491379510913497 36.6166
28.51453004413313 36.4853
28.53750229057244 36.4725
28.56047570826344 36.433
28.583450298308804 36.4875
28.606605564586562 36.2934
28.629582511831156 36.3142
28.65256063474956 36.1925
28.675539934446338 36.1845
28.698699951647605 36.1836
28.72168161743193 36.0658
28.74466446331978 36.1512
28.767648490417624 35.9509
28.790813276438353 35.9517
28.813799678527303 35.9655
28.836787265157085 36.0609
28.859955641890075 35.9828
28.882945610203045 36.0001
28.905936766392035 35.724000000000004
28.928929111566863 35.774
28.952102288520145 35.6743
28.975097024308607 35.645
28.998092952423807 35.6669
29.021090073977508 35.5075
29.04426806913204 35.3264
29.067267590245258 35.2241
29.090268308143695 35.167
29.11327022394099 35.209
29.13645305530891 35.0136
29.159457379627167 34.9079
29.18246290519685 34.9047
29.20546963313352 34.8622
29.22865731875826 34.8381
29.25166646419296 34.9187
29.27467681535305 34.7267
29.29768837335608 34.7152
29.320880931312562 34.7908
29.34389491580634 34.7177
29.366910110507334 34.7451
29.38992651653503 34.6939
29.41312396492981 34.7242
29.436142806456754 34.708
29.45916286268059 34.5619
29.48236399319994 34.5022
29.50538649169417 34.4453
29.528410208259935 34.2359
29.55143514402014 33.9927
29.574641196749695 33.9421
29.597668583816574 33.8916
29.6206971934585 33.6257
29.64372702680042 33.6683
29.666938019934474 33.6166
29.689970313635285 33.6349
29.713003834422636 33.4933
29.73603858342347 33.5472
29.759254535188578 33.417
29.78229175361658 33.1991
29.80533020365064 33.4261
29.82836988641968 33.4144
29.85159081507472 33.2342
29.874632976355343 33.1432
29.89767637376955 33.2412
29.920721008448314 33.1456
29.9439469322847 33.0209
29.96699405457564 33.0363
29.9900424175358 33.1068
30.013092022298157 32.9785
30.03632295963995 32.8893
30.059375061131373 32.9465
30.08242840783577 33.0132
30.105483000888153 33.0
30.128718970092244 32.9641
30.151776069006917 32.9514
30.17483441768648 32.9952
30.198074175317235 33.0465
30.221135036724256 32.9613
30.24419715131772 32.8182
30.267260520236203 32.8347
30.290505341942243 32.8063
30.313571232750228 32.9013
30.336638381310948 32.9038
30.35970678876503 32.7166
30.38295669299435 32.6727
30.40602763151657 32.7328
30.429099832366074 32.5926
30.452173296685572 32.6114
30.47542830191959 32.5805
30.498504306502497 32.5514
30.521581577995562 32.6462
30.544660117543582 32.5917
30.56792024229725 32.5923
30.59100133132069 32.5973
30.614083691845494 32.6636
30.637167325018545 32.7552
30.660432587840603 32.7698
30.683518779717886 32.6283
30.70660624769615 32.7077
30.729694992924372 32.6212
30.75296541239743 32.602
30.77605672557558 32.5962
30.799149319462742 32.5524
30.8224236211637 32.5373
30.845518789950724 32.4027
30.868615242910597 32.3961
30.891712981195973 32.2181
30.91499247215866 32.1216
30.938092794619365 32.01
30.96119440587579 31.9623
30.984297307082752 31.9401
31.00758200598383 31.8355
31.030687500658694 31.7654
31.053794288760695 31.7095
31.076902371446767 31.605999999999998
31.100192296997445 31.6654
31.12330298246119 31.4896
31.14641496599209 31.2949
31.169528248749216 31.4843
31.19282341969534 31.4489
31.215939314557186 31.4723
31.239056512134788 31.3284
31.262175013589378 31.3631
31.28547544871168 31.2718
31.30859657161541 31.3067
31.331719001892175 31.245
31.35484274070538 31.3137
31.378148458819545 31.4232
31.401274828443725 31.4346
31.424402510106933 31.4161
31.447712205419993 31.381999999999998
31.470842524931633 31.2578
31.493974159989783 31.2137
31.51710711176168 31.1764
31.54042212308802 31.2027
31.563557722100917 31.1291
31.586694641341655 31.0052
31.609832881979628 31.0265
31.63315322823208 30.9698
31.656294125521327 30.7311
31.679436347728515 30.7592
31.70257989602529 30.6895
31.725905596152327 30.6689
31.74905181052835 30.575
31.772199354521323 30.6238
31.79534822930507 30.6243
31.818679302290967 30.6911
31.84183085259981 30.6899
31.864983737233473 30.5833
31.88813795736804 30.623
31.911474422233013 30.4421
31.934631327356435 30.6315
31.9577895715215 30.4921
31.980949155906522 30.4352
32.004291031706956 30.5142
32.027453310562606 30.3586
32.05061693318573 30.3044
32.07396288236386 30.2545
32.09712920658542 30.2681
32.12029687812702 30.0685
32.14346589817093 29.9694
32.166817291729984 29.9388
32.18998902288583 29.9907
32.21316210610336 29.8644
32.23633654256711 29.7233
32.259693399663725 29.6537
32.282870556771144 29.7082
32.30604907069099 29.6715
32.329228942610065 29.5617
32.35259128243769 29.3938
32.375773884550505 29.4067
32.398957848235646 29.3497
32.422143174682176 29.2733
32.445511016471215 29.1813
32.468699082679954 29.1723
32.49188851523011 29.1533
32.51507931531304 29.136
32.538452678331 29.0899
32.56164622776311 28.9501
32.58484114831493 28.8408
32.60803744118015 28.9589
32.631416344731896 28.9455
32.654615396551876 28.9324
32.67781582427913 28.8778
32.701198898634416 28.811999999999998
32.72440209253756 28.7197
32.747606665947124 28.7701
32.77081262006088 28.561
32.79420126883317 28.5273
32.81740999876112 28.4675
32.840620112999424 28.48
32.86383161274818 28.3955
32.88722585534586 28.4456
32.91044014056596 28.4948
32.933655814909734 28.4712
32.95687287957963 28.4742
32.98027273544904 28.3544
33.00349259526636 28.2773
33.026713849030116 28.3194
33.04993649794511 28.3484
33.073341986570746 28.1437
33.09656744032826 28.1151
33.11979429286444 28.1941
33.14302254538647 28.2422
33.166433686291185 28.138
33.18966475336992 28.0813
33.212897224069096 27.9873
33.23613109959831 27.9756
33.259547912343415 28.0179
33.2827846121627 27.9849
33.306022720453775 27.9283
33.32926223842861 27.816
33.352684742614166 27.9059
33.37592709463173 27.8301
33.399170859982064 27.6719
33.422597648419426 27.7608
33.44584425514446 27.5847
33.46909227885668 27.6165
33.4923417207723 27.4382
33.51577423505344 27.465999999999998
33.539026528130385 27.3744
33.56228024307245 27.3065
33.585535381098246 27.1179
33.60897364093058 27.1839
33.63223163992385 27.1764
33.6554910656699 27.0281
33.678751919389796 27.0667
33.702195944520106 27.0859
33.72545966903325 26.9474
33.74872482519663 26.929000000000002
33.771991414233746 26.9759
33.79544122444841 26.835
33.81871069412428 26.6897
33.84198160035767 26.8391
33.86525394437455 26.788
33.88870955949969 26.7051
33.911984794020626 26.7431
33.93526147001624 26.663
33.958539588715006 26.7019
33.98200102861669 26.5135
34.0052820477047 26.4308
34.02856451319451 26.4385
34.05203033759056 26.3636
34.07531571090147 26.428
34.09860253431845 26.3352
34.121890809074316 26.2895
34.145362493118924 26.2337
34.16865368561615 26.1551
34.191946333164054 26.2034
34.21524043699793 26.168000000000003
34.23871800066799 26.1578
34.26201503218366 26.0621
34.28531352370466 25.993000000000002
34.30861347646881 25.9628
34.33209693978188 25.943
34.3553998301885 25.8905
34.378704185565205 25.8121
34.402010007152356 25.7365
34.42549939016683 25.7588
34.44880815937748 25.6383
34.472118398533134 25.714000000000002
34.49543010887669 25.6633
34.51892543169198 25.5914
34.54224009966052 25.5728
34.56555624255917 25.5166
34.58887386163339 25.4132
34.61237514439016 25.4432
34.6356957311114 25.3447
34.65901779775809 25.2622
34.68252356662995 25.2722
34.705848608458616 25.3102
34.72917513396849 25.2373
34.75250314440949 25.2157
34.77601490857862 25.055
34.799345904259795 24.993000000000002
34.82267838863559 24.9957
34.846012362958525 25.0573
34.869530142679984 25.0132
34.89286711232212 24.9531
34.91620557568269 24.8979
34.93954553401677 24.8881
34.9630693495876 24.8291
34.986412313340814 24.855
35.00975677584668 24.8697
35.033102738362956 24.7908
35.05663261012228 24.7228
35.0799815881786 24.7135
35.10333207003229 24.6626
35.12668405694369 24.6394
35.150220005273056 24.6642
35.17357501786656 24.6361
35.19693153931268 24.5521
35.220289570874385 24.5632
35.24383161619786 24.5617
35.267192683604904 24.5102
35.290555264930376 24.4574
35.314101899412165 24.509
35.33746752422433 24.3875
35.36083466676374 24.4239
35.38420332829803 24.2813
35.407756095629054 24.2858
35.43112781085063 24.3017
35.45450104888391 24.2748
35.477875810999194 24.3238
35.50143473172161 24.2771
35.52481255774625 24.2808
35.54819191167777 24.1912
35.57157279478914 24.101999999999997
35.595137889488406 24.1019
35.61852184675279 24.1053
35.641907337029984 24.0069
35.665294361595684 23.921
35.68886565090076 23.912
35.7122557598848 23.8978
35.73564740699838 23.8764
35.759040593519934 23.7359
35.78261809810353 23.7163
35.80601437933051 23.7085
35.829412203814705 23.6722
35.85281157283719 23.5691
35.876395313415884 23.6201
35.8997977874528 23.5311
35.92320180988546 23.5217
35.946790244133936 23.4715
35.97019737933222 23.4681
35.993606066789866 23.449
36.01701630779276 23.4148
36.04061101440684 23.4182
36.06402437852291 23.3633
36.08743930005611 23.2908
36.1108557802951 23.1432
36.13445678011326 23.2485
36.15787639383515 23.1791
36.18129757014299 23.1494
36.20472031032821 23.138
36.22832762423364 23.0226
36.25175350829375 23.0185
36.275180960119776 23.0071
36.298609981005924 23.0919
36.32222362992669 23.0506
36.34565580510207 22.9603
36.36908955323448 22.9915
36.39252487562093 22.8121
36.416144880530226 22.7951
36.43958336764275 22.8591
36.463023432914625 22.7972
36.486465077645676 22.7065
36.51009145956204 22.7559
36.53353627947859 22.7466
36.55698268276811 22.7624
36.58043067073321 22.5751
36.60406345072071 22.6126
36.62751462435344 22.541
36.65096738658405 22.551
36.67460498210655 22.4051
36.69806093788647 22.4084
36.72151848619297 22.4085
36.744977628333636 22.4141
36.76862165890998 22.2706
36.79208400512205 22.2941
36.81554794910557 22.3275
36.83901349217101 22.2327
36.862663978991606 22.1839
36.88613273667352 22.1115
36.90960309738324 22.1693
36.933075062434064 22.0867
36.95673202673572 22.033
36.98020721697122 21.9761
37.003684015502365 21.8934
37.027162423645365 21.9223
37.050825886711465 21.8654
37.07430753063053 21.8411
37.09779078812467 21.8167
37.121275660513014 21.7696
37.144945643673694 21.7879
37.16843376245278 21.8029
37.19192350009803 21.7737
37.215414857931435 21.6482
37.239091382563885 21.5922
37.262585997426164 21.5374
37.28608223645736 21.5687
37.309763684451696 21.5845
37.33326318851098 21.4895
37.356764320726555 21.4841
37.380267082425526 21.4011
37.40395510942588 21.4219
37.42746114683234 21.3363
37.45096881771841 21.2791
37.474478123414166 21.2643
37.49817275092816 21.2683
37.52168534303452 21.2438
37.54519957395567 21.1382
37.568715445024665 21.1767
37.592416694607714 21.1502
37.61593586281424 21.1003
37.63945667518264 21.0595
37.66297913304891 21.0117
37.68668702630454 20.9757
37.710212792059274 20.9335
37.733740207334854 20.9006
37.757269273470364 20.8513
37.780983832050374 20.7926
37.80451621684926 20.8084
37.82805025654007 20.7678
37.851585952464795 20.7547
37.8753071980695 20.6651
37.89884622345676 20.7
37.92238690911902 20.623
37.94611318753442 20.6453
37.969657210779765 20.5294
37.99320289834801 20.5933
38.016750251586465 20.5259
38.04048325513017 20.4367
38.06403395679343 20.3904
38.087586328183946 20.3159
38.11114037065203 20.4081
38.13488012115898 20.4049
38.1584375229181 20.3367
38.181996599821 20.2473
38.205557353221124 20.3308
38.229303872575656 20.2117
38.2528679961576 20.1908
38.27643380031219 20.1514
38.30000128639589 20.0383
38.32375459653193 20.1429
38.34732546371299 20.1503
38.37089801690786 19.976
38.39447225747609 19.9336
38.418232380377425 19.8845
38.441810012983396 19.9245
38.46538933705673 19.9523
38.488970353960084 19.8823
38.51273731166058 19.7812
38.536321731567014 19.795
38.55990784840681 19.813
38.58367995004091 19.7546
38.60726947812959 19.6608
38.63086070726198 19.6647
38.654453638806274 19.6567
38.678232613930824 19.5785
38.70182896773327 19.5428
38.72542702806741 19.5527
38.7490267963045 19.526
38.77281266709232 19.4663
38.79641586862214 19.469
38.8200207821842 19.413
38.843627409152944 19.423
38.86742019782782 19.3246
38.891030269149255 19.3346
38.914642058016156 19.333
38.938255565806124 19.3197
38.96205529464307 19.2968
38.98567225787121 19.2567
39.00929094417078 19.204
39.03291135492255 19.1682
39.05671804624804 19.109
39.080341923549106 19.0838
39.103967529460334 19.144000000000002
39.127594865365744 19.057000000000002
39.15140854155791 18.9638
39.17503935514948 18.9635
39.19867190290282 18.9815
39.22249083587951 18.9098
39.24612686969409 18.8603
39.269764641845306 18.8774
39.293404153722804 18.8522
39.317230110864074 18.7732
39.34087311998506 18.695
39.36451787301696 18.7165
39.388164371352595 18.6521
39.41199737518003 18.6403
39.43564738196752 18.6405
39.45929913825317 18.6072
39.48295264543308 18.5626
39.506792718520884 18.6305
39.530449745387216 18.5798
39.55410852735203 18.5005
39.57776906581474 18.4612
39.60161623079 18.4601
39.625280300200025 18.4238
39.64894613032202 18.379
39.67261372255866 18.362000000000002
39.6964680021016 18.2901
39.72013913657293 18.3096
39.74381203738292 18.2893
39.76748670593756 18.2495
39.79134812278169 18.1769
39.81502634488497 18.141
39.83870633896685 18.1989
39.862388106436654 18.1155
39.88625668336918 18.0438
39.90994201572829 18.1268
39.933629125719285 18.0575
39.957503091207826 17.9175
39.9811937746168 18.0071
40.00488623990914 17.9303
40.02858048850006 17.9603
40.05246165409549 17.8927
40.076159487492085 17.8358
40.099859108448875 17.8659
40.123560518384345 17.8019
40.1474489070226 17.8036
40.171153913178564 17.7372
40.194860712584955 17.735
40.2185693066637 17.7923
40.242464941335314 17.6906
40.26617714307655 17.6481
40.289891143772046 17.6413
40.3136069448471 17.5919
40.33750984859743 17.4826
40.3612292688043 17.4987
40.3849504936829 17.5206
40.40867352466194 17.5051
40.43258372059144 17.4868
40.45631038219906 17.4198
40.48003885420956 17.3604
40.503769138055105 17.3794
40.52768664931955 17.3353
40.55142057531802 17.292
40.57515631746428 17.304000000000002
40.599079334038514 17.2837
40.62281872700477 17.2574
40.64655994043941 17.1609
40.67030297578061 17.1679
40.69423334835778 17.1883
40.71798004609188 17.0731
40.74172857006355 17.0704
40.76547892171441 17.061
40.7894166736039 16.9963
40.813170699248566 16.954
40.83692655691388 16.9914
40.86068424804498 16.9791
40.884629402612525 16.9397
40.908390779366385 16.872
40.932153993938 16.7945
40.95591904777605 16.8121
40.979871628443995 16.8281
41.003640379561936 16.817
41.02741097430883 16.8075
41.05118341413683 16.7563
41.075143444384416 16.7274
41.098919593177826 16.71
41.1226975914255 16.6142
41.14647744058318 16.6398
41.170444943946755 16.5611
41.19422851378379 16.5899
41.218013938914645 16.4875
41.24198706625173 16.4643
41.26577622087193 16.4508
41.289567235177785 16.473
41.31336011063129 16.445999999999998
41.337340752422875 16.3857
41.361137369129835 16.3762
41.38493585138705 16.3726
41.40873620066004 16.2822
41.43272438060107 16.2756
41.45652848292052 16.2596
41.48033445666918 16.1907
41.50414230331616 16.1384
41.528138045159764 16.1685
41.551949656675205 16.1204
41.575763145513235 16.1049
41.59957851314666 16.0614
41.62358184070442 16.035
41.64740098505737 16.0748
41.6712220126409 15.9981
41.69504492493139 15.9871
41.71905586207357 15.9233
41.74288256296395 15.9614
41.766711153007456 15.8938
41.79054163368412 15.8673
41.814560204340054 15.8897
41.838394485526365 15.8715
41.86223066180303 15.7985
41.88625497706819 15.7683
41.910094962812 15.7674
41.93393684811168 15.7222
41.95778063445365 15.6799
41.981812625263366 15.679
42.00566023303407 15.6888
42.029509746323676 15.647
42.05336116662236 15.5911
42.077400857069705 15.6105
42.10125611078846 15.6034
42.12511327600405 15.5438
42.14897235421036 15.4806
42.173019768448455 15.4642
42.19688269209613 15.4068
42.22074753323349 15.405
42.24461429335818 15.4234
42.268669455600495 15.3539
42.292540073217886 15.3686
42.31641261433284 15.3119
42.34028708044675 15.2772
42.36435001496739 15.2717
42.38822835065557 15.2278
42.41210861586426 15.2213
42.4359908120986 15.2147
42.46006154323262 15.1789
42.48394762115317 15.1379
42.507835634632315 15.1773
42.531912233047436 15.1042
42.55580413732265 15.0775
42.579697981698 15.0138
42.60359376768525 14.9874
42.62767820545945 14.9318
42.65157789440821 14.991
42.67547952952185 14.9461
42.699383112316 14.9414
42.72347541395347 14.8538
42.74738291190531 14.817
42.771292362102166 14.8259
42.795203766063516 14.8075
42.819303956130405 14.7863
42.843219287476536 14.7451
42.86713657716324 14.6297
42.89105582671383 14.6531
42.91516392983864 14.6959
42.939087119032166 14.6719
42.963012272677304 14.6449
42.98693939230129 14.6015
43.01105543317513 14.5228
43.034986504731386 14.5636
43.05891954686589 14.5052
43.08285456110972 14.5197
43.10697856448665 14.5034
43.130917542983475 14.4756
43.15485849820081 14.4254
43.17880143167367 14.4074
43.20293342237094 14.3749
43.226880332449 14.3335
43.25082922540554 14.3232
43.27496722682525 14.2861
43.29892010567796 14.2265
43.32287497204102 14.228
43.34683182745632 14.1685
43.370977859791836 14.1484
43.39493871351105 14.1605
43.41890156092628 14.1323
43.44286640358341 14.1409
43.46702049182749 14.1679
43.49098934522816 14.059000000000001
43.51496019852649 14.0039
43.5389330532723 14.0253
43.56309522248204 14.0351
43.58707210044314 13.9753
43.61105098451946 13.9027
43.63503187626491 13.8804
43.659202151562134 13.8763
43.68318707902681 13.8831
43.70717401884041 13.9059
43.731162972560874 13.8257
43.75534137913236 13.7819
43.779334381108384 13.7833
43.803329401683186 13.7893
43.82732644241872 13.7318
43.8515130055166 13.7664
43.87551410707659 13.7368
43.89951723350145 13.6935
43.923709934595614 13.6366
43.94771713129917 13.6397
43.97172635758096 13.5773
43.99573761501002 13.5365
44.0199385169922 13.5591
44.04395385732619 13.5162
44.067971233533086 13.5139
44.09199064718605 13.4605
44.11619977548961 13.4227
44.14022328470671 13.3805
44.16424883610785 13.4057
44.18827643127035 13.3867
44.21249381139513 13.3972
44.236525514814076 13.3467
44.26055926674478 13.2883
44.28459506876863 13.292
44.3088207262813 13.2476
44.33286064928722 13.2286
44.35690262714919 13.2307
44.38094666145278 13.2075
44.4051806219871 13.1428
44.42922879003185 13.0868
44.45327901929361 13.1339
44.477331311362136 13.1238
44.501573600619416 13.0835
44.525630039221795 13.0087
44.54968854541895 13.0278
44.573937102200176 12.985
44.5979997645541 13.0115
44.622064499300315 12.9693
44.64613130803592 12.9664
44.67038823869318 12.9719
44.69445921643748 12.8791
44.718532272981385 12.8645
44.742607409926194 12.8981
44.76687274034801 12.8583
44.79095205918753 12.8323
44.81503346325094 12.8356
44.839116954143876 12.7782
44.86339071028742 12.7298
44.88747839599524 12.709000000000001
44.91156817336837 12.7155
44.93566004401666 12.6807
44.959942251908146 12.6632
44.984038330325966 12.6114
45.00813650686762 12.5679
45.03223678314731 12.5361
45.05652746888232 12.5497
45.08063196592069 12.5416
45.104738567558705 12.4788
45.128847275414856 12.4722
45.15314646515866 12.4434
45.17725940679741 12.4442
45.20137445952892 12.4196
45.22568004865265 12.3841
45.24979934496396 12.3551
45.27392075725247 12.339
45.29804428714431 12.3302
45.322358426247604 12.3061
45.346486212804315 12.3346
45.370616121861914 12.2891
45.39474815505086 12.2129
45.41907087049246 12.2134
45.4432071734666 12.1996
45.46734560548283 12.2173
45.49148616817604 12.1967
45.51581748638564 12.1937
45.5399623320197 12.162
45.56410931325473 12.112
45.58825843173002 12.081
45.61259837920865 12.0371
45.636751793816 12.0621
45.66090735060093 11.9864
45.68506505120716 12.0315
45.7094136545275 11.9485
45.73357566449271 11.9711
45.75773982322992 11.9317
45.78190613238733 11.8896
45.806263418194064 11.884
45.83043404997326 11.8975
45.85460683713677 11.8756
45.87897065658495 11.7983
45.90314777634752 11.7631
45.92732705646868 11.7653
45.9515084986045 11.7323
45.97588104735473 11.7224
46.00006683541565 11.7263
46.02425479047904 11.6929
46.04844491420549 11.6762
46.0728262191024 11.7286
46.09702070211635 11.6386
46.12121735879483 11.6429
46.14541619080294 11.6153
46.169806278764455 11.5752
46.194009483459034 11.5427
46.21821486849841 11.5421
46.24242243555223 11.5533
46.266821333570014 11.4817
46.29103328674601 11.423
46.31524742696538 11.4537
46.33946375590237 11.4203
46.36387149104216 11.4141
46.38809221957392 11.3811
46.41231514186606 11.3706
46.436540259597464 11.3481
46.460956858999374 11.3389
46.48518638983522 11.3069
46.509418121166966 11.2901
46.533652054678114 11.3214
46.55807754555709 11.2446
46.58231590571962 11.2168
46.60655647313217 11.1841
46.630988654873654 11.1532
46.655233659129024 11.1398
46.67948087571551 11.1309
46.70373030632484 11.130999999999998
46.72817142736393 11.1229
46.752425308428684 11.0872
46.77668140861147 11.0323
46.80093972960865 11.0181
46.82538981736788 10.9871
46.849652602470904 11.040999999999999
46.87391761349769 10.9732
46.8981848521493 10.9633
46.9226439341274 10.9329
46.946915650573224 10.9115
46.97118959976749 10.8808
46.99546578341598 10.8418
47.019933887188216 10.8484
47.04421456235744 10.7997
47.06849747711879 10.792
47.09278263318286 10.7804
47.11725978640143 10.7434
47.14154944775105 10.7312
47.165841355555656 10.7194
47.1901355115306 10.6917
47.214621741924994 10.7234
47.23892041698887 10.7028
47.26322134538975 10.6568
47.28771440635075 10.6114
47.31201986422527 10.6418
47.33632758061436 10.5915
47.360637557241866 10.5645
47.38513974410611 10.5583
47.40945426407847 10.5503
47.43377104948137 10.5378
47.45809010204344 10.4859
47.48260144275502 10.5013
47.506925052572285 10.4551
47.53125093475548 10.3847
47.55557909103813 10.4463
47.58009961361992 10.3795
47.60443234110732 10.3315
47.62876734791564 10.3473
47.65310463578333 10.357999999999999
47.6776343683373 10.3397
47.7019762413987 10.2954
47.72632040075572 10.2752
47.75066684815169 10.2893
47.77520581885936 10.2586
47.799556865477655 10.2128
47.823910205386 10.201
47.84826584033272 10.1947
47.87281407745551 10.1299
47.89717432569297 10.1202
47.92153687423484 10.1398
47.94609208429692 10.1066
47.97045925671401 10.1027
47.99482873471275 10.1033
48.01920052005013 10.0811
48.04376504619224 10.037
48.068141469543484 10.0495
48.09252020552573 10.0036
48.11690125590099 9.968060000000001
48.1414751266064 9.965530000000001
48.16586082917454 9.97287
48.19024885144316 9.96375
48.2146391951793 9.91628
48.239222439012764 9.938239999999999
48.26361744916137 9.877880000000001
48.28801478610016 9.84983
48.31241445160131 9.8496
48.337007097209366 9.82271
48.36141144338331 9.838519999999999
48.38581812345755 9.8018
48.41022713920929 9.78779
48.434829215320704 9.77848
48.45924292604658 9.75837
48.48365897780325 9.74993
48.50807737237308 9.7361
48.532688907799276 9.703389999999999
48.55711201168574 9.65351
48.581537463754074 9.65615
48.60615611725119 9.64364
48.63058628942721 9.62084
48.65501881516546 9.61053
48.6794536962573 9.57231
48.70408185970339 9.52905
48.72852147531801 9.5482
48.75296345168211 9.55408
48.77740779059232 9.507810000000001
48.80204549302823 9.54032
48.82649458091802 9.49898
48.85094603676547 9.43592
48.87539986237231 9.44714
48.90004713292306 9.42597
48.92450572200832 9.401689999999999
48.94896668628025 9.35943
48.97343002754588 9.38654
48.99808689542115 9.324810000000001
49.02255501470614 9.35187
49.04702551642794 9.31334
49.0714984023988 9.25958
49.096164896893235 9.25836
49.120642575466796 9.24741
49.145122643748394 9.27078
49.16960510355558 9.22708
49.19428125404938 9.21326
49.2187685210852 9.19675
49.243258185121555 9.182260000000001
49.26794160167084 9.1572
49.2924360839405 9.14218
49.31693296869764 9.11411
49.34143225776915 9.10617
49.36612538195438 9.09308
49.39062950396021 9.05145
49.41513603578346 9.06126
49.4396449792564 9.03426
49.46434784069503 9.05868
49.488861631846454 8.99514
49.513377840166804 8.97765
49.537896467493745 8.94697
49.56260909589029 8.96001
49.587132585683285 8.94074
49.611658500018365 8.94212
49.636186840738596 8.89398
49.66090926588511 8.90363
49.685442483902584 8.856119999999999
49.70997813385706 8.84786
49.734516217597076 8.84597
49.75924846937352 8.802439999999999
49.7837914452858 8.76887
49.80833686055187 8.80012
49.83288471702571 8.76112
49.85762682540054 8.765369999999999
49.882179588965734 8.72809
49.9067347993235 8.723339999999999
49.93129245833333 8.705810000000001
49.95604445336378 8.671510000000001
49.98060703442832 8.638810000000001
50.005172069746266 8.6322
50.02993150438364 8.65581
50.05450147301533 8.64515
50.07907390151433 8.610289999999999
50.10364879174981 8.568660000000001
50.12841816587289 8.562489999999999
50.1529980044635 8.57541
50.17758031042124 8.521289999999999
50.20216508562089 8.51273
50.22694442953363 8.47424
50.25153416817468 8.45983
50.27612638170508 8.46991
50.300721072005196 8.43117
50.325510416102105 8.4331
50.350110084975064 8.397910000000001
50.37471223628208 8.38872
50.39931687190919 8.381960000000001
50.424116246675766 8.35666
50.44872587605249 8.3358
50.47333799543065 8.35576
50.49795260670191 8.33832
50.52276204271512 8.29164
50.54738166295838 8.267610000000001
50.57200378079314 8.26137
50.596628398116835 8.28351
50.62144792604559 8.26356
50.646077567609396 8.22183
50.670709714377715 8.220469999999999
50.69553683636198 8.20342
50.72017401885922 8.16924
50.7448137122895 8.1672
50.76945591856022 8.16127
50.79429318636823 8.101519999999999
50.818940443716784 8.12412
50.84359021965163 8.11808
50.868242516085964 8.10379
50.893089960641895 8.05826
50.917747323549435 8.02678
50.94240721271973 8.03553
50.96706963007175 8.00177
50.99192728239342 8.00271
51.01659478166073 7.977930000000001
51.04126481489051 7.9650300000000005
51.06593738400761 7.938560000000001
51.090805275207074 7.94347
51.11548294172845 7.9283
51.14016314993547 7.920310000000001
51.164845901758845 7.92125
51.18972406304274 7.8780600000000005
51.21441192780656 7.869280000000001
51.23910234200271 7.84808
51.2637953075678 7.83551
51.288683770237945 7.774589999999999
51.31338186432707 7.785189999999999
51.33808251561888 7.7769
51.362978729967345 7.7652399999999995
51.387684521509755 7.751930000000001
51.41239287610203 7.73813
51.437103795691165 7.70878
51.46201036644977 7.6795100000000005
51.486726441956634 7.64498
51.51144508832545 7.642530000000001
51.536166307509156 7.63887
51.56108326624387 7.6308300000000004
51.58580965706056 7.64009
51.61053862657523 7.6332
51.635270176746864 7.5858
51.66019755512065 7.575480000000001
51.68493429268881 7.56756
51.70967361681515 7.54793
51.73441552946465 7.5195
51.759353359237934 7.54305
51.7841004750961 7.54454
51.80885018539685 7.5000800000000005
51.833602492111254 7.449839999999999
51.8585508051424 7.4541699999999995
51.883308330926425 7.42433
51.90806845906181 7.411639999999999
51.932831191525715 7.368339999999999
51.95779001977161 7.3293800000000005
51.98255798721516 7.326980000000001
52.00732856494335 7.3637
52.03229530577543 7.33228
52.057071130455945 7.31482
52.081849571391054 7.32948
52.106630630568695 7.347389999999999
52.13160794279417 7.27238
52.15639426492067 7.2668800000000005
52.18118321127822 7.255889999999999
52.205974783860896 7.2471
52.23096269971011 7.21382
52.255759551287994 7.17547
52.280559035098186 7.156630000000001
52.30536115314103 7.1642
52.33035970494467 7.20361
52.35516711807904 7.172610000000001
52.37997717147198 7.12938
52.40478986713005 7.124960000000001
52.42979908731974 7.1039699999999995
52.454617094216 7.05978
52.47943774942214 7.057
52.50426105495102 7.04891
52.529280976059844 7.06435
52.554109609024096 7.03998
52.57894089837482 6.99788
52.60377484613117 7.007280000000001
52.62880550079408 7.00315
52.65364479223379 6.966139999999999
52.67848674816189 6.9618199999999995
52.70352547971946 6.92392
52.72837279155837 6.91432
52.753222773982785 6.89695
52.778075429022984 6.89831
52.80312495150885 6.86786
52.827982978797436 6.87375
52.85284368481815 6.8358300000000005
52.87770707160767 6.82711
52.90276741793998 6.80262
52.92763619336701 6.784339999999999
52.952507655698504 6.76593
52.977381806977576 6.79
53.00245301017842 6.77727
53.02733256653592 6.7352
53.052214817996074 6.7602199999999995
53.077099766608484 6.708819999999999
53.102181859804446 6.6902
53.127072229988265 6.70558
53.15196530349892 6.6919699999999995
53.17686108239249 6.67855
53.20195409881522 6.68662
53.22685531582556 6.62892
53.25175924441303 6.6200399999999995
53.27666588664027 6.60734
53.30176985962693 6.55963
53.3266819565689 6.559819999999999
53.35159677336455 6.613360000000001
53.376514312083096 6.59357
53.40162927507703 6.54292
53.42655228516116 6.50591
53.45147802340193 6.54301
53.47660125628886 6.50851
53.50153247842639 6.48299
53.52646643496923 6.46076
53.55140312799818 6.46011
53.576537409691696 6.45363
53.60147960336152 6.42317
53.626424539786164 6.37865
53.65137222105307 6.41944
53.67651758529126 6.38258
53.70147078399681 6.38042
53.72642673383343 6.36134
53.75138543689533 6.31994
53.776541917524526 6.328069999999999
53.801506154876755 6.32672
53.826473151763246 6.32418
53.851442910284916 6.299169999999999
53.87661054126026 6.27359
53.9015858509782 6.239719999999999
53.92656392866066 6.2672300000000005
53.95154477641532 6.28483
53.976723591801296 6.19159
54.00171000771266 6.21079
54.02669920004598 6.20228
54.051691170915745 6.22119
54.076881204886796 6.14175
54.101878760928514 6.17472
54.12687910187696 6.1277099999999995
54.152077577768296 6.12314
54.1770835166946 6.11417
54.20209224691339 6.0465599999999995
54.22710377055121 6.09591
54.25231352511594 6.08237
54.27733066384342 6.0587599999999995
54.30235060239643 6.05941
54.32737334290836 6.04325
54.35259441062629 6.0127
54.377622783395324 5.98
54.40265396455061 5.98077
54.42768795623251 5.97034
54.45292037169559 5.93981
54.477960012857906 5.90993
54.50300247099511 5.9044300000000005
54.52804774825457 5.88561
54.55329154616743 5.90953
54.57834249018678 5.84784
54.6033962597977 5.8126
54.6284528571545 5.8299199999999995
54.653708072335164 5.77232
54.67877035378786 5.77709
54.70383546947698 5.70961
54.72890342156389 5.72498
54.7541700889442 5.69802
54.77924374251975 5.6870199999999995
54.8043202390049 5.67505
54.82959552413022 5.61359
54.8546777351945 5.59914
54.87976279569621 5.57289
54.90485070780914 5.61894
54.930137506558005 5.55392
54.95523115074295 5.5782099999999994
54.98032765308844 5.53015
55.005427015775496 5.43956
55.03072536339621 5.49989
55.05583047570572 5.46099
55.080938454927676 5.46358
55.10604930325027 5.47964
55.131359235107396 5.42323
55.15647585066083 5.380809999999999
55.181595341907496 5.3286
55.20671771104285 5.33183
55.232039262617704 5.33155
55.25716741665048 5.28526
55.28229845518636 5.29258
55.30743238042802 5.20066
55.33276558731939 5.228
55.357905315183636 5.26536
55.383047936390035 5.2045
55.40819345314859 5.148280000000001
55.433538351073295 5.14044
55.458689688238415 5.13284
55.483843927614096 5.0246699999999995
55.509197623043605 5.07116
55.53435769621134 5.0096300000000005
55.55952067826466 5.0488
55.5846865714265 4.99148
55.61005202069737 4.99359
55.63522376553902 4.94097
55.66039842818645 4.950740000000001
55.68557601087004 4.94451
55.7109532500271 4.89535
55.73613670233794 4.87735
