TT I
1.2716486653135266 6.92783
1.2939594142134223 7.10509
1.3162702121660406 6.13785
1.3385810600174564 5.93803
1.3608919586137629 6.64027
1.383202908801069 5.9842900000000006
1.405513911425503 5.45942
1.4278249673332093 5.48562
1.4501343378461518 5.57103
1.4724455028545926 5.82912
1.4947567236847858 4.99535
1.517068001182951 5.2746900000000005
1.5393793361953272 5.36942
1.5616907295681737 5.7664599999999995
1.5840021821477681 5.0907
1.60631369478041 5.02513
1.6286252683124185 4.624280000000001
1.6509369035901333 4.77003
1.6732468618895553 4.63806
1.695558623192809 4.8537300000000005
1.7178704487808514 4.19452
1.7401823395001077 4.17753
1.7625012545597203 4.0632
1.7848028405262486 4.1676400000000005
1.8071218901122095 4.36492
1.8294236121921872 3.8701199999999996
1.8517427996910911 4.01355
1.8740620574440425 4.22658
1.8963639900671978 4.4772
1.9186833908139995 4.06721
1.9409854680117449 4.29274
1.9633050151394713 4.6112
1.9856246367570705 3.83875
2.0079269371922672 4.02652
2.03024671027244 3.5300199999999995
2.0525491637446027 4.05156
2.074869091674931 3.89269
2.097171701569106 3.92214
2.1194917877373847 4.33514
2.141811954326636 4.58749
2.164114805233074 4.29882
2.186435135143035 3.97201
2.208738150935709 4.99041
2.231058647554722 6.3879
2.2533792288321184 5.88048
2.275682498336085 5.65193
2.298003251406138 5.40297
2.3203066942619714 5.02436
2.3426276225136022 5.23768
2.3649486396617507 5.35723
2.387252348930071 5.45416
2.4095735463442893 5.72117
2.4318774374315884 5.37207
2.4541988185014043 6.30682
2.476502894794693 6.48806
2.498824462909887 6.43737
2.521146125856138 6.79287
2.5434504863470337 7.47805
2.5657723414244717 6.98773
2.588076895590662 8.12314
2.610398946189713 8.00948
2.6327210958598384 7.999039999999999
2.6550259469304716 7.815910000000001
2.6773482972090137 7.972230000000001
2.6996533504259 8.65418
2.7219759047039602 8.16874
2.744298562293959 8.62565
2.7666039251246595 8.333110000000001
2.7889267918020164 8.28088
2.8112323652516555 7.965310000000001
2.833555444408179 8.68265
2.8558786311183852 8.23991
2.8781845268938557 8.73103
2.9005079311721484 9.18143
2.9228140460410397 9.11486
2.9451376712799635 9.44637
2.967444008632326 9.0461
2.9897678582247247 9.46774
3.0120918213106695 10.3756
3.0343984987899373 10.3251
3.0567226913198637 10.3335
3.079029599759726 11.3759
3.101354025127254 11.2277
3.123678568232338 11.9464
3.145985829517914 12.4839
3.16831061055229 12.9241
3.1906181112775593 14.1336
3.212943133635653 14.2673
3.2352682779763207 14.6843
3.2575761442691227 14.9325
3.2799015350264273 15.2159
3.302209649240067 15.9539
3.3245352898092655 16.5228
3.3468436553365257 16.4375
3.369169549113219 16.8082
3.3914955708171384 17.685
3.413804319727358 17.7137
3.4361305997334863 17.7572
3.4584396084414553 18.5831
3.4807661501462652 19.1603
3.503092824025881 19.8328
3.5254022288463154 19.9011
3.5477291695206588 20.0935
3.5700388426251948 20.5502
3.5923660534916446 20.9836
3.6146934007816114 22.5078
3.637003482731501 27.2707
3.6593311053109985 29.4817
3.681641464033634 26.3824
3.7039693653009733 23.973000000000003
3.726297407241705 24.0611
3.7486081875460804 23.5668
3.7709365132734978 24.4105
3.793247578841633 25.2163
3.8155761917550093 25.369
3.8378875459837216 25.7828
3.8602164494827234 25.9511
3.882545499606844 26.435
3.9048572932539183 27.335
3.9271866390645718 27.4431
3.9494987298666713 27.9838
3.971828374764527 28.4088
3.9941581705403255 28.8339
4.016470713506008 29.6439
4.038800813471445 30.3932
4.061113662089144 31.0348
4.0834440696459176 31.254
4.105774632334751 31.4631
4.128087945865126 32.4487
4.150418821249301 32.9791
4.172732448931298 33.4959
4.195063640413578 34.4266
4.2173775856475215 34.9991
4.239709096631102 37.6398
4.262040768704612 51.8807
4.284355196706267 63.4153
4.306687193387355 56.5411
4.329001947444346 43.8558
4.35133427213731 40.3989
4.373666762177566 40.4028
4.395982011761091 40.9318
4.418314834921175 42.2222
4.44063041906622 43.2657
4.4629635787515625 44.7961
4.4852969080429785 45.8795
4.5076130004776225 46.6954
4.529946671403969 46.6969
4.552263106909177 46.7943
4.574597122877047 48.6131
4.596931312711224 49.7574
4.619248269273446 50.923
4.6415828092605835 51.9462
4.663900117405352 52.7914
4.686235010953232 54.0288
4.708552674085913 55.2552
4.730887924602802 56.5834
4.753223354952695 57.8483
4.775541557023902 58.8631
4.797877349456786 60.7069
4.820195915032126 62.6052
4.842532072957498 64.0931
4.864868414979744 65.7852
4.88718753227192 67.7943
4.909524244902505 69.4849
4.931843734218147 71.3207
4.954180820867835 74.0668
4.976518095879839 76.5162
4.998838149695359 79.4061
5.021175803844231 82.5967
5.043496238205739 85.4544
5.065834274903528 89.3109
5.088172504230693 93.3959
5.1104935158799565 97.9821
5.132832132875765 105.11399999999999
5.155153533596801 118.194
5.1774925416746225 136.776
5.199814334878411 228.922
5.2221537374521505 807.278
5.244493338631803 2529.11
5.266815727034316 7248.42
5.289155727832427 13816.7
5.311478517248165 9938.69
5.333818921080011 3363.45
5.356159527788849 663.071
5.3784829252032536 201.40599999999998
5.400823940070432 142.27100000000002
5.423147747031976 122.809
5.445489173474152 113.306
5.467830807066149 108.13
5.490155234831516 104.17299999999999
5.512497285125229 101.02799999999999
5.534822130975162 99.3201
5.557164601388673 97.2793
5.579489868738879 94.4707
5.601832762690846 92.8893
5.6241758697774475 91.9655
5.646501775867269 91.3443
5.668845311622074 90.6496
5.691171647754637 89.8807
5.713515615597765 89.0163
5.735859800852677 88.4063
5.758186788542988 86.78299999999999
5.780531411018185 87.3583
5.802858837297399 86.8696
5.825203900414495 86.0356
5.8475491852224 86.4511
5.869877275883075 86.8302
5.892223006467101 88.04299999999999
5.914551544266608 88.6036
5.936897724049891 91.0546
5.959244129804903 94.844
5.981573344815301 106.363
6.0039202049061 162.90200000000002
6.026249875609095 391.449
6.04859719346037 885.03
6.070927323278297 2033.97
6.093275102315365 4462.07
6.115623113320588 5525.31
6.137953938319995 3607.69
6.160302415650845 1096.17
6.182633708324452 244.02200000000002
6.2049826554078376 109.553
6.227331838745022 86.99700000000001
6.249663839443684 80.1932
6.27201349767565 76.0535
6.294345974611799 73.5793
6.316696111167083 73.006
6.339046488263839 71.9415
6.361379686074702 68.3857
6.383730546639482 66.4845
6.406064229255215 64.6372
6.428415576718203 64.1767
6.450749747566656 63.3874
6.47310158535871 62.5531
6.495453669698332 61.7067
6.517788579421056 61.44
6.540141159237969 60.2456
6.562476565766648 59.6187
6.5848296444934045 58.6829
6.607182974060425 58.1053
6.6295191323281015 58.1219
6.651872965955752 57.6833
6.6742096296068985 58.5632
6.6965639707294615 63.0202
6.71891856698715 64.0823
6.741255995248479 59.6862
6.763611104154477 56.6197
6.785949046381137 55.4936
6.808304671371482 54.3532
6.8306605557940046 54.2927
6.852999275508618 53.9434
6.875355681171544 53.797
6.897694923437771 53.5171
6.92005185377892 53.8532
6.9423916220322655 53.7391
6.964749080490181 52.4113
6.987106804399774 52.269
7.009447368180821 52.6522
7.031805625367033 52.357
7.054146723727803 52.3322
7.076505517631004 51.9148
7.098864581288365 52.1197
7.121206488070854 51.7879
7.143566093607822 51.318999999999996
7.165908543567245 51.5988
7.188268694426048 51.3515
7.2106291193438095 50.7484
7.232972390625943 51.0213
7.255333366030969 52.0566
7.277677189091925 55.4036
7.300038718428332 61.5161
7.322400526130865 60.9601
7.344745183422596 55.45
7.367107550224791 52.1636
7.389452767901992 51.9236
7.411815697249891 51.9688
7.434161478756298 51.1707
7.456524974096713 51.0597
7.478888753837185 51.3453
7.501235387657368 52.5766
7.523599738562711 57.533
7.545946944825532 65.9668
7.568311870344528 70.2571
7.5906770845765665 63.4571
7.613025156078678 56.2987
7.635390950099687 53.8794
7.657739602662809 52.6787
7.680105979923558 52.4728
7.702472650212829 53.3104
7.724822180948224 52.8513
7.747189439655568 53.2481
7.769539560075357 52.9339
7.791907410653562 53.949
7.81425812420825 53.7769
7.836626570110925 53.4748
7.858995315087906 54.5667
7.881346924933401 54.8892
7.903716270417482 55.4597
7.926068482028405 55.6108
7.948438431475253 56.0646
7.9708086843180235 56.7129
7.993161805171116 57.6552
8.015532667162402 57.7927
8.037886398416653 58.6482
8.060257873014221 58.8818
8.082629655331942 59.5331
8.104984308787587 60.0496
8.127356708900503 60.8439
8.149711981398308 62.2549
8.172085002766314 63.4713
8.194458336181368 64.0354
8.216814543847752 64.4326
8.23918850371002 65.74
8.26154533906492 66.558
8.283919928836452 68.3545
8.306277395339652 68.9335
8.328652618483376 70.2353
8.351028159736202 72.172
8.373386579575245 74.0407
8.395762759396959 75.4048
8.418121819038275 77.9394
8.440498640894003 81.1005
8.462875785192262 86.2615
8.485235811156207 94.0694
8.507613602688501 128.00799999999998
8.529974277114228 231.857
8.552352719347912 380.092
8.574731488360351 621.159
8.59709314210385 1102.67
8.619472567021075 1851.19
8.64183487789147 2332.02
8.664214962183097 2025.38
8.686577933647762 1127.3
8.708958680784317 422.082
8.731339760774953 172.47
8.753703729764451 108.931
8.77608547780821 94.7326
8.798450116065078 91.3644
8.820832535634787 88.4918
8.843215292401656 86.8394
8.865580941199045 85.4949
8.887964374703538 84.1979
8.910330701447199 83.3003
8.932714815164482 83.1598
8.955099270424924 82.6499
8.977466620733543 81.7811
8.999851761421976 80.8671
9.022219798361645 80.2193
9.04460562795561 80.1158
9.066991803441677 79.5687
9.089360876979615 79.5237
9.111747746589993 79.2801
9.13411751544971 78.8473
9.156505082664324 78.4412
9.178875550323522 79.1219
9.20126381862328 81.02
9.223652438908596 88.7744
9.246023961427412 101.695
9.26841328802173 106.355
9.290785518039224 98.1281
9.313175554425882 87.01799999999999
9.335565947154315 81.3012
9.357939245086508 79.7778
9.380330352834827 79.8369
9.40270436697103 79.9413
9.425096193225055 79.5323
9.447488380180165 80.59899999999999
9.469863475295412 81.0221
9.492256385987508 81.1543
9.514632206018318 81.8944
9.537025843935714 82.1322
9.559402392368193 82.1364
9.581796761000229 82.8998
9.604191496441521 83.2859
9.626569144158516 84.3718
9.648964615551032 85.5157
9.671343000390081 86.7918
9.693739211225699 87.52799999999999
9.716135793237463 88.1227
9.738515290448102 88.5213
9.760912617143402 89.6525
9.783292860202891 90.8613
9.805690935076182 91.4233
9.828089385495742 92.5653
9.850470754023561 94.5229
9.872869957865444 96.1434
9.89525208097539 99.25399999999999
9.917652041736662 103.115
9.940052382417589 106.02600000000001
9.962435644102392 114.749
9.984836746950979 145.972
10.007220771957746 227.373
10.029622640473708 349.94199999999995
10.052007432299963 521.187
10.074410069984072 773.905
10.096813093716005 1197.29
10.119199042482517 1757.15
10.141602840636468 2104.24
10.163989564971628 1731.24
10.186394141051062 1021.39
10.208799107559706 448.514
10.231187001965623 199.9
10.253592751657669 124.934
10.275981430388155 107.79299999999999
10.298387966769793 102.931
10.320794897965431 102.039
10.343184759907361 101.031
10.36559248305461 99.2333
10.387983138083852 97.6936
10.410391656691655 98.8337
10.432800574501677 107.896
10.455192425893369 129.954
10.47760214443012 162.869
10.499994797678786 205.253
10.522405320453982 274.422
10.54479877906917 387.279
10.567210109595656 511.95599999999996
10.5896218454736 595.123
10.612016518879773 576.071
10.634429067781074 405.73800000000006
10.656824555333241 237.11
10.679237920773568 143.143
10.701651695961992 103.389
10.724048411481384 91.8192
10.746463008485165 85.6523
10.768860546937125 82.1793
10.791275969274796 79.8771
10.81369180576079 78.77
10.836090585366925 77.7045
10.858507252467449 76.5106
10.88090686379991 75.7052
10.903324365036394 74.6409
10.925724811614439 73.4959
10.948143150509463 73.2697
10.970561909719066 72.6954
10.992963615930844 71.6507
11.015383218085756 70.3633
11.037785768347074 69.6276
11.06020621697282 69.2032
11.082627090322113 68.8989
11.105030913430326 68.1935
11.12745263854165 67.6684
11.149857314510728 67.008
11.172279894912576 67.65100000000001
11.194702904450653 67.14399999999999
11.217108866490921 66.2848
11.239532736615194 65.5911
11.26193956033512 65.1078
11.284364294577085 64.936
11.306789462371718 64.2558
11.329197585398376 63.9157
11.351623622610898 63.8104
11.37403261614354 63.152
11.396459526308487 63.1282
11.418869393879497 62.6279
11.441297180532617 62.1329
11.463725406927658 61.898
11.486136592353875 61.5042
11.508565700543707 61.062
11.530977768845315 61.4194
11.553407762368774 61.2218
11.575838200059769 61.385
11.598251599479612 60.8725
11.620682927815501 60.6602
11.64309721895548 60.5331
11.665529441478206 60.1555
11.687962112597958 59.9885
11.710377748130886 60.1474
11.732811318753434 59.9653
11.755227854859067 60.0518
11.777662328529495 59.8051
11.800079768750786 59.8614
11.822515149015453 59.6165
11.844950984084935 60.0619
11.867369787303163 59.9177
11.889806534289491 60.1757
11.912226250487029 61.681000000000004
11.934663912939751 64.2367
11.9571020346363 66.2906
11.979523127133968 66.9321
12.001962169624331 65.6047
12.024384183972964 63.3139
12.046824150809913 64.2945
12.069264581333726 69.6129
12.091687985297767 77.3354
12.11412934550045 87.03200000000001
12.136553680195208 100.385
12.158995973632788 121.55799999999999
12.181438735204349 147.148
12.20386447284199 180.4
12.226308172985636 201.111
12.24873485024193 209.674
12.271179492516982 178.18099999999998
12.293607112949127 134.59
12.316052700916226 96.7563
12.338498763250042 74.0568
12.360927805303868 64.5658
12.383374818673879 62.1072
12.405804812803074 61.2868
12.428252780773262 61.1321
12.45070122756722 61.3072
12.473132656675375 61.1619
12.49558206341869 61.3136
12.518014453510101 61.2206
12.540464823770117 61.301
12.562915677315177 61.369
12.58534951575545 62.1322
12.607801338171472 62.0147
12.630236146511358 62.7541
12.652688941369085 63.6335
12.675124723177234 64.1284
12.697578494048786 64.275
12.720032754458185 63.9366
12.742470003354093 64.2214
12.764925245138771 64.5266
12.787363476431278 64.9819
12.809819703166806 65.2673
12.83227642391173 66.10300000000001
12.854716135692716 66.7987
12.877173846755147 67.6681
12.899614549869717 67.884
12.9220732548287 68.6016
12.94453245827299 69.2922
12.966974655289818 70.0845
12.989434858002571 71.0982
13.011878055298721 72.1272
13.034339260862497 73.0135
13.056800969391883 74.3647
13.079245674017244 76.4554
13.101708390774869 78.282
13.12415410463411 82.0241
13.146617833206086 92.604
13.169064559883248 108.447
13.191529303857127 126.969
13.213994557076367 150.091
13.236442809902437 183.18
13.258909083908291 231.727
13.28135835851934 293.85400000000004
13.30382565690295 371.59
13.326293469022952 440.279
13.348744283242008 448.82800000000003
13.371213125129904 381.29900000000004
13.39366497011003 280.45799999999997
13.416134845360597 183.458
13.438605238843131 126.822
13.46105863690397 102.792
13.483530069144786 99.4
13.505984506951902 106.954
13.528456981549432 121.116
13.550929978879088 137.11700000000002
13.573385983253365 158.463
13.595860028340867 190.612
13.618317081455832 238.15200000000002
13.64079217790333 298.98400000000004
13.663250283359057 357.55800000000005
13.685726434770173 389.59
13.708203115221277 363.39300000000003
13.730662806148091 289.465
13.75314054697177 205.733
13.775601299246777 138.495
13.798080104050406 100.315
13.820559442405358 84.6028
13.843021793671388 79.3481
13.865502201420897 77.5734
13.887965623051947 76.8486
13.910447103807167 75.8804
13.932929122629764 74.7741
13.955394156785959 74.3345
13.977877254034569 73.5519
14.000343367582113 72.8188
14.022827546871707 72.0463
14.045294743423524 71.3835
14.06778000837062 70.6919
14.090265817715476 70.7562
14.112734645763819 71.4459
14.13522154619454 72.7755
14.157691466286913 74.3094
14.180179461423874 74.4974
14.202668005486178 72.4065
14.22513957064374 70.2711
14.247629214846473 68.7099
14.270101881097517 67.808
14.29259262906496 67.4836
14.315083930490205 67.5283
14.337558255389705 67.3595
14.360050666019726 67.1526
14.382526101071944 66.9437
14.405019624534942 66.3711
14.427513705993134 66.2217
14.449990813291825 66.541
14.47248601302899 66.3973
14.49496423954951 66.3279
14.517460561197822 66.5456
14.539939910570322 66.2239
14.562437357763558 66.2556
14.58493536931253 66.9172
14.607416409993311 66.8563
14.62991555254159 67.3793
14.652397725157423 67.2261
14.674898002342799 67.479
14.697398848433282 67.4292
14.719882725991326 68.3851
14.74238471217934 68.7935
14.764869730765593 70.5746
14.787372860692983 74.5697
14.809876564079925 81.4213
14.83236330125751 89.462
14.854868153850365 98.6317
14.877356041159485 111.198
14.899862046604186 126.949
14.922351087688757 149.815
14.944858249632887 179.43400000000003
14.967365991421232 209.463
14.989856770231246 229.794
15.012365673994204 228.43200000000002
15.03485761569738 200.831
15.05736768508665 159.006
15.07987833888692 121.552
15.102372032001655 93.9402
15.124883856909658 77.0558
15.14737872204565 71.1191
15.169891721717274 68.6955
15.192405310371893 68.0406
15.214901940621196 67.4846
15.237416709527137 66.5486
15.259914520936249 66.3616
15.282430473753607 65.6951
15.304947020131227 65.3572
15.327446610371178 65.0903
15.349964346154254 64.6782
15.372465126703139 64.7364
15.394984055556009 64.3146
15.417486030076159 64.2261
15.44000615566487 63.8781
15.462526881230803 63.9123
15.485030653812652 63.7193
15.507552581617434 63.48
15.530057557334603 63.4552
15.55258069104857 63.6553
15.575104429329837 63.8534
15.597611216864632 63.5505
15.620136166564563 63.5504
15.6426441664095 64.0608
15.665170331202765 65.238
15.687697105158826 68.6898
15.710206930593545 74.1953
15.732734925158933 80.1835
15.755245972089478 87.0738
15.77777519094324 95.7714
15.800287463046663 106.588
15.822817909869592 124.119
15.84534897229804 144.543
15.867863089299354 169.43200000000002
15.890395385222186 191.25
15.912910736597423 202.524
15.935444269699861 195.525
15.957978423016485 169.231
15.980495633101265 134.96
16.003031029129367 104.38600000000001
16.02554948280019 81.1717
16.048086125229432 69.1888
16.070623392487107 64.4908
16.09314371869582 62.5907
16.11568223789321 61.2142
16.13820381691126 59.8587
16.160743591742527 59.0492
16.183283996022084 58.2178
16.205807461423195 57.6031
16.228349126881973 56.9695
16.25087385432698 57.0282
16.27341678466365 56.4154
16.29594277784926 56.1413
16.31848697676433 55.8828
16.341031811604868 55.3519
16.36355971058487 55.1475
16.3861058195587 55.2456
16.40863499352978 54.4939
16.431182380342005 54.3848
16.453730407713202 53.9919
16.476261501364792 53.7414
16.498810812136167 53.5021
16.52134319004079 53.4503
16.54389378792203 53.6054
16.566445031001553 53.3042
16.588979342490088 53.2998
16.61153187824822 53.0342
16.634067483263312 52.8115
16.656621315414416 52.9656
16.679175797408888 52.5872
16.701713349928728 52.8563
16.72426913389191 52.8861
16.74680798922351 52.8766
16.76936507887444 52.7027
16.791905240734874 52.9852
16.814463639794468 52.7976
16.837022695210294 52.8647
16.859564824093756 52.8549
16.882125194503903 53.0698
16.904668639217885 53.5522
16.927230328348003 53.7308
16.949792678493612 54.1619
16.972338104193863 54.1235
16.994901778652235 53.8581
17.017448529496576 53.9645
17.040013531998152 54.0725
17.06257920018044 54.111999999999995
17.0851279459922 54.9284
17.107694947817667 56.0022
17.130245028099072 57.1239
17.15281336730298 58.6246
17.17536478578733 60.467
17.19793446610687 62.2457
17.220504818648422 65.1502
17.243058251703697 68.0165
17.265629950971032 72.5965
17.288184731571736 77.9354
17.310757781306908 82.6
17.33333150794385 83.8773
17.355888317140174 83.4106
17.37846339986244 79.5168
17.401021565958885 72.5298
17.42359800851343 66.1179
17.44617513265564 61.6607
17.468735341390783 59.0821
17.491261035594565 57.8095
17.51396340099364 57.2927
17.536490463869136 57.2992
17.559018209820174 57.3057
17.58154663977963 57.6184
17.604251766089718 57.6875
17.626781572227713 57.8508
17.64931206518155 57.8516
17.671843245885103 58.159
17.69455114821572 58.4794
17.717083712612634 58.7437
17.739616967569667 59.293
17.762150914021706 60.0021
17.78486160749854 60.2691
17.807396945166804 60.5137
17.829932977143503 61.0593
17.85246970436452 61.7758
17.875183204129467 63.6649
17.897721330097664 66.7377
17.920260154126645 69.936
17.942799677153296 73.8459
17.9655159983646 77.8688
17.988056927677544 82.8628
18.010598558807683 89.1648
18.033140892692916 98.0915
18.05586005052525 108.865
18.07840379824407 121.06700000000001
18.10094825154059 132.593
18.12366954819864 142.533
18.146215420998306 144.556
18.16876200220057 138.457
18.191309292745153 124.529
18.214033452627167 109.146
18.236582170236648 96.2109
18.259131600016456 88.6653
18.281681742907335 86.2396
18.304408781233683 89.3045
18.32696035875955 94.7505
18.349512652227624 99.7686
18.372065662579683 105.486
18.394795594587553 107.417
18.41735004715306 104.601
18.43990521943684 98.5588
18.46246111238171 88.9442
18.485193953325208 78.6323
18.507751296070428 70.5938
18.530309362314178 65.6781
18.552868153000343 62.8416
18.57560391815056 61.3754
18.59816416623245 60.8323
18.620725141597372 60.1947
18.643286845190268 59.544
18.666025549835414 59.0969
18.688588718427933 58.423
18.711152618092243 58.232
18.73389353884365 57.872
18.75645890921984 57.3513
18.77902501351406 57.0429
18.801591852673102 57.2317
18.824335739722738 56.4891
18.846904057212626 56.5399
18.8694731124168 56.418
18.89204290628315 56.1738
18.914789774966803 55.9916
18.937361054791623 55.847
18.959933076131318 55.5522
18.982505839934877 55.4721
19.00525570560582 55.54
19.027829963004184 55.15
19.05040496572238 55.2383
19.072980714710468 55.1141
19.095733592739563 55.2741
19.11831084296757 55.3783
19.140888842324735 55.8922
19.16346759176222 56.5702
19.18622349753803 57.203
19.208803755869358 58.2597
19.231384767143577 59.4695
19.253966532312948 60.7126
19.276725481241822 62.9126
19.29930876296784 65.6081
19.3218928014549 68.8142
19.34465404436217 71.9288
19.36723960516257 74.6942
19.389825925592426 75.959
19.412413006605938 74.9989
19.43517731967805 72.0569
19.457765930683355 67.8955
19.48035530514408 63.2214
19.50294544401556 59.2314
19.525712842708348 56.1105
19.54830451925909 54.393
19.570896963095727 52.9548
19.593490175174704 52.3409
19.616260674962184 52.3452
19.638855432416964 52.2532
19.661450960992624 52.4831
19.68404726164677 52.2676
19.706820878021247 51.9291
19.729418731756834 52.1823
19.752017360452857 51.928999999999995
19.77461676506804 51.9732
19.797393513540218 51.9342
19.819994478951667 52.1887
19.84259622316767 52.8792
19.8651987471481 53.373999999999995
19.887978643247177 53.8598
19.91058273574792 54.5985
19.933187610901943 55.4937
19.955969879466828 56.4783
19.97857632894404 57.8376
20.00118356396599 59.1323
20.023791585494575 61.2894
20.046577028914875 64.0489
20.069186632506966 66.5383
20.091797025500632 69.2409
20.114408208858933 70.6562
20.137196842715273 70.7516
20.159809615886765 69.4922
20.18242318232135 66.9941
20.20503754298326 64.1505
20.227829382875154 62.5295
20.250445341109344 61.8476
20.27306209647285 62.3253
20.29567964993108 63.7071
20.31847471147704 64.6575
20.34109387027612 65.5761
20.363713830075454 65.6134
20.386334591841646 64.3527
20.409132890679302 61.6231
20.431755265564437 58.613
20.454378445325528 55.2723
20.477002430930366 52.9602
20.499803982716553 51.1286
20.522429589228004 50.0575
20.54505600449589 49.4822
20.567683229489194 49.4095
20.590488049900088 49.0729
20.61311690359731 49.0406
20.63574656993626 48.733000000000004
20.658553853717297 48.3206
20.681185154618298 48.5044
20.703817271080066 48.4176
20.72645020407368 48.1425
20.749260783967177 48.0378
20.771895359337133 48.1673
20.794530754161617 48.1235
20.817166969412938 48.0092
20.83998086114876 47.7741
20.86261872660049 47.5339
20.885257415405402 47.542
20.90789692853701 47.4961
20.930714147864748 47.3606
20.953355319030678 47.4005
20.97599731745334 47.5973
20.99864014410749 47.4354
21.021460706796564 47.4733
21.044105199328826 47.7695
21.06675052302631 47.9486
21.089396678865015 48.0198
21.112220600704806 48.277
21.134868430275347 48.6779
21.15751709492456 48.8774
21.180166595629693 49.1099
21.202993892429635 49.6582
21.22564507473034 50.2121
21.24829709602816 50.5355
21.27112693608965 50.7079
21.293780644891275 50.621
21.316435195634053 50.0346
21.339090589297417 49.1703
21.361923832041875 48.6199
21.384580921090404 48.0308
21.407238856007325 47.4365
21.429897637773326 47.4757
21.45273429906592 47.2765
21.475394784108598 47.4891
21.498056118951983 47.276
21.520718304578022 47.5913
21.543558400304388 47.6222
21.566222297108816 47.5843
21.58888704765135 47.7084
21.61155265291521 47.9303
21.63439619898156 48.675
21.657063523335786 49.0674
21.67973170537063 49.6506
21.7024007460706 50.3159
21.72524775840385 50.9721
21.747918526116475 52.0517
21.770590155457388 53.1114
21.79326264741238 54.4429
21.816113141960237 56.4139
21.838787368860547 58.2987
21.861462461341976 60.8526
21.884315579735777 63.1979
21.90699241312273 64.837
21.92967011506078 65.6355
21.95234868653799 65.6198
21.9752053151131 64.4553
21.997885635446785 62.5292
22.020566828293532 60.2577
22.04324889464272 58.0115
22.066109049404666 56.4691
22.088792872571794 55.9148
22.111477572219204 55.9203
22.1341631493376 56.1376
22.157026846313123 56.155
22.179714188221507 55.663999999999994
22.202402410582668 54.5413
22.22509151438863 52.6394
22.24795876962584 51.2143
22.270649646204486 49.9265
22.293341407213727 49.1903
22.316034053646906 48.5627
22.338904883215342 48.1806
22.36159931041458 47.9643
22.38429462602756 47.6904
22.40699083104897 47.5199
22.429865251039757 47.5761
22.452563244831367 47.5922
22.47526213102522 47.5166
22.49813925616515 47.5516
22.520839937143307 47.5285
22.543541513520587 47.6344
22.56624398629403 47.4659
22.589124730075895 47.373000000000005
22.611829005656723 47.6512
22.63453418063466 47.5001
22.657240256008077 47.7043
22.680124634582935 48.0672
22.70283252079775 48.5497
22.725541310413075 48.9511
22.74825100442868 49.1373
22.771139033969575 49.5714
22.79385054687155 49.8146
22.81656296718292 50.5048
22.83927629590484 51.3827
22.862167992606945 52.2702
22.88488314827121 53.3635
22.907599215359284 54.5084
22.93031619487366 55.8017
22.953211574954405 56.9316
22.975930389478226 57.6737
22.998650119445763 57.94
23.02137076586092 57.4722
23.044269845560063 56.318000000000005
23.06699233506288 54.9746
23.089715744034912 52.8258
23.112617610931565 51.0048
23.135342869061212 49.6198
23.158069049684816 48.7888
23.1807961538087 48.1326
23.20370174880544 47.9776
23.226430710184808 47.9655
23.249160598093425 47.8448
23.271891413539002 47.8575
23.294800752937697 48.1212
23.31753343374794 48.3161
23.340267045128353 48.6357
23.36300158808808 49.1425
23.38591468821339 49.5283
23.408651104658304 50.043
23.431388455719986 50.4932
23.454126742409 51.2249
23.4770436196085 52.3736
23.499783787914662 53.5502
23.522524894889884 54.6089
23.54526694154616 55.8663
23.56818761219047 57.004
23.59093154860734 58.1055
23.613676427751283 58.7852
23.636422250635754 58.1487
23.659346731118656 56.6152
23.68209445191868 54.7618
23.704843119509587 52.1733
23.72759273490623 49.9767
23.750521041644767 48.2755
23.77327256312355 47.0084
23.796025035462787 46.1149
23.818956224555475 45.3594
23.841710609113413 45.1618
23.86446594758979 45.0344
23.887222241002014 44.6571
23.910157285144578 44.3109
23.932915498962537 44.5656
23.955674670778713 44.2455
23.978434801611975 44.036
24.001373717286125 43.8086
24.024135776723917 43.8123
24.046898798245582 43.6583
24.06966278287146 43.5301
24.092605586582614 43.448
24.115371508023642 43.1878
24.1381383956401 43.083999999999996
24.16090625045381 42.9849
24.183852958731244 43.0115
24.206622758582608 42.8251
24.229393528706886 42.7711
24.252165270127392 42.9205
24.27511589952438 42.7418
24.297889594216997 42.497
24.32066426328598 42.4135
24.34343990775613 42.2859
24.36639447485003 42.2865
24.38917208083877 42.1356
24.41195066531332 42.1063
24.43490819850244 42.1619
24.457688750692377 42.0462
24.48047028445616 42.0697
24.503252800821233 42.1349
24.526214300784112 42.2571
24.548998793132213 42.3699
24.57178427117417 42.1213
24.59457073593893 42.2874
24.617536219319863 42.06100000000001
24.64032466834748 42.2445
24.663114107195035 42.0955
24.685904536893013 41.8028
24.708874020360852 41.7284
24.731666442613744 41.677
24.754459858818787 41.6677
24.777254270007962 41.4027
24.80022777025625 41.1859
24.82302418230472 41.2679
24.845821592443674 41.3897
24.86862000170663 41.5141
24.891597535453727 41.3088
24.914397953892728 41.4628
24.93719937456671 41.3613
24.96000179851076 41.6191
24.98298338249997 41.8373
25.00578782394922 41.9886
25.028593271784167 42.1707
25.05157790644186 42.5364
25.07438537804115 42.6521
25.097193859145293 42.9405
25.120003350792075 43.3637
25.142992065061257 43.742
25.165803588823465 44.0459
25.18861612625217 44.3033
25.211429678386736 44.3647
25.234422489079968 44.3662
25.257238081693636 44.4348
25.280054692141732 44.6451
25.3028723214652 44.7713
25.325869245420463 44.9202
25.348688923599397 44.8328
25.371509623787006 44.6245
25.394331347025812 44.6016
25.41733240110666 44.0778
25.440156181590016 43.4958
25.46298098826268 42.8128
25.48580682216873 42.2293
25.50881202326435 41.3694
25.53163992281684 40.9446
25.55446885274561 40.5435
25.577298814096377 40.3116
25.600308179121807 40.0989
25.623140214533745 40.1316
25.64597328451537 40.014
25.66898578564376 39.8488
25.691820936010206 39.8596
25.714657124097695 39.7284
25.737494350954734 39.7594
25.760511045684957 39.6435
25.783350361364224 39.760999999999996
25.806190718969255 39.8977
25.82903211955018 40.0227
25.852053024868923 39.8467
25.874896522722523 39.8385
25.897741066713106 39.9612
25.920586657892454 40.039
25.943611790812668 40.1187
25.966459487728237 40.2319
25.989308234998564 40.3681
26.01215803367705 40.8505
26.03518741123814 40.9715
26.05803932412957 41.0888
26.080892291600094 41.0881
26.10374631470478 41.121
26.12677995397268 41.394
26.14963609978026 41.3564
26.172493304397875 40.8756
26.19535156888223 40.746
26.218389486949604 40.4552
26.241249882640123 40.1885
26.26411134137826 39.764
26.28715248187403 39.7436
26.31001607820869 39.438
26.3328807407756 39.4392
26.35574647063438 39.4749
26.37879191991473 39.4406
26.401659795896734 39.6357
26.424528742360263 39.7025
26.447398760366614 39.8429
26.470448535598294 39.9432
26.49332070826805 40.1395
26.516193955675355 40.4706
26.53906827888316 40.6936
26.562122397260108 40.9384
26.584998883685063 41.4268
26.607876449110325 41.7341
26.63075509460056 41.8371
26.65381357334404 42.0649
26.67669439061878 42.092
26.699576291163382 42.0187
26.722459276044212 42.0706
26.745522132402975 41.5625
26.768407297649354 41.3131
26.791293550442003 40.8311
26.814180891848974 40.5883
26.837248143099337 40.3153
26.860137673466657 40.2329
26.88302829566349 39.9613
26.90592001075963 39.7227
26.92899167420566 39.6006
26.951885586870763 39.1348
26.974780595655517 38.9743
26.99785558178161 38.8034
27.020752794605112 38.7074
27.043651106772522 38.4801
27.06655051935668 38.5083
27.089629948036183 38.2263
27.112531573292053 38.2442
27.135434302194138 38.2326
27.158338135817015 38.0627
27.181422024430987 38.0378
27.204328079372566 37.8543
27.22723524226965 37.983000000000004
27.250143514198573 38.0385
27.273231880156334 38.0613
27.296142382065014 37.8739
27.319053996245536 37.8903
27.341966723775965 37.9067
27.365059584515222 37.8709
27.38797455070062 37.8893
27.410890633481237 37.8575
27.433807833936918 37.78
27.456905206923906 38.0121
27.47982465472398 37.9074
27.502745223449743 38.0665
27.525666914182825 38.1669
27.548768816912457 38.3244
27.571692763693633 38.1653
27.59461783573812 37.8706
27.617723149491244 37.7339
27.640650484125285 37.7348
27.66357894728264 37.7183
27.686508540048052 37.7467
27.709618414237887 37.5643
27.732550278321757 37.3689
27.755483275279115 37.4175
27.778417406196485 37.4066
27.801531858397514 37.3653
27.824468269376716 37.2644
27.847405817586786 37.4021
27.870344504116094 37.5297
27.893463551932008 37.6638
27.916404527281053 37.9104
27.93934664422563 37.8878
27.962289903855886 38.0642
27.98541356491974 38.3272
28.00835912214229 38.5867
28.03130582533231 38.7494
28.054253675581805 39.0309
28.077381967556104 38.8738
28.100332124185126 38.9615
28.123283431160893 38.9228
28.146235889577238 38.7579
28.169368830154156 38.6069
28.192323603752033 38.3321
28.215279532083304 38.1208
28.238415973016764 37.7341
28.261374223145094 37.5991
28.284333631303806 37.4232
28.307294198589954 37.2462
28.330435319167677 36.8967
28.353398217078915 36.5585
28.376362277420153 36.3868
28.39932750129032 36.2385
28.422473319286713 35.9348
28.44544088262495 35.9002
28.468409612800283 35.7276
28.491379510913497 35.4519
28.51453004413313 35.4806
28.53750229057244 35.4563
28.56047570826344 35.3035
28.583450298308804 35.2706
28.606605564586562 35.218
28.629582511831156 35.2629
28.65256063474956 35.0099
28.675539934446338 35.1806
28.698699951647605 35.0949
28.72168161743193 34.894
28.74466446331978 34.9253
28.767648490417624 34.8853
28.790813276438353 34.9141
28.813799678527303 34.9025
28.836787265157085 34.9994
28.859955641890075 34.9158
28.882945610203045 34.9623
28.905936766392035 34.9312
28.928929111566863 34.9521
28.952102288520145 34.8207
28.975097024308607 34.707
28.998092952423807 34.6409
29.021090073977508 34.5607
29.04426806913204 34.4426
29.067267590245258 34.1625
29.090268308143695 34.2052
29.11327022394099 34.1575
29.13645305530891 33.9791
29.159457379627167 34.0126
29.18246290519685 33.8586
29.20546963313352 33.8347
29.22865731875826 33.8374
29.25166646419296 33.7823
29.27467681535305 33.6651
29.29768837335608 33.8514
29.320880931312562 33.8935
29.34389491580634 33.7946
29.366910110507334 33.8308
29.38992651653503 33.8181
29.41312396492981 33.7672
29.436142806456754 33.7219
29.45916286268059 33.7529
29.48236399319994 33.4638
29.50538649169417 33.4216
29.528410208259935 33.2988
29.55143514402014 33.064
29.574641196749695 32.900999999999996
29.597668583816574 32.8728
29.6206971934585 32.6174
29.64372702680042 32.6822
29.666938019934474 32.5767
29.689970313635285 32.5585
29.713003834422636 32.5049
29.73603858342347 32.3133
29.759254535188578 32.2805
29.78229175361658 32.3365
29.80533020365064 32.325
29.82836988641968 32.3671
29.85159081507472 32.2331
29.874632976355343 32.2776
29.89767637376955 32.3021
29.920721008448314 32.1068
29.9439469322847 32.0754
29.96699405457564 31.976
29.9900424175358 32.0123
30.013092022298157 32.0498
30.03632295963995 32.0294
30.059375061131373 32.0538
30.08242840783577 32.1513
30.105483000888153 32.0651
30.128718970092244 31.9671
30.151776069006917 31.9516
30.17483441768648 31.9691
30.198074175317235 31.9585
30.221135036724256 31.9698
30.24419715131772 31.947
30.267260520236203 31.7325
30.290505341942243 31.9042
30.313571232750228 31.9457
30.336638381310948 31.9049
30.35970678876503 31.8404
30.38295669299435 31.8223
30.40602763151657 31.855999999999998
30.429099832366074 31.7543
30.452173296685572 31.633000000000003
30.47542830191959 31.6804
30.498504306502497 31.5855
30.521581577995562 31.6743
30.544660117543582 31.7711
30.56792024229725 31.761
30.59100133132069 31.7401
30.614083691845494 31.7035
30.637167325018545 31.9016
30.660432587840603 31.9225
30.683518779717886 31.842
30.70660624769615 32.0868
30.729694992924372 31.9658
30.75296541239743 31.9364
30.77605672557558 31.8151
30.799149319462742 31.7129
30.8224236211637 31.7289
30.845518789950724 31.6238
30.868615242910597 31.4757
30.891712981195973 31.3254
30.91499247215866 31.2623
30.938092794619365 31.3466
30.96119440587579 31.2637
30.984297307082752 31.0535
31.00758200598383 30.9852
31.030687500658694 30.8856
31.053794288760695 30.7752
31.076902371446767 30.609
31.100192296997445 30.7899
31.12330298246119 30.6501
31.14641496599209 30.5595
31.169528248749216 30.581999999999997
31.19282341969534 30.636999999999997
31.215939314557186 30.6388
31.239056512134788 30.6478
31.262175013589378 30.5098
31.28547544871168 30.3944
31.30859657161541 30.4592
31.331719001892175 30.521
31.35484274070538 30.5922
31.378148458819545 30.5973
31.401274828443725 30.5905
31.424402510106933 30.6206
31.447712205419993 30.6265
31.470842524931633 30.6149
31.493974159989783 30.6494
31.51710711176168 30.5666
31.54042212308802 30.5128
31.563557722100917 30.498
31.586694641341655 30.3792
31.609832881979628 30.2451
31.63315322823208 30.1441
31.656294125521327 29.9808
31.679436347728515 30.0055
31.70257989602529 29.9479
31.725905596152327 29.9002
31.74905181052835 29.8004
31.772199354521323 29.9763
31.79534822930507 29.92
31.818679302290967 29.8033
31.84183085259981 29.8981
31.864983737233473 29.8298
31.88813795736804 29.851
31.911474422233013 29.6865
31.934631327356435 29.7977
31.9577895715215 29.6607
31.980949155906522 29.719
32.004291031706956 29.6776
32.027453310562606 29.6955
32.05061693318573 29.5253
32.07396288236386 29.5154
32.09712920658542 29.4572
32.12029687812702 29.3323
32.14346589817093 29.2797
32.166817291729984 29.2718
32.18998902288583 29.0504
32.21316210610336 29.0396
32.23633654256711 28.8908
32.259693399663725 28.8441
32.282870556771144 28.8437
32.30604907069099 28.8667
32.329228942610065 28.7262
32.35259128243769 28.5648
32.375773884550505 28.6781
32.398957848235646 28.625999999999998
32.422143174682176 28.4752
32.445511016471215 28.4011
32.468699082679954 28.4191
32.49188851523011 28.362
32.51507931531304 28.2813
32.538452678331 28.288
32.56164622776311 28.1119
32.58484114831493 28.1117
32.60803744118015 28.0774
32.631416344731896 28.1121
32.654615396551876 28.136999999999997
32.67781582427913 28.0199
32.701198898634416 27.9518
32.72440209253756 27.9336
32.747606665947124 27.9337
32.77081262006088 27.8085
32.79420126883317 27.8662
32.81740999876112 27.9175
32.840620112999424 27.7146
32.86383161274818 27.7027
32.88722585534586 27.6732
32.91044014056596 27.7059
32.933655814909734 27.6857
32.95687287957963 27.6324
32.98027273544904 27.5155
33.00349259526636 27.4134
33.026713849030116 27.5177
33.04993649794511 27.5186
33.073341986570746 27.4389
33.09656744032826 27.4291
33.11979429286444 27.4389
33.14302254538647 27.4073
33.166433686291185 27.4121
33.18966475336992 27.4219
33.212897224069096 27.3465
33.23613109959831 27.3877
33.259547912343415 27.2152
33.2827846121627 27.2814
33.306022720453775 27.2631
33.32926223842861 27.1658
33.352684742614166 27.0447
33.37592709463173 27.0555
33.399170859982064 27.045
33.422597648419426 26.9076
33.44584425514446 26.8474
33.46909227885668 26.7716
33.4923417207723 26.634
33.51577423505344 26.7374
33.539026528130385 26.576
33.56228024307245 26.5547
33.585535381098246 26.4764
33.60897364093058 26.3787
33.63223163992385 26.4208
33.6554910656699 26.3373
33.678751919389796 26.4258
33.702195944520106 26.3319
33.72545966903325 26.2225
33.74872482519663 26.2044
33.771991414233746 26.1821
33.79544122444841 26.1661
33.81871069412428 26.0547
33.84198160035767 26.0892
33.86525394437455 26.0588
33.88870955949969 26.0504
33.911984794020626 25.9372
33.93526147001624 25.8495
33.958539588715006 25.9003
33.98200102861669 25.7873
34.0052820477047 25.7911
34.02856451319451 25.7403
34.05203033759056 25.7291
34.07531571090147 25.6671
34.09860253431845 25.572
34.121890809074316 25.5304
34.145362493118924 25.4936
34.16865368561615 25.5681
34.191946333164054 25.4741
34.21524043699793 25.4868
34.23871800066799 25.4521
34.26201503218366 25.2348
34.28531352370466 25.2667
34.30861347646881 25.1959
34.33209693978188 25.2725
34.3553998301885 25.2457
34.378704185565205 25.1602
34.402010007152356 25.1041
34.42549939016683 25.0143
34.44880815937748 24.9605
34.472118398533134 24.997
34.49543010887669 24.8593
34.51892543169198 24.7899
34.54224009966052 24.7858
34.56555624255917 24.7592
34.58887386163339 24.688000000000002
34.61237514439016 24.6597
34.6356957311114 24.6237
34.65901779775809 24.6387
34.68252356662995 24.5767
34.705848608458616 24.5254
34.72917513396849 24.5065
34.75250314440949 24.4953
34.77601490857862 24.4322
34.799345904259795 24.3784
34.82267838863559 24.3661
34.846012362958525 24.2992
34.869530142679984 24.296999999999997
34.89286711232212 24.3204
34.91620557568269 24.3031
34.93954553401677 24.2401
34.9630693495876 24.1432
34.986412313340814 24.2322
35.00975677584668 24.2282
35.033102738362956 24.2043
35.05663261012228 24.0669
35.0799815881786 24.0483
35.10333207003229 23.9505
35.12668405694369 24.0242
35.150220005273056 23.9672
35.17357501786656 23.9946
35.19693153931268 23.9165
35.220289570874385 23.8871
35.24383161619786 23.8628
35.267192683604904 23.8811
35.290555264930376 23.8106
35.314101899412165 23.7941
35.33746752422433 23.6874
35.36083466676374 23.7858
35.38420332829803 23.725
35.407756095629054 23.7647
35.43112781085063 23.7012
35.45450104888391 23.6268
35.477875810999194 23.7121
35.50143473172161 23.6339
35.52481255774625 23.6596
35.54819191167777 23.566999999999997
35.57157279478914 23.5286
35.595137889488406 23.5112
35.61852184675279 23.436
35.641907337029984 23.416999999999998
35.665294361595684 23.4229
35.68886565090076 23.2677
35.7122557598848 23.2823
35.73564740699838 23.2261
35.759040593519934 23.1103
35.78261809810353 23.1136
35.80601437933051 23.0349
35.829412203814705 23.0598
35.85281157283719 22.968000000000004
35.876395313415884 23.0921
35.8997977874528 22.912
35.92320180988546 22.9105
35.946790244133936 22.8687
35.97019737933222 22.8651
35.993606066789866 22.8475
36.01701630779276 22.7399
36.04061101440684 22.711
36.06402437852291 22.7255
36.08743930005611 22.7639
36.1108557802951 22.6164
36.13445678011326 22.6578
36.15787639383515 22.5628
36.18129757014299 22.5173
36.20472031032821 22.5125
36.22832762423364 22.4335
36.25175350829375 22.4095
36.275180960119776 22.3921
36.298609981005924 22.3988
36.32222362992669 22.3612
36.34565580510207 22.3501
36.36908955323448 22.3119
36.39252487562093 22.2168
36.416144880530226 22.1753
36.43958336764275 22.2278
36.463023432914625 22.1581
36.486465077645676 22.1313
36.51009145956204 22.183000000000003
36.53353627947859 22.0886
36.55698268276811 22.1529
36.58043067073321 22.0098
36.60406345072071 21.9446
36.62751462435344 21.9242
36.65096738658405 21.8867
36.67460498210655 21.908
36.69806093788647 21.8704
36.72151848619297 21.7972
36.744977628333636 21.8506
36.76862165890998 21.6763
36.79208400512205 21.739
36.81554794910557 21.7069
36.83901349217101 21.6514
36.862663978991606 21.6368
36.88613273667352 21.6272
36.90960309738324 21.5588
36.933075062434064 21.4733
36.95673202673572 21.4687
36.98020721697122 21.4815
37.003684015502365 21.4027
37.027162423645365 21.3358
37.050825886711465 21.2864
37.07430753063053 21.2291
37.09779078812467 21.1876
37.121275660513014 21.1971
37.144945643673694 21.2221
37.16843376245278 21.2227
37.19192350009803 21.1411
37.215414857931435 21.0798
37.239091382563885 21.0238
37.262585997426164 20.9705
37.28608223645736 20.8816
37.309763684451696 20.9026
37.33326318851098 20.8784
37.356764320726555 20.9049
37.380267082425526 20.9173
37.40395510942588 20.8196
37.42746114683234 20.7664
37.45096881771841 20.7408
37.474478123414166 20.7101
37.49817275092816 20.6677
37.52168534303452 20.6797
37.54519957395567 20.6675
37.568715445024665 20.6811
37.592416694607714 20.5526
37.61593586281424 20.4958
37.63945667518264 20.5408
37.66297913304891 20.5043
37.68668702630454 20.4564
37.710212792059274 20.3228
37.733740207334854 20.2705
37.757269273470364 20.2884
37.780983832050374 20.342
37.80451621684926 20.2693
37.82805025654007 20.1831
37.851585952464795 20.1698
37.8753071980695 20.1295
37.89884622345676 20.0996
37.92238690911902 20.1483
37.94611318753442 20.0112
37.969657210779765 20.0047
37.99320289834801 19.9867
38.016750251586465 19.9448
38.04048325513017 19.9285
38.06403395679343 19.8678
38.087586328183946 19.8184
38.11114037065203 19.8956
38.13488012115898 19.8651
38.1584375229181 19.7093
38.181996599821 19.6944
38.205557353221124 19.7143
38.229303872575656 19.7405
38.2528679961576 19.6578
38.27643380031219 19.6269
38.30000128639589 19.5907
38.32375459653193 19.5679
38.34732546371299 19.5533
38.37089801690786 19.4873
38.39447225747609 19.4827
38.418232380377425 19.4259
38.441810012983396 19.3842
38.46538933705673 19.3532
38.488970353960084 19.4201
38.51273731166058 19.3404
38.536321731567014 19.1795
38.55990784840681 19.2488
38.58367995004091 19.2382
38.60726947812959 19.1895
38.63086070726198 19.2297
38.654453638806274 19.2326
38.678232613930824 19.1138
38.70182896773327 19.0317
38.72542702806741 18.9986
38.7490267963045 19.0162
38.77281266709232 18.9193
38.79641586862214 18.9413
38.8200207821842 18.8996
38.843627409152944 18.8892
38.86742019782782 18.8433
38.891030269149255 18.8006
38.914642058016156 18.8747
38.938255565806124 18.7664
38.96205529464307 18.6982
38.98567225787121 18.7534
39.00929094417078 18.7493
39.03291135492255 18.6731
39.05671804624804 18.5905
39.080341923549106 18.5918
39.103967529460334 18.5639
39.127594865365744 18.5145
39.15140854155791 18.4506
39.17503935514948 18.4719
39.19867190290282 18.4137
39.22249083587951 18.4022
39.24612686969409 18.4016
39.269764641845306 18.3878
39.293404153722804 18.3647
39.317230110864074 18.2742
39.34087311998506 18.2917
39.36451787301696 18.2483
39.388164371352595 18.1674
39.41199737518003 18.1349
39.43564738196752 18.1535
39.45929913825317 18.0964
39.48295264543308 18.0704
39.506792718520884 18.0181
39.530449745387216 17.9795
39.55410852735203 17.9631
39.57776906581474 18.0301
39.60161623079 17.9294
39.625280300200025 17.919
39.64894613032202 17.8378
39.67261372255866 17.8839
39.6964680021016 17.822
39.72013913657293 17.7931
39.74381203738292 17.8524
39.76748670593756 17.8358
39.79134812278169 17.7369
39.81502634488497 17.6964
39.83870633896685 17.6713
39.862388106436654 17.6639
39.88625668336918 17.5978
39.90994201572829 17.5615
39.933629125719285 17.5301
39.957503091207826 17.4615
39.9811937746168 17.5544
40.00488623990914 17.4849
40.02858048850006 17.3753
40.05246165409549 17.3581
40.076159487492085 17.3489
40.099859108448875 17.3662
40.123560518384345 17.3254
40.1474489070226 17.3186
40.171153913178564 17.2894
40.194860712584955 17.211
40.2185693066637 17.2763
40.242464941335314 17.2308
40.26617714307655 17.1644
40.289891143772046 17.1557
40.3136069448471 17.0971
40.33750984859743 17.0624
40.3612292688043 17.0507
40.3849504936829 17.0958
40.40867352466194 17.0552
40.43258372059144 16.9549
40.45631038219906 17.0452
40.48003885420956 16.907
40.503769138055105 16.8391
40.52768664931955 16.8591
40.55142057531802 16.9093
40.57515631746428 16.8251
40.599079334038514 16.7956
40.62281872700477 16.7299
40.64655994043941 16.7161
40.67030297578061 16.7674
40.69423334835778 16.6683
40.71798004609188 16.6081
40.74172857006355 16.6843
40.76547892171441 16.6755
40.7894166736039 16.5993
40.813170699248566 16.5722
40.83692655691388 16.5132
40.86068424804498 16.4855
40.884629402612525 16.5193
40.908390779366385 16.5057
40.932153993938 16.4717
40.95591904777605 16.4052
40.979871628443995 16.414
41.003640379561936 16.4169
41.02741097430883 16.3446
41.05118341413683 16.3159
41.075143444384416 16.31
41.098919593177826 16.2641
41.1226975914255 16.1963
41.14647744058318 16.1727
41.170444943946755 16.1115
41.19422851378379 16.1285
41.218013938914645 16.0828
41.24198706625173 16.0809
41.26577622087193 16.0435
41.289567235177785 16.0427
41.31336011063129 15.9837
41.337340752422875 15.9422
41.361137369129835 15.9832
41.38493585138705 15.9077
41.40873620066004 15.8968
41.43272438060107 15.9173
41.45652848292052 15.8138
41.48033445666918 15.8018
41.50414230331616 15.7582
41.528138045159764 15.7064
41.551949656675205 15.7152
41.575763145513235 15.7239
41.59957851314666 15.6757
41.62358184070442 15.6092
41.64740098505737 15.6591
41.6712220126409 15.6177
41.69504492493139 15.5505
41.71905586207357 15.5452
41.74288256296395 15.4829
41.766711153007456 15.5328
41.79054163368412 15.4839
41.814560204340054 15.4281
41.838394485526365 15.4077
41.86223066180303 15.343
41.88625497706819 15.3401
41.910094962812 15.289000000000001
41.93393684811168 15.2765
41.95778063445365 15.1995
41.981812625263366 15.2282
42.00566023303407 15.242
42.029509746323676 15.2412
42.05336116662236 15.1824
42.077400857069705 15.1793
42.10125611078846 15.1161
42.12511327600405 15.1449
42.14897235421036 15.099
42.173019768448455 15.0785
42.19688269209613 15.0465
42.22074753323349 14.9939
42.24461429335818 14.9583
42.268669455600495 14.9302
42.292540073217886 14.8829
42.31641261433284 14.8982
42.34028708044675 14.8901
42.36435001496739 14.8576
42.38822835065557 14.8345
42.41210861586426 14.8317
42.4359908120986 14.8037
42.46006154323262 14.7254
42.48394762115317 14.725999999999999
42.507835634632315 14.7098
42.531912233047436 14.6946
42.55580413732265 14.6961
42.579697981698 14.6606
42.60359376768525 14.5963
42.62767820545945 14.5512
42.65157789440821 14.5512
42.67547952952185 14.5043
42.699383112316 14.5636
42.72347541395347 14.4922
42.74738291190531 14.4254
42.771292362102166 14.4259
42.795203766063516 14.4094
42.819303956130405 14.3559
42.843219287476536 14.3392
42.86713657716324 14.3325
42.89105582671383 14.2731
42.91516392983864 14.3034
42.939087119032166 14.2535
42.963012272677304 14.2247
42.98693939230129 14.2194
43.01105543317513 14.1254
43.034986504731386 14.1476
43.05891954686589 14.1546
43.08285456110972 14.1279
43.10697856448665 14.0333
43.130917542983475 14.055
43.15485849820081 14.0123
43.17880143167367 14.0083
43.20293342237094 13.981
43.226880332449 13.967
43.25082922540554 13.9125
43.27496722682525 13.9181
43.29892010567796 13.8536
43.32287497204102 13.8629
43.34683182745632 13.828
43.370977859791836 13.8256
43.39493871351105 13.8088
43.41890156092628 13.800999999999998
43.44286640358341 13.7203
43.46702049182749 13.7412
43.49098934522816 13.6955
43.51496019852649 13.6557
43.5389330532723 13.6655
43.56309522248204 13.6572
43.58707210044314 13.6207
43.61105098451946 13.5687
43.63503187626491 13.5692
43.659202151562134 13.530999999999999
43.68318707902681 13.5249
43.70717401884041 13.5051
43.731162972560874 13.4826
43.75534137913236 13.3742
43.779334381108384 13.4302
43.803329401683186 13.3667
43.82732644241872 13.3851
43.8515130055166 13.339
43.87551410707659 13.3106
43.89951723350145 13.3209
43.923709934595614 13.3122
43.94771713129917 13.2821
43.97172635758096 13.2841
43.99573761501002 13.216
44.0199385169922 13.200999999999999
44.04395385732619 13.155999999999999
44.067971233533086 13.1802
44.09199064718605 13.1233
44.11619977548961 13.0785
44.14022328470671 13.0362
44.16424883610785 13.0844
44.18827643127035 13.0859
44.21249381139513 13.0139
44.236525514814076 12.9618
44.26055926674478 12.9704
44.28459506876863 12.915999999999999
44.3088207262813 12.9165
44.33286064928722 12.8729
44.35690262714919 12.866
44.38094666145278 12.7801
44.4051806219871 12.8079
44.42922879003185 12.8081
44.45327901929361 12.793
44.477331311362136 12.7742
44.501573600619416 12.7334
44.525630039221795 12.7198
44.54968854541895 12.7029
44.573937102200176 12.7284
44.5979997645541 12.6803
44.622064499300315 12.6308
44.64613130803592 12.588
44.67038823869318 12.6095
44.69445921643748 12.5425
44.718532272981385 12.5329
44.742607409926194 12.5005
44.76687274034801 12.5103
44.79095205918753 12.4831
44.81503346325094 12.4595
44.839116954143876 12.4419
44.86339071028742 12.408
44.88747839599524 12.3755
44.91156817336837 12.3399
44.93566004401666 12.3402
44.959942251908146 12.3246
44.984038330325966 12.2926
45.00813650686762 12.2386
45.03223678314731 12.222999999999999
45.05652746888232 12.1931
45.08063196592069 12.2093
45.104738567558705 12.2171
45.128847275414856 12.1735
45.15314646515866 12.1223
45.17725940679741 12.1226
45.20137445952892 12.109000000000002
45.22568004865265 12.0591
45.24979934496396 12.0942
45.27392075725247 12.083
45.29804428714431 12.0451
45.322358426247604 12.0374
45.346486212804315 11.9998
45.370616121861914 11.9736
45.39474815505086 11.9132
45.41907087049246 11.8904
45.4432071734666 11.9078
45.46734560548283 11.9222
45.49148616817604 11.8833
45.51581748638564 11.8233
45.5399623320197 11.8165
45.56410931325473 11.7884
45.58825843173002 11.8417
45.61259837920865 11.7911
45.636751793816 11.7699
45.66090735060093 11.698
45.68506505120716 11.7317
45.7094136545275 11.6817
45.73357566449271 11.6542
45.75773982322992 11.6474
45.78190613238733 11.5859
45.806263418194064 11.5332
45.83043404997326 11.5932
45.85460683713677 11.5542
45.87897065658495 11.554
45.90314777634752 11.4863
45.92732705646868 11.4775
45.9515084986045 11.4655
45.97588104735473 11.4501
46.00006683541565 11.395
46.02425479047904 11.3847
46.04844491420549 11.3832
46.0728262191024 11.3535
46.09702070211635 11.3309
46.12121735879483 11.3204
46.14541619080294 11.2879
46.169806278764455 11.2716
46.194009483459034 11.2709
46.21821486849841 11.2365
46.24242243555223 11.2127
46.266821333570014 11.1732
46.29103328674601 11.1664
46.31524742696538 11.171
46.33946375590237 11.1249
46.36387149104216 11.1078
46.38809221957392 11.0666
46.41231514186606 11.0652
46.436540259597464 11.0549
46.460956858999374 11.0277
46.48518638983522 11.0096
46.509418121166966 11.0005
46.533652054678114 10.9667
46.55807754555709 10.9787
46.58231590571962 10.9845
46.60655647313217 10.8916
46.630988654873654 10.8896
46.655233659129024 10.8623
46.67948087571551 10.8741
46.70373030632484 10.8423
46.72817142736393 10.8279
46.752425308428684 10.8129
46.77668140861147 10.8242
46.80093972960865 10.724
46.82538981736788 10.7268
46.849652602470904 10.7391
46.87391761349769 10.6935
46.8981848521493 10.6321
46.9226439341274 10.6276
46.946915650573224 10.6537
46.97118959976749 10.6429
46.99546578341598 10.5469
47.019933887188216 10.5729
47.04421456235744 10.562000000000001
47.06849747711879 10.526
47.09278263318286 10.5472
47.11725978640143 10.4823
47.14154944775105 10.4269
47.165841355555656 10.4137
47.1901355115306 10.3937
47.214621741924994 10.4221
47.23892041698887 10.4207
47.26322134538975 10.3523
47.28771440635075 10.3821
47.31201986422527 10.3475
47.33632758061436 10.3625
47.360637557241866 10.3219
47.38513974410611 10.2613
47.40945426407847 10.2628
47.43377104948137 10.252
47.45809010204344 10.2457
47.48260144275502 10.1925
47.506925052572285 10.1516
47.53125093475548 10.1425
47.55557909103813 10.1714
47.58009961361992 10.1161
47.60443234110732 10.09
47.62876734791564 10.0854
47.65310463578333 10.0903
47.6776343683373 10.0917
47.7019762413987 10.0416
47.72632040075572 10.0202
47.75066684815169 9.99512
47.77520581885936 9.99642
47.799556865477655 10.004
47.823910205386 9.966569999999999
47.84826584033272 9.92861
47.87281407745551 9.89252
47.89717432569297 9.88274
47.92153687423484 9.87598
47.94609208429692 9.84838
47.97045925671401 9.8339
47.99482873471275 9.8333
48.01920052005013 9.82814
48.04376504619224 9.79739
48.068141469543484 9.77318
48.09252020552573 9.75803
48.11690125590099 9.75767
48.1414751266064 9.74107
48.16586082917454 9.71617
48.19024885144316 9.65803
48.2146391951793 9.65298
48.239222439012764 9.63817
48.26361744916137 9.61915
48.28801478610016 9.62352
48.31241445160131 9.61754
48.337007097209366 9.58959
48.36141144338331 9.5497
48.38581812345755 9.49868
48.41022713920929 9.54151
48.434829215320704 9.48996
48.45924292604658 9.50111
48.48365897780325 9.50267
48.50807737237308 9.473239999999999
48.532688907799276 9.46882
48.55711201168574 9.40323
48.581537463754074 9.41268
48.60615611725119 9.400269999999999
48.63058628942721 9.379560000000001
48.65501881516546 9.315610000000001
48.6794536962573 9.363539999999999
48.70408185970339 9.327589999999999
48.72852147531801 9.306980000000001
48.75296345168211 9.258989999999999
48.77740779059232 9.233460000000001
48.80204549302823 9.264569999999999
48.82649458091802 9.25675
48.85094603676547 9.20929
48.87539986237231 9.170639999999999
48.90004713292306 9.18412
48.92450572200832 9.13992
48.94896668628025 9.14124
48.97343002754588 9.13705
48.99808689542115 9.11764
49.02255501470614 9.119019999999999
49.04702551642794 9.09094
49.0714984023988 9.05004
49.096164896893235 9.009739999999999
49.120642575466796 8.99963
49.145122643748394 8.991719999999999
49.16960510355558 9.01169
49.19428125404938 9.00339
49.2187685210852 8.9493
49.243258185121555 8.92229
49.26794160167084 8.89219
49.2924360839405 8.89746
49.31693296869764 8.85556
49.34143225776915 8.816180000000001
49.36612538195438 8.81022
49.39062950396021 8.839039999999999
49.41513603578346 8.83212
49.4396449792564 8.79675
49.46434784069503 8.77939
49.488861631846454 8.7581
49.513377840166804 8.72343
49.537896467493745 8.72617
49.56260909589029 8.69207
49.587132585683285 8.69245
49.611658500018365 8.69617
49.636186840738596 8.677489999999999
49.66090926588511 8.64782
49.685442483902584 8.62048
49.70997813385706 8.610660000000001
49.734516217597076 8.59946
49.75924846937352 8.58987
49.7837914452858 8.580919999999999
49.80833686055187 8.5225
49.83288471702571 8.5461
49.85762682540054 8.55115
49.882179588965734 8.5009
49.9067347993235 8.46306
49.93129245833333 8.48441
49.95604445336378 8.48697
49.98060703442832 8.458969999999999
50.005172069746266 8.4246
50.02993150438364 8.402439999999999
50.05450147301533 8.40881
50.07907390151433 8.37953
50.10364879174981 8.3303
50.12841816587289 8.28583
50.1529980044635 8.32911
50.17758031042124 8.32665
50.20216508562089 8.29991
50.22694442953363 8.285639999999999
50.25153416817468 8.27655
50.27612638170508 8.238999999999999
50.300721072005196 8.17768
50.325510416102105 8.21568
50.350110084975064 8.18994
50.37471223628208 8.20267
50.39931687190919 8.18769
50.424116246675766 8.15729
50.44872587605249 8.10655
50.47333799543065 8.1111
50.49795260670191 8.11
50.52276204271512 8.08249
50.54738166295838 8.05636
50.57200378079314 8.08757
50.596628398116835 8.03213
50.62144792604559 8.04689
50.646077567609396 8.02399
50.670709714377715 7.985580000000001
50.69553683636198 7.994489999999999
50.72017401885922 7.9676
50.7448137122895 7.967639999999999
50.76945591856022 7.928910000000001
50.79429318636823 7.95233
50.818940443716784 7.9344600000000005
50.84359021965163 7.86148
50.868242516085964 7.8646899999999995
50.893089960641895 7.8419
50.917747323549435 7.828939999999999
50.94240721271973 7.812689999999999
50.96706963007175 7.78644
50.99192728239342 7.78935
51.01659478166073 7.797510000000001
51.04126481489051 7.7675399999999994
51.06593738400761 7.75865
51.090805275207074 7.75339
51.11548294172845 7.7414
51.14016314993547 7.7456
51.164845901758845 7.68854
51.18972406304274 7.66765
51.21441192780656 7.64447
51.23910234200271 7.63777
51.2637953075678 7.63019
51.288683770237945 7.60637
51.31338186432707 7.6044
51.33808251561888 7.55997
51.362978729967345 7.567419999999999
51.387684521509755 7.55503
51.41239287610203 7.48654
51.437103795691165 7.523389999999999
51.46201036644977 7.484610000000001
51.486726441956634 7.4709699999999994
51.51144508832545 7.46927
51.536166307509156 7.4523
51.56108326624387 7.418539999999999
51.58580965706056 7.4294899999999995
51.61053862657523 7.435739999999999
51.635270176746864 7.382910000000001
51.66019755512065 7.38192
51.68493429268881 7.337339999999999
51.70967361681515 7.3548
51.73441552946465 7.319319999999999
51.759353359237934 7.319660000000001
51.7841004750961 7.30019
51.80885018539685 7.28217
51.833602492111254 7.27907
51.8585508051424 7.275710000000001
51.883308330926425 7.227530000000001
51.90806845906181 7.222389999999999
51.932831191525715 7.18675
51.95779001977161 7.179860000000001
51.98255798721516 7.15925
52.00732856494335 7.1541
52.03229530577543 7.152539999999999
52.057071130455945 7.14562
52.081849571391054 7.13432
52.106630630568695 7.088210000000001
52.13160794279417 7.05369
52.15639426492067 7.08977
52.18118321127822 7.078189999999999
52.205974783860896 7.06866
52.23096269971011 7.0299
52.255759551287994 7.028910000000001
52.280559035098186 7.0223
52.30536115314103 7.002160000000001
52.33035970494467 6.96955
52.35516711807904 6.96794
52.37997717147198 6.96137
52.40478986713005 6.93376
52.42979908731974 6.92605
52.454617094216 6.90441
52.47943774942214 6.8792100000000005
52.50426105495102 6.897130000000001
52.529280976059844 6.886369999999999
52.554109609024096 6.892530000000001
52.57894089837482 6.854439999999999
52.60377484613117 6.7948
52.62880550079408 6.764310000000001
52.65364479223379 6.80801
52.67848674816189 6.77262
52.70352547971946 6.752460000000001
52.72837279155837 6.72832
52.753222773982785 6.7154300000000005
52.778075429022984 6.73337
52.80312495150885 6.71595
52.827982978797436 6.68893
52.85284368481815 6.660760000000001
52.87770707160767 6.64098
52.90276741793998 6.61005
52.92763619336701 6.63156
52.952507655698504 6.5995800000000004
52.977381806977576 6.59435
53.00245301017842 6.5977
53.02733256653592 6.578060000000001
53.052214817996074 6.560689999999999
53.077099766608484 6.53302
53.102181859804446 6.553730000000001
53.127072229988265 6.54409
53.15196530349892 6.4888900000000005
53.17686108239249 6.47397
53.20195409881522 6.4887
53.22685531582556 6.48925
53.25175924441303 6.4269300000000005
53.27666588664027 6.45739
53.30176985962693 6.43002
53.3266819565689 6.41504
53.35159677336455 6.38788
53.376514312083096 6.3968300000000005
53.40162927507703 6.39583
53.42655228516116 6.350280000000001
53.45147802340193 6.31476
53.47660125628886 6.307519999999999
53.50153247842639 6.30938
53.52646643496923 6.31799
53.55140312799818 6.27775
53.576537409691696 6.28189
53.60147960336152 6.27497
53.626424539786164 6.28299
53.65137222105307 6.24144
53.67651758529126 6.27961
53.70147078399681 6.24861
53.72642673383343 6.18797
53.75138543689533 6.17335
53.776541917524526 6.15306
53.801506154876755 6.13984
53.826473151763246 6.16713
53.851442910284916 6.11276
53.87661054126026 6.1071599999999995
53.9015858509782 6.072
53.92656392866066 6.10275
53.95154477641532 6.06078
53.976723591801296 6.08099
54.00171000771266 6.06073
54.02669920004598 6.05445
54.051691170915745 6.02872
54.076881204886796 6.053719999999999
54.101878760928514 6.01009
54.12687910187696 5.9897
54.152077577768296 6.00835
54.1770835166946 5.9731
54.20209224691339 5.98209
54.22710377055121 5.92245
54.25231352511594 5.93746
54.27733066384342 5.93956
54.30235060239643 5.8823
54.32737334290836 5.845269999999999
54.35259441062629 5.86937
54.377622783395324 5.82635
54.40265396455061 5.8223
54.42768795623251 5.794169999999999
54.45292037169559 5.72613
54.477960012857906 5.78461
54.50300247099511 5.75723
54.52804774825457 5.74812
54.55329154616743 5.68705
54.57834249018678 5.73589
54.6033962597977 5.68695
54.6284528571545 5.64979
54.653708072335164 5.6117
54.67877035378786 5.632000000000001
54.70383546947698 5.587330000000001
54.72890342156389 5.62218
54.7541700889442 5.5609
54.77924374251975 5.56024
54.8043202390049 5.50191
54.82959552413022 5.49359
54.8546777351945 5.50355
54.87976279569621 5.50667
54.90485070780914 5.466130000000001
54.930137506558005 5.40055
54.95523115074295 5.453530000000001
54.98032765308844 5.4054
55.005427015775496 5.42345
55.03072536339621 5.40661
55.05583047570572 5.35436
55.080938454927676 5.30215
55.10604930325027 5.31151
55.131359235107396 5.28071
55.15647585066083 5.2293199999999995
55.181595341907496 5.17265
55.20671771104285 5.16298
55.232039262617704 5.1565900000000005
55.25716741665048 5.1866900000000005
55.28229845518636 5.15724
55.30743238042802 5.09225
55.33276558731939 5.10759
55.357905315183636 5.10219
55.383047936390035 5.04676
55.40819345314859 5.07299
55.433538351073295 5.005809999999999
55.458689688238415 4.99343
55.483843927614096 4.9561
55.509197623043605 4.93735
55.53435769621134 4.928059999999999
55.55952067826466 4.9433300000000004
55.5846865714265 4.84141
55.61005202069737 4.8407
55.63522376553902 4.8350800000000005
55.66039842818645 4.81836
55.68557601087004 4.82749
55.7109532500271 4.71019
55.73613670233794 4.72559
