TT I
1.2716486653135266 7.61976
1.2939594142134223 7.27544
1.3162702121660406 6.76116
1.3385810600174564 6.99503
1.3608919586137629 6.92742
1.383202908801069 6.61269
1.405513911425503 5.93343
1.4278249673332093 7.0151
1.4501343378461518 6.77004
1.4724455028545926 6.01218
1.4947567236847858 6.46628
1.517068001182951 6.2218800000000005
1.5393793361953272 5.650980000000001
1.5616907295681737 6.18961
1.5840021821477681 5.63445
1.60631369478041 5.072690000000001
1.6286252683124185 5.50146
1.6509369035901333 5.4276800000000005
1.6732468618895553 5.41602
1.695558623192809 5.23631
1.7178704487808514 5.00666
1.7401823395001077 4.6353599999999995
1.7625012545597203 4.93872
1.7848028405262486 4.83164
1.8071218901122095 5.02568
1.8294236121921872 5.09373
1.8517427996910911 5.21371
1.8740620574440425 4.91481
1.8963639900671978 5.0442599999999995
1.9186833908139995 5.00736
1.9409854680117449 4.9653599999999996
1.9633050151394713 4.76711
1.9856246367570705 5.0109900000000005
2.0079269371922672 4.83815
2.03024671027244 4.67779
2.0525491637446027 4.40693
2.074869091674931 4.845269999999999
2.097171701569106 4.78641
2.1194917877373847 5.22321
2.141811954326636 4.71416
2.164114805233074 4.8631
2.186435135143035 6.54079
2.208738150935709 14.3647
2.231058647554722 30.2442
2.2533792288321184 23.1709
2.275682498336085 9.96396
2.298003251406138 5.81461
2.3203066942619714 5.16447
2.3426276225136022 5.05935
2.3649486396617507 5.82114
2.387252348930071 5.30791
2.4095735463442893 5.78084
2.4318774374315884 6.55685
2.4541988185014043 6.20124
2.476502894794693 6.662999999999999
2.498824462909887 6.7128
2.521146125856138 6.726
2.5434504863470337 6.614269999999999
2.5657723414244717 7.2808
2.588076895590662 7.78927
2.610398946189713 7.77585
2.6327210958598384 7.96932
2.6550259469304716 7.47065
2.6773482972090137 8.12458
2.6996533504259 7.032360000000001
2.7219759047039602 7.9920800000000005
2.744298562293959 7.85098
2.7666039251246595 7.33246
2.7889267918020164 8.05752
2.8112323652516555 7.603460000000001
2.833555444408179 8.36528
2.8558786311183852 8.2684
2.8781845268938557 8.37964
2.9005079311721484 8.74691
2.9228140460410397 9.09399
2.9451376712799635 9.731869999999999
2.967444008632326 9.983889999999999
2.9897678582247247 9.879589999999999
3.0120918213106695 10.7331
3.0343984987899373 11.0658
3.0567226913198637 11.0586
3.079029599759726 11.4757
3.101354025127254 12.1751
3.123678568232338 12.3993
3.145985829517914 13.557
3.16831061055229 13.5383
3.1906181112775593 14.5875
3.212943133635653 14.7971
3.2352682779763207 15.2994
3.2575761442691227 15.3754
3.2799015350264273 15.9083
3.302209649240067 16.7293
3.3245352898092655 17.2406
3.3468436553365257 17.7497
3.369169549113219 18.1666
3.3914955708171384 18.8173
3.413804319727358 19.0753
3.4361305997334863 19.4466
3.4584396084414553 20.0135
3.4807661501462652 20.5249
3.503092824025881 21.6528
3.5254022288463154 21.4597
3.5477291695206588 22.2843
3.5700388426251948 22.5398
3.5923660534916446 24.3462
3.6146934007816114 39.7774
3.637003482731501 91.9042
3.6593311053109985 102.094
3.681641464033634 58.276
3.7039693653009733 30.983
3.726297407241705 26.4078
3.7486081875460804 25.9594
3.7709365132734978 26.3156
3.793247578841633 26.7584
3.8155761917550093 27.0452
3.8378875459837216 27.79
3.8602164494827234 28.3457
3.882545499606844 28.4075
3.9048572932539183 29.3332
3.9271866390645718 29.5473
3.9494987298666713 30.2124
3.971828374764527 30.6532
3.9941581705403255 31.5039
4.016470713506008 31.8245
4.038800813471445 32.5107
4.061113662089144 33.1132
4.0834440696459176 34.4229
4.105774632334751 34.4241
4.128087945865126 35.229
4.150418821249301 36.2843
4.172732448931298 37.7092
4.195063640413578 39.2074
4.2173775856475215 43.6082
4.239709096631102 76.7741
4.262040768704612 247.429
4.284355196706267 332.425
4.306687193387355 214.895
4.329001947444346 83.7064
4.35133427213731 49.0781
4.373666762177566 45.1773
4.395982011761091 45.1173
4.418314834921175 46.0947
4.44063041906622 54.3835
4.4629635787515625 65.6271
4.4852969080429785 66.1645
4.5076130004776225 55.2842
4.529946671403969 51.3885
4.552263106909177 50.7731
4.574597122877047 52.1302
4.596931312711224 53.6346
4.619248269273446 54.1586
4.6415828092605835 54.7377
4.663900117405352 56.0468
4.686235010953232 57.7934
4.708552674085913 58.4422
4.730887924602802 60.3335
4.753223354952695 61.4806
4.775541557023902 63.1451
4.797877349456786 64.4817
4.820195915032126 66.36
4.842532072957498 68.1459
4.864868414979744 70.0879
4.88718753227192 72.5803
4.909524244902505 74.1332
4.931843734218147 76.0267
4.954180820867835 78.6246
4.976518095879839 81.9549
4.998838149695359 84.5006
5.021175803844231 87.74799999999999
5.043496238205739 91.4302
5.065834274903528 95.9979
5.088172504230693 101.875
5.1104935158799565 108.57700000000001
5.132832132875765 132.602
5.155153533596801 178.87400000000002
5.1774925416746225 217.232
5.199814334878411 393.282
5.2221537374521505 1123.29
5.244493338631803 3044.65
5.266815727034316 7414.4
5.289155727832427 12032.8
5.311478517248165 9110.04
5.333818921080011 3307.09
5.356159527788849 677.485
5.3784829252032536 206.00900000000001
5.400823940070432 153.45
5.423147747031976 134.22899999999998
5.445489173474152 123.29799999999999
5.467830807066149 117.48700000000001
5.490155234831516 112.251
5.512497285125229 108.228
5.534822130975162 106.449
5.557164601388673 104.00399999999999
5.579489868738879 101.51899999999999
5.601832762690846 100.47200000000001
5.6241758697774475 99.7709
5.646501775867269 98.5534
5.668845311622074 96.6599
5.691171647754637 95.6793
5.713515615597765 94.3528
5.735859800852677 93.7632
5.758186788542988 92.9805
5.780531411018185 93.49
5.802858837297399 92.5231
5.825203900414495 92.6727
5.8475491852224 93.4203
5.869877275883075 93.8887
5.892223006467101 94.5931
5.914551544266608 96.3556
5.936897724049891 99.1323
5.959244129804903 104.92399999999999
5.981573344815301 124.435
6.0039202049061 221.58
6.026249875609095 484.793
6.04859719346037 1020.92
6.070927323278297 2230.0
6.093275102315365 4196.34
6.115623113320588 5135.23
6.137953938319995 3422.22
6.160302415650845 1208.27
6.182633708324452 292.633
6.2049826554078376 123.73100000000001
6.227331838745022 97.4684
6.249663839443684 88.4213
6.27201349767565 85.0246
6.294345974611799 91.2377
6.316696111167083 103.609
6.339046488263839 97.2369
6.361379686074702 81.5491
6.383730546639482 73.3615
6.406064229255215 70.071
6.428415576718203 69.4908
6.450749747566656 68.092
6.47310158535871 67.1226
6.495453669698332 66.2383
6.517788579421056 65.5366
6.540141159237969 64.8024
6.562476565766648 64.3101
6.5848296444934045 63.6575
6.607182974060425 63.5258
6.6295191323281015 63.7639
6.651872965955752 67.67
6.6742096296068985 95.3668
6.6965639707294615 144.189
6.71891856698715 143.999
6.741255995248479 97.3512
6.763611104154477 69.3559
6.785949046381137 61.2969
6.808304671371482 59.4312
6.8306605557940046 58.9755
6.852999275508618 58.5374
6.875355681171544 57.636
6.897694923437771 57.9255
6.92005185377892 57.605
6.9423916220322655 57.3731
6.964749080490181 56.8283
6.987106804399774 56.458999999999996
7.009447368180821 56.7562
7.031805625367033 56.4878
7.054146723727803 56.5154
7.076505517631004 55.8319
7.098864581288365 55.7879
7.121206488070854 56.0044
7.143566093607822 55.9819
7.165908543567245 56.1933
7.188268694426048 56.1667
7.2106291193438095 56.4717
7.232972390625943 57.948
7.255333366030969 71.4763
7.277677189091925 127.35799999999999
7.300038718428332 176.915
7.322400526130865 150.22799999999998
7.344745183422596 91.4194
7.367107550224791 62.9511
7.389452767901992 57.5061
7.411815697249891 56.1634
7.434161478756298 55.4444
7.456524974096713 55.1189
7.478888753837185 55.3253
7.501235387657368 55.6954
7.523599738562711 55.2698
7.545946944825532 55.6247
7.568311870344528 56.0457
7.5906770845765665 56.3916
7.613025156078678 58.0515
7.635390950099687 59.1997
7.657739602662809 58.0613
7.680105979923558 56.7657
7.702472650212829 57.012
7.724822180948224 56.8251
7.747189439655568 57.0906
7.769539560075357 57.1287
7.791907410653562 57.3478
7.81425812420825 57.4447
7.836626570110925 57.7072
7.858995315087906 58.4763
7.881346924933401 58.7341
7.903716270417482 59.315
7.926068482028405 59.8412
7.948438431475253 60.1039
7.9708086843180235 60.7457
7.993161805171116 61.4079
8.015532667162402 61.8663
8.037886398416653 62.7995
8.060257873014221 63.2422
8.082629655331942 63.5602
8.104984308787587 64.89699999999999
8.127356708900503 68.2907
8.149711981398308 74.2056
8.172085002766314 76.4531
8.194458336181368 73.1252
8.216814543847752 70.2791
8.23918850371002 70.4119
8.26154533906492 71.3543
8.283919928836452 72.436
8.306277395339652 73.8437
8.328652618483376 74.8895
8.351028159736202 77.2229
8.373386579575245 79.4093
8.395762759396959 81.3833
8.418121819038275 86.8552
8.440498640894003 100.671
8.462875785192262 116.104
8.485235811156207 128.339
8.507613602688501 170.09900000000002
8.529974277114228 263.56
8.552352719347912 406.31199999999995
8.574731488360351 678.045
8.59709314210385 1166.23
8.619472567021075 1794.89
8.64183487789147 2149.05
8.664214962183097 1874.14
8.686577933647762 1064.24
8.708958680784317 413.916
8.731339760774953 180.62099999999998
8.753703729764451 117.148
8.77608547780821 102.11399999999999
8.798450116065078 97.73100000000001
8.820832535634787 94.3513
8.843215292401656 92.9238
8.865580941199045 91.0868
8.887964374703538 90.3403
8.910330701447199 91.08200000000001
8.932714815164482 93.6689
8.955099270424924 92.7545
8.977466620733543 89.7128
8.999851761421976 87.0082
9.022219798361645 84.9694
9.04460562795561 84.4351
9.066991803441677 84.3595
9.089360876979615 84.2341
9.111747746589993 83.5052
9.13411751544971 83.2209
9.156505082664324 83.0963
9.178875550323522 83.1819
9.20126381862328 83.3856
9.223652438908596 83.9094
9.246023961427412 83.92399999999999
9.26841328802173 83.3368
9.290785518039224 83.3749
9.313175554425882 83.5679
9.335565947154315 83.6971
9.357939245086508 83.7
9.380330352834827 84.102
9.40270436697103 84.01700000000001
9.425096193225055 83.8907
9.447488380180165 85.0336
9.469863475295412 85.62700000000001
9.492256385987508 85.7164
9.514632206018318 86.1061
9.537025843935714 86.7771
9.559402392368193 87.1989
9.581796761000229 88.656
9.604191496441521 89.3903
9.626569144158516 93.0086
9.648964615551032 97.6397
9.671343000390081 99.3933
9.693739211225699 97.2534
9.716135793237463 94.8855
9.738515290448102 94.2025
9.760912617143402 95.1048
9.783292860202891 96.2363
9.805690935076182 97.589
9.828089385495742 98.89299999999999
9.850470754023561 101.209
9.872869957865444 109.375
9.89525208097539 125.296
9.917652041736662 138.518
9.940052382417589 137.643
9.962435644102392 144.317
9.984836746950979 181.80900000000003
10.007220771957746 250.162
10.029622640473708 358.62800000000004
10.052007432299963 537.366
10.074410069984072 814.313
10.096813093716005 1226.51
10.119199042482517 1650.63
10.141602840636468 1901.06
10.163989564971628 1626.99
10.186394141051062 989.72
10.208799107559706 447.49699999999996
10.231187001965623 215.71400000000003
10.253592751657669 135.721
10.275981430388155 117.03
10.298387966769793 115.70100000000001
10.320794897965431 117.78399999999999
10.343184759907361 116.819
10.36559248305461 110.182
10.387983138083852 105.806
10.410391656691655 109.13600000000001
10.432800574501677 120.639
10.455192425893369 137.47
10.47760214443012 164.537
10.499994797678786 207.37400000000002
10.522405320453982 284.01
10.54479877906917 394.33099999999996
10.567210109595656 493.07
10.5896218454736 556.495
10.612016518879773 509.525
10.634429067781074 380.216
10.656824555333241 223.805
10.679237920773568 134.566
10.701651695961992 100.008
10.724048411481384 91.0543
10.746463008485165 88.1236
10.768860546937125 86.1973
10.791275969274796 84.046
10.81369180576079 83.1759
10.836090585366925 82.1672
10.858507252467449 81.1748
10.88090686379991 79.9686
10.903324365036394 79.3614
10.925724811614439 79.4724
10.948143150509463 80.7561
10.970561909719066 79.9027
10.992963615930844 77.8654
11.015383218085756 76.1528
11.037785768347074 74.1393
11.06020621697282 73.7765
11.082627090322113 73.3602
11.105030913430326 72.6566
11.12745263854165 73.4121
11.149857314510728 77.16199999999999
11.172279894912576 83.51
11.194702904450653 84.088
11.217108866490921 79.8244
11.239532736615194 75.2937
11.26193956033512 73.3465
11.284364294577085 71.4119
11.306789462371718 69.3862
11.329197585398376 68.0173
11.351623622610898 67.7149
11.37403261614354 66.8982
11.396459526308487 66.8787
11.418869393879497 66.191
11.441297180532617 65.8303
11.463725406927658 65.8269
11.486136592353875 65.6988
11.508565700543707 66.1848
11.530977768845315 68.1586
11.553407762368774 69.362
11.575838200059769 68.3023
11.598251599479612 66.3302
11.620682927815501 64.9176
11.64309721895548 64.6566
11.665529441478206 64.3938
11.687962112597958 63.9185
11.710377748130886 63.8726
11.732811318753434 63.5299
11.755227854859067 63.6325
11.777662328529495 63.8327
11.800079768750786 63.4679
11.822515149015453 63.2922
11.844950984084935 63.3325
11.867369787303163 63.2229
11.889806534289491 63.1169
11.912226250487029 63.3956
11.934663912939751 63.5922
11.9571020346363 63.7792
11.979523127133968 63.8161
12.001962169624331 64.2829
12.024384183972964 65.6634
12.046824150809913 68.9006
12.069264581333726 74.2479
12.091687985297767 80.8602
12.11412934550045 90.3245
12.136553680195208 105.536
12.158995973632788 128.166
12.181438735204349 153.977
12.20386447284199 179.977
12.226308172985636 200.16
12.24873485024193 201.46900000000002
12.271179492516982 171.155
12.293607112949127 134.226
12.316052700916226 101.647
12.338498763250042 82.1161
12.360927805303868 72.1223
12.383374818673879 67.6802
12.405804812803074 65.5948
12.428252780773262 65.4387
12.45070122756722 65.2706
12.473132656675375 64.8997
12.49558206341869 65.2457
12.518014453510101 65.2885
12.540464823770117 65.6707
12.562915677315177 65.6689
12.58534951575545 66.4335
12.607801338171472 68.3882
12.630236146511358 73.795
12.652688941369085 79.2398
12.675124723177234 79.6328
12.697578494048786 75.3899
12.720032754458185 70.797
12.742470003354093 69.1005
12.764925245138771 68.7494
12.787363476431278 68.7081
12.809819703166806 68.9473
12.83227642391173 69.8144
12.854716135692716 70.327
12.877173846755147 71.5521
12.899614549869717 71.89
12.9220732548287 72.6349
12.94453245827299 72.9337
12.966974655289818 74.0001
12.989434858002571 75.1525
13.011878055298721 75.881
13.034339260862497 76.9169
13.056800969391883 78.0648
13.079245674017244 79.9388
13.101708390774869 82.3016
13.12415410463411 89.7174
13.146617833206086 101.89200000000001
13.169064559883248 114.67299999999999
13.191529303857127 129.519
13.213994557076367 151.925
13.236442809902437 187.171
13.258909083908291 237.67
13.28135835851934 296.185
13.30382565690295 360.98699999999997
13.326293469022952 415.13699999999994
13.348744283242008 424.8
13.371213125129904 371.67
13.39366497011003 279.05400000000003
13.416134845360597 188.976
13.438605238843131 131.674
13.46105863690397 109.815
13.483530069144786 107.78200000000001
13.505984506951902 113.119
13.528456981549432 123.41799999999999
13.550929978879088 138.02200000000002
13.573385983253365 161.283
13.595860028340867 197.458
13.618317081455832 245.225
13.64079217790333 292.717
13.663250283359057 334.212
13.685726434770173 358.76800000000003
13.708203115221277 338.87699999999995
13.730662806148091 272.87
13.75314054697177 202.025
13.775601299246777 141.059
13.798080104050406 103.35799999999999
13.820559442405358 88.08200000000001
13.843021793671388 83.5385
13.865502201420897 81.3249
13.887965623051947 80.5516
13.910447103807167 79.5495
13.932929122629764 78.0158
13.955394156785959 77.6948
13.977877254034569 76.7628
14.000343367582113 75.8233
14.022827546871707 75.4559
14.045294743423524 74.6342
14.06778000837062 74.0106
14.090265817715476 73.7342
14.112734645763819 73.5991
14.13522154619454 73.3039
14.157691466286913 73.5505
14.180179461423874 73.0744
14.202668005486178 72.4152
14.22513957064374 71.7524
14.247629214846473 71.0984
14.270101881097517 71.0683
14.29259262906496 71.4726
14.315083930490205 72.2291
14.337558255389705 72.7488
14.360050666019726 72.335
14.382526101071944 71.2561
14.405019624534942 70.2013
14.427513705993134 69.7364
14.449990813291825 69.5018
14.47248601302899 69.4451
14.49496423954951 69.5326
14.517460561197822 69.8548
14.539939910570322 69.5763
14.562437357763558 70.0872
14.58493536931253 71.2631
14.607416409993311 72.25399999999999
14.62991555254159 72.9734
14.652397725157423 72.4464
14.674898002342799 72.1951
14.697398848433282 71.3649
14.719882725991326 72.0133
14.74238471217934 72.896
14.764869730765593 76.4546
14.787372860692983 80.4541
14.809876564079925 84.7943
14.83236330125751 90.5004
14.854868153850365 99.6083
14.877356041159485 112.22
14.899862046604186 129.778
14.922351087688757 152.803
14.944858249632887 178.67
14.967365991421232 200.06599999999997
14.989856770231246 216.447
15.012365673994204 214.107
15.03485761569738 191.53
15.05736768508665 155.041
15.07987833888692 120.652
15.102372032001655 95.5686
15.124883856909658 79.5376
15.14737872204565 73.6925
15.169891721717274 71.5872
15.192405310371893 71.5391
15.214901940621196 71.8542
15.237416709527137 71.756
15.259914520936249 72.1331
15.282430473753607 71.2199
15.304947020131227 70.1651
15.327446610371178 69.3109
15.349964346154254 68.0691
15.372465126703139 67.7013
15.394984055556009 67.293
15.417486030076159 67.2966
15.44000615566487 67.0215
15.462526881230803 66.9231
15.485030653812652 67.1664
15.507552581617434 67.0663
15.530057557334603 67.0924
15.55258069104857 67.1503
15.575104429329837 67.042
15.597611216864632 66.6752
15.620136166564563 66.7939
15.6426441664095 67.5408
15.665170331202765 69.8795
15.687697105158826 73.2132
15.710206930593545 76.7848
15.732734925158933 81.3119
15.755245972089478 87.4422
15.77777519094324 96.4721
15.800287463046663 108.677
15.822817909869592 126.215
15.84534897229804 145.293
15.867863089299354 166.96200000000002
15.890395385222186 181.653
15.912910736597423 189.274
15.935444269699861 180.976
15.957978423016485 160.18
15.980495633101265 129.812
16.003031029129367 102.92399999999999
16.02554948280019 80.7977
16.048086125229432 70.4476
16.070623392487107 67.0938
16.09314371869582 65.7437
16.11568223789321 64.6998
16.13820381691126 63.4986
16.160743591742527 62.6216
16.183283996022084 61.6578
16.205807461423195 60.3198
16.228349126881973 59.6568
16.25087385432698 59.817
16.27341678466365 59.1102
16.29594277784926 59.1007
16.31848697676433 59.3985
16.341031811604868 59.8189
16.36355971058487 60.1487
16.3861058195587 59.8722
16.40863499352978 58.6519
16.431182380342005 57.6562
16.453730407713202 56.9812
16.476261501364792 56.6222
16.498810812136167 56.443000000000005
16.52134319004079 56.3477
16.54389378792203 56.2402
16.566445031001553 56.0171
16.588979342490088 55.9813
16.61153187824822 55.8882
16.634067483263312 55.7577
16.656621315414416 55.6674
16.679175797408888 55.3486
16.701713349928728 55.1963
16.72426913389191 55.6068
16.74680798922351 55.7679
16.76936507887444 55.7293
16.791905240734874 55.8201
16.814463639794468 55.7144
16.837022695210294 55.5091
16.859564824093756 55.989
16.882125194503903 56.8587
16.904668639217885 57.4346
16.927230328348003 57.5883
16.949792678493612 57.8262
16.972338104193863 57.0423
16.994901778652235 56.6133
17.017448529496576 56.5066
17.040013531998152 56.4831
17.06257920018044 56.869
17.0851279459922 57.6282
17.107694947817667 58.5305
17.130245028099072 59.3994
17.15281336730298 60.8823
17.17536478578733 62.3838
17.19793446610687 64.6506
17.220504818648422 67.3368
17.243058251703697 70.2952
17.265629950971032 74.5336
17.288184731571736 78.9365
17.310757781306908 81.6225
17.33333150794385 83.3722
17.355888317140174 82.4443
17.37846339986244 78.7985
17.401021565958885 72.7658
17.42359800851343 67.8506
17.44617513265564 63.729
17.468735341390783 61.3373
17.491261035594565 60.0283
17.51396340099364 59.7221
17.536490463869136 59.6768
17.559018209820174 59.8272
17.58154663977963 60.1623
17.604251766089718 60.114
17.626781572227713 60.2134
17.64931206518155 60.4739
17.671843245885103 61.2785
17.69455114821572 61.3142
17.717083712612634 61.6525
17.739616967569667 61.9379
17.762150914021706 62.0682
17.78486160749854 62.0009
17.807396945166804 62.5066
17.829932977143503 63.3643
17.85246970436452 64.9393
17.875183204129467 67.1569
17.897721330097664 69.273
17.920260154126645 71.6876
17.942799677153296 74.8992
17.9655159983646 78.4847
17.988056927677544 83.4633
18.010598558807683 90.7258
18.033140892692916 99.8165
18.05586005052525 109.684
18.07840379824407 120.15
18.10094825154059 130.47299999999998
18.12366954819864 137.608
18.146215420998306 139.54399999999998
18.16876200220057 133.914
18.191309292745153 121.805
18.214033452627167 107.749
18.236582170236648 95.3158
18.259131600016456 89.1765
18.281681742907335 88.1864
18.304408781233683 91.1567
18.32696035875955 95.419
18.349512652227624 99.8927
18.372065662579683 104.001
18.394795594587553 105.625
18.41735004715306 104.125
18.43990521943684 98.5313
18.46246111238171 89.6316
18.485193953325208 80.462
18.507751296070428 72.6888
18.530309362314178 67.6172
18.552868153000343 64.6244
18.57560391815056 63.167
18.59816416623245 62.611999999999995
18.620725141597372 62.2103
18.643286845190268 61.6335
18.666025549835414 61.1228
18.688588718427933 60.5131
18.711152618092243 60.4483
18.73389353884365 60.2024
18.75645890921984 59.846000000000004
18.77902501351406 59.5104
18.801591852673102 59.3258
18.824335739722738 58.7938
18.846904057212626 58.6657
18.8694731124168 58.4356
18.89204290628315 58.5266
18.914789774966803 58.3269
18.937361054791623 57.9915
18.959933076131318 57.8599
18.982505839934877 57.7122
19.00525570560582 57.6812
19.027829963004184 57.5688
19.05040496572238 57.7154
19.072980714710468 57.813
19.095733592739563 58.0704
19.11831084296757 58.358999999999995
19.140888842324735 58.6709
19.16346759176222 58.9791
19.18622349753803 59.4155
19.208803755869358 60.2057
19.231384767143577 61.3524
19.253966532312948 62.7029
19.276725481241822 64.7881
19.29930876296784 66.99600000000001
19.3218928014549 69.7864
19.34465404436217 72.8046
19.36723960516257 75.4434
19.389825925592426 76.7809
19.412413006605938 76.1629
19.43517731967805 73.3913
19.457765930683355 69.24
19.48035530514408 64.892
19.50294544401556 60.8922
19.525712842708348 57.8893
19.54830451925909 56.3286
19.570896963095727 55.0454
19.593490175174704 54.571999999999996
19.616260674962184 54.6545
19.638855432416964 54.2594
19.661450960992624 54.5348
19.68404726164677 54.1984
19.706820878021247 53.9237
19.729418731756834 54.1923
19.752017360452857 53.8158
19.77461676506804 54.1702
19.797393513540218 54.2782
19.819994478951667 54.6435
19.84259622316767 55.1905
19.8651987471481 55.6584
19.887978643247177 55.9257
19.91058273574792 56.1847
19.933187610901943 57.0911
19.955969879466828 58.0941
19.97857632894404 59.5402
20.00118356396599 60.7639
20.023791585494575 62.7659
20.046577028914875 65.0633
20.069186632506966 67.1242
20.091797025500632 69.104
20.114408208858933 70.2202
20.137196842715273 70.4508
20.159809615886765 69.2299
20.18242318232135 66.9976
20.20503754298326 64.7799
20.227829382875154 63.7498
20.250445341109344 63.2363
20.27306209647285 63.2814
20.29567964993108 64.1742
20.31847471147704 64.7703
20.34109387027612 65.6561
20.363713830075454 65.8224
20.386334591841646 64.9411
20.409132890679302 62.8078
20.431755265564437 59.8387
20.454378445325528 56.8741
20.477002430930366 54.6634
20.499803982716553 53.4032
20.522429589228004 52.3748
20.54505600449589 51.8909
20.567683229489194 51.6149
20.590488049900088 51.3352
20.61311690359731 50.9751
20.63574656993626 50.6709
20.658553853717297 50.4468
20.681185154618298 50.2219
20.703817271080066 50.1545
20.72645020407368 50.0171
20.749260783967177 49.7852
20.771895359337133 49.8424
20.794530754161617 49.7075
20.817166969412938 49.4725
20.83998086114876 49.4645
20.86261872660049 49.4632
20.885257415405402 49.5006
20.90789692853701 49.4761
20.930714147864748 49.2562
20.953355319030678 49.2368
20.97599731745334 49.2273
20.99864014410749 49.1936
21.021460706796564 49.3227
21.044105199328826 49.534
21.06675052302631 49.763999999999996
21.089396678865015 49.94
21.112220600704806 50.1483
21.134868430275347 50.5703
21.15751709492456 50.8705
21.180166595629693 51.0372
21.202993892429635 51.5162
21.22564507473034 51.666000000000004
21.24829709602816 51.8311
21.27112693608965 52.0047
21.293780644891275 52.0307
21.316435195634053 51.5846
21.339090589297417 50.9758
21.361923832041875 50.5172
21.384580921090404 49.872
21.407238856007325 49.3616
21.429897637773326 49.2985
21.45273429906592 49.1462
21.475394784108598 49.1895
21.498056118951983 48.9159
21.520718304578022 49.2312
21.543558400304388 49.2774
21.566222297108816 49.4389
21.58888704765135 49.4534
21.61155265291521 49.7809
21.63439619898156 50.3203
21.657063523335786 50.6569
21.67973170537063 51.0927
21.7024007460706 51.5263
21.72524775840385 52.2411
21.747918526116475 53.2404
21.770590155457388 54.4564
21.79326264741238 55.9455
21.816113141960237 57.7577
21.838787368860547 59.3031
21.861462461341976 61.0753
21.884315579735777 62.6687
21.90699241312273 63.9339
21.92967011506078 64.9843
21.95234868653799 64.992
21.9752053151131 64.41
21.997885635446785 62.8317
22.020566828293532 61.0053
22.04324889464272 59.0162
22.066109049404666 57.4304
22.088792872571794 56.7198
22.111477572219204 56.5717
22.1341631493376 56.5349
22.157026846313123 56.5143
22.179714188221507 56.0296
22.202402410582668 55.2741
22.22509151438863 53.88
22.24795876962584 52.4672
22.270649646204486 51.5869
22.293341407213727 50.7434
22.316034053646906 50.2675
22.338904883215342 49.7702
22.36159931041458 49.8747
22.38429462602756 49.7145
22.40699083104897 49.5185
22.429865251039757 49.5966
22.452563244831367 49.601000000000006
22.47526213102522 49.6215
22.49813925616515 49.3062
22.520839937143307 49.1838
22.543541513520587 49.2615
22.56624398629403 49.0817
22.589124730075895 49.0218
22.611829005656723 49.2034
22.63453418063466 49.3567
22.657240256008077 49.5058
22.680124634582935 49.7277
22.70283252079775 49.9518
22.725541310413075 50.0702
22.74825100442868 50.4626
22.771139033969575 50.9192
22.79385054687155 51.1956
22.81656296718292 51.678000000000004
22.83927629590484 52.5524
22.862167992606945 53.398999999999994
22.88488314827121 54.331
22.907599215359284 55.2904
22.93031619487366 56.5122
22.953211574954405 57.2425
22.975930389478226 58.1382
22.998650119445763 58.3868
23.02137076586092 58.1068
23.044269845560063 57.0856
23.06699233506288 55.3563
23.089715744034912 53.5538
23.112617610931565 52.1567
23.135342869061212 50.9016
23.158069049684816 50.0349
23.1807961538087 49.5015
23.20370174880544 49.4429
23.226430710184808 49.4008
23.249160598093425 49.4564
23.271891413539002 49.4321
23.294800752937697 49.6245
23.31753343374794 49.7392
23.340267045128353 49.8848
23.36300158808808 49.986000000000004
23.38591468821339 50.4374
23.408651104658304 50.9315
23.431388455719986 51.5112
23.454126742409 52.178000000000004
23.4770436196085 53.1455
23.499783787914662 54.2082
23.522524894889884 55.1419
23.54526694154616 56.068999999999996
23.56818761219047 56.9574
23.59093154860734 57.4996
23.613676427751283 58.0134
23.636422250635754 57.6371
23.659346731118656 56.5466
23.68209445191868 54.8067
23.704843119509587 52.7534
23.72759273490623 50.9358
23.750521041644767 49.3706
23.77327256312355 48.1425
23.796025035462787 47.2993
23.818956224555475 46.6902
23.841710609113413 46.6194
23.86446594758979 46.4202
23.887222241002014 46.1837
23.910157285144578 45.7819
23.932915498962537 45.7448
23.955674670778713 45.6202
23.978434801611975 45.3602
24.001373717286125 45.3553
24.024135776723917 45.3281
24.046898798245582 45.1666
24.06966278287146 45.0143
24.092605586582614 44.9236
24.115371508023642 44.6509
24.1381383956401 44.7363
24.16090625045381 44.7759
24.183852958731244 44.6044
24.206622758582608 44.3765
24.229393528706886 44.2226
24.252165270127392 44.4053
24.27511589952438 44.2897
24.297889594216997 44.075
24.32066426328598 43.9177
24.34343990775613 43.9649
24.36639447485003 43.8183
24.38917208083877 43.7634
24.41195066531332 43.7145
24.43490819850244 43.8635
24.457688750692377 43.6076
24.48047028445616 43.5849
24.503252800821233 43.7237
24.526214300784112 43.7555
24.548998793132213 43.5898
24.57178427117417 43.4209
24.59457073593893 43.5595
24.617536219319863 43.5164
24.64032466834748 43.4887
24.663114107195035 43.3828
24.685904536893013 43.2285
24.708874020360852 43.1806
24.731666442613744 43.0034
24.754459858818787 43.0155
24.777254270007962 42.9092
24.80022777025625 42.7556
24.82302418230472 42.8066
24.845821592443674 42.9509
24.86862000170663 42.8158
24.891597535453727 42.6857
24.914397953892728 42.766000000000005
24.93719937456671 42.7465
24.96000179851076 42.9296
24.98298338249997 43.1585
25.00578782394922 43.2949
25.028593271784167 43.3602
25.05157790644186 43.7746
25.07438537804115 43.8259
25.097193859145293 44.0349
25.120003350792075 44.3231
25.142992065061257 44.5231
25.165803588823465 44.7866
25.18861612625217 45.0786
25.211429678386736 45.1782
25.234422489079968 45.3204
25.257238081693636 45.3388
25.280054692141732 45.4773
25.3028723214652 45.4162
25.325869245420463 45.3897
25.348688923599397 45.2629
25.371509623787006 45.3206
25.394331347025812 45.2359
25.41733240110666 44.8706
25.440156181590016 44.2563
25.46298098826268 43.7429
25.48580682216873 43.2464
25.50881202326435 42.655
25.53163992281684 42.1569
25.55446885274561 41.7434
25.577298814096377 41.593999999999994
25.600308179121807 41.538999999999994
25.623140214533745 41.5247
25.64597328451537 41.2336
25.66898578564376 41.0444
25.691820936010206 41.1416
25.714657124097695 41.0768
25.737494350954734 41.1413
25.760511045684957 41.1395
25.783350361364224 41.0998
25.806190718969255 40.9945
25.82903211955018 41.1029
25.852053024868923 41.2382
25.874896522722523 41.2955
25.897741066713106 41.2013
25.920586657892454 41.349
25.943611790812668 41.5286
25.966459487728237 41.543
25.989308234998564 41.4805
26.01215803367705 41.8357
26.03518741123814 41.9436
26.05803932412957 41.9939
26.080892291600094 41.9767
26.10374631470478 42.0235
26.12677995397268 42.2375
26.14963609978026 42.2147
26.172493304397875 41.9483
26.19535156888223 41.8567
26.218389486949604 41.4359
26.241249882640123 41.045
26.26411134137826 40.924
26.28715248187403 40.8235
26.31001607820869 40.6549
26.3328807407756 40.4333
26.35574647063438 40.7038
26.37879191991473 40.7476
26.401659795896734 40.6802
26.424528742360263 40.8735
26.447398760366614 40.9406
26.470448535598294 41.1656
26.49332070826805 41.4172
26.516193955675355 41.7543
26.53906827888316 41.7619
26.562122397260108 41.99
26.584998883685063 42.0964
26.607876449110325 42.2792
26.63075509460056 42.5093
26.65381357334404 42.628
26.67669439061878 42.6569
26.699576291163382 42.6955
26.722459276044212 42.515
26.745522132402975 42.261
26.768407297649354 42.0637
26.791293550442003 41.7051
26.814180891848974 41.3663
26.837248143099337 41.0151
26.860137673466657 41.0195
26.88302829566349 40.7328
26.90592001075963 40.509
26.92899167420566 40.4856
26.951885586870763 40.1298
26.974780595655517 39.8557
26.99785558178161 39.7503
27.020752794605112 39.674
27.043651106772522 39.4334
27.06655051935668 39.2929
27.089629948036183 39.1975
27.112531573292053 39.3098
27.135434302194138 39.3325
27.158338135817015 39.1227
27.181422024430987 39.2616
27.204328079372566 39.0857
27.22723524226965 38.9891
27.250143514198573 39.106
27.273231880156334 39.150999999999996
27.296142382065014 38.9319
27.319053996245536 38.8388
27.341966723775965 38.8601
27.365059584515222 38.9651
27.38797455070062 38.9819
27.410890633481237 39.0478
27.433807833936918 39.0215
27.456905206923906 38.9447
27.47982465472398 38.9721
27.502745223449743 39.02
27.525666914182825 39.0118
27.548768816912457 39.0249
27.571692763693633 38.9481
27.59461783573812 38.7816
27.617723149491244 38.6809
27.640650484125285 38.7174
27.66357894728264 38.7086
27.686508540048052 38.7619
27.709618414237887 38.5251
27.732550278321757 38.3627
27.755483275279115 38.338
27.778417406196485 38.4805
27.801531858397514 38.4331
27.824468269376716 38.3637
27.847405817586786 38.2803
27.870344504116094 38.5363
27.893463551932008 38.625
27.916404527281053 38.7608
27.93934664422563 38.8449
27.962289903855886 38.9806
27.98541356491974 39.0225
28.00835912214229 39.1139
28.03130582533231 39.3538
28.054253675581805 39.484
28.077381967556104 39.5652
28.100332124185126 39.4868
28.123283431160893 39.3703
28.146235889577238 39.3885
28.169368830154156 39.2026
28.192323603752033 38.9611
28.215279532083304 38.7027
28.238415973016764 38.4171
28.261374223145094 38.348
28.284333631303806 38.1699
28.307294198589954 37.9868
28.330435319167677 37.7902
28.353398217078915 37.5048
28.376362277420153 37.3175
28.39932750129032 37.1917
28.422473319286713 37.009
28.44544088262495 36.9457
28.468409612800283 36.7662
28.491379510913497 36.4578
28.51453004413313 36.4526
28.53750229057244 36.4062
28.56047570826344 36.400999999999996
28.583450298308804 36.3975
28.606605564586562 36.1992
28.629582511831156 36.2692
28.65256063474956 36.241
28.675539934446338 36.1887
28.698699951647605 36.0474
28.72168161743193 35.9446
28.74466446331978 35.9324
28.767648490417624 35.8982
28.790813276438353 35.8217
28.813799678527303 35.9023
28.836787265157085 35.9127
28.859955641890075 35.9351
28.882945610203045 35.9432
28.905936766392035 35.8181
28.928929111566863 35.8476
28.952102288520145 35.6686
28.975097024308607 35.5235
28.998092952423807 35.6027
29.021090073977508 35.4497
29.04426806913204 35.3552
29.067267590245258 35.1888
29.090268308143695 35.1134
29.11327022394099 34.9722
29.13645305530891 34.9405
29.159457379627167 34.9438
29.18246290519685 34.8458
29.20546963313352 34.8013
29.22865731875826 34.8187
29.25166646419296 34.9172
29.27467681535305 34.6689
29.29768837335608 34.7375
29.320880931312562 34.7122
29.34389491580634 34.6285
29.366910110507334 34.6162
29.38992651653503 34.6061
29.41312396492981 34.6532
29.436142806456754 34.5457
29.45916286268059 34.4832
29.48236399319994 34.5305
29.50538649169417 34.2075
29.528410208259935 34.2448
29.55143514402014 33.9456
29.574641196749695 33.851
29.597668583816574 33.7369
29.6206971934585 33.6407
29.64372702680042 33.6151
29.666938019934474 33.6067
29.689970313635285 33.5242
29.713003834422636 33.4621
29.73603858342347 33.3073
29.759254535188578 33.3946
29.78229175361658 33.4008
29.80533020365064 33.3572
29.82836988641968 33.3474
29.85159081507472 33.2064
29.874632976355343 33.1271
29.89767637376955 33.2559
29.920721008448314 32.9649
29.9439469322847 32.963
29.96699405457564 32.9794
29.9900424175358 33.0155
30.013092022298157 32.9968
30.03632295963995 32.9018
30.059375061131373 32.8886
30.08242840783577 32.9162
30.105483000888153 32.9211
30.128718970092244 32.8491
30.151776069006917 32.8963
30.17483441768648 32.9066
30.198074175317235 32.8922
30.221135036724256 32.8649
30.24419715131772 32.7623
30.267260520236203 32.6672
30.290505341942243 32.7582
30.313571232750228 32.8548
30.336638381310948 32.7539
30.35970678876503 32.7236
30.38295669299435 32.624
30.40602763151657 32.6415
30.429099832366074 32.5774
30.452173296685572 32.5715
30.47542830191959 32.5326
30.498504306502497 32.5148
30.521581577995562 32.5641
30.544660117543582 32.5928
30.56792024229725 32.5837
30.59100133132069 32.478
30.614083691845494 32.5199
30.637167325018545 32.5192
30.660432587840603 32.6654
30.683518779717886 32.5537
30.70660624769615 32.561
30.729694992924372 32.5988
30.75296541239743 32.7055
30.77605672557558 32.603
30.799149319462742 32.6079
30.8224236211637 32.5368
30.845518789950724 32.3394
30.868615242910597 32.308
30.891712981195973 32.1097
30.91499247215866 32.0092
30.938092794619365 31.9548
30.96119440587579 31.9449
30.984297307082752 31.7637
31.00758200598383 31.7415
31.030687500658694 31.5608
31.053794288760695 31.6949
31.076902371446767 31.4945
31.100192296997445 31.4816
31.12330298246119 31.4047
31.14641496599209 31.3454
31.169528248749216 31.405
31.19282341969534 31.379
31.215939314557186 31.423000000000002
31.239056512134788 31.4606
31.262175013589378 31.441
31.28547544871168 31.3854
31.30859657161541 31.2796
31.331719001892175 31.2365
31.35484274070538 31.3029
31.378148458819545 31.3138
31.401274828443725 31.3504
31.424402510106933 31.2996
31.447712205419993 31.2701
31.470842524931633 31.2062
31.493974159989783 31.1879
31.51710711176168 31.275
31.54042212308802 31.1485
31.563557722100917 31.0765
31.586694641341655 31.0011
31.609832881979628 30.8486
31.63315322823208 30.8728
31.656294125521327 30.7864
31.679436347728515 30.7116
31.70257989602529 30.5864
31.725905596152327 30.5747
31.74905181052835 30.4544
31.772199354521323 30.5436
31.79534822930507 30.6397
31.818679302290967 30.5666
31.84183085259981 30.4983
31.864983737233473 30.546999999999997
31.88813795736804 30.5633
31.911474422233013 30.4852
31.934631327356435 30.5868
31.9577895715215 30.4118
31.980949155906522 30.4066
32.004291031706956 30.4498
32.027453310562606 30.3542
32.05061693318573 30.1683
32.07396288236386 30.3239
32.09712920658542 30.2326
32.12029687812702 30.0397
32.14346589817093 29.961
32.166817291729984 29.8638
32.18998902288583 29.8421
32.21316210610336 29.7162
32.23633654256711 29.6792
32.259693399663725 29.6576
32.282870556771144 29.5477
32.30604907069099 29.5435
32.329228942610065 29.5405
32.35259128243769 29.3812
32.375773884550505 29.363000000000003
32.398957848235646 29.3555
32.422143174682176 29.335
32.445511016471215 29.0962
32.468699082679954 29.0872
32.49188851523011 29.0704
32.51507931531304 29.1059
32.538452678331 29.0186
32.56164622776311 29.0825
32.58484114831493 28.8609
32.60803744118015 28.8972
32.631416344731896 28.8868
32.654615396551876 28.8664
32.67781582427913 28.8163
32.701198898634416 28.7714
32.72440209253756 28.5924
32.747606665947124 28.7161
32.77081262006088 28.537
32.79420126883317 28.5461
32.81740999876112 28.581999999999997
32.840620112999424 28.4193
32.86383161274818 28.3741
32.88722585534586 28.359
32.91044014056596 28.465
32.933655814909734 28.397
32.95687287957963 28.432
32.98027273544904 28.2625
33.00349259526636 28.2811
33.026713849030116 28.2529
33.04993649794511 28.2461
33.073341986570746 28.1863
33.09656744032826 28.2032
33.11979429286444 28.116999999999997
33.14302254538647 28.1537
33.166433686291185 28.1033
33.18966475336992 28.0849
33.212897224069096 27.9675
33.23613109959831 27.9612
33.259547912343415 27.9036
33.2827846121627 27.9519
33.306022720453775 27.7778
33.32926223842861 27.6938
33.352684742614166 27.8019
33.37592709463173 27.8188
33.399170859982064 27.739
33.422597648419426 27.6306
33.44584425514446 27.4977
33.46909227885668 27.545
33.4923417207723 27.399
33.51577423505344 27.3321
33.539026528130385 27.2821
33.56228024307245 27.2765
33.585535381098246 27.1264
33.60897364093058 27.0927
33.63223163992385 27.118000000000002
33.6554910656699 27.002
33.678751919389796 27.0324
33.702195944520106 27.0111
33.72545966903325 26.9864
33.74872482519663 26.8778
33.771991414233746 26.8477
33.79544122444841 26.8619
33.81871069412428 26.7806
33.84198160035767 26.8175
33.86525394437455 26.7586
33.88870955949969 26.776
33.911984794020626 26.5506
33.93526147001624 26.6378
33.958539588715006 26.5639
33.98200102861669 26.4091
34.0052820477047 26.413
34.02856451319451 26.4628
34.05203033759056 26.3892
34.07531571090147 26.4391
34.09860253431845 26.3066
34.121890809074316 26.3081
34.145362493118924 26.2557
34.16865368561615 26.1409
34.191946333164054 26.0682
34.21524043699793 26.1213
34.23871800066799 26.1029
34.26201503218366 25.9947
34.28531352370466 25.9831
34.30861347646881 25.9343
34.33209693978188 25.8868
34.3553998301885 25.8763
34.378704185565205 25.8153
34.402010007152356 25.6806
34.42549939016683 25.7131
34.44880815937748 25.6004
34.472118398533134 25.6037
34.49543010887669 25.5821
34.51892543169198 25.5391
34.54224009966052 25.5443
34.56555624255917 25.5142
34.58887386163339 25.4346
34.61237514439016 25.3382
34.6356957311114 25.319000000000003
34.65901779775809 25.2718
34.68252356662995 25.2301
34.705848608458616 25.2146
34.72917513396849 25.2167
34.75250314440949 25.1593
34.77601490857862 25.0726
34.799345904259795 25.0603
34.82267838863559 24.9802
34.846012362958525 25.0113
34.869530142679984 25.0002
34.89286711232212 24.9129
34.91620557568269 24.8712
34.93954553401677 24.8629
34.9630693495876 24.8156
34.986412313340814 24.9007
35.00975677584668 24.8617
35.033102738362956 24.7595
35.05663261012228 24.634
35.0799815881786 24.6505
35.10333207003229 24.6323
35.12668405694369 24.6514
35.150220005273056 24.605
35.17357501786656 24.5572
35.19693153931268 24.5192
35.220289570874385 24.4814
35.24383161619786 24.4755
35.267192683604904 24.4797
35.290555264930376 24.3698
35.314101899412165 24.3523
35.33746752422433 24.3865
35.36083466676374 24.4048
35.38420332829803 24.2881
35.407756095629054 24.4049
35.43112781085063 24.3482
35.45450104888391 24.2362
35.477875810999194 24.2577
35.50143473172161 24.1522
35.52481255774625 24.0997
35.54819191167777 24.0594
35.57157279478914 24.0183
35.595137889488406 24.0334
35.61852184675279 24.021
35.641907337029984 23.9878
35.665294361595684 23.9736
35.68886565090076 23.8524
35.7122557598848 23.8073
35.73564740699838 23.7979
35.759040593519934 23.7693
35.78261809810353 23.7479
35.80601437933051 23.6669
35.829412203814705 23.5779
35.85281157283719 23.583000000000002
35.876395313415884 23.5637
35.8997977874528 23.5133
35.92320180988546 23.4246
35.946790244133936 23.365
35.97019737933222 23.44
35.993606066789866 23.4109
36.01701630779276 23.3847
36.04061101440684 23.2717
36.06402437852291 23.2372
36.08743930005611 23.2605
36.1108557802951 23.1844
36.13445678011326 23.1623
36.15787639383515 23.1604
36.18129757014299 23.1121
36.20472031032821 23.0478
36.22832762423364 22.982
36.25175350829375 23.045
36.275180960119776 22.9972
36.298609981005924 22.9548
36.32222362992669 22.9108
36.34565580510207 22.8819
36.36908955323448 22.8345
36.39252487562093 22.7203
36.416144880530226 22.7053
36.43958336764275 22.717
36.463023432914625 22.6572
36.486465077645676 22.6345
36.51009145956204 22.7044
36.53353627947859 22.7067
36.55698268276811 22.6661
36.58043067073321 22.6123
36.60406345072071 22.461
36.62751462435344 22.4739
36.65096738658405 22.4721
36.67460498210655 22.5157
36.69806093788647 22.4468
36.72151848619297 22.3926
36.744977628333636 22.3803
36.76862165890998 22.2497
36.79208400512205 22.2485
36.81554794910557 22.234
36.83901349217101 22.1664
36.862663978991606 22.0661
36.88613273667352 22.0886
36.90960309738324 22.1244
36.933075062434064 22.0772
36.95673202673572 22.048000000000002
36.98020721697122 21.8953
37.003684015502365 21.891
37.027162423645365 21.9151
37.050825886711465 21.866999999999997
37.07430753063053 21.7875
37.09779078812467 21.7378
37.121275660513014 21.785
37.144945643673694 21.7202
37.16843376245278 21.6772
37.19192350009803 21.6956
37.215414857931435 21.6369
37.239091382563885 21.5004
37.262585997426164 21.6166
37.28608223645736 21.5649
37.309763684451696 21.5409
37.33326318851098 21.4635
37.356764320726555 21.3563
37.380267082425526 21.44
37.40395510942588 21.3679
37.42746114683234 21.3097
37.45096881771841 21.2908
37.474478123414166 21.2293
37.49817275092816 21.2446
37.52168534303452 21.2083
37.54519957395567 21.1718
37.568715445024665 21.1471
37.592416694607714 21.1108
37.61593586281424 21.085
37.63945667518264 21.1691
37.66297913304891 21.0125
37.68668702630454 21.0555
37.710212792059274 20.95
37.733740207334854 20.906
37.757269273470364 20.7658
37.780983832050374 20.7954
37.80451621684926 20.8056
37.82805025654007 20.7172
37.851585952464795 20.7119
37.8753071980695 20.7023
37.89884622345676 20.6913
37.92238690911902 20.6315
37.94611318753442 20.6057
37.969657210779765 20.5843
37.99320289834801 20.5812
38.016750251586465 20.5306
38.04048325513017 20.4656
38.06403395679343 20.4401
38.087586328183946 20.3602
38.11114037065203 20.3818
38.13488012115898 20.4012
38.1584375229181 20.3522
38.181996599821 20.2511
38.205557353221124 20.2006
38.229303872575656 20.2549
38.2528679961576 20.1817
38.27643380031219 20.1247
38.30000128639589 20.0929
38.32375459653193 20.0938
38.34732546371299 20.1106
38.37089801690786 20.0494
38.39447225747609 19.9578
38.418232380377425 19.9241
38.441810012983396 19.9651
38.46538933705673 19.8946
38.488970353960084 19.873
38.51273731166058 19.8411
38.536321731567014 19.8273
38.55990784840681 19.8543
38.58367995004091 19.7634
38.60726947812959 19.7068
38.63086070726198 19.6382
38.654453638806274 19.6377
38.678232613930824 19.5751
38.70182896773327 19.593
38.72542702806741 19.4529
38.7490267963045 19.4931
38.77281266709232 19.4907
38.79641586862214 19.4252
38.8200207821842 19.3396
38.843627409152944 19.4098
38.86742019782782 19.3915
38.891030269149255 19.2862
38.914642058016156 19.2796
38.938255565806124 19.1919
38.96205529464307 19.2238
38.98567225787121 19.237000000000002
39.00929094417078 19.1629
39.03291135492255 19.1808
39.05671804624804 19.134
39.080341923549106 19.0815
39.103967529460334 19.0061
39.127594865365744 18.9938
39.15140854155791 18.9351
39.17503935514948 18.9459
39.19867190290282 18.9146
39.22249083587951 18.8318
39.24612686969409 18.8517
39.269764641845306 18.833
39.293404153722804 18.824
39.317230110864074 18.7772
39.34087311998506 18.6811
39.36451787301696 18.6804
39.388164371352595 18.655
39.41199737518003 18.6429
39.43564738196752 18.6026
39.45929913825317 18.6094
39.48295264543308 18.5922
39.506792718520884 18.5227
39.530449745387216 18.5567
39.55410852735203 18.4763
39.57776906581474 18.5027
39.60161623079 18.4158
39.625280300200025 18.4446
39.64894613032202 18.3166
39.67261372255866 18.3005
39.6964680021016 18.3032
39.72013913657293 18.302
39.74381203738292 18.2783
39.76748670593756 18.2008
39.79134812278169 18.1636
39.81502634488497 18.1537
39.83870633896685 18.1989
39.862388106436654 18.1296
39.88625668336918 18.0487
39.90994201572829 18.082
39.933629125719285 17.9582
39.957503091207826 18.0017
39.9811937746168 18.0221
40.00488623990914 17.9574
40.02858048850006 17.9058
40.05246165409549 17.8194
40.076159487492085 17.7749
40.099859108448875 17.8173
40.123560518384345 17.8038
40.1474489070226 17.8066
40.171153913178564 17.7275
40.194860712584955 17.7029
40.2185693066637 17.6836
40.242464941335314 17.6021
40.26617714307655 17.6126
40.289891143772046 17.5954
40.3136069448471 17.6036
40.33750984859743 17.5225
40.3612292688043 17.4939
40.3849504936829 17.49
40.40867352466194 17.4516
40.43258372059144 17.3844
40.45631038219906 17.4524
40.48003885420956 17.3791
40.503769138055105 17.383
40.52768664931955 17.3536
40.55142057531802 17.2977
40.57515631746428 17.2744
40.599079334038514 17.2573
40.62281872700477 17.1498
40.64655994043941 17.174
40.67030297578061 17.1574
40.69423334835778 17.1126
40.71798004609188 17.0486
40.74172857006355 17.0457
40.76547892171441 17.0107
40.7894166736039 17.0378
40.813170699248566 16.9686
40.83692655691388 16.9863
40.86068424804498 16.9537
40.884629402612525 16.8826
40.908390779366385 16.8876
40.932153993938 16.8639
40.95591904777605 16.7919
40.979871628443995 16.7911
41.003640379561936 16.8365
41.02741097430883 16.7796
41.05118341413683 16.7457
41.075143444384416 16.6848
41.098919593177826 16.6818
41.1226975914255 16.6623
41.14647744058318 16.6029
41.170444943946755 16.6214
41.19422851378379 16.567999999999998
41.218013938914645 16.5165
41.24198706625173 16.4973
41.26577622087193 16.4972
41.289567235177785 16.4277
41.31336011063129 16.4019
41.337340752422875 16.4494
41.361137369129835 16.3891
41.38493585138705 16.3403
41.40873620066004 16.3346
41.43272438060107 16.3514
41.45652848292052 16.2731
41.48033445666918 16.2383
41.50414230331616 16.1773
41.528138045159764 16.2149
41.551949656675205 16.1125
41.575763145513235 16.1707
41.59957851314666 16.1225
41.62358184070442 16.1283
41.64740098505737 16.0276
41.6712220126409 16.0014
41.69504492493139 15.9719
41.71905586207357 15.967
41.74288256296395 15.9168
41.766711153007456 15.8813
41.79054163368412 15.8719
41.814560204340054 15.9247
41.838394485526365 15.8651
41.86223066180303 15.8044
41.88625497706819 15.784
41.910094962812 15.7178
41.93393684811168 15.7389
41.95778063445365 15.68
41.981812625263366 15.6661
42.00566023303407 15.6239
42.029509746323676 15.5864
42.05336116662236 15.5811
42.077400857069705 15.5831
42.10125611078846 15.5548
42.12511327600405 15.495999999999999
42.14897235421036 15.5084
42.173019768448455 15.4517
42.19688269209613 15.4266
42.22074753323349 15.4351
42.24461429335818 15.4364
42.268669455600495 15.3528
42.292540073217886 15.3241
42.31641261433284 15.2685
42.34028708044675 15.2714
42.36435001496739 15.2232
42.38822835065557 15.2049
42.41210861586426 15.1791
42.4359908120986 15.1431
42.46006154323262 15.0958
42.48394762115317 15.1021
42.507835634632315 15.1222
42.531912233047436 15.0533
42.55580413732265 15.0313
42.579697981698 15.014000000000001
42.60359376768525 15.024000000000001
42.62767820545945 14.9969
42.65157789440821 14.9086
42.67547952952185 14.9601
42.699383112316 14.9427
42.72347541395347 14.8902
42.74738291190531 14.8819
42.771292362102166 14.8419
42.795203766063516 14.7705
42.819303956130405 14.729000000000001
42.843219287476536 14.6776
42.86713657716324 14.7047
42.89105582671383 14.7144
42.91516392983864 14.6623
42.939087119032166 14.6522
42.963012272677304 14.6147
42.98693939230129 14.6191
43.01105543317513 14.5527
43.034986504731386 14.5236
43.05891954686589 14.5612
43.08285456110972 14.5069
43.10697856448665 14.4872
43.130917542983475 14.405
43.15485849820081 14.4361
43.17880143167367 14.3491
43.20293342237094 14.3181
43.226880332449 14.3268
43.25082922540554 14.3285
43.27496722682525 14.2899
43.29892010567796 14.2655
43.32287497204102 14.2431
43.34683182745632 14.1648
43.370977859791836 14.185
43.39493871351105 14.1684
43.41890156092628 14.1722
43.44286640358341 14.138
43.46702049182749 14.0786
43.49098934522816 14.023
43.51496019852649 14.0316
43.5389330532723 14.024000000000001
43.56309522248204 13.968
43.58707210044314 13.9358
43.61105098451946 13.9267
43.63503187626491 13.9537
43.659202151562134 13.9102
43.68318707902681 13.8443
43.70717401884041 13.8885
43.731162972560874 13.7774
43.75534137913236 13.8186
43.779334381108384 13.7958
43.803329401683186 13.7748
43.82732644241872 13.7263
43.8515130055166 13.7302
43.87551410707659 13.6616
43.89951723350145 13.724
43.923709934595614 13.6523
43.94771713129917 13.6261
43.97172635758096 13.5879
43.99573761501002 13.5867
44.0199385169922 13.5503
44.04395385732619 13.514000000000001
44.067971233533086 13.4807
44.09199064718605 13.4645
44.11619977548961 13.4379
44.14022328470671 13.4243
44.16424883610785 13.4564
44.18827643127035 13.3835
44.21249381139513 13.3804
44.236525514814076 13.3238
44.26055926674478 13.2801
44.28459506876863 13.252
44.3088207262813 13.2457
44.33286064928722 13.2438
44.35690262714919 13.2068
44.38094666145278 13.1882
44.4051806219871 13.1886
44.42922879003185 13.115
44.45327901929361 13.1508
44.477331311362136 13.1828
44.501573600619416 13.0849
44.525630039221795 12.9939
44.54968854541895 12.9929
44.573937102200176 13.035
44.5979997645541 12.9927
44.622064499300315 12.9307
44.64613130803592 12.9273
44.67038823869318 12.895999999999999
44.69445921643748 12.8926
44.718532272981385 12.8697
44.742607409926194 12.8762
44.76687274034801 12.832
44.79095205918753 12.7891
44.81503346325094 12.8092
44.839116954143876 12.7458
44.86339071028742 12.7543
44.88747839599524 12.7518
44.91156817336837 12.7411
44.93566004401666 12.6495
44.959942251908146 12.6634
44.984038330325966 12.6271
45.00813650686762 12.6025
45.03223678314731 12.5819
45.05652746888232 12.5464
45.08063196592069 12.5655
45.104738567558705 12.4704
45.128847275414856 12.4881
45.15314646515866 12.4718
45.17725940679741 12.4205
45.20137445952892 12.4088
45.22568004865265 12.3926
45.24979934496396 12.350999999999999
45.27392075725247 12.3871
45.29804428714431 12.3422
45.322358426247604 12.3181
45.346486212804315 12.3268
45.370616121861914 12.2785
45.39474815505086 12.2404
45.41907087049246 12.1687
45.4432071734666 12.2197
45.46734560548283 12.1792
45.49148616817604 12.1766
45.51581748638564 12.1655
45.5399623320197 12.1361
45.56410931325473 12.1215
45.58825843173002 12.1102
45.61259837920865 12.0607
45.636751793816 12.034
45.66090735060093 11.9981
45.68506505120716 11.9901
45.7094136545275 11.9569
45.73357566449271 11.9231
45.75773982322992 11.9326
45.78190613238733 11.9049
45.806263418194064 11.8713
45.83043404997326 11.8962
45.85460683713677 11.8237
45.87897065658495 11.8378
45.90314777634752 11.8189
45.92732705646868 11.7841
45.9515084986045 11.7601
45.97588104735473 11.7768
46.00006683541565 11.7018
46.02425479047904 11.7435
46.04844491420549 11.7112
46.0728262191024 11.6826
46.09702070211635 11.6806
46.12121735879483 11.6259
46.14541619080294 11.5772
46.169806278764455 11.6112
46.194009483459034 11.6204
46.21821486849841 11.5633
46.24242243555223 11.5141
46.266821333570014 11.5201
46.29103328674601 11.4912
46.31524742696538 11.4571
46.33946375590237 11.4253
46.36387149104216 11.3658
46.38809221957392 11.3606
46.41231514186606 11.3928
46.436540259597464 11.3416
46.460956858999374 11.3277
46.48518638983522 11.3176
46.509418121166966 11.2954
46.533652054678114 11.2476
46.55807754555709 11.2429
46.58231590571962 11.2262
46.60655647313217 11.2006
46.630988654873654 11.138
46.655233659129024 11.0912
46.67948087571551 11.1072
46.70373030632484 11.119000000000002
46.72817142736393 11.0942
46.752425308428684 11.1028
46.77668140861147 11.1067
46.80093972960865 11.0151
46.82538981736788 10.9858
46.849652602470904 10.9614
46.87391761349769 10.9554
46.8981848521493 10.9592
46.9226439341274 10.9561
46.946915650573224 10.9
46.97118959976749 10.9263
46.99546578341598 10.8673
47.019933887188216 10.8576
47.04421456235744 10.8398
47.06849747711879 10.8126
47.09278263318286 10.8009
47.11725978640143 10.8004
47.14154944775105 10.7683
47.165841355555656 10.7218
47.1901355115306 10.7141
47.214621741924994 10.6902
47.23892041698887 10.6556
47.26322134538975 10.6506
47.28771440635075 10.5875
47.31201986422527 10.5743
47.33632758061436 10.610999999999999
47.360637557241866 10.567
47.38513974410611 10.5368
47.40945426407847 10.5105
47.43377104948137 10.4882
47.45809010204344 10.4673
47.48260144275502 10.4569
47.506925052572285 10.4312
47.53125093475548 10.4067
47.55557909103813 10.3849
47.58009961361992 10.4039
47.60443234110732 10.3942
47.62876734791564 10.3428
47.65310463578333 10.3246
47.6776343683373 10.3211
47.7019762413987 10.3175
47.72632040075572 10.2701
47.75066684815169 10.2297
47.77520581885936 10.197000000000001
47.799556865477655 10.216000000000001
47.823910205386 10.1646
47.84826584033272 10.1487
47.87281407745551 10.1332
47.89717432569297 10.1511
47.92153687423484 10.1146
47.94609208429692 10.1344
47.97045925671401 10.1396
47.99482873471275 10.074
48.01920052005013 10.0543
48.04376504619224 10.0336
48.068141469543484 10.0272
48.09252020552573 10.0213
48.11690125590099 9.97988
48.1414751266064 9.98012
48.16586082917454 9.96071
48.19024885144316 9.92718
48.2146391951793 9.90456
48.239222439012764 9.93122
48.26361744916137 9.89207
48.28801478610016 9.88348
48.31241445160131 9.87895
48.337007097209366 9.8604
48.36141144338331 9.82356
48.38581812345755 9.7706
48.41022713920929 9.81219
48.434829215320704 9.757439999999999
48.45924292604658 9.76825
48.48365897780325 9.71467
48.50807737237308 9.7269
48.532688907799276 9.69453
48.55711201168574 9.68717
48.581537463754074 9.66511
48.60615611725119 9.64418
48.63058628942721 9.63222
48.65501881516546 9.60242
48.6794536962573 9.605210000000001
48.70408185970339 9.55293
48.72852147531801 9.53143
48.75296345168211 9.51489
48.77740779059232 9.49734
48.80204549302823 9.48958
48.82649458091802 9.4594
48.85094603676547 9.44203
48.87539986237231 9.40353
48.90004713292306 9.4032
48.92450572200832 9.42407
48.94896668628025 9.39494
48.97343002754588 9.36388
48.99808689542115 9.36358
49.02255501470614 9.346210000000001
49.04702551642794 9.3302
49.0714984023988 9.30395
49.096164896893235 9.29375
49.120642575466796 9.245289999999999
49.145122643748394 9.262880000000001
49.16960510355558 9.23733
49.19428125404938 9.19758
49.2187685210852 9.2071
49.243258185121555 9.18268
49.26794160167084 9.18897
49.2924360839405 9.16272
49.31693296869764 9.131039999999999
49.34143225776915 9.09402
49.36612538195438 9.0916
49.39062950396021 9.087
49.41513603578346 9.03143
49.4396449792564 9.021889999999999
49.46434784069503 9.02295
49.488861631846454 8.98192
49.513377840166804 8.95233
49.537896467493745 8.97091
49.56260909589029 8.92839
49.587132585683285 8.935130000000001
49.611658500018365 8.91795
49.636186840738596 8.903839999999999
49.66090926588511 8.90385
49.685442483902584 8.86689
49.70997813385706 8.84726
49.734516217597076 8.81462
49.75924846937352 8.8306
49.7837914452858 8.766960000000001
49.80833686055187 8.7475
49.83288471702571 8.77276
49.85762682540054 8.773489999999999
49.882179588965734 8.718630000000001
49.9067347993235 8.70727
49.93129245833333 8.688089999999999
49.95604445336378 8.71688
49.98060703442832 8.671
50.005172069746266 8.66853
50.02993150438364 8.632539999999999
50.05450147301533 8.61534
50.07907390151433 8.61416
50.10364879174981 8.57403
50.12841816587289 8.59276
50.1529980044635 8.60062
50.17758031042124 8.53675
50.20216508562089 8.499139999999999
50.22694442953363 8.48479
50.25153416817468 8.473460000000001
50.27612638170508 8.45491
50.300721072005196 8.446810000000001
50.325510416102105 8.41806
50.350110084975064 8.40033
50.37471223628208 8.41479
50.39931687190919 8.37803
50.424116246675766 8.358880000000001
50.44872587605249 8.38627
50.47333799543065 8.359169999999999
50.49795260670191 8.326789999999999
50.52276204271512 8.30199
50.54738166295838 8.25111
50.57200378079314 8.28621
50.596628398116835 8.24253
50.62144792604559 8.24113
50.646077567609396 8.21391
50.670709714377715 8.23073
50.69553683636198 8.18379
50.72017401885922 8.17649
50.7448137122895 8.16341
50.76945591856022 8.15715
50.79429318636823 8.1458
50.818940443716784 8.11744
50.84359021965163 8.1213
50.868242516085964 8.106110000000001
50.893089960641895 8.08023
50.917747323549435 8.08415
50.94240721271973 8.076880000000001
50.96706963007175 8.02155
50.99192728239342 8.021889999999999
51.01659478166073 8.01732
51.04126481489051 7.99869
51.06593738400761 7.97922
51.090805275207074 7.928710000000001
51.11548294172845 7.911760000000001
51.14016314993547 7.93283
51.164845901758845 7.88744
51.18972406304274 7.84685
51.21441192780656 7.87471
51.23910234200271 7.8815800000000005
51.2637953075678 7.82999
51.288683770237945 7.81504
51.31338186432707 7.77827
51.33808251561888 7.74483
51.362978729967345 7.75586
51.387684521509755 7.75922
51.41239287610203 7.7365699999999995
51.437103795691165 7.693389999999999
51.46201036644977 7.69165
51.486726441956634 7.63548
51.51144508832545 7.68174
51.536166307509156 7.656289999999999
51.56108326624387 7.669110000000001
51.58580965706056 7.6156
51.61053862657523 7.61942
51.635270176746864 7.59007
51.66019755512065 7.57745
51.68493429268881 7.5622
51.70967361681515 7.59421
51.73441552946465 7.52767
51.759353359237934 7.51271
51.7841004750961 7.512860000000001
51.80885018539685 7.5160800000000005
51.833602492111254 7.457210000000001
51.8585508051424 7.45105
51.883308330926425 7.426589999999999
51.90806845906181 7.40004
51.932831191525715 7.42783
51.95779001977161 7.402019999999999
51.98255798721516 7.35836
52.00732856494335 7.3666100000000005
52.03229530577543 7.33807
52.057071130455945 7.32579
52.081849571391054 7.2956
52.106630630568695 7.2904
52.13160794279417 7.248289999999999
52.15639426492067 7.274380000000001
52.18118321127822 7.25232
52.205974783860896 7.2293199999999995
52.23096269971011 7.244860000000001
52.255759551287994 7.2143
52.280559035098186 7.20872
52.30536115314103 7.12818
52.33035970494467 7.14306
52.35516711807904 7.1323
52.37997717147198 7.1163300000000005
52.40478986713005 7.12183
52.42979908731974 7.09369
52.454617094216 7.08403
52.47943774942214 7.088839999999999
52.50426105495102 7.094239999999999
52.529280976059844 7.02257
52.554109609024096 7.00258
52.57894089837482 7.002110000000001
52.60377484613117 7.00069
52.62880550079408 6.958489999999999
52.65364479223379 6.94275
52.67848674816189 6.9645600000000005
52.70352547971946 6.9435899999999995
52.72837279155837 6.89111
52.753222773982785 6.871630000000001
52.778075429022984 6.92944
52.80312495150885 6.892530000000001
52.827982978797436 6.8975800000000005
52.85284368481815 6.889139999999999
52.87770707160767 6.836239999999999
52.90276741793998 6.834569999999999
52.92763619336701 6.83942
52.952507655698504 6.82931
52.977381806977576 6.80963
53.00245301017842 6.79505
53.02733256653592 6.7503899999999994
53.052214817996074 6.763210000000001
53.077099766608484 6.7139999999999995
53.102181859804446 6.7041699999999995
53.127072229988265 6.713989999999999
53.15196530349892 6.685219999999999
53.17686108239249 6.657489999999999
53.20195409881522 6.64495
53.22685531582556 6.672680000000001
53.25175924441303 6.6203899999999996
53.27666588664027 6.616910000000001
53.30176985962693 6.597410000000001
53.3266819565689 6.57897
53.35159677336455 6.55315
53.376514312083096 6.55595
53.40162927507703 6.55328
53.42655228516116 6.52494
53.45147802340193 6.48458
53.47660125628886 6.45745
53.50153247842639 6.49377
53.52646643496923 6.4723
53.55140312799818 6.45718
53.576537409691696 6.44214
53.60147960336152 6.38788
53.626424539786164 6.4166300000000005
53.65137222105307 6.4101
53.67651758529126 6.3733
53.70147078399681 6.3656
53.72642673383343 6.38202
53.75138543689533 6.36909
53.776541917524526 6.333130000000001
53.801506154876755 6.32532
53.826473151763246 6.269819999999999
53.851442910284916 6.29625
53.87661054126026 6.30354
53.9015858509782 6.28728
53.92656392866066 6.25279
53.95154477641532 6.24325
53.976723591801296 6.20056
54.00171000771266 6.22307
54.02669920004598 6.21665
54.051691170915745 6.18677
54.076881204886796 6.14157
54.101878760928514 6.15262
54.12687910187696 6.15148
54.152077577768296 6.11549
54.1770835166946 6.0685400000000005
54.20209224691339 6.06421
54.22710377055121 6.08739
54.25231352511594 6.05424
54.27733066384342 6.01114
54.30235060239643 6.02875
54.32737334290836 6.04483
54.35259441062629 5.96111
54.377622783395324 5.97496
54.40265396455061 6.01457
54.42768795623251 5.96321
54.45292037169559 5.93924
54.477960012857906 5.985580000000001
54.50300247099511 5.90848
54.52804774825457 5.88623
54.55329154616743 5.86975
54.57834249018678 5.8666599999999995
54.6033962597977 5.83096
54.6284528571545 5.83986
54.653708072335164 5.75502
54.67877035378786 5.7624699999999995
54.70383546947698 5.71101
54.72890342156389 5.71143
54.7541700889442 5.6772
54.77924374251975 5.6961900000000005
54.8043202390049 5.65537
54.82959552413022 5.58793
54.8546777351945 5.59936
54.87976279569621 5.5757900000000005
54.90485070780914 5.63694
54.930137506558005 5.51548
54.95523115074295 5.5834
54.98032765308844 5.498880000000001
55.005427015775496 5.50547
55.03072536339621 5.48385
55.05583047570572 5.4881400000000005
55.080938454927676 5.46809
55.10604930325027 5.40834
55.131359235107396 5.42283
55.15647585066083 5.3644099999999995
55.181595341907496 5.356240000000001
55.20671771104285 5.327319999999999
55.232039262617704 5.32766
55.25716741665048 5.28443
55.28229845518636 5.28148
55.30743238042802 5.22116
55.33276558731939 5.254580000000001
55.357905315183636 5.19883
55.383047936390035 5.18543
55.40819345314859 5.11224
55.433538351073295 5.15931
55.458689688238415 5.1695199999999994
55.483843927614096 5.0545800000000005
55.509197623043605 5.05313
55.53435769621134 4.98358
55.55952067826466 4.936380000000001
55.5846865714265 4.97567
55.61005202069737 4.93009
55.63522376553902 4.91049
55.66039842818645 4.88624
55.68557601087004 4.91354
55.7109532500271 4.80399
55.73613670233794 4.838430000000001
