TT I
1.2716486653135266 7.42592
1.2939594142134223 7.06875
1.3162702121660406 7.46207
1.3385810600174564 6.90084
1.3608919586137629 6.40037
1.383202908801069 6.1590300000000004
1.405513911425503 5.97352
1.4278249673332093 6.4352800000000006
1.4501343378461518 6.09733
1.4724455028545926 6.13391
1.4947567236847858 5.9613
1.517068001182951 6.1742300000000006
1.5393793361953272 5.83329
1.5616907295681737 5.84486
1.5840021821477681 5.42587
1.60631369478041 4.5534099999999995
1.6286252683124185 4.94539
1.6509369035901333 4.40413
1.6732468618895553 4.89229
1.695558623192809 4.61845
1.7178704487808514 4.83409
1.7401823395001077 4.77836
1.7625012545597203 4.8207699999999996
1.7848028405262486 4.59526
1.8071218901122095 4.94947
1.8294236121921872 4.49118
1.8517427996910911 4.51885
1.8740620574440425 4.87746
1.8963639900671978 4.654730000000001
1.9186833908139995 4.8571
1.9409854680117449 4.97087
1.9633050151394713 5.54881
1.9856246367570705 5.03835
2.0079269371922672 4.798019999999999
2.03024671027244 4.33257
2.0525491637446027 4.66335
2.074869091674931 4.6965900000000005
2.097171701569106 4.54954
2.1194917877373847 5.05635
2.141811954326636 5.0248099999999996
2.164114805233074 4.88985
2.186435135143035 5.10249
2.208738150935709 8.02277
2.231058647554722 12.6509
2.2533792288321184 10.3783
2.275682498336085 6.91908
2.298003251406138 5.48895
2.3203066942619714 5.00322
2.3426276225136022 5.7854
2.3649486396617507 5.64278
2.387252348930071 5.64047
2.4095735463442893 5.66436
2.4318774374315884 6.33378
2.4541988185014043 6.70942
2.476502894794693 6.879630000000001
2.498824462909887 7.04157
2.521146125856138 6.81268
2.5434504863470337 7.153969999999999
2.5657723414244717 7.531689999999999
2.588076895590662 8.84418
2.610398946189713 8.70635
2.6327210958598384 8.19674
2.6550259469304716 8.04519
2.6773482972090137 8.59448
2.6996533504259 8.60859
2.7219759047039602 8.39188
2.744298562293959 8.30687
2.7666039251246595 8.124319999999999
2.7889267918020164 8.491769999999999
2.8112323652516555 8.73296
2.833555444408179 8.72893
2.8558786311183852 8.52523
2.8781845268938557 8.52464
2.9005079311721484 8.99881
2.9228140460410397 8.84217
2.9451376712799635 9.55842
2.967444008632326 9.77998
2.9897678582247247 9.69266
3.0120918213106695 10.3406
3.0343984987899373 10.565999999999999
3.0567226913198637 10.4581
3.079029599759726 11.8003
3.101354025127254 12.5046
3.123678568232338 12.9794
3.145985829517914 13.0393
3.16831061055229 13.7657
3.1906181112775593 14.5385
3.212943133635653 14.9045
3.2352682779763207 15.1681
3.2575761442691227 15.3239
3.2799015350264273 15.940999999999999
3.302209649240067 16.2935
3.3245352898092655 16.5366
3.3468436553365257 17.1261
3.369169549113219 17.9151
3.3914955708171384 18.5562
3.413804319727358 18.5693
3.4361305997334863 18.6782
3.4584396084414553 18.7451
3.4807661501462652 20.0048
3.503092824025881 20.3831
3.5254022288463154 20.5855
3.5477291695206588 21.2818
3.5700388426251948 22.0544
3.5923660534916446 23.2365
3.6146934007816114 28.916
3.637003482731501 44.784
3.6593311053109985 48.2253
3.681641464033634 34.498000000000005
3.7039693653009733 26.5165
3.726297407241705 24.9544
3.7486081875460804 25.1666
3.7709365132734978 25.5421
3.793247578841633 25.9788
3.8155761917550093 26.34
3.8378875459837216 26.5832
3.8602164494827234 26.9544
3.882545499606844 27.6636
3.9048572932539183 28.4182
3.9271866390645718 28.7191
3.9494987298666713 29.1706
3.971828374764527 29.6674
3.9941581705403255 30.4278
4.016470713506008 30.7794
4.038800813471445 31.5288
4.061113662089144 31.6722
4.0834440696459176 32.4494
4.105774632334751 33.064
4.128087945865126 33.9663
4.150418821249301 34.3549
4.172732448931298 35.5332
4.195063640413578 37.1895
4.2173775856475215 38.8963
4.239709096631102 51.3392
4.262040768704612 108.33
4.284355196706267 134.213
4.306687193387355 96.1393
4.329001947444346 53.9486
4.35133427213731 43.8258
4.373666762177566 42.9858
4.395982011761091 42.9357
4.418314834921175 44.0039
4.44063041906622 47.7329
4.4629635787515625 51.5934
4.4852969080429785 52.8037
4.5076130004776225 52.6588
4.529946671403969 58.0392
4.552263106909177 62.2433
4.574597122877047 58.0822
4.596931312711224 54.4911
4.619248269273446 53.3708
4.6415828092605835 54.0653
4.663900117405352 55.2611
4.686235010953232 56.2648
4.708552674085913 57.538999999999994
4.730887924602802 59.4072
4.753223354952695 61.1938
4.775541557023902 65.2852
4.797877349456786 69.2599
4.820195915032126 69.4112
4.842532072957498 68.3524
4.864868414979744 71.165
4.88718753227192 75.6856
4.909524244902505 77.1611
4.931843734218147 76.1438
4.954180820867835 77.5296
4.976518095879839 80.2775
4.998838149695359 83.2228
5.021175803844231 86.5988
5.043496238205739 89.43799999999999
5.065834274903528 94.1188
5.088172504230693 98.9259
5.1104935158799565 105.694
5.132832132875765 126.594
5.155153533596801 155.36
5.1774925416746225 195.752
5.199814334878411 404.30300000000005
5.2221537374521505 1018.36
5.244493338631803 2877.13
5.266815727034316 8099.09
5.289155727832427 12446.9
5.311478517248165 8118.31
5.333818921080011 2445.28
5.356159527788849 478.43
5.3784829252032536 195.02
5.400823940070432 154.58700000000002
5.423147747031976 129.8
5.445489173474152 119.262
5.467830807066149 120.5
5.490155234831516 120.193
5.512497285125229 112.78
5.534822130975162 105.729
5.557164601388673 101.50299999999999
5.579489868738879 98.3741
5.601832762690846 97.0899
5.6241758697774475 96.3053
5.646501775867269 95.4509
5.668845311622074 94.118
5.691171647754637 93.8301
5.713515615597765 92.6684
5.735859800852677 92.46799999999999
5.758186788542988 94.9609
5.780531411018185 99.1894
5.802858837297399 99.7311
5.825203900414495 99.1189
5.8475491852224 102.632
5.869877275883075 102.01
5.892223006467101 97.6399
5.914551544266608 95.1069
5.936897724049891 96.7268
5.959244129804903 103.836
5.981573344815301 132.524
6.0039202049061 241.959
6.026249875609095 474.856
6.04859719346037 978.309
6.070927323278297 2255.0
6.093275102315365 4587.65
6.115623113320588 5214.33
6.137953938319995 2975.47
6.160302415650845 832.508
6.182633708324452 199.229
6.2049826554078376 106.17200000000001
6.227331838745022 88.9844
6.249663839443684 82.2749
6.27201349767565 79.0361
6.294345974611799 79.5553
6.316696111167083 81.8101
6.339046488263839 79.3886
6.361379686074702 73.5505
6.383730546639482 70.1813
6.406064229255215 69.8027
6.428415576718203 71.0668
6.450749747566656 69.9821
6.47310158535871 66.8729
6.495453669698332 64.6809
6.517788579421056 63.7195
6.540141159237969 62.5442
6.562476565766648 62.3859
6.5848296444934045 62.335
6.607182974060425 62.9789
6.6295191323281015 62.7761
6.651872965955752 62.7191
6.6742096296068985 70.4824
6.6965639707294615 84.8125
6.71891856698715 83.9492
6.741255995248479 70.1879
6.763611104154477 61.214
6.785949046381137 58.4274
6.808304671371482 59.5233
6.8306605557940046 61.1739
6.852999275508618 60.0042
6.875355681171544 57.9065
6.897694923437771 56.1147
6.92005185377892 55.9595
6.9423916220322655 55.5784
6.964749080490181 54.997
6.987106804399774 54.9614
7.009447368180821 55.3506
7.031805625367033 55.4263
7.054146723727803 55.1246
7.076505517631004 54.4801
7.098864581288365 54.4794
7.121206488070854 54.1489
7.143566093607822 54.6903
7.165908543567245 55.8659
7.188268694426048 56.3589
7.2106291193438095 55.3339
7.232972390625943 54.3754
7.255333366030969 59.3544
7.277677189091925 76.2042
7.300038718428332 91.45299999999999
7.322400526130865 83.0633
7.344745183422596 64.3339
7.367107550224791 55.6627
7.389452767901992 54.1322
7.411815697249891 53.6738
7.434161478756298 52.7737
7.456524974096713 53.201
7.478888753837185 53.2215
7.501235387657368 53.6225
7.523599738562711 53.6022
7.545946944825532 54.1218
7.568311870344528 54.4723
7.5906770845765665 54.2793
7.613025156078678 54.7379
7.635390950099687 55.6983
7.657739602662809 55.5677
7.680105979923558 55.9976
7.702472650212829 56.3849
7.724822180948224 56.0009
7.747189439655568 55.8291
7.769539560075357 55.4851
7.791907410653562 56.05
7.81425812420825 55.9296
7.836626570110925 56.4457
7.858995315087906 57.0444
7.881346924933401 57.2574
7.903716270417482 57.7409
7.926068482028405 58.163999999999994
7.948438431475253 58.3839
7.9708086843180235 59.2016
7.993161805171116 59.9996
8.015532667162402 60.3925
8.037886398416653 61.77
8.060257873014221 62.1062
8.082629655331942 63.0909
8.104984308787587 63.9442
8.127356708900503 65.8697
8.149711981398308 70.4172
8.172085002766314 72.3582
8.194458336181368 70.5809
8.216814543847752 68.5692
8.23918850371002 69.0078
8.26154533906492 69.5583
8.283919928836452 71.32
8.306277395339652 72.3183
8.328652618483376 73.717
8.351028159736202 75.6184
8.373386579575245 77.9311
8.395762759396959 79.6642
8.418121819038275 82.8477
8.440498640894003 89.8419
8.462875785192262 100.905
8.485235811156207 126.40899999999999
8.507613602688501 177.868
8.529974277114228 258.246
8.552352719347912 381.994
8.574731488360351 656.6510000000001
8.59709314210385 1218.16
8.619472567021075 1945.94
8.64183487789147 2171.39
8.664214962183097 1720.25
8.686577933647762 837.3919999999999
8.708958680784317 319.768
8.731339760774953 147.667
8.753703729764451 106.397
8.77608547780821 97.0144
8.798450116065078 93.361
8.820832535634787 91.8731
8.843215292401656 92.2132
8.865580941199045 92.45700000000001
8.887964374703538 92.5822
8.910330701447199 92.1722
8.932714815164482 91.22200000000001
8.955099270424924 89.1661
8.977466620733543 86.2759
8.999851761421976 84.9768
9.022219798361645 83.6019
9.04460562795561 83.61200000000001
9.066991803441677 83.2852
9.089360876979615 83.7742
9.111747746589993 83.7943
9.13411751544971 82.8625
9.156505082664324 81.8106
9.178875550323522 81.3987
9.20126381862328 81.1598
9.223652438908596 81.3761
9.246023961427412 81.3811
9.26841328802173 81.7944
9.290785518039224 82.0816
9.313175554425882 84.7554
9.335565947154315 86.8727
9.357939245086508 86.8744
9.380330352834827 86.1192
9.40270436697103 85.8242
9.425096193225055 85.49600000000001
9.447488380180165 85.0967
9.469863475295412 84.3543
9.492256385987508 84.1423
9.514632206018318 84.8407
9.537025843935714 85.1633
9.559402392368193 86.6942
9.581796761000229 89.271
9.604191496441521 92.1015
9.626569144158516 94.8707
9.648964615551032 96.1802
9.671343000390081 94.9363
9.693739211225699 92.9094
9.716135793237463 91.9688
9.738515290448102 92.7467
9.760912617143402 94.4239
9.783292860202891 96.8837
9.805690935076182 99.2384
9.828089385495742 100.50200000000001
9.850470754023561 101.215
9.872869957865444 104.197
9.89525208097539 110.34200000000001
9.917652041736662 116.53200000000001
9.940052382417589 125.48299999999999
9.962435644102392 151.437
9.984836746950979 190.623
10.007220771957746 246.24200000000002
10.029622640473708 342.88599999999997
10.052007432299963 525.3380000000001
10.074410069984072 839.785
10.096813093716005 1321.18
10.119199042482517 1834.87
10.141602840636468 2003.53
10.163989564971628 1516.59
10.186394141051062 811.372
10.208799107559706 351.474
10.231187001965623 170.498
10.253592751657669 119.90899999999999
10.275981430388155 110.17399999999999
10.298387966769793 108.35700000000001
10.320794897965431 108.117
10.343184759907361 106.867
10.36559248305461 104.46600000000001
10.387983138083852 104.57799999999999
10.410391656691655 110.801
10.432800574501677 121.887
10.455192425893369 136.08
10.47760214443012 163.004
10.499994797678786 209.75900000000001
10.522405320453982 297.631
10.54479877906917 426.791
10.567210109595656 537.13
10.5896218454736 579.021
10.612016518879773 492.895
10.634429067781074 322.317
10.656824555333241 183.669
10.679237920773568 115.20100000000001
10.701651695961992 93.4566
10.724048411481384 87.891
10.746463008485165 85.4557
10.768860546937125 83.9054
10.791275969274796 82.5376
10.81369180576079 81.4268
10.836090585366925 80.4462
10.858507252467449 79.0313
10.88090686379991 78.2418
10.903324365036394 77.6259
10.925724811614439 77.2971
10.948143150509463 77.943
10.970561909719066 77.4869
10.992963615930844 76.5937
11.015383218085756 75.0822
11.037785768347074 73.4763
11.06020621697282 72.2684
11.082627090322113 71.5839
11.105030913430326 70.6985
11.12745263854165 70.4896
11.149857314510728 71.1199
11.172279894912576 72.9588
11.194702904450653 72.4913
11.217108866490921 70.4757
11.239532736615194 69.1488
11.26193956033512 68.02
11.284364294577085 67.5874
11.306789462371718 66.5385
11.329197585398376 66.2535
11.351623622610898 66.5411
11.37403261614354 65.6784
11.396459526308487 65.4074
11.418869393879497 65.061
11.441297180532617 64.3165
11.463725406927658 64.0981
11.486136592353875 63.9462
11.508565700543707 63.8795
11.530977768845315 64.4274
11.553407762368774 64.3862
11.575838200059769 64.3781
11.598251599479612 63.4812
11.620682927815501 62.9962
11.64309721895548 62.7384
11.665529441478206 62.2479
11.687962112597958 62.3361
11.710377748130886 62.3777
11.732811318753434 62.0989
11.755227854859067 62.0063
11.777662328529495 61.9408
11.800079768750786 62.2172
11.822515149015453 62.3695
11.844950984084935 62.6967
11.867369787303163 62.1408
11.889806534289491 61.8782
11.912226250487029 62.1582
11.934663912939751 62.1973
11.9571020346363 62.406000000000006
11.979523127133968 62.5023
12.001962169624331 63.9118
12.024384183972964 65.4809
12.046824150809913 68.3096
12.069264581333726 72.2496
12.091687985297767 77.8707
12.11412934550045 86.9766
12.136553680195208 103.021
12.158995973632788 128.688
12.181438735204349 161.483
12.20386447284199 198.785
12.226308172985636 216.361
12.24873485024193 203.347
12.271179492516982 162.377
12.293607112949127 116.63600000000001
12.316052700916226 86.3209
12.338498763250042 71.4095
12.360927805303868 65.6326
12.383374818673879 64.2391
12.405804812803074 63.2379
12.428252780773262 63.1163
12.45070122756722 63.3061
12.473132656675375 63.6396
12.49558206341869 64.1813
12.518014453510101 64.4257
12.540464823770117 64.4796
12.562915677315177 64.4103
12.58534951575545 64.7348
12.607801338171472 65.0623
12.630236146511358 66.8553
12.652688941369085 68.8399
12.675124723177234 69.2317
12.697578494048786 68.6058
12.720032754458185 67.4271
12.742470003354093 66.9292
12.764925245138771 67.1744
12.787363476431278 67.3132
12.809819703166806 67.8454
12.83227642391173 68.7962
12.854716135692716 69.5111
12.877173846755147 70.2715
12.899614549869717 70.7085
12.9220732548287 71.8647
12.94453245827299 72.6983
12.966974655289818 73.5045
12.989434858002571 74.2838
13.011878055298721 74.6143
13.034339260862497 75.6698
13.056800969391883 76.9043
13.079245674017244 79.9779
13.101708390774869 84.2712
13.12415410463411 92.5353
13.146617833206086 101.492
13.169064559883248 111.507
13.191529303857127 125.491
13.213994557076367 149.421
13.236442809902437 189.157
13.258909083908291 249.52700000000002
13.28135835851934 314.82099999999997
13.30382565690295 391.806
13.326293469022952 425.918
13.348744283242008 411.175
13.371213125129904 329.76199999999994
13.39366497011003 233.41099999999997
13.416134845360597 155.989
13.438605238843131 117.811
13.46105863690397 105.485
13.483530069144786 105.912
13.505984506951902 110.163
13.528456981549432 120.21799999999999
13.550929978879088 134.975
13.573385983253365 161.275
13.595860028340867 200.97299999999998
13.618317081455832 258.73
13.64079217790333 317.73900000000003
13.663250283359057 364.015
13.685726434770173 374.462
13.708203115221277 328.17900000000003
13.730662806148091 244.315
13.75314054697177 169.43099999999998
13.775601299246777 118.50299999999999
13.798080104050406 93.2503
13.820559442405358 83.725
13.843021793671388 80.3887
13.865502201420897 79.2563
13.887965623051947 78.9693
13.910447103807167 77.7368
13.932929122629764 76.4974
13.955394156785959 75.8112
13.977877254034569 74.8392
14.000343367582113 74.2177
14.022827546871707 73.7103
14.045294743423524 73.1294
14.06778000837062 72.1902
14.090265817715476 72.2327
14.112734645763819 71.6687
14.13522154619454 71.3291
14.157691466286913 71.2151
14.180179461423874 70.9803
14.202668005486178 70.3381
14.22513957064374 69.9747
14.247629214846473 69.6463
14.270101881097517 69.1599
14.29259262906496 69.3782
14.315083930490205 69.55199999999999
14.337558255389705 69.6355
14.360050666019726 69.2393
14.382526101071944 68.9775
14.405019624534942 68.637
14.427513705993134 68.3975
14.449990813291825 68.4131
14.47248601302899 68.2165
14.49496423954951 68.2556
14.517460561197822 68.0879
14.539939910570322 67.7581
14.562437357763558 68.0546
14.58493536931253 68.9491
14.607416409993311 68.8693
14.62991555254159 69.5802
14.652397725157423 69.9421
14.674898002342799 69.6977
14.697398848433282 69.9381
14.719882725991326 71.5063
14.74238471217934 73.4666
14.764869730765593 76.7287
14.787372860692983 79.0893
14.809876564079925 83.0383
14.83236330125751 88.7049
14.854868153850365 97.6256
14.877356041159485 112.052
14.899862046604186 132.442
14.922351087688757 160.321
14.944858249632887 188.873
14.967365991421232 218.025
14.989856770231246 228.215
15.012365673994204 218.665
15.03485761569738 186.128
15.05736768508665 140.34
15.07987833888692 107.096
15.102372032001655 85.37200000000001
15.124883856909658 74.6645
15.14737872204565 71.1778
15.169891721717274 69.7521
15.192405310371893 69.4117
15.214901940621196 69.1902
15.237416709527137 68.6992
15.259914520936249 68.4707
15.282430473753607 67.7181
15.304947020131227 67.0051
15.327446610371178 66.5332
15.349964346154254 66.0654
15.372465126703139 65.9593
15.394984055556009 65.8741
15.417486030076159 65.5762
15.44000615566487 65.1288
15.462526881230803 65.1825
15.485030653812652 65.2132
15.507552581617434 65.1336
15.530057557334603 65.1831
15.55258069104857 65.1694
15.575104429329837 65.5017
15.597611216864632 65.3374
15.620136166564563 66.0084
15.6426441664095 67.8477
15.665170331202765 70.0272
15.687697105158826 72.6296
15.710206930593545 75.7036
15.732734925158933 79.5861
15.755245972089478 85.7744
15.77777519094324 95.62700000000001
15.800287463046663 109.77600000000001
15.822817909869592 130.07399999999998
15.84534897229804 152.703
15.867863089299354 176.429
15.890395385222186 194.743
15.912910736597423 195.967
15.935444269699861 178.52599999999998
15.957978423016485 146.47799999999998
15.980495633101265 112.94200000000001
16.003031029129367 89.1299
16.02554948280019 72.556
16.048086125229432 65.5342
16.070623392487107 63.2115
16.09314371869582 62.1047
16.11568223789321 61.2512
16.13820381691126 60.6181
16.160743591742527 60.1851
16.183283996022084 59.5731
16.205807461423195 58.4372
16.228349126881973 57.975
16.25087385432698 57.9997
16.27341678466365 57.4172
16.29594277784926 57.1328
16.31848697676433 57.2699
16.341031811604868 57.2785
16.36355971058487 57.1643
16.3861058195587 56.965
16.40863499352978 55.9683
16.431182380342005 55.6946
16.453730407713202 55.2188
16.476261501364792 55.023
16.498810812136167 54.9165
16.52134319004079 54.8513
16.54389378792203 54.7873
16.566445031001553 54.6906
16.588979342490088 54.61600000000001
16.61153187824822 54.4059
16.634067483263312 54.1605
16.656621315414416 54.0921
16.679175797408888 53.9411
16.701713349928728 53.8038
16.72426913389191 54.0796
16.74680798922351 54.1391
16.76936507887444 54.0605
16.791905240734874 54.1505
16.814463639794468 54.0233
16.837022695210294 54.21
16.859564824093756 54.2897
16.882125194503903 54.4238
16.904668639217885 54.7396
16.927230328348003 54.8479
16.949792678493612 55.1197
16.972338104193863 54.812
16.994901778652235 54.7636
17.017448529496576 55.0332
17.040013531998152 55.5727
17.06257920018044 56.0303
17.0851279459922 56.8338
17.107694947817667 57.4936
17.130245028099072 58.0319
17.15281336730298 59.4971
17.17536478578733 61.3016
17.19793446610687 63.4656
17.220504818648422 66.721
17.243058251703697 70.2116
17.265629950971032 75.3538
17.288184731571736 80.52199999999999
17.310757781306908 83.7425
17.33333150794385 83.666
17.355888317140174 81.0981
17.37846339986244 74.96
17.401021565958885 68.3096
17.42359800851343 63.4954
17.44617513265564 60.7084
17.468735341390783 59.1462
17.491261035594565 58.5651
17.51396340099364 58.4051
17.536490463869136 58.4575
17.559018209820174 58.4629
17.58154663977963 58.5136
17.604251766089718 58.5994
17.626781572227713 59.0662
17.64931206518155 59.1857
17.671843245885103 59.571999999999996
17.69455114821572 59.82
17.717083712612634 59.9454
17.739616967569667 60.4307
17.762150914021706 60.7849
17.78486160749854 61.0117
17.807396945166804 62.0061
17.829932977143503 63.2401
17.85246970436452 64.733
17.875183204129467 66.2034
17.897721330097664 67.847
17.920260154126645 70.1355
17.942799677153296 73.2076
17.9655159983646 77.1801
17.988056927677544 82.984
18.010598558807683 91.2907
18.033140892692916 101.95200000000001
18.05586005052525 113.39
18.07840379824407 125.387
18.10094825154059 135.635
18.12366954819864 141.012
18.146215420998306 137.399
18.16876200220057 126.584
18.191309292745153 111.45100000000001
18.214033452627167 98.9384
18.236582170236648 88.762
18.259131600016456 84.7372
18.281681742907335 86.0038
18.304408781233683 91.3705
18.32696035875955 97.1447
18.349512652227624 101.73700000000001
18.372065662579683 104.906
18.394795594587553 104.819
18.41735004715306 99.8393
18.43990521943684 91.6161
18.46246111238171 82.294
18.485193953325208 73.8354
18.507751296070428 67.3853
18.530309362314178 64.3479
18.552868153000343 62.5255
18.57560391815056 61.2516
18.59816416623245 60.7917
18.620725141597372 60.4424
18.643286845190268 60.16
18.666025549835414 59.6533
18.688588718427933 59.1067
18.711152618092243 58.9137
18.73389353884365 58.5458
18.75645890921984 58.3967
18.77902501351406 57.8863
18.801591852673102 57.8469
18.824335739722738 57.5424
18.846904057212626 57.5083
18.8694731124168 57.1097
18.89204290628315 57.1745
18.914789774966803 56.8464
18.937361054791623 56.6318
18.959933076131318 56.3484
18.982505839934877 56.3841
19.00525570560582 56.3127
19.027829963004184 56.0181
19.05040496572238 56.2809
19.072980714710468 56.2552
19.095733592739563 56.6106
19.11831084296757 56.6478
19.140888842324735 56.8215
19.16346759176222 57.1787
19.18622349753803 57.7171
19.208803755869358 58.7702
19.231384767143577 60.1046
19.253966532312948 61.7283
19.276725481241822 64.0552
19.29930876296784 67.0266
19.3218928014549 69.7426
19.34465404436217 72.5136
19.36723960516257 75.0898
19.389825925592426 75.6061
19.412413006605938 74.1259
19.43517731967805 69.76899999999999
19.457765930683355 65.2303
19.48035530514408 60.8615
19.50294544401556 57.6041
19.525712842708348 55.3059
19.54830451925909 54.2405
19.570896963095727 53.4751
19.593490175174704 53.2274
19.616260674962184 53.2264
19.638855432416964 52.8419
19.661450960992624 53.178999999999995
19.68404726164677 52.9454
19.706820878021247 52.825
19.729418731756834 52.8642
19.752017360452857 52.6835
19.77461676506804 53.0552
19.797393513540218 53.1699
19.819994478951667 53.3704
19.84259622316767 53.6405
19.8651987471481 54.2778
19.887978643247177 54.3787
19.91058273574792 54.8475
19.933187610901943 55.8132
19.955969879466828 56.8708
19.97857632894404 58.5507
20.00118356396599 60.6837
20.023791585494575 62.5917
20.046577028914875 65.6308
20.069186632506966 67.7869
20.091797025500632 69.6784
20.114408208858933 69.6175
20.137196842715273 69.1787
20.159809615886765 66.8719
20.18242318232135 64.15100000000001
20.20503754298326 62.3157
20.227829382875154 61.516999999999996
20.250445341109344 61.7076
20.27306209647285 62.5986
20.29567964993108 64.0799
20.31847471147704 64.8992
20.34109387027612 65.1386
20.363713830075454 64.2844
20.386334591841646 62.4146
20.409132890679302 59.868
20.431755265564437 56.614
20.454378445325528 54.0377
20.477002430930366 52.2529
20.499803982716553 51.091
20.522429589228004 50.4898
20.54505600449589 50.0764
20.567683229489194 49.9357
20.590488049900088 49.7779
20.61311690359731 49.5301
20.63574656993626 49.417
20.658553853717297 49.1122
20.681185154618298 49.0721
20.703817271080066 48.7352
20.72645020407368 48.47
20.749260783967177 48.5776
20.771895359337133 48.406000000000006
20.794530754161617 48.3851
20.817166969412938 48.2904
20.83998086114876 48.3401
20.86261872660049 48.2012
20.885257415405402 48.15
20.90789692853701 48.1532
20.930714147864748 48.1514
20.953355319030678 48.049
20.97599731745334 48.3057
20.99864014410749 48.2145
21.021460706796564 48.133
21.044105199328826 48.1514
21.06675052302631 48.4528
21.089396678865015 48.6609
21.112220600704806 48.8817
21.134868430275347 49.2423
21.15751709492456 49.6185
21.180166595629693 49.9409
21.202993892429635 50.5694
21.22564507473034 50.9181
21.24829709602816 51.0105
21.27112693608965 50.9119
21.293780644891275 50.9237
21.316435195634053 50.0977
21.339090589297417 49.1638
21.361923832041875 48.8745
21.384580921090404 48.3122
21.407238856007325 47.7994
21.429897637773326 47.9289
21.45273429906592 47.8505
21.475394784108598 47.876999999999995
21.498056118951983 47.8731
21.520718304578022 48.0231
21.543558400304388 48.2103
21.566222297108816 48.4389
21.58888704765135 48.5599
21.61155265291521 48.7332
21.63439619898156 49.2397
21.657063523335786 49.3665
21.67973170537063 50.0061
21.7024007460706 50.391000000000005
21.72524775840385 51.3396
21.747918526116475 52.2977
21.770590155457388 53.6176
21.79326264741238 55.3455
21.816113141960237 57.119
21.838787368860547 59.0055
21.861462461341976 60.9871
21.884315579735777 63.0186
21.90699241312273 63.8071
21.92967011506078 64.1787
21.95234868653799 63.3758
21.9752053151131 61.7124
21.997885635446785 59.8168
22.020566828293532 57.9779
22.04324889464272 56.4645
22.066109049404666 55.5725
22.088792872571794 55.5983
22.111477572219204 55.8696
22.1341631493376 55.6955
22.157026846313123 55.3102
22.179714188221507 54.3991
22.202402410582668 53.1918
22.22509151438863 51.6793
22.24795876962584 50.633
22.270649646204486 49.6672
22.293341407213727 49.1289
22.316034053646906 48.7359
22.338904883215342 48.4428
22.36159931041458 48.4425
22.38429462602756 48.2471
22.40699083104897 48.1394
22.429865251039757 48.2394
22.452563244831367 48.2883
22.47526213102522 48.2805
22.49813925616515 48.1348
22.520839937143307 47.9846
22.543541513520587 48.1111
22.56624398629403 47.9259
22.589124730075895 48.1048
22.611829005656723 48.29600000000001
22.63453418063466 48.4564
22.657240256008077 48.3819
22.680124634582935 48.5279
22.70283252079775 48.7674
22.725541310413075 49.04600000000001
22.74825100442868 49.2326
22.771139033969575 49.7711
22.79385054687155 50.0391
22.81656296718292 50.7024
22.83927629590484 51.6573
22.862167992606945 52.7865
22.88488314827121 53.9326
22.907599215359284 55.0509
22.93031619487366 56.1283
22.953211574954405 56.9231
22.975930389478226 57.5318
22.998650119445763 57.6529
23.02137076586092 56.4084
23.044269845560063 54.9694
23.06699233506288 53.211999999999996
23.089715744034912 51.4918
23.112617610931565 50.2541
23.135342869061212 49.3079
23.158069049684816 48.5226
23.1807961538087 48.07
23.20370174880544 48.3299
23.226430710184808 48.3503
23.249160598093425 48.4384
23.271891413539002 48.2591
23.294800752937697 48.1509
23.31753343374794 48.4006
23.340267045128353 48.4708
23.36300158808808 49.0224
23.38591468821339 49.3661
23.408651104658304 49.7862
23.431388455719986 50.4856
23.454126742409 51.324
23.4770436196085 52.4391
23.499783787914662 53.6999
23.522524894889884 54.801
23.54526694154616 56.0888
23.56818761219047 56.997
23.59093154860734 57.5607
23.613676427751283 57.4794
23.636422250635754 56.2226
23.659346731118656 54.3111
23.68209445191868 52.4789
23.704843119509587 50.19
23.72759273490623 48.4811
23.750521041644767 47.2278
23.77327256312355 46.4021
23.796025035462787 46.0593
23.818956224555475 45.5575
23.841710609113413 45.42
23.86446594758979 45.1364
23.887222241002014 45.0454
23.910157285144578 44.7972
23.932915498962537 44.6748
23.955674670778713 44.5481
23.978434801611975 44.4552
24.001373717286125 44.3734
24.024135776723917 44.1359
24.046898798245582 43.9841
24.06966278287146 43.9777
24.092605586582614 43.8131
24.115371508023642 43.8144
24.1381383956401 43.5257
24.16090625045381 43.5187
24.183852958731244 43.5104
24.206622758582608 43.2283
24.229393528706886 43.1074
24.252165270127392 43.2698
24.27511589952438 43.177
24.297889594216997 43.021
24.32066426328598 42.7992
24.34343990775613 42.7717
24.36639447485003 42.6829
24.38917208083877 42.696999999999996
24.41195066531332 42.5082
24.43490819850244 42.6025
24.457688750692377 42.4994
24.48047028445616 42.3885
24.503252800821233 42.519
24.526214300784112 42.6642
24.548998793132213 42.7818
24.57178427117417 42.6131
24.59457073593893 42.5564
24.617536219319863 42.41
24.64032466834748 42.4024
24.663114107195035 42.4058
24.685904536893013 42.0954
24.708874020360852 41.9626
24.731666442613744 41.9142
24.754459858818787 41.9278
24.777254270007962 41.799
24.80022777025625 41.7257
24.82302418230472 41.836000000000006
24.845821592443674 41.7013
24.86862000170663 41.7284
24.891597535453727 41.631
24.914397953892728 41.8443
24.93719937456671 41.7519
24.96000179851076 41.897
24.98298338249997 42.1527
25.00578782394922 42.3907
25.028593271784167 42.3807
25.05157790644186 42.8219
25.07438537804115 42.8668
25.097193859145293 43.2693
25.120003350792075 43.503
25.142992065061257 43.7902
25.165803588823465 44.0598
25.18861612625217 44.1602
25.211429678386736 44.191
25.234422489079968 44.2404
25.257238081693636 44.2507
25.280054692141732 44.4302
25.3028723214652 44.3087
25.325869245420463 44.4408
25.348688923599397 44.5346
25.371509623787006 44.3274
25.394331347025812 44.0996
25.41733240110666 43.5369
25.440156181590016 42.7528
25.46298098826268 42.3018
25.48580682216873 41.5916
25.50881202326435 41.2443
25.53163992281684 40.7817
25.55446885274561 40.7268
25.577298814096377 40.439
25.600308179121807 40.415
25.623140214533745 40.4215
25.64597328451537 40.2508
25.66898578564376 40.0707
25.691820936010206 40.188
25.714657124097695 40.1101
25.737494350954734 39.9754
25.760511045684957 39.928000000000004
25.783350361364224 40.0308
25.806190718969255 40.0327
25.82903211955018 40.194
25.852053024868923 40.0933
25.874896522722523 40.2499
25.897741066713106 40.17
25.920586657892454 40.349000000000004
25.943611790812668 40.4644
25.966459487728237 40.5895
25.989308234998564 40.5339
26.01215803367705 40.8734
26.03518741123814 41.1384
26.05803932412957 41.2858
26.080892291600094 41.227
26.10374631470478 41.2636
26.12677995397268 41.3404
26.14963609978026 41.1613
26.172493304397875 40.7569
26.19535156888223 40.6447
26.218389486949604 40.1574
26.241249882640123 40.0183
26.26411134137826 39.8031
26.28715248187403 39.8385
26.31001607820869 39.6309
26.3328807407756 39.5281
26.35574647063438 39.6861
26.37879191991473 39.5875
26.401659795896734 39.7571
26.424528742360263 39.7684
26.447398760366614 39.9662
26.470448535598294 40.1984
26.49332070826805 40.3112
26.516193955675355 40.7794
26.53906827888316 40.8625
26.562122397260108 41.0362
26.584998883685063 41.4128
26.607876449110325 41.6708
26.63075509460056 41.7689
26.65381357334404 41.8927
26.67669439061878 41.8483
26.699576291163382 41.6236
26.722459276044212 41.5597
26.745522132402975 41.1447
26.768407297649354 40.8546
26.791293550442003 40.4664
26.814180891848974 40.3588
26.837248143099337 39.9912
26.860137673466657 39.8829
26.88302829566349 39.6019
26.90592001075963 39.4407
26.92899167420566 39.3903
26.951885586870763 39.0657
26.974780595655517 38.8087
26.99785558178161 38.656
27.020752794605112 38.6176
27.043651106772522 38.4438
27.06655051935668 38.425
27.089629948036183 38.2039
27.112531573292053 38.2503
27.135434302194138 38.385
27.158338135817015 38.1999
27.181422024430987 38.1633
27.204328079372566 37.9892
27.22723524226965 38.07
27.250143514198573 38.1184
27.273231880156334 38.1767
27.296142382065014 38.1008
27.319053996245536 37.9771
27.341966723775965 38.0445
27.365059584515222 38.1497
27.38797455070062 38.1137
27.410890633481237 38.0678
27.433807833936918 38.1259
27.456905206923906 38.0465
27.47982465472398 38.0937
27.502745223449743 38.2501
27.525666914182825 38.2152
27.548768816912457 38.2277
27.571692763693633 38.0025
27.59461783573812 37.9229
27.617723149491244 37.7317
27.640650484125285 37.7347
27.66357894728264 37.6841
27.686508540048052 37.5231
27.709618414237887 37.5501
27.732550278321757 37.4759
27.755483275279115 37.4731
27.778417406196485 37.5726
27.801531858397514 37.428000000000004
27.824468269376716 37.4951
27.847405817586786 37.4568
27.870344504116094 37.5442
27.893463551932008 37.7174
27.916404527281053 37.9638
27.93934664422563 37.9972
27.962289903855886 38.1558
27.98541356491974 38.3705
28.00835912214229 38.4836
28.03130582533231 38.6784
28.054253675581805 38.7697
28.077381967556104 38.745
28.100332124185126 38.58
28.123283431160893 38.4975
28.146235889577238 38.3817
28.169368830154156 38.1599
28.192323603752033 37.9503
28.215279532083304 37.7653
28.238415973016764 37.602
28.261374223145094 37.3663
28.284333631303806 36.9936
28.307294198589954 37.0971
28.330435319167677 36.698
28.353398217078915 36.4687
28.376362277420153 36.2466
28.39932750129032 36.2052
28.422473319286713 35.9468
28.44544088262495 35.8662
28.468409612800283 35.889
28.491379510913497 35.696
28.51453004413313 35.5423
28.53750229057244 35.444
28.56047570826344 35.3639
28.583450298308804 35.3711
28.606605564586562 35.2218
28.629582511831156 35.4775
28.65256063474956 35.2823
28.675539934446338 35.2155
28.698699951647605 35.2713
28.72168161743193 34.988
28.74466446331978 35.0877
28.767648490417624 35.082
28.790813276438353 35.048
28.813799678527303 35.0481
28.836787265157085 35.0371
28.859955641890075 34.9232
28.882945610203045 34.9536
28.905936766392035 34.9477
28.928929111566863 34.8746
28.952102288520145 34.8385
28.975097024308607 34.6866
28.998092952423807 34.6782
29.021090073977508 34.5395
29.04426806913204 34.4361
29.067267590245258 34.2704
29.090268308143695 34.3112
29.11327022394099 34.2171
29.13645305530891 34.1223
29.159457379627167 34.1271
29.18246290519685 33.9943
29.20546963313352 33.944
29.22865731875826 33.9552
29.25166646419296 33.9183
29.27467681535305 33.7559
29.29768837335608 33.8676
29.320880931312562 33.9811
29.34389491580634 33.9376
29.366910110507334 33.9594
29.38992651653503 33.99
29.41312396492981 33.8878
29.436142806456754 33.8169
29.45916286268059 33.7058
29.48236399319994 33.4352
29.50538649169417 33.2571
29.528410208259935 33.3088
29.55143514402014 33.1001
29.574641196749695 33.0421
29.597668583816574 32.9073
29.6206971934585 32.7698
29.64372702680042 32.7327
29.666938019934474 32.6757
29.689970313635285 32.6316
29.713003834422636 32.638000000000005
29.73603858342347 32.5789
29.759254535188578 32.5042
29.78229175361658 32.4531
29.80533020365064 32.457
29.82836988641968 32.5508
29.85159081507472 32.4149
29.874632976355343 32.3845
29.89767637376955 32.3905
29.920721008448314 32.2607
29.9439469322847 32.2285
29.96699405457564 32.1633
29.9900424175358 32.1527
30.013092022298157 32.1555
30.03632295963995 32.1277
30.059375061131373 32.1418
30.08242840783577 32.1194
30.105483000888153 32.0858
30.128718970092244 31.9679
30.151776069006917 31.9239
30.17483441768648 32.1463
30.198074175317235 32.0811
30.221135036724256 32.0295
30.24419715131772 31.9673
30.267260520236203 31.989
30.290505341942243 32.0892
30.313571232750228 32.0484
30.336638381310948 32.0074
30.35970678876503 31.9342
30.38295669299435 31.8377
30.40602763151657 31.8985
30.429099832366074 31.7866
30.452173296685572 31.7419
30.47542830191959 31.7811
30.498504306502497 31.6502
30.521581577995562 31.8099
30.544660117543582 31.8597
30.56792024229725 31.8291
30.59100133132069 31.822
30.614083691845494 31.8379
30.637167325018545 31.9274
30.660432587840603 31.9056
30.683518779717886 31.7845
30.70660624769615 31.9347
30.729694992924372 31.8811
30.75296541239743 31.8208
30.77605672557558 31.8236
30.799149319462742 31.74
30.8224236211637 31.5795
30.845518789950724 31.4312
30.868615242910597 31.4253
30.891712981195973 31.3505
30.91499247215866 31.2795
30.938092794619365 31.2912
30.96119440587579 31.1747
30.984297307082752 31.1099
31.00758200598383 30.9676
31.030687500658694 30.8978
31.053794288760695 30.9261
31.076902371446767 30.7207
31.100192296997445 30.7663
31.12330298246119 30.753
31.14641496599209 30.5684
31.169528248749216 30.6182
31.19282341969534 30.6728
31.215939314557186 30.6243
31.239056512134788 30.5819
31.262175013589378 30.5025
31.28547544871168 30.5299
31.30859657161541 30.5655
31.331719001892175 30.5324
31.35484274070538 30.6328
31.378148458819545 30.5554
31.401274828443725 30.5778
31.424402510106933 30.6155
31.447712205419993 30.5743
31.470842524931633 30.4814
31.493974159989783 30.5182
31.51710711176168 30.4901
31.54042212308802 30.4863
31.563557722100917 30.4805
31.586694641341655 30.201999999999998
31.609832881979628 30.1413
31.63315322823208 30.0461
31.656294125521327 29.9967
31.679436347728515 29.8801
31.70257989602529 29.9447
31.725905596152327 29.8494
31.74905181052835 29.8177
31.772199354521323 29.8987
31.79534822930507 29.8684
31.818679302290967 29.7322
31.84183085259981 29.8181
31.864983737233473 29.7871
31.88813795736804 29.834
31.911474422233013 29.6839
31.934631327356435 29.7995
31.9577895715215 29.7325
31.980949155906522 29.6702
32.004291031706956 29.6832
32.027453310562606 29.5905
32.05061693318573 29.4462
32.07396288236386 29.4335
32.09712920658542 29.4343
32.12029687812702 29.2451
32.14346589817093 29.1444
32.166817291729984 29.3029
32.18998902288583 29.1147
32.21316210610336 29.0918
32.23633654256711 28.8825
32.259693399663725 28.8452
32.282870556771144 28.8043
32.30604907069099 28.9601
32.329228942610065 28.807
32.35259128243769 28.6078
32.375773884550505 28.5263
32.398957848235646 28.5322
32.422143174682176 28.5085
32.445511016471215 28.3795
32.468699082679954 28.3903
32.49188851523011 28.4606
32.51507931531304 28.3634
32.538452678331 28.3565
32.56164622776311 28.2691
32.58484114831493 28.1413
32.60803744118015 28.1137
32.631416344731896 28.086
32.654615396551876 28.1233
32.67781582427913 28.0755
32.701198898634416 27.98
32.72440209253756 27.9654
32.747606665947124 27.9602
32.77081262006088 27.8847
32.79420126883317 27.8029
32.81740999876112 27.913
32.840620112999424 27.7828
32.86383161274818 27.6484
32.88722585534586 27.7065
32.91044014056596 27.75
32.933655814909734 27.6835
32.95687287957963 27.7021
32.98027273544904 27.5758
33.00349259526636 27.568
33.026713849030116 27.6854
33.04993649794511 27.6018
33.073341986570746 27.5399
33.09656744032826 27.573
33.11979429286444 27.5156
33.14302254538647 27.5669
33.166433686291185 27.5233
33.18966475336992 27.4783
33.212897224069096 27.3109
33.23613109959831 27.3442
33.259547912343415 27.2156
33.2827846121627 27.3066
33.306022720453775 27.1414
33.32926223842861 27.0967
33.352684742614166 27.0963
33.37592709463173 27.0103
33.399170859982064 26.951
33.422597648419426 26.8235
33.44584425514446 26.7803
33.46909227885668 26.7852
33.4923417207723 26.7224
33.51577423505344 26.7167
33.539026528130385 26.6308
33.56228024307245 26.596999999999998
33.585535381098246 26.4403
33.60897364093058 26.4726
33.63223163992385 26.4159
33.6554910656699 26.4453
33.678751919389796 26.3685
33.702195944520106 26.3294
33.72545966903325 26.2936
33.74872482519663 26.2516
33.771991414233746 26.2834
33.79544122444841 26.1574
33.81871069412428 26.1253
33.84198160035767 26.1739
33.86525394437455 26.1327
33.88870955949969 26.0581
33.911984794020626 25.9879
33.93526147001624 25.9434
33.958539588715006 25.8638
33.98200102861669 25.8613
34.0052820477047 25.7118
34.02856451319451 25.7194
34.05203033759056 25.701
34.07531571090147 25.7245
34.09860253431845 25.6755
34.121890809074316 25.6687
34.145362493118924 25.6009
34.16865368561615 25.5089
34.191946333164054 25.5248
34.21524043699793 25.5686
34.23871800066799 25.4977
34.26201503218366 25.3432
34.28531352370466 25.2528
34.30861347646881 25.2298
34.33209693978188 25.3099
34.3553998301885 25.2307
34.378704185565205 25.160999999999998
34.402010007152356 25.1295
34.42549939016683 25.0901
34.44880815937748 25.0126
34.472118398533134 24.9273
34.49543010887669 24.9755
34.51892543169198 24.8087
34.54224009966052 24.8854
34.56555624255917 24.9156
34.58887386163339 24.8016
34.61237514439016 24.7115
34.6356957311114 24.625
34.65901779775809 24.6913
34.68252356662995 24.599
34.705848608458616 24.6408
34.72917513396849 24.618000000000002
34.75250314440949 24.594
34.77601490857862 24.4536
34.799345904259795 24.5111
34.82267838863559 24.3783
34.846012362958525 24.4261
34.869530142679984 24.4352
34.89286711232212 24.2338
34.91620557568269 24.275
34.93954553401677 24.2746
34.9630693495876 24.1905
34.986412313340814 24.2239
35.00975677584668 24.2272
35.033102738362956 24.1151
35.05663261012228 24.0903
35.0799815881786 24.1142
35.10333207003229 24.0006
35.12668405694369 24.0419
35.150220005273056 23.9629
35.17357501786656 23.9385
35.19693153931268 23.9239
35.220289570874385 23.8116
35.24383161619786 23.8462
35.267192683604904 23.8684
35.290555264930376 23.8563
35.314101899412165 23.8095
35.33746752422433 23.8128
35.36083466676374 23.7549
35.38420332829803 23.7322
35.407756095629054 23.7024
35.43112781085063 23.7205
35.45450104888391 23.6659
35.477875810999194 23.6619
35.50143473172161 23.7086
35.52481255774625 23.7071
35.54819191167777 23.5901
35.57157279478914 23.4852
35.595137889488406 23.4689
35.61852184675279 23.4377
35.641907337029984 23.3429
35.665294361595684 23.3112
35.68886565090076 23.3034
35.7122557598848 23.2699
35.73564740699838 23.2442
35.759040593519934 23.2146
35.78261809810353 23.2338
35.80601437933051 23.1279
35.829412203814705 23.0408
35.85281157283719 22.9274
35.876395313415884 22.9428
35.8997977874528 22.9479
35.92320180988546 23.0132
35.946790244133936 22.8181
35.97019737933222 22.8411
35.993606066789866 22.8474
36.01701630779276 22.8937
36.04061101440684 22.7152
36.06402437852291 22.7837
36.08743930005611 22.7625
36.1108557802951 22.6538
36.13445678011326 22.6727
36.15787639383515 22.4804
36.18129757014299 22.5625
36.20472031032821 22.5786
36.22832762423364 22.4719
36.25175350829375 22.47
36.275180960119776 22.3859
36.298609981005924 22.3464
36.32222362992669 22.3739
36.34565580510207 22.3115
36.36908955323448 22.3101
36.39252487562093 22.2096
36.416144880530226 22.1622
36.43958336764275 22.124000000000002
36.463023432914625 22.2053
36.486465077645676 22.1697
36.51009145956204 22.1513
36.53353627947859 22.1023
36.55698268276811 22.0595
36.58043067073321 22.0243
36.60406345072071 21.9649
36.62751462435344 21.9542
36.65096738658405 21.9081
36.67460498210655 21.8379
36.69806093788647 21.8609
36.72151848619297 21.7869
36.744977628333636 21.7432
36.76862165890998 21.7523
36.79208400512205 21.7017
36.81554794910557 21.783
36.83901349217101 21.5956
36.862663978991606 21.5229
36.88613273667352 21.528000000000002
36.90960309738324 21.5207
36.933075062434064 21.484
36.95673202673572 21.4743
36.98020721697122 21.3805
37.003684015502365 21.3773
37.027162423645365 21.426
37.050825886711465 21.3475
37.07430753063053 21.1953
37.09779078812467 21.1695
37.121275660513014 21.1863
37.144945643673694 21.2352
37.16843376245278 21.0928
37.19192350009803 21.1382
37.215414857931435 21.0897
37.239091382563885 21.0389
37.262585997426164 21.0323
37.28608223645736 21.0403
37.309763684451696 20.8865
37.33326318851098 20.8988
37.356764320726555 20.9236
37.380267082425526 20.9139
37.40395510942588 20.8635
37.42746114683234 20.7689
37.45096881771841 20.7257
37.474478123414166 20.6702
37.49817275092816 20.6856
37.52168534303452 20.7094
37.54519957395567 20.6134
37.568715445024665 20.6651
37.592416694607714 20.5418
37.61593586281424 20.6177
37.63945667518264 20.5689
37.66297913304891 20.4404
37.68668702630454 20.511999999999997
37.710212792059274 20.3914
37.733740207334854 20.3339
37.757269273470364 20.3455
37.780983832050374 20.2612
37.80451621684926 20.2801
37.82805025654007 20.2482
37.851585952464795 20.1634
37.8753071980695 20.076
37.89884622345676 20.1187
37.92238690911902 20.118
37.94611318753442 19.9972
37.969657210779765 20.0689
37.99320289834801 20.074
38.016750251586465 19.9411
38.04048325513017 19.9141
38.06403395679343 19.896
38.087586328183946 19.8558
38.11114037065203 19.9191
38.13488012115898 19.9068
38.1584375229181 19.8029
38.181996599821 19.7116
38.205557353221124 19.7673
38.229303872575656 19.6321
38.2528679961576 19.689
38.27643380031219 19.6672
38.30000128639589 19.5321
38.32375459653193 19.496
38.34732546371299 19.5799
38.37089801690786 19.4749
38.39447225747609 19.4462
38.418232380377425 19.3912
38.441810012983396 19.3709
38.46538933705673 19.3926
38.488970353960084 19.366
38.51273731166058 19.3193
38.536321731567014 19.2851
38.55990784840681 19.22
38.58367995004091 19.2489
38.60726947812959 19.1593
38.63086070726198 19.2194
38.654453638806274 19.2493
38.678232613930824 19.1273
38.70182896773327 19.063
38.72542702806741 19.0337
38.7490267963045 19.0205
38.77281266709232 19.0018
38.79641586862214 18.9964
38.8200207821842 18.9727
38.843627409152944 18.9427
38.86742019782782 18.861
38.891030269149255 18.7608
38.914642058016156 18.868
38.938255565806124 18.8112
38.96205529464307 18.7542
38.98567225787121 18.6677
39.00929094417078 18.6977
39.03291135492255 18.6554
39.05671804624804 18.665
39.080341923549106 18.6429
39.103967529460334 18.5826
39.127594865365744 18.5777
39.15140854155791 18.5673
39.17503935514948 18.4112
39.19867190290282 18.5037
39.22249083587951 18.4051
39.24612686969409 18.4124
39.269764641845306 18.387
39.293404153722804 18.3829
39.317230110864074 18.2922
39.34087311998506 18.1984
39.36451787301696 18.2365
39.388164371352595 18.1921
39.41199737518003 18.1341
39.43564738196752 18.2796
39.45929913825317 18.1582
39.48295264543308 18.1134
39.506792718520884 18.1039
39.530449745387216 18.0546
39.55410852735203 18.0077
39.57776906581474 17.9975
39.60161623079 17.9919
39.625280300200025 17.8684
39.64894613032202 17.8398
39.67261372255866 17.8909
39.6964680021016 17.8582
39.72013913657293 17.8302
39.74381203738292 17.817
39.76748670593756 17.7291
39.79134812278169 17.7722
39.81502634488497 17.730999999999998
39.83870633896685 17.6751
39.862388106436654 17.6016
39.88625668336918 17.6663
39.90994201572829 17.6489
39.933629125719285 17.597
39.957503091207826 17.5835
39.9811937746168 17.6082
40.00488623990914 17.5165
40.02858048850006 17.4664
40.05246165409549 17.3693
40.076159487492085 17.3403
40.099859108448875 17.3757
40.123560518384345 17.3224
40.1474489070226 17.335
40.171153913178564 17.3009
40.194860712584955 17.2269
40.2185693066637 17.206
40.242464941335314 17.2171
40.26617714307655 17.1545
40.289891143772046 17.1972
40.3136069448471 17.1653
40.33750984859743 17.0956
40.3612292688043 17.0254
40.3849504936829 17.0302
40.40867352466194 17.0671
40.43258372059144 17.0236
40.45631038219906 17.0224
40.48003885420956 16.9444
40.503769138055105 16.8944
40.52768664931955 16.9087
40.55142057531802 16.8936
40.57515631746428 16.834
40.599079334038514 16.7569
40.62281872700477 16.749000000000002
40.64655994043941 16.7241
40.67030297578061 16.7555
40.69423334835778 16.6971
40.71798004609188 16.6681
40.74172857006355 16.6073
40.76547892171441 16.6072
40.7894166736039 16.6277
40.813170699248566 16.5483
40.83692655691388 16.5186
40.86068424804498 16.5614
40.884629402612525 16.5307
40.908390779366385 16.4696
40.932153993938 16.4325
40.95591904777605 16.3914
40.979871628443995 16.3877
41.003640379561936 16.3685
41.02741097430883 16.424
41.05118341413683 16.3251
41.075143444384416 16.2804
41.098919593177826 16.3061
41.1226975914255 16.1947
41.14647744058318 16.1845
41.170444943946755 16.1491
41.19422851378379 16.1449
41.218013938914645 16.1141
41.24198706625173 16.0591
41.26577622087193 16.0763
41.289567235177785 16.0001
41.31336011063129 15.9911
41.337340752422875 15.9592
41.361137369129835 15.9628
41.38493585138705 15.9645
41.40873620066004 15.902999999999999
41.43272438060107 15.8835
41.45652848292052 15.8243
41.48033445666918 15.8458
41.50414230331616 15.7706
41.528138045159764 15.745
41.551949656675205 15.7221
41.575763145513235 15.7486
41.59957851314666 15.7167
41.62358184070442 15.6525
41.64740098505737 15.5927
41.6712220126409 15.5558
41.69504492493139 15.5675
41.71905586207357 15.5187
41.74288256296395 15.5417
41.766711153007456 15.5299
41.79054163368412 15.5025
41.814560204340054 15.4691
41.838394485526365 15.4523
41.86223066180303 15.3996
41.88625497706819 15.412
41.910094962812 15.3218
41.93393684811168 15.3184
41.95778063445365 15.2108
41.981812625263366 15.2273
42.00566023303407 15.2198
42.029509746323676 15.2509
42.05336116662236 15.2355
42.077400857069705 15.1785
42.10125611078846 15.190999999999999
42.12511327600405 15.120999999999999
42.14897235421036 15.0973
42.173019768448455 15.056
42.19688269209613 15.0334
42.22074753323349 15.043
42.24461429335818 15.0199
42.268669455600495 14.9729
42.292540073217886 14.93
42.31641261433284 14.9436
42.34028708044675 14.917
42.36435001496739 14.9021
42.38822835065557 14.8417
42.41210861586426 14.8115
42.4359908120986 14.8265
42.46006154323262 14.7694
42.48394762115317 14.7107
42.507835634632315 14.7484
42.531912233047436 14.7106
42.55580413732265 14.6655
42.579697981698 14.639000000000001
42.60359376768525 14.610999999999999
42.62767820545945 14.5554
42.65157789440821 14.5406
42.67547952952185 14.5387
42.699383112316 14.5071
42.72347541395347 14.4441
42.74738291190531 14.3908
42.771292362102166 14.4371
42.795203766063516 14.4694
42.819303956130405 14.4267
42.843219287476536 14.3617
42.86713657716324 14.3875
42.89105582671383 14.3715
42.91516392983864 14.3237
42.939087119032166 14.2599
42.963012272677304 14.2528
42.98693939230129 14.2474
43.01105543317513 14.184000000000001
43.034986504731386 14.1475
43.05891954686589 14.1441
43.08285456110972 14.1281
43.10697856448665 14.1181
43.130917542983475 14.0082
43.15485849820081 14.0218
43.17880143167367 14.0789
43.20293342237094 13.9956
43.226880332449 13.9826
43.25082922540554 13.9802
43.27496722682525 13.937000000000001
43.29892010567796 13.8751
43.32287497204102 13.8674
43.34683182745632 13.8227
43.370977859791836 13.8085
43.39493871351105 13.800999999999998
43.41890156092628 13.8088
43.44286640358341 13.7926
43.46702049182749 13.7941
43.49098934522816 13.7232
43.51496019852649 13.6941
43.5389330532723 13.6897
43.56309522248204 13.6509
43.58707210044314 13.5963
43.61105098451946 13.5579
43.63503187626491 13.5663
43.659202151562134 13.5762
43.68318707902681 13.5482
43.70717401884041 13.4949
43.731162972560874 13.4661
43.75534137913236 13.4263
43.779334381108384 13.4296
43.803329401683186 13.3994
43.82732644241872 13.3637
43.8515130055166 13.3359
43.87551410707659 13.3265
43.89951723350145 13.3276
43.923709934595614 13.2904
43.94771713129917 13.2844
43.97172635758096 13.2575
43.99573761501002 13.2362
44.0199385169922 13.231
44.04395385732619 13.1949
44.067971233533086 13.1357
44.09199064718605 13.1491
44.11619977548961 13.1161
44.14022328470671 13.1079
44.16424883610785 13.0936
44.18827643127035 13.0639
44.21249381139513 13.0376
44.236525514814076 13.005
44.26055926674478 12.9641
44.28459506876863 12.9859
44.3088207262813 12.9503
44.33286064928722 12.9384
44.35690262714919 12.9027
44.38094666145278 12.8462
44.4051806219871 12.8767
44.42922879003185 12.8407
44.45327901929361 12.8315
44.477331311362136 12.7718
44.501573600619416 12.7509
44.525630039221795 12.7361
44.54968854541895 12.7239
44.573937102200176 12.6649
44.5979997645541 12.6715
44.622064499300315 12.6345
44.64613130803592 12.5843
44.67038823869318 12.59
44.69445921643748 12.5246
44.718532272981385 12.5454
44.742607409926194 12.5336
44.76687274034801 12.5034
44.79095205918753 12.4767
44.81503346325094 12.4578
44.839116954143876 12.4803
44.86339071028742 12.4357
44.88747839599524 12.4499
44.91156817336837 12.3701
44.93566004401666 12.3739
44.959942251908146 12.3532
44.984038330325966 12.3109
45.00813650686762 12.3129
45.03223678314731 12.3097
45.05652746888232 12.2305
45.08063196592069 12.1988
45.104738567558705 12.2227
45.128847275414856 12.1865
45.15314646515866 12.1215
45.17725940679741 12.1412
45.20137445952892 12.1007
45.22568004865265 12.1313
45.24979934496396 12.1415
45.27392075725247 12.0878
45.29804428714431 12.0614
45.322358426247604 12.0296
45.346486212804315 12.0156
45.370616121861914 11.9622
45.39474815505086 11.9924
45.41907087049246 11.8902
45.4432071734666 11.9139
45.46734560548283 11.8928
45.49148616817604 11.8876
45.51581748638564 11.8758
45.5399623320197 11.8236
45.56410931325473 11.7937
45.58825843173002 11.7769
45.61259837920865 11.7904
45.636751793816 11.7546
45.66090735060093 11.679
45.68506505120716 11.6915
45.7094136545275 11.6818
45.73357566449271 11.6375
45.75773982322992 11.6442
45.78190613238733 11.5865
45.806263418194064 11.5643
45.83043404997326 11.5532
45.85460683713677 11.555
45.87897065658495 11.5091
45.90314777634752 11.5214
45.92732705646868 11.501
45.9515084986045 11.4927
45.97588104735473 11.4475
46.00006683541565 11.3934
46.02425479047904 11.3911
46.04844491420549 11.4327
46.0728262191024 11.3896
46.09702070211635 11.3498
46.12121735879483 11.3456
46.14541619080294 11.3364
46.169806278764455 11.3263
46.194009483459034 11.2886
46.21821486849841 11.254000000000001
46.24242243555223 11.2629
46.266821333570014 11.2146
46.29103328674601 11.1851
46.31524742696538 11.1906
46.33946375590237 11.1546
46.36387149104216 11.1215
46.38809221957392 11.075
46.41231514186606 11.0721
46.436540259597464 11.1068
46.460956858999374 11.0678
46.48518638983522 11.0463
46.509418121166966 11.0377
46.533652054678114 11.0112
46.55807754555709 11.0035
46.58231590571962 10.9793
46.60655647313217 10.9229
46.630988654873654 10.8894
46.655233659129024 10.8723
46.67948087571551 10.8746
46.70373030632484 10.8594
46.72817142736393 10.852
46.752425308428684 10.8355
46.77668140861147 10.8168
46.80093972960865 10.7073
46.82538981736788 10.7273
46.849652602470904 10.7099
46.87391761349769 10.7171
46.8981848521493 10.6877
46.9226439341274 10.6769
46.946915650573224 10.6601
46.97118959976749 10.6258
46.99546578341598 10.607000000000001
47.019933887188216 10.5798
47.04421456235744 10.574000000000002
47.06849747711879 10.5881
47.09278263318286 10.5239
47.11725978640143 10.5256
47.14154944775105 10.5105
47.165841355555656 10.4904
47.1901355115306 10.4275
47.214621741924994 10.4033
47.23892041698887 10.394
47.26322134538975 10.3951
47.28771440635075 10.3754
47.31201986422527 10.3777
47.33632758061436 10.3544
47.360637557241866 10.3159
47.38513974410611 10.3042
47.40945426407847 10.2696
47.43377104948137 10.2374
47.45809010204344 10.2163
47.48260144275502 10.232000000000001
47.506925052572285 10.2034
47.53125093475548 10.1857
47.55557909103813 10.1753
47.58009961361992 10.177
47.60443234110732 10.1182
47.62876734791564 10.0959
47.65310463578333 10.0927
47.6776343683373 10.0677
47.7019762413987 10.0431
47.72632040075572 10.0179
47.75066684815169 10.0489
47.77520581885936 9.95737
47.799556865477655 9.94841
47.823910205386 9.953619999999999
47.84826584033272 9.95625
47.87281407745551 9.89432
47.89717432569297 9.90444
47.92153687423484 9.894910000000001
47.94609208429692 9.869
47.97045925671401 9.82423
47.99482873471275 9.80288
48.01920052005013 9.86726
48.04376504619224 9.818489999999999
48.068141469543484 9.81143
48.09252020552573 9.764289999999999
48.11690125590099 9.75618
48.1414751266064 9.74023
48.16586082917454 9.69945
48.19024885144316 9.70875
48.2146391951793 9.6953
48.239222439012764 9.646289999999999
48.26361744916137 9.66109
48.28801478610016 9.68246
48.31241445160131 9.62853
48.337007097209366 9.581430000000001
48.36141144338331 9.58329
48.38581812345755 9.5496
48.41022713920929 9.55743
48.434829215320704 9.53989
48.45924292604658 9.52244
48.48365897780325 9.52442
48.50807737237308 9.496789999999999
48.532688907799276 9.45498
48.55711201168574 9.431519999999999
48.581537463754074 9.42406
48.60615611725119 9.44545
48.63058628942721 9.41537
48.65501881516546 9.35011
48.6794536962573 9.36047
48.70408185970339 9.34229
48.72852147531801 9.31369
48.75296345168211 9.28218
48.77740779059232 9.264389999999999
48.80204549302823 9.302719999999999
48.82649458091802 9.282169999999999
48.85094603676547 9.26267
48.87539986237231 9.19454
48.90004713292306 9.16816
48.92450572200832 9.171669999999999
48.94896668628025 9.16948
48.97343002754588 9.13195
48.99808689542115 9.13683
49.02255501470614 9.12998
49.04702551642794 9.08545
49.0714984023988 9.08358
49.096164896893235 9.042910000000001
49.120642575466796 9.02127
49.145122643748394 9.02914
49.16960510355558 9.009319999999999
49.19428125404938 8.97686
49.2187685210852 8.944930000000001
49.243258185121555 8.9243
49.26794160167084 8.93393
49.2924360839405 8.915230000000001
49.31693296869764 8.90587
49.34143225776915 8.86693
49.36612538195438 8.85515
49.39062950396021 8.87795
49.41513603578346 8.848360000000001
49.4396449792564 8.82126
49.46434784069503 8.83686
49.488861631846454 8.77317
49.513377840166804 8.74728
49.537896467493745 8.71883
49.56260909589029 8.70969
49.587132585683285 8.72705
49.611658500018365 8.69868
49.636186840738596 8.69234
49.66090926588511 8.6664
49.685442483902584 8.64608
49.70997813385706 8.5942
49.734516217597076 8.60967
49.75924846937352 8.61771
49.7837914452858 8.58047
49.80833686055187 8.56149
49.83288471702571 8.52322
49.85762682540054 8.54873
49.882179588965734 8.54446
49.9067347993235 8.52558
49.93129245833333 8.463330000000001
49.95604445336378 8.50277
49.98060703442832 8.46451
50.005172069746266 8.46188
50.02993150438364 8.39686
50.05450147301533 8.38265
50.07907390151433 8.37197
50.10364879174981 8.356010000000001
50.12841816587289 8.33413
50.1529980044635 8.31276
50.17758031042124 8.33563
50.20216508562089 8.30737
50.22694442953363 8.26487
50.25153416817468 8.25295
50.27612638170508 8.24671
50.300721072005196 8.21815
50.325510416102105 8.21669
50.350110084975064 8.17695
50.37471223628208 8.207880000000001
50.39931687190919 8.1801
50.424116246675766 8.18688
50.44872587605249 8.112919999999999
50.47333799543065 8.13825
50.49795260670191 8.12646
50.52276204271512 8.073960000000001
50.54738166295838 8.07589
50.57200378079314 8.06125
50.596628398116835 8.02294
50.62144792604559 8.038969999999999
50.646077567609396 7.99852
50.670709714377715 8.01327
50.69553683636198 7.9696
50.72017401885922 7.980339999999999
50.7448137122895 7.94695
50.76945591856022 7.940919999999999
50.79429318636823 7.93213
50.818940443716784 7.92445
50.84359021965163 7.90315
50.868242516085964 7.89876
50.893089960641895 7.883189999999999
50.917747323549435 7.853260000000001
50.94240721271973 7.84506
50.96706963007175 7.80974
50.99192728239342 7.83202
51.01659478166073 7.783860000000001
51.04126481489051 7.782839999999999
51.06593738400761 7.78172
51.090805275207074 7.74826
51.11548294172845 7.74118
51.14016314993547 7.74407
51.164845901758845 7.67327
51.18972406304274 7.6849300000000005
51.21441192780656 7.66966
51.23910234200271 7.6568
51.2637953075678 7.644839999999999
51.288683770237945 7.58985
51.31338186432707 7.5952
51.33808251561888 7.557810000000001
51.362978729967345 7.55956
51.387684521509755 7.5789800000000005
51.41239287610203 7.56157
51.437103795691165 7.5003899999999994
51.46201036644977 7.485930000000001
51.486726441956634 7.48044
51.51144508832545 7.473510000000001
51.536166307509156 7.43819
51.56108326624387 7.398339999999999
51.58580965706056 7.43076
51.61053862657523 7.440869999999999
51.635270176746864 7.38284
51.66019755512065 7.3779
51.68493429268881 7.366860000000001
51.70967361681515 7.360189999999999
51.73441552946465 7.36877
51.759353359237934 7.32883
51.7841004750961 7.33592
51.80885018539685 7.31245
51.833602492111254 7.30001
51.8585508051424 7.25409
51.883308330926425 7.23267
51.90806845906181 7.227469999999999
51.932831191525715 7.24005
51.95779001977161 7.220089999999999
51.98255798721516 7.18708
52.00732856494335 7.138910000000001
52.03229530577543 7.171539999999999
52.057071130455945 7.15119
52.081849571391054 7.1516399999999996
52.106630630568695 7.11698
52.13160794279417 7.09158
52.15639426492067 7.078010000000001
52.18118321127822 7.067260000000001
52.205974783860896 7.0678
52.23096269971011 7.0530100000000004
52.255759551287994 7.0248800000000005
52.280559035098186 6.998360000000001
52.30536115314103 6.992839999999999
52.33035970494467 6.9852300000000005
52.35516711807904 6.9804
52.37997717147198 6.932010000000001
52.40478986713005 6.92479
52.42979908731974 6.907960000000001
52.454617094216 6.88057
52.47943774942214 6.851039999999999
52.50426105495102 6.9181
52.529280976059844 6.898569999999999
52.554109609024096 6.8609800000000005
52.57894089837482 6.86742
52.60377484613117 6.839289999999999
52.62880550079408 6.807180000000001
52.65364479223379 6.7835399999999995
52.67848674816189 6.765
52.70352547971946 6.77085
52.72837279155837 6.77205
52.753222773982785 6.699839999999999
52.778075429022984 6.75741
52.80312495150885 6.71041
52.827982978797436 6.7095899999999995
52.85284368481815 6.672160000000001
52.87770707160767 6.64262
52.90276741793998 6.651960000000001
52.92763619336701 6.68095
52.952507655698504 6.597289999999999
52.977381806977576 6.6067100000000005
53.00245301017842 6.65105
53.02733256653592 6.613389999999999
53.052214817996074 6.59357
53.077099766608484 6.5477099999999995
53.102181859804446 6.538819999999999
53.127072229988265 6.5718
53.15196530349892 6.4867300000000006
53.17686108239249 6.51847
53.20195409881522 6.47181
53.22685531582556 6.47801
53.25175924441303 6.46649
53.27666588664027 6.44937
53.30176985962693 6.407019999999999
53.3266819565689 6.42509
53.35159677336455 6.42805
53.376514312083096 6.40115
53.40162927507703 6.3766300000000005
53.42655228516116 6.3754800000000005
53.45147802340193 6.31387
53.47660125628886 6.32872
53.50153247842639 6.31236
53.52646643496923 6.30906
53.55140312799818 6.31873
53.576537409691696 6.25345
53.60147960336152 6.30417
53.626424539786164 6.27599
53.65137222105307 6.18379
53.67651758529126 6.22015
53.70147078399681 6.17056
53.72642673383343 6.1799
53.75138543689533 6.19372
53.776541917524526 6.22831
53.801506154876755 6.16755
53.826473151763246 6.19298
53.851442910284916 6.120019999999999
53.87661054126026 6.07512
53.9015858509782 6.09489
53.92656392866066 6.08014
53.95154477641532 6.10387
53.976723591801296 6.05236
54.00171000771266 6.08023
54.02669920004598 6.06808
54.051691170915745 5.97775
54.076881204886796 5.99833
54.101878760928514 5.99851
54.12687910187696 5.9526
54.152077577768296 5.94095
54.1770835166946 5.92818
54.20209224691339 5.94081
54.22710377055121 5.901269999999999
54.25231352511594 5.8987
54.27733066384342 5.89161
54.30235060239643 5.89616
54.32737334290836 5.87245
54.35259441062629 5.80262
54.377622783395324 5.8451900000000006
54.40265396455061 5.8358300000000005
54.42768795623251 5.80779
54.45292037169559 5.79462
54.477960012857906 5.79336
54.50300247099511 5.76529
54.52804774825457 5.73413
54.55329154616743 5.68349
54.57834249018678 5.6988
54.6033962597977 5.64921
54.6284528571545 5.64422
54.653708072335164 5.6349
54.67877035378786 5.61185
54.70383546947698 5.56608
54.72890342156389 5.57824
54.7541700889442 5.5068
54.77924374251975 5.5409
54.8043202390049 5.5083
54.82959552413022 5.483969999999999
54.8546777351945 5.4357
54.87976279569621 5.41741
54.90485070780914 5.436319999999999
54.930137506558005 5.43765
54.95523115074295 5.44841
54.98032765308844 5.39283
55.005427015775496 5.37627
55.03072536339621 5.30582
55.05583047570572 5.28833
55.080938454927676 5.22015
55.10604930325027 5.21641
55.131359235107396 5.309159999999999
55.15647585066083 5.26044
55.181595341907496 5.19369
55.20671771104285 5.16055
55.232039262617704 5.16225
55.25716741665048 5.12801
55.28229845518636 5.14273
55.30743238042802 5.05149
55.33276558731939 5.07263
55.357905315183636 5.07221
55.383047936390035 5.04073
55.40819345314859 4.98577
55.433538351073295 5.00739
55.458689688238415 4.92357
55.483843927614096 4.93575
55.509197623043605 4.96318
55.53435769621134 4.9595
55.55952067826466 4.92061
55.5846865714265 4.9248199999999995
55.61005202069737 4.85849
55.63522376553902 4.85029
55.66039842818645 4.7988800000000005
55.68557601087004 4.8091800000000005
55.7109532500271 4.757280000000001
55.73613670233794 4.77718
