TT I
1.2716486653135266 7.930510000000001
1.2939594142134223 7.3369100000000005
1.3162702121660406 6.99251
1.3385810600174564 6.8133300000000006
1.3608919586137629 6.97297
1.383202908801069 6.21453
1.405513911425503 5.79138
1.4278249673332093 6.15872
1.4501343378461518 6.4396
1.4724455028545926 5.73885
1.4947567236847858 5.77763
1.517068001182951 5.9539599999999995
1.5393793361953272 5.5945800000000006
1.5616907295681737 4.79004
1.5840021821477681 5.13152
1.60631369478041 5.12479
1.6286252683124185 5.21015
1.6509369035901333 4.8063199999999995
1.6732468618895553 5.09322
1.695558623192809 4.90825
1.7178704487808514 4.86404
1.7401823395001077 4.5711900000000005
1.7625012545597203 4.65678
1.7848028405262486 4.96298
1.8071218901122095 5.003909999999999
1.8294236121921872 4.96163
1.8517427996910911 4.59326
1.8740620574440425 4.78311
1.8963639900671978 4.53104
1.9186833908139995 4.60406
1.9409854680117449 4.42488
1.9633050151394713 4.53642
1.9856246367570705 4.0922
2.0079269371922672 4.41314
2.03024671027244 4.11883
2.0525491637446027 4.20686
2.074869091674931 4.43112
2.097171701569106 4.50703
2.1194917877373847 4.51361
2.141811954326636 5.19188
2.164114805233074 4.65295
2.186435135143035 5.62259
2.208738150935709 12.0006
2.231058647554722 20.3004
2.2533792288321184 16.265
2.275682498336085 8.730739999999999
2.298003251406138 6.15059
2.3203066942619714 6.19949
2.3426276225136022 5.29133
2.3649486396617507 5.91328
2.387252348930071 5.555969999999999
2.4095735463442893 5.93275
2.4318774374315884 6.16907
2.4541988185014043 6.55398
2.476502894794693 7.323289999999999
2.498824462909887 6.9091
2.521146125856138 7.322710000000001
2.5434504863470337 7.2506699999999995
2.5657723414244717 7.878360000000001
2.588076895590662 8.59936
2.610398946189713 8.84336
2.6327210958598384 8.45401
2.6550259469304716 7.92327
2.6773482972090137 8.24408
2.6996533504259 8.60011
2.7219759047039602 8.57367
2.744298562293959 8.13728
2.7666039251246595 7.947189999999999
2.7889267918020164 8.95668
2.8112323652516555 8.71843
2.833555444408179 9.107389999999999
2.8558786311183852 8.95818
2.8781845268938557 9.53171
2.9005079311721484 9.16499
2.9228140460410397 9.25243
2.9451376712799635 8.74237
2.967444008632326 9.710289999999999
2.9897678582247247 10.2192
3.0120918213106695 10.693
3.0343984987899373 10.7436
3.0567226913198637 11.1286
3.079029599759726 12.0
3.101354025127254 12.6693
3.123678568232338 13.0013
3.145985829517914 12.8504
3.16831061055229 13.7122
3.1906181112775593 14.4494
3.212943133635653 15.075999999999999
3.2352682779763207 15.2621
3.2575761442691227 15.4082
3.2799015350264273 15.244000000000002
3.302209649240067 16.1825
3.3245352898092655 16.5202
3.3468436553365257 17.3641
3.369169549113219 17.8482
3.3914955708171384 18.6621
3.413804319727358 18.2189
3.4361305997334863 18.7481
3.4584396084414553 19.3683
3.4807661501462652 20.2445
3.503092824025881 20.6382
3.5254022288463154 20.8151
3.5477291695206588 21.418000000000003
3.5700388426251948 22.025
3.5923660534916446 23.144000000000002
3.6146934007816114 33.5927
3.637003482731501 67.3063
3.6593311053109985 72.4954
3.681641464033634 45.257
3.7039693653009733 28.3317
3.726297407241705 25.6426
3.7486081875460804 25.3327
3.7709365132734978 25.7961
3.793247578841633 26.4144
3.8155761917550093 26.3804
3.8378875459837216 26.7131
3.8602164494827234 27.1354
3.882545499606844 27.7281
3.9048572932539183 28.265
3.9271866390645718 28.5584
3.9494987298666713 29.5552
3.971828374764527 29.7317
3.9941581705403255 30.4463
4.016470713506008 30.7162
4.038800813471445 31.7805
4.061113662089144 32.2638
4.0834440696459176 33.0938
4.105774632334751 33.6846
4.128087945865126 34.3519
4.150418821249301 34.9961
4.172732448931298 36.0938
4.195063640413578 37.2785
4.2173775856475215 40.8364
4.239709096631102 64.02199999999999
4.262040768704612 172.705
4.284355196706267 224.055
4.306687193387355 149.156
4.329001947444346 67.1317
4.35133427213731 45.5022
4.373666762177566 43.3966
4.395982011761091 43.5914
4.418314834921175 45.1579
4.44063041906622 50.5159
4.4629635787515625 57.7466
4.4852969080429785 58.0879
4.5076130004776225 52.0197
4.529946671403969 51.6061
4.552263106909177 52.6292
4.574597122877047 52.5444
4.596931312711224 52.5816
4.619248269273446 52.8368
4.6415828092605835 53.6673
4.663900117405352 54.538999999999994
4.686235010953232 55.5439
4.708552674085913 57.174
4.730887924602802 59.2571
4.753223354952695 60.3293
4.775541557023902 62.5049
4.797877349456786 64.69
4.820195915032126 66.2708
4.842532072957498 66.9271
4.864868414979744 69.1696
4.88718753227192 71.94
4.909524244902505 73.4496
4.931843734218147 74.6212
4.954180820867835 76.9483
4.976518095879839 79.4705
4.998838149695359 82.1885
5.021175803844231 85.67299999999999
5.043496238205739 89.406
5.065834274903528 93.054
5.088172504230693 97.7037
5.1104935158799565 103.1
5.132832132875765 121.773
5.155153533596801 156.14
5.1774925416746225 189.24400000000003
5.199814334878411 336.48900000000003
5.2221537374521505 916.565
5.244493338631803 2691.17
5.266815727034316 7925.4
5.289155727832427 13713.6
5.311478517248165 8940.52
5.333818921080011 2557.7
5.356159527788849 459.408
5.3784829252032536 172.548
5.400823940070432 139.731
5.423147747031976 124.28399999999999
5.445489173474152 115.77
5.467830807066149 112.285
5.490155234831516 109.63799999999999
5.512497285125229 105.15799999999999
5.534822130975162 102.814
5.557164601388673 100.615
5.579489868738879 97.8503
5.601832762690846 96.3425
5.6241758697774475 95.1467
5.646501775867269 94.6489
5.668845311622074 93.6131
5.691171647754637 92.5634
5.713515615597765 91.89
5.735859800852677 90.6403
5.758186788542988 90.6058
5.780531411018185 91.9354
5.802858837297399 91.3473
5.825203900414495 91.4906
5.8475491852224 92.4933
5.869877275883075 92.5189
5.892223006467101 91.912
5.914551544266608 92.3978
5.936897724049891 94.8054
5.959244129804903 101.336
5.981573344815301 120.626
6.0039202049061 205.405
6.026249875609095 430.782
6.04859719346037 917.038
6.070927323278297 2263.84
6.093275102315365 4575.44
6.115623113320588 5132.45
6.137953938319995 3000.97
6.160302415650845 816.3580000000001
6.182633708324452 195.551
6.2049826554078376 105.584
6.227331838745022 88.1596
6.249663839443684 81.9732
6.27201349767565 79.357
6.294345974611799 82.7836
6.316696111167083 89.6406
6.339046488263839 85.823
6.361379686074702 75.7182
6.383730546639482 70.1194
6.406064229255215 68.1062
6.428415576718203 68.1109
6.450749747566656 66.8194
6.47310158535871 65.1996
6.495453669698332 64.1931
6.517788579421056 63.3779
6.540141159237969 62.8257
6.562476565766648 62.0885
6.5848296444934045 61.5716
6.607182974060425 61.56100000000001
6.6295191323281015 61.7551
6.651872965955752 64.2367
6.6742096296068985 81.5598
6.6965639707294615 112.404
6.71891856698715 111.211
6.741255995248479 81.6717
6.763611104154477 63.9923
6.785949046381137 58.631
6.808304671371482 57.4184
6.8306605557940046 57.9574
6.852999275508618 57.2601
6.875355681171544 56.4207
6.897694923437771 56.0283
6.92005185377892 55.8401
6.9423916220322655 55.6967
6.964749080490181 54.6964
6.987106804399774 54.806000000000004
7.009447368180821 55.108000000000004
7.031805625367033 54.7882
7.054146723727803 54.6349
7.076505517631004 53.7081
7.098864581288365 54.2303
7.121206488070854 53.988
7.143566093607822 53.6855
7.165908543567245 54.2861
7.188268694426048 54.4654
7.2106291193438095 54.3605
7.232972390625943 55.2109
7.255333366030969 64.5298
7.277677189091925 100.98299999999999
7.300038718428332 129.023
7.322400526130865 111.98100000000001
7.344745183422596 76.2307
7.367107550224791 58.3796
7.389452767901992 54.7497
7.411815697249891 53.9429
7.434161478756298 53.1684
7.456524974096713 53.1844
7.478888753837185 53.1969
7.501235387657368 53.6447
7.523599738562711 53.6132
7.545946944825532 53.7556
7.568311870344528 54.2539
7.5906770845765665 54.6915
7.613025156078678 55.5044
7.635390950099687 56.1703
7.657739602662809 55.4568
7.680105979923558 55.2702
7.702472650212829 55.3813
7.724822180948224 55.3877
7.747189439655568 55.591
7.769539560075357 55.1113
7.791907410653562 55.7537
7.81425812420825 55.5639
7.836626570110925 55.8308
7.858995315087906 57.0379
7.881346924933401 56.8082
7.903716270417482 57.4601
7.926068482028405 58.0071
7.948438431475253 58.4227
7.9708086843180235 58.9334
7.993161805171116 59.549
8.015532667162402 60.06
8.037886398416653 61.0373
8.060257873014221 61.5086
8.082629655331942 61.9597
8.104984308787587 63.0264
8.127356708900503 65.6085
8.149711981398308 70.062
8.172085002766314 72.1039
8.194458336181368 69.8042
8.216814543847752 68.1651
8.23918850371002 68.399
8.26154533906492 69.007
8.283919928836452 70.5317
8.306277395339652 71.8914
8.328652618483376 73.2353
8.351028159736202 74.7854
8.373386579575245 77.0375
8.395762759396959 78.8562
8.418121819038275 82.9975
8.440498640894003 93.5017
8.462875785192262 105.272
8.485235811156207 120.994
8.507613602688501 163.583
8.529974277114228 245.604
8.552352719347912 363.907
8.574731488360351 621.7669999999999
8.59709314210385 1193.37
8.619472567021075 1958.56
8.64183487789147 2293.94
8.664214962183097 1719.53
8.686577933647762 858.554
8.708958680784317 308.98
8.731339760774953 145.218
8.753703729764451 105.444
8.77608547780821 95.9148
8.798450116065078 92.8948
8.820832535634787 90.3114
8.843215292401656 89.5766
8.865580941199045 88.882
8.887964374703538 87.8083
8.910330701447199 88.3719
8.932714815164482 89.5102
8.955099270424924 88.26700000000001
8.977466620733543 85.9377
8.999851761421976 83.9408
9.022219798361645 82.6541
9.04460562795561 82.3706
9.066991803441677 81.9677
9.089360876979615 82.1249
9.111747746589993 81.8288
9.13411751544971 80.7929
9.156505082664324 80.7694
9.178875550323522 80.6809
9.20126381862328 81.1754
9.223652438908596 81.6512
9.246023961427412 81.2277
9.26841328802173 80.9244
9.290785518039224 80.9293
9.313175554425882 81.7192
9.335565947154315 82.4709
9.357939245086508 82.6105
9.380330352834827 82.6963
9.40270436697103 82.7378
9.425096193225055 82.2878
9.447488380180165 83.2165
9.469863475295412 83.0992
9.492256385987508 83.42299999999999
9.514632206018318 84.0137
9.537025843935714 84.2222
9.559402392368193 85.059
9.581796761000229 86.7603
9.604191496441521 87.7679
9.626569144158516 90.5522
9.648964615551032 93.9807
9.671343000390081 94.3704
9.693739211225699 93.1341
9.716135793237463 91.5674
9.738515290448102 91.7369
9.760912617143402 92.8406
9.783292860202891 94.2692
9.805690935076182 95.9117
9.828089385495742 96.62799999999999
9.850470754023561 98.6106
9.872869957865444 104.374
9.89525208097539 115.324
9.917652041736662 124.936
9.940052382417589 127.74700000000001
9.962435644102392 140.609
9.984836746950979 175.88099999999997
10.007220771957746 234.808
10.029622640473708 326.803
10.052007432299963 501.63800000000003
10.074410069984072 813.6419999999999
10.096813093716005 1309.32
10.119199042482517 1844.11
10.141602840636468 1979.47
10.163989564971628 1477.14
10.186394141051062 767.1260000000001
10.208799107559706 323.27099999999996
10.231187001965623 160.564
10.253592751657669 117.792
10.275981430388155 109.11399999999999
10.298387966769793 108.42399999999999
10.320794897965431 109.811
10.343184759907361 108.928
10.36559248305461 104.98100000000001
10.387983138083852 102.806
10.410391656691655 106.725
10.432800574501677 117.15799999999999
10.455192425893369 132.106
10.47760214443012 156.445
10.499994797678786 199.77900000000002
10.522405320453982 286.383
10.54479877906917 418.195
10.567210109595656 541.273
10.5896218454736 602.5740000000001
10.612016518879773 491.336
10.634429067781074 319.82599999999996
10.656824555333241 181.294
10.679237920773568 114.26
10.701651695961992 92.4317
10.724048411481384 87.1215
10.746463008485165 84.6276
10.768860546937125 82.9948
10.791275969274796 81.235
10.81369180576079 80.236
10.836090585366925 79.2419
10.858507252467449 78.4268
10.88090686379991 77.63
10.903324365036394 77.0242
10.925724811614439 76.62
10.948143150509463 77.5601
10.970561909719066 76.6021
10.992963615930844 75.4396
11.015383218085756 73.6366
11.037785768347074 72.2458
11.06020621697282 71.6586
11.082627090322113 71.1965
11.105030913430326 70.5771
11.12745263854165 70.6553
11.149857314510728 72.7742
11.172279894912576 76.7098
11.194702904450653 76.4867
11.217108866490921 73.4229
11.239532736615194 70.7799
11.26193956033512 69.2763
11.284364294577085 68.0997
11.306789462371718 66.5984
11.329197585398376 66.0113
11.351623622610898 65.8079
11.37403261614354 64.9406
11.396459526308487 64.9739
11.418869393879497 64.5488
11.441297180532617 64.2023
11.463725406927658 63.7722
11.486136592353875 63.3523
11.508565700543707 63.7461
11.530977768845315 65.3601
11.553407762368774 65.6874
11.575838200059769 65.1133
11.598251599479612 63.8108
11.620682927815501 62.9049
11.64309721895548 62.7058
11.665529441478206 62.1314
11.687962112597958 61.6049
11.710377748130886 62.1726
11.732811318753434 61.9396
11.755227854859067 61.8444
11.777662328529495 61.7436
11.800079768750786 61.6498
11.822515149015453 61.3836
11.844950984084935 61.6709
11.867369787303163 61.4629
11.889806534289491 61.3424
11.912226250487029 61.3982
11.934663912939751 61.589
11.9571020346363 61.6926
11.979523127133968 61.7884
12.001962169624331 62.6818
12.024384183972964 63.7201
12.046824150809913 66.5727
12.069264581333726 71.1006
12.091687985297767 76.7787
12.11412934550045 85.0166
12.136553680195208 101.04899999999999
12.158995973632788 126.64299999999999
12.181438735204349 156.281
12.20386447284199 191.725
12.226308172985636 216.894
12.24873485024193 196.245
12.271179492516982 153.873
12.293607112949127 114.199
12.316052700916226 86.2973
12.338498763250042 72.6608
12.360927805303868 66.6448
12.383374818673879 64.3557
12.405804812803074 63.0614
12.428252780773262 63.3905
12.45070122756722 63.1016
12.473132656675375 63.0996
12.49558206341869 63.4037
12.518014453510101 63.3751
12.540464823770117 63.1615
12.562915677315177 63.4377
12.58534951575545 64.2725
12.607801338171472 65.4971
12.630236146511358 69.2131
12.652688941369085 72.5164
12.675124723177234 72.5564
12.697578494048786 70.3136
12.720032754458185 67.51
12.742470003354093 66.579
12.764925245138771 66.6802
12.787363476431278 66.9112
12.809819703166806 67.4076
12.83227642391173 67.8883
12.854716135692716 68.5651
12.877173846755147 69.5879
12.899614549869717 69.9709
12.9220732548287 70.5201
12.94453245827299 71.1609
12.966974655289818 72.0656
12.989434858002571 72.7499
13.011878055298721 73.8507
13.034339260862497 74.7292
13.056800969391883 75.9514
13.079245674017244 78.1931
13.101708390774869 80.8312
13.12415410463411 87.8588
13.146617833206086 98.5937
13.169064559883248 108.79799999999999
13.191529303857127 122.741
13.213994557076367 144.343
13.236442809902437 182.308
13.258909083908291 242.577
13.28135835851934 314.531
13.30382565690295 392.036
13.326293469022952 439.399
13.348744283242008 425.30400000000003
13.371213125129904 332.952
13.39366497011003 231.252
13.416134845360597 152.21200000000002
13.438605238843131 113.456
13.46105863690397 101.663
13.483530069144786 103.01100000000001
13.505984506951902 108.042
13.528456981549432 117.132
13.550929978879088 131.124
13.573385983253365 155.334
13.595860028340867 196.995
13.618317081455832 257.275
13.64079217790333 324.12
13.663250283359057 374.936
13.685726434770173 385.783
13.708203115221277 333.491
13.730662806148091 242.342
13.75314054697177 167.187
13.775601299246777 115.955
13.798080104050406 91.5062
13.820559442405358 82.6984
13.843021793671388 79.8092
13.865502201420897 78.21300000000001
13.887965623051947 77.6592
13.910447103807167 76.7555
13.932929122629764 75.4826
13.955394156785959 75.2393
13.977877254034569 74.6354
14.000343367582113 73.7553
14.022827546871707 72.9682
14.045294743423524 72.3008
14.06778000837062 71.5918
14.090265817715476 71.6487
14.112734645763819 71.4014
14.13522154619454 70.8089
14.157691466286913 70.8169
14.180179461423874 70.9294
14.202668005486178 69.9659
14.22513957064374 69.4896
14.247629214846473 69.1337
14.270101881097517 68.7604
14.29259262906496 68.957
14.315083930490205 69.4557
14.337558255389705 69.6047
14.360050666019726 69.4123
14.382526101071944 68.6331
14.405019624534942 68.0383
14.427513705993134 67.8955
14.449990813291825 67.6974
14.47248601302899 67.6567
14.49496423954951 67.8722
14.517460561197822 67.8155
14.539939910570322 67.3059
14.562437357763558 67.6764
14.58493536931253 68.6733
14.607416409993311 69.3278
14.62991555254159 69.7001
14.652397725157423 69.7998
14.674898002342799 69.6654
14.697398848433282 69.2056
14.719882725991326 69.8995
14.74238471217934 71.1373
14.764869730765593 74.4645
14.787372860692983 77.734
14.809876564079925 81.3931
14.83236330125751 86.9573
14.854868153850365 95.3535
14.877356041159485 109.40299999999999
14.899862046604186 129.17700000000002
14.922351087688757 157.619
14.944858249632887 189.17
14.967365991421232 218.56900000000002
14.989856770231246 229.706
15.012365673994204 214.75099999999998
15.03485761569738 178.429
15.05736768508665 136.92600000000002
15.07987833888692 103.54299999999999
15.102372032001655 83.7804
15.124883856909658 73.6491
15.14737872204565 70.2644
15.169891721717274 69.0835
15.192405310371893 68.9216
15.214901940621196 68.9063
15.237416709527137 69.0996
15.259914520936249 69.051
15.282430473753607 68.1431
15.304947020131227 66.911
15.327446610371178 66.4184
15.349964346154254 65.9317
15.372465126703139 65.4432
15.394984055556009 65.2438
15.417486030076159 65.317
15.44000615566487 64.8176
15.462526881230803 64.8838
15.485030653812652 65.0292
15.507552581617434 64.7388
15.530057557334603 64.8318
15.55258069104857 64.9405
15.575104429329837 64.9885
15.597611216864632 64.723
15.620136166564563 65.2237
15.6426441664095 66.0664
15.665170331202765 68.2575
15.687697105158826 71.0976
15.710206930593545 74.1805
15.732734925158933 78.0252
15.755245972089478 83.9549
15.77777519094324 93.2273
15.800287463046663 107.089
15.822817909869592 127.77799999999999
15.84534897229804 151.44799999999998
15.867863089299354 176.265
15.890395385222186 192.99599999999998
15.912910736597423 194.113
15.935444269699861 176.928
15.957978423016485 146.631
15.980495633101265 113.75
16.003031029129367 89.0074
16.02554948280019 72.1514
16.048086125229432 65.0571
16.070623392487107 63.0715
16.09314371869582 62.4046
16.11568223789321 61.6564
16.13820381691126 60.8466
16.160743591742527 59.9953
16.183283996022084 59.2464
16.205807461423195 58.2867
16.228349126881973 57.6943
16.25087385432698 57.6655
16.27341678466365 57.1176
16.29594277784926 57.1617
16.31848697676433 57.1766
16.341031811604868 57.17100000000001
16.36355971058487 57.4548
16.3861058195587 57.0968
16.40863499352978 56.1693
16.431182380342005 55.6326
16.453730407713202 54.9784
16.476261501364792 54.6031
16.498810812136167 54.4833
16.52134319004079 54.3656
16.54389378792203 54.3483
16.566445031001553 54.1488
16.588979342490088 54.1844
16.61153187824822 54.1256
16.634067483263312 53.9093
16.656621315414416 53.7289
16.679175797408888 53.3589
16.701713349928728 53.6001
16.72426913389191 53.8879
16.74680798922351 53.7775
16.76936507887444 53.6982
16.791905240734874 53.8046
16.814463639794468 53.6838
16.837022695210294 53.7564
16.859564824093756 53.9656
16.882125194503903 54.5997
16.904668639217885 55.1663
16.927230328348003 55.00899999999999
16.949792678493612 55.3302
16.972338104193863 54.6405
16.994901778652235 54.2774
17.017448529496576 54.6072
17.040013531998152 54.9
17.06257920018044 55.3192
17.0851279459922 55.9881
17.107694947817667 56.5824
17.130245028099072 57.4094
17.15281336730298 58.6648
17.17536478578733 60.5373
17.19793446610687 62.9241
17.220504818648422 65.837
17.243058251703697 69.4163
17.265629950971032 74.439
17.288184731571736 79.3555
17.310757781306908 83.4345
17.33333150794385 82.4151
17.355888317140174 80.3569
17.37846339986244 74.0028
17.401021565958885 67.9027
17.42359800851343 63.0706
17.44617513265564 59.8578
17.468735341390783 58.3906
17.491261035594565 57.8581
17.51396340099364 57.9054
17.536490463869136 58.0855
17.559018209820174 58.0042
17.58154663977963 58.1445
17.604251766089718 58.2417
17.626781572227713 58.5894
17.64931206518155 58.8287
17.671843245885103 59.1076
17.69455114821572 59.3693
17.717083712612634 59.7791
17.739616967569667 59.9495
17.762150914021706 60.2713
17.78486160749854 60.3409
17.807396945166804 61.1929
17.829932977143503 62.1332
17.85246970436452 63.4126
17.875183204129467 65.1048
17.897721330097664 66.9294
17.920260154126645 69.0132
17.942799677153296 72.0558
17.9655159983646 75.6399
17.988056927677544 81.1628
18.010598558807683 89.3296
18.033140892692916 100.134
18.05586005052525 112.639
18.07840379824407 124.757
18.10094825154059 133.74200000000002
18.12366954819864 139.55
18.146215420998306 136.181
18.16876200220057 124.902
18.191309292745153 109.995
18.214033452627167 96.2002
18.236582170236648 86.5886
18.259131600016456 83.2423
18.281681742907335 84.9864
18.304408781233683 90.5455
18.32696035875955 96.5824
18.349512652227624 102.456
18.372065662579683 106.037
18.394795594587553 105.816
18.41735004715306 100.245
18.43990521943684 91.4613
18.46246111238171 81.7512
18.485193953325208 73.1272
18.507751296070428 66.9182
18.530309362314178 63.843
18.552868153000343 62.0071
18.57560391815056 60.7931
18.59816416623245 60.5652
18.620725141597372 59.948
18.643286845190268 59.4951
18.666025549835414 59.2043
18.688588718427933 58.6065
18.711152618092243 58.448
18.73389353884365 58.2631
18.75645890921984 57.8771
18.77902501351406 57.5543
18.801591852673102 57.696999999999996
18.824335739722738 57.1646
18.846904057212626 56.8647
18.8694731124168 56.6219
18.89204290628315 56.8646
18.914789774966803 56.4458
18.937361054791623 56.0511
18.959933076131318 55.9919
18.982505839934877 55.9704
19.00525570560582 56.0144
19.027829963004184 55.8986
19.05040496572238 55.8402
19.072980714710468 55.9682
19.095733592739563 56.1597
19.11831084296757 56.2193
19.140888842324735 56.4704
19.16346759176222 56.8099
19.18622349753803 57.4651
19.208803755869358 58.39
19.231384767143577 59.5741
19.253966532312948 61.1122
19.276725481241822 63.333999999999996
19.29930876296784 65.9964
19.3218928014549 69.3975
19.34465404436217 72.2931
19.36723960516257 74.3677
19.389825925592426 75.1025
19.412413006605938 73.3275
19.43517731967805 69.0629
19.457765930683355 64.67399999999999
19.48035530514408 60.5277
19.50294544401556 57.1113
19.525712842708348 54.8977
19.54830451925909 53.8546
19.570896963095727 53.0158
19.593490175174704 52.9443
19.616260674962184 53.0374
19.638855432416964 52.6126
19.661450960992624 52.7045
19.68404726164677 52.5634
19.706820878021247 52.4367
19.729418731756834 52.5523
19.752017360452857 52.3445
19.77461676506804 52.2899
19.797393513540218 52.4385
19.819994478951667 52.7555
19.84259622316767 53.3158
19.8651987471481 53.9046
19.887978643247177 54.0816
19.91058273574792 54.4278
19.933187610901943 55.2103
19.955969879466828 56.4251
19.97857632894404 57.8766
20.00118356396599 59.736999999999995
20.023791585494575 61.9302
20.046577028914875 65.0884
20.069186632506966 67.178
20.091797025500632 69.1654
20.114408208858933 69.4017
20.137196842715273 68.2721
20.159809615886765 66.2558
20.18242318232135 63.2887
20.20503754298326 61.3961
20.227829382875154 60.9725
20.250445341109344 61.3455
20.27306209647285 62.2957
20.29567964993108 63.7468
20.31847471147704 64.8443
20.34109387027612 65.2756
20.363713830075454 64.3849
20.386334591841646 62.5582
20.409132890679302 59.427
20.431755265564437 56.2639
20.454378445325528 53.5964
20.477002430930366 51.9069
20.499803982716553 50.8387
20.522429589228004 50.1027
20.54505600449589 50.0133
20.567683229489194 49.896
20.590488049900088 49.3542
20.61311690359731 49.3184
20.63574656993626 49.2202
20.658553853717297 48.7003
20.681185154618298 48.6836
20.703817271080066 48.47
20.72645020407368 48.3283
20.749260783967177 48.3008
20.771895359337133 48.1259
20.794530754161617 47.998999999999995
20.817166969412938 47.9237
20.83998086114876 47.9304
20.86261872660049 47.8116
20.885257415405402 47.9003
20.90789692853701 47.8412
20.930714147864748 47.7378
20.953355319030678 47.8094
20.97599731745334 47.864
20.99864014410749 47.708
21.021460706796564 47.7616
21.044105199328826 47.9808
21.06675052302631 48.1186
21.089396678865015 48.1569
21.112220600704806 48.5822
21.134868430275347 48.8314
21.15751709492456 49.1298
21.180166595629693 49.6232
21.202993892429635 50.0964
21.22564507473034 50.4964
21.24829709602816 50.608000000000004
21.27112693608965 50.7796
21.293780644891275 50.2496
21.316435195634053 49.6564
21.339090589297417 48.9472
21.361923832041875 48.4387
21.384580921090404 47.928000000000004
21.407238856007325 47.5121
21.429897637773326 47.6054
21.45273429906592 47.5177
21.475394784108598 47.4698
21.498056118951983 47.3924
21.520718304578022 47.6102
21.543558400304388 47.891999999999996
21.566222297108816 48.1229
21.58888704765135 48.1611
21.61155265291521 48.3503
21.63439619898156 48.9437
21.657063523335786 49.1298
21.67973170537063 49.3978
21.7024007460706 50.0452
21.72524775840385 50.7209
21.747918526116475 51.8469
21.770590155457388 53.1677
21.79326264741238 54.8255
21.816113141960237 56.803999999999995
21.838787368860547 58.8573
21.861462461341976 61.1022
21.884315579735777 62.8258
21.90699241312273 63.9014
21.92967011506078 63.9814
21.95234868653799 63.1497
21.9752053151131 61.1961
21.997885635446785 59.2679
22.020566828293532 57.4539
22.04324889464272 56.215
22.066109049404666 55.4436
22.088792872571794 55.278
22.111477572219204 55.5434
22.1341631493376 55.5553
22.157026846313123 54.8834
22.179714188221507 53.8841
22.202402410582668 52.7945
22.22509151438863 51.2737
22.24795876962584 49.8534
22.270649646204486 49.2178
22.293341407213727 48.6684
22.316034053646906 48.138999999999996
22.338904883215342 47.9577
22.36159931041458 48.231
22.38429462602756 48.147
22.40699083104897 47.9054
22.429865251039757 47.7855
22.452563244831367 48.0
22.47526213102522 47.9149
22.49813925616515 47.70399999999999
22.520839937143307 47.6998
22.543541513520587 47.7895
22.56624398629403 47.7194
22.589124730075895 47.5934
22.611829005656723 47.9141
22.63453418063466 47.791000000000004
22.657240256008077 47.9209
22.680124634582935 48.0673
22.70283252079775 48.4453
22.725541310413075 48.6354
22.74825100442868 48.7214
22.771139033969575 49.1418
22.79385054687155 49.5587
22.81656296718292 50.1212
22.83927629590484 51.1226
22.862167992606945 52.2765
22.88488314827121 53.4886
22.907599215359284 54.6913
22.93031619487366 55.753
22.953211574954405 56.8187
22.975930389478226 57.4465
22.998650119445763 57.4595
23.02137076586092 56.2727
23.044269845560063 54.5697
23.06699233506288 52.8207
23.089715744034912 51.0069
23.112617610931565 49.6956
23.135342869061212 48.6821
23.158069049684816 48.2301
23.1807961538087 47.8013
23.20370174880544 47.8779
23.226430710184808 47.9692
23.249160598093425 47.923
23.271891413539002 47.8719
23.294800752937697 47.9441
23.31753343374794 48.2255
23.340267045128353 48.1289
23.36300158808808 48.4588
23.38591468821339 48.8629
23.408651104658304 49.446999999999996
23.431388455719986 49.9149
23.454126742409 50.8455
23.4770436196085 51.9902
23.499783787914662 53.4514
23.522524894889884 54.5677
23.54526694154616 55.9062
23.56818761219047 56.7719
23.59093154860734 57.2785
23.613676427751283 57.1971
23.636422250635754 55.9025
23.659346731118656 54.0437
23.68209445191868 52.1013
23.704843119509587 50.0422
23.72759273490623 48.2033
23.750521041644767 47.122
23.77327256312355 46.1516
23.796025035462787 45.7344
23.818956224555475 45.3387
23.841710609113413 45.1538
23.86446594758979 44.8834
23.887222241002014 44.6501
23.910157285144578 44.483999999999995
23.932915498962537 44.3466
23.955674670778713 44.3378
23.978434801611975 44.0673
24.001373717286125 43.9032
24.024135776723917 43.832
24.046898798245582 43.7042
24.06966278287146 43.6769
24.092605586582614 43.568999999999996
24.115371508023642 43.3025
24.1381383956401 43.1396
24.16090625045381 43.2048
24.183852958731244 43.0624
24.206622758582608 43.0215
24.229393528706886 42.957
24.252165270127392 42.9084
24.27511589952438 42.9237
24.297889594216997 42.7094
24.32066426328598 42.5085
24.34343990775613 42.5772
24.36639447485003 42.4951
24.38917208083877 42.3747
24.41195066531332 42.3158
24.43490819850244 42.5533
24.457688750692377 42.3404
24.48047028445616 42.2239
24.503252800821233 42.3867
24.526214300784112 42.3553
24.548998793132213 42.3502
24.57178427117417 42.2807
24.59457073593893 42.2156
24.617536219319863 42.0504
24.64032466834748 42.0908
24.663114107195035 41.9202
24.685904536893013 41.7421
24.708874020360852 41.6607
24.731666442613744 41.6401
24.754459858818787 41.5789
24.777254270007962 41.5068
24.80022777025625 41.4428
24.82302418230472 41.4311
24.845821592443674 41.5083
24.86862000170663 41.4209
24.891597535453727 41.3949
24.914397953892728 41.5497
24.93719937456671 41.5381
24.96000179851076 41.7179
24.98298338249997 41.792
25.00578782394922 42.0041
25.028593271784167 42.1893
25.05157790644186 42.4855
25.07438537804115 42.7246
25.097193859145293 42.9115
25.120003350792075 43.0329
25.142992065061257 43.4626
25.165803588823465 43.7748
25.18861612625217 43.9434
25.211429678386736 43.9295
25.234422489079968 43.9193
25.257238081693636 43.9627
25.280054692141732 44.1323
25.3028723214652 44.1996
25.325869245420463 44.3154
25.348688923599397 44.2789
25.371509623787006 44.178999999999995
25.394331347025812 43.8537
25.41733240110666 43.1283
25.440156181590016 42.485
25.46298098826268 42.0027
25.48580682216873 41.3832
25.50881202326435 40.9582
25.53163992281684 40.562
25.55446885274561 40.4703
25.577298814096377 40.12
25.600308179121807 40.2026
25.623140214533745 40.2361
25.64597328451537 40.0162
25.66898578564376 39.7258
25.691820936010206 39.8085
25.714657124097695 39.891999999999996
25.737494350954734 39.7807
25.760511045684957 39.8009
25.783350361364224 39.802
25.806190718969255 39.7642
25.82903211955018 39.8621
25.852053024868923 39.9357
25.874896522722523 39.9244
25.897741066713106 39.9467
25.920586657892454 40.0046
25.943611790812668 40.0959
25.966459487728237 40.2216
25.989308234998564 40.2506
26.01215803367705 40.6306
26.03518741123814 40.7954
26.05803932412957 41.0109
26.080892291600094 40.9466
26.10374631470478 41.008
26.12677995397268 41.09
26.14963609978026 40.9966
26.172493304397875 40.6714
26.19535156888223 40.4328
26.218389486949604 39.9632
26.241249882640123 39.7627
26.26411134137826 39.5068
26.28715248187403 39.5487
26.31001607820869 39.3404
26.3328807407756 39.1738
26.35574647063438 39.425
26.37879191991473 39.4453
26.401659795896734 39.5123
26.424528742360263 39.5355
26.447398760366614 39.6586
26.470448535598294 39.7479
26.49332070826805 39.9127
26.516193955675355 40.4247
26.53906827888316 40.5676
26.562122397260108 40.7398
26.584998883685063 41.1881
26.607876449110325 41.4314
26.63075509460056 41.5027
26.65381357334404 41.6029
26.67669439061878 41.628
26.699576291163382 41.4581
26.722459276044212 41.2473
26.745522132402975 40.8418
26.768407297649354 40.6823
26.791293550442003 40.3703
26.814180891848974 40.0101
26.837248143099337 39.7889
26.860137673466657 39.7626
26.88302829566349 39.4466
26.90592001075963 39.2083
26.92899167420566 39.0436
26.951885586870763 38.8047
26.974780595655517 38.5609
26.99785558178161 38.3741
27.020752794605112 38.3478
27.043651106772522 38.2466
27.06655051935668 38.3032
27.089629948036183 38.1302
27.112531573292053 38.0505
27.135434302194138 38.1026
27.158338135817015 37.9178
27.181422024430987 37.9952
27.204328079372566 37.7885
27.22723524226965 37.8719
27.250143514198573 37.9912
27.273231880156334 37.9869
27.296142382065014 37.7288
27.319053996245536 37.654
27.341966723775965 37.7213
27.365059584515222 37.7858
27.38797455070062 37.8441
27.410890633481237 37.7758
27.433807833936918 37.6293
27.456905206923906 37.8652
27.47982465472398 37.9084
27.502745223449743 38.0141
27.525666914182825 38.1095
27.548768816912457 37.9604
27.571692763693633 37.8238
27.59461783573812 37.7139
27.617723149491244 37.5397
27.640650484125285 37.4776
27.66357894728264 37.4193
27.686508540048052 37.4277
27.709618414237887 37.3164
27.732550278321757 37.1723
27.755483275279115 37.2003
27.778417406196485 37.3001
27.801531858397514 37.2395
27.824468269376716 37.198
27.847405817586786 37.2207
27.870344504116094 37.292
27.893463551932008 37.4365
27.916404527281053 37.701
27.93934664422563 37.8365
27.962289903855886 37.8107
27.98541356491974 38.143
28.00835912214229 38.1293
28.03130582533231 38.3375
28.054253675581805 38.595
28.077381967556104 38.4717
28.100332124185126 38.3006
28.123283431160893 38.2272
28.146235889577238 38.1455
28.169368830154156 38.038000000000004
28.192323603752033 37.8104
28.215279532083304 37.5024
28.238415973016764 37.361999999999995
28.261374223145094 37.1166
28.284333631303806 37.0133
28.307294198589954 36.784
28.330435319167677 36.5288
28.353398217078915 36.1035
28.376362277420153 35.9661
28.39932750129032 35.8739
28.422473319286713 35.7545
28.44544088262495 35.7723
28.468409612800283 35.6282
28.491379510913497 35.4067
28.51453004413313 35.3242
28.53750229057244 35.2569
28.56047570826344 35.2296
28.583450298308804 35.2822
28.606605564586562 35.0412
28.629582511831156 35.1923
28.65256063474956 35.0868
28.675539934446338 34.9209
28.698699951647605 34.9714
28.72168161743193 34.8423
28.74466446331978 34.874
28.767648490417624 34.7955
28.790813276438353 34.7756
28.813799678527303 34.7745
28.836787265157085 34.8752
28.859955641890075 34.9051
28.882945610203045 34.835
28.905936766392035 34.7985
28.928929111566863 34.7512
28.952102288520145 34.6983
28.975097024308607 34.5139
28.998092952423807 34.3506
29.021090073977508 34.1711
29.04426806913204 34.2481
29.067267590245258 34.1152
29.090268308143695 33.9544
29.11327022394099 33.9362
29.13645305530891 33.7437
29.159457379627167 33.8283
29.18246290519685 33.749
29.20546963313352 33.6337
29.22865731875826 33.785
29.25166646419296 33.8063
29.27467681535305 33.6977
29.29768837335608 33.7374
29.320880931312562 33.7709
29.34389491580634 33.7831
29.366910110507334 33.6902
29.38992651653503 33.7062
29.41312396492981 33.5444
29.436142806456754 33.4732
29.45916286268059 33.4307
29.48236399319994 33.2942
29.50538649169417 33.1803
29.528410208259935 33.1033
29.55143514402014 32.8306
29.574641196749695 32.894
29.597668583816574 32.7234
29.6206971934585 32.5073
29.64372702680042 32.5692
29.666938019934474 32.4516
29.689970313635285 32.3938
29.713003834422636 32.4265
29.73603858342347 32.3879
29.759254535188578 32.2821
29.78229175361658 32.2753
29.80533020365064 32.2762
29.82836988641968 32.2889
29.85159081507472 32.1942
29.874632976355343 32.1652
29.89767637376955 32.1488
29.920721008448314 32.0061
29.9439469322847 32.0799
29.96699405457564 31.9396
29.9900424175358 31.8963
30.013092022298157 31.9083
30.03632295963995 31.7839
30.059375061131373 31.8978
30.08242840783577 31.9777
30.105483000888153 31.9344
30.128718970092244 31.9053
30.151776069006917 31.916
30.17483441768648 32.0112
30.198074175317235 31.8455
30.221135036724256 31.9224
30.24419715131772 31.6752
30.267260520236203 31.7708
30.290505341942243 31.83
30.313571232750228 31.7463
30.336638381310948 31.6985
30.35970678876503 31.6409
30.38295669299435 31.6442
30.40602763151657 31.6364
30.429099832366074 31.5673
30.452173296685572 31.5266
30.47542830191959 31.464000000000002
30.498504306502497 31.5628
30.521581577995562 31.6665
30.544660117543582 31.6891
30.56792024229725 31.6321
30.59100133132069 31.6222
30.614083691845494 31.6432
30.637167325018545 31.7037
30.660432587840603 31.7036
30.683518779717886 31.6978
30.70660624769615 31.7596
30.729694992924372 31.6798
30.75296541239743 31.6503
30.77605672557558 31.5493
30.799149319462742 31.5554
30.8224236211637 31.5037
30.845518789950724 31.3402
30.868615242910597 31.2253
30.891712981195973 31.0953
30.91499247215866 31.0232
30.938092794619365 31.0283
30.96119440587579 30.8987
30.984297307082752 30.8022
31.00758200598383 30.6827
31.030687500658694 30.686999999999998
31.053794288760695 30.6435
31.076902371446767 30.5819
31.100192296997445 30.4957
31.12330298246119 30.3992
31.14641496599209 30.4167
31.169528248749216 30.3275
31.19282341969534 30.4006
31.215939314557186 30.4708
31.239056512134788 30.4433
31.262175013589378 30.3687
31.28547544871168 30.3263
31.30859657161541 30.2465
31.331719001892175 30.2288
31.35484274070538 30.410999999999998
31.378148458819545 30.4244
31.401274828443725 30.4497
31.424402510106933 30.3907
31.447712205419993 30.421
31.470842524931633 30.2373
31.493974159989783 30.2616
31.51710711176168 30.2044
31.54042212308802 30.1658
31.563557722100917 30.0992
31.586694641341655 29.9974
31.609832881979628 29.9774
31.63315322823208 29.9713
31.656294125521327 29.7484
31.679436347728515 29.7255
31.70257989602529 29.675
31.725905596152327 29.6363
31.74905181052835 29.5946
31.772199354521323 29.6419
31.79534822930507 29.6263
31.818679302290967 29.647
31.84183085259981 29.5784
31.864983737233473 29.6554
31.88813795736804 29.6782
31.911474422233013 29.5748
31.934631327356435 29.6531
31.9577895715215 29.555999999999997
31.980949155906522 29.5894
32.004291031706956 29.5725
32.027453310562606 29.3509
32.05061693318573 29.3244
32.07396288236386 29.3114
32.09712920658542 29.2139
32.12029687812702 29.1004
32.14346589817093 29.0421
32.166817291729984 28.9824
32.18998902288583 28.9263
32.21316210610336 28.824
32.23633654256711 28.7667
32.259693399663725 28.7873
32.282870556771144 28.7291
32.30604907069099 28.7023
32.329228942610065 28.6192
32.35259128243769 28.3922
32.375773884550505 28.4412
32.398957848235646 28.4132
32.422143174682176 28.2803
32.445511016471215 28.2953
32.468699082679954 28.2878
32.49188851523011 28.2154
32.51507931531304 28.0881
32.538452678331 28.1235
32.56164622776311 28.0499
32.58484114831493 28.0036
32.60803744118015 28.0501
32.631416344731896 27.973000000000003
32.654615396551876 27.8658
32.67781582427913 27.9113
32.701198898634416 27.781
32.72440209253756 27.7305
32.747606665947124 27.7749
32.77081262006088 27.6386
32.79420126883317 27.7337
32.81740999876112 27.6662
32.840620112999424 27.6255
32.86383161274818 27.6072
32.88722585534586 27.5816
32.91044014056596 27.5797
32.933655814909734 27.4922
32.95687287957963 27.5077
32.98027273544904 27.478
33.00349259526636 27.3584
33.026713849030116 27.3854
33.04993649794511 27.3807
33.073341986570746 27.3192
33.09656744032826 27.279
33.11979429286444 27.3011
33.14302254538647 27.272
33.166433686291185 27.2054
33.18966475336992 27.2165
33.212897224069096 27.0661
33.23613109959831 27.0385
33.259547912343415 27.1143
33.2827846121627 27.1425
33.306022720453775 27.0099
33.32926223842861 26.801
33.352684742614166 26.8258
33.37592709463173 26.9177
33.399170859982064 26.7939
33.422597648419426 26.7134
33.44584425514446 26.6084
33.46909227885668 26.6152
33.4923417207723 26.5475
33.51577423505344 26.5842
33.539026528130385 26.4782
33.56228024307245 26.4312
33.585535381098246 26.3503
33.60897364093058 26.2815
33.63223163992385 26.2735
33.6554910656699 26.1928
33.678751919389796 26.2986
33.702195944520106 26.1588
33.72545966903325 26.0315
33.74872482519663 26.0195
33.771991414233746 26.0189
33.79544122444841 26.0261
33.81871069412428 25.8929
33.84198160035767 25.8792
33.86525394437455 25.8988
33.88870955949969 25.8786
33.911984794020626 25.8617
33.93526147001624 25.7811
33.958539588715006 25.7499
33.98200102861669 25.7493
34.0052820477047 25.5611
34.02856451319451 25.535
34.05203033759056 25.4994
34.07531571090147 25.564
34.09860253431845 25.4446
34.121890809074316 25.3912
34.145362493118924 25.4557
34.16865368561615 25.3822
34.191946333164054 25.3599
34.21524043699793 25.3037
34.23871800066799 25.2879
34.26201503218366 25.2368
34.28531352370466 25.186
34.30861347646881 25.1886
34.33209693978188 25.0768
34.3553998301885 25.0982
34.378704185565205 25.0395
34.402010007152356 24.9775
34.42549939016683 24.9443
34.44880815937748 24.8101
34.472118398533134 24.7599
34.49543010887669 24.7491
34.51892543169198 24.7205
34.54224009966052 24.7194
34.56555624255917 24.7244
34.58887386163339 24.5874
34.61237514439016 24.5555
34.6356957311114 24.4987
34.65901779775809 24.5615
34.68252356662995 24.4909
34.705848608458616 24.4828
34.72917513396849 24.4137
34.75250314440949 24.3966
34.77601490857862 24.3115
34.799345904259795 24.2294
34.82267838863559 24.1836
34.846012362958525 24.2127
34.869530142679984 24.1224
34.89286711232212 24.0451
34.91620557568269 24.1083
34.93954553401677 24.1462
34.9630693495876 24.0479
34.986412313340814 24.0732
35.00975677584668 23.9912
35.033102738362956 24.0005
35.05663261012228 23.933000000000003
35.0799815881786 23.9145
35.10333207003229 23.9511
35.12668405694369 23.9001
35.150220005273056 23.8242
35.17357501786656 23.8362
35.19693153931268 23.8148
35.220289570874385 23.761
35.24383161619786 23.6997
35.267192683604904 23.6627
35.290555264930376 23.7519
35.314101899412165 23.709
35.33746752422433 23.6526
35.36083466676374 23.5997
35.38420332829803 23.5413
35.407756095629054 23.6817
35.43112781085063 23.6096
35.45450104888391 23.5813
35.477875810999194 23.5588
35.50143473172161 23.4539
35.52481255774625 23.4598
35.54819191167777 23.3604
35.57157279478914 23.322
35.595137889488406 23.3664
35.61852184675279 23.3338
35.641907337029984 23.3514
35.665294361595684 23.2528
35.68886565090076 23.1265
35.7122557598848 23.1065
35.73564740699838 23.0573
35.759040593519934 23.143
35.78261809810353 23.1111
35.80601437933051 22.9129
35.829412203814705 22.9088
35.85281157283719 22.8784
35.876395313415884 22.8717
35.8997977874528 22.7572
35.92320180988546 22.7914
35.946790244133936 22.7367
35.97019737933222 22.7493
35.993606066789866 22.6716
36.01701630779276 22.663
36.04061101440684 22.6228
36.06402437852291 22.6358
36.08743930005611 22.5587
36.1108557802951 22.4235
36.13445678011326 22.4936
36.15787639383515 22.4651
36.18129757014299 22.4544
36.20472031032821 22.3677
36.22832762423364 22.3068
36.25175350829375 22.3513
36.275180960119776 22.2914
36.298609981005924 22.2838
36.32222362992669 22.2988
36.34565580510207 22.2068
36.36908955323448 22.1133
36.39252487562093 22.0821
36.416144880530226 22.0369
36.43958336764275 22.087
36.463023432914625 21.9726
36.486465077645676 21.9139
36.51009145956204 22.0658
36.53353627947859 22.0703
36.55698268276811 22.0285
36.58043067073321 21.8691
36.60406345072071 21.7929
36.62751462435344 21.799
36.65096738658405 21.7823
36.67460498210655 21.7314
36.69806093788647 21.7271
36.72151848619297 21.6425
36.744977628333636 21.6734
36.76862165890998 21.5414
36.79208400512205 21.6341
36.81554794910557 21.6054
36.83901349217101 21.486
36.862663978991606 21.4747
36.88613273667352 21.4091
36.90960309738324 21.42
36.933075062434064 21.3496
36.95673202673572 21.3196
36.98020721697122 21.2508
37.003684015502365 21.2075
37.027162423645365 21.1845
37.050825886711465 21.2101
37.07430753063053 21.1365
37.09779078812467 21.1763
37.121275660513014 21.0449
37.144945643673694 21.0152
37.16843376245278 21.0109
37.19192350009803 21.0549
37.215414857931435 20.9876
37.239091382563885 20.9301
37.262585997426164 20.855
37.28608223645736 20.9193
37.309763684451696 20.8129
37.33326318851098 20.7836
37.356764320726555 20.803
37.380267082425526 20.8149
37.40395510942588 20.7182
37.42746114683234 20.6891
37.45096881771841 20.5838
37.474478123414166 20.6302
37.49817275092816 20.5985
37.52168534303452 20.581999999999997
37.54519957395567 20.4947
37.568715445024665 20.482
37.592416694607714 20.381
37.61593586281424 20.4607
37.63945667518264 20.4724
37.66297913304891 20.3727
37.68668702630454 20.3851
37.710212792059274 20.2775
37.733740207334854 20.2459
37.757269273470364 20.1946
37.780983832050374 20.163
37.80451621684926 20.1328
37.82805025654007 20.1508
37.851585952464795 20.0928
37.8753071980695 20.0273
37.89884622345676 19.9993
37.92238690911902 19.9948
37.94611318753442 19.9912
37.969657210779765 19.9807
37.99320289834801 19.9617
38.016750251586465 19.9169
38.04048325513017 19.8663
38.06403395679343 19.8163
38.087586328183946 19.7823
38.11114037065203 19.7101
38.13488012115898 19.7432
38.1584375229181 19.7123
38.181996599821 19.6136
38.205557353221124 19.608
38.229303872575656 19.5539
38.2528679961576 19.5836
38.27643380031219 19.5708
38.30000128639589 19.4549
38.32375459653193 19.4613
38.34732546371299 19.4757
38.37089801690786 19.444000000000003
38.39447225747609 19.3677
38.418232380377425 19.3251
38.441810012983396 19.2878
38.46538933705673 19.2993
38.488970353960084 19.2628
38.51273731166058 19.1884
38.536321731567014 19.1384
38.55990784840681 19.1548
38.58367995004091 19.0907
38.60726947812959 19.0166
38.63086070726198 19.0945
38.654453638806274 19.1362
38.678232613930824 18.9646
38.70182896773327 18.9124
38.72542702806741 18.8679
38.7490267963045 18.8652
38.77281266709232 18.8873
38.79641586862214 18.811
38.8200207821842 18.7749
38.843627409152944 18.8059
38.86742019782782 18.7169
38.891030269149255 18.7288
38.914642058016156 18.6999
38.938255565806124 18.6116
38.96205529464307 18.5788
38.98567225787121 18.5603
39.00929094417078 18.6816
39.03291135492255 18.5838
39.05671804624804 18.527
39.080341923549106 18.5178
39.103967529460334 18.4891
39.127594865365744 18.4243
39.15140854155791 18.3609
39.17503935514948 18.3829
39.19867190290282 18.4204
39.22249083587951 18.3681
39.24612686969409 18.3446
39.269764641845306 18.3248
39.293404153722804 18.248
39.317230110864074 18.1301
39.34087311998506 18.0635
39.36451787301696 18.1262
39.388164371352595 18.1058
39.41199737518003 18.0425
39.43564738196752 18.0209
39.45929913825317 17.9712
39.48295264543308 17.977
39.506792718520884 17.9077
39.530449745387216 17.8803
39.55410852735203 17.936
39.57776906581474 17.9523
39.60161623079 17.8408
39.625280300200025 17.847
39.64894613032202 17.7764
39.67261372255866 17.8095
39.6964680021016 17.761
39.72013913657293 17.7885
39.74381203738292 17.7068
39.76748670593756 17.6492
39.79134812278169 17.663
39.81502634488497 17.5915
39.83870633896685 17.5545
39.862388106436654 17.5509
39.88625668336918 17.5496
39.90994201572829 17.542
39.933629125719285 17.4266
39.957503091207826 17.4657
39.9811937746168 17.4427
40.00488623990914 17.3811
40.02858048850006 17.3286
40.05246165409549 17.2648
40.076159487492085 17.2525
40.099859108448875 17.1979
40.123560518384345 17.2125
40.1474489070226 17.2421
40.171153913178564 17.1643
40.194860712584955 17.1787
40.2185693066637 17.1217
40.242464941335314 17.0827
40.26617714307655 17.0687
40.289891143772046 17.0807
40.3136069448471 17.0427
40.33750984859743 17.0397
40.3612292688043 17.0418
40.3849504936829 16.9371
40.40867352466194 16.9065
40.43258372059144 16.9403
40.45631038219906 16.8659
40.48003885420956 16.7652
40.503769138055105 16.78
40.52768664931955 16.8037
40.55142057531802 16.8133
40.57515631746428 16.7163
40.599079334038514 16.723
40.62281872700477 16.6358
40.64655994043941 16.6196
40.67030297578061 16.6714
40.69423334835778 16.5959
40.71798004609188 16.5836
40.74172857006355 16.5504
40.76547892171441 16.5077
40.7894166736039 16.5327
40.813170699248566 16.4051
40.83692655691388 16.4248
40.86068424804498 16.454
40.884629402612525 16.3883
40.908390779366385 16.3514
40.932153993938 16.3202
40.95591904777605 16.3177
40.979871628443995 16.2892
41.003640379561936 16.3147
41.02741097430883 16.2624
41.05118341413683 16.166
41.075143444384416 16.2488
41.098919593177826 16.1973
41.1226975914255 16.1606
41.14647744058318 16.1312
41.170444943946755 16.0254
41.19422851378379 16.1227
41.218013938914645 16.0696
41.24198706625173 15.9676
41.26577622087193 15.9549
41.289567235177785 15.9506
41.31336011063129 15.9093
41.337340752422875 15.8246
41.361137369129835 15.8701
41.38493585138705 15.8205
41.40873620066004 15.8334
41.43272438060107 15.815999999999999
41.45652848292052 15.7465
41.48033445666918 15.7401
41.50414230331616 15.6447
41.528138045159764 15.6973
41.551949656675205 15.6233
41.575763145513235 15.6237
41.59957851314666 15.6136
41.62358184070442 15.5733
41.64740098505737 15.5244
41.6712220126409 15.5411
41.69504492493139 15.5321
41.71905586207357 15.4827
41.74288256296395 15.4397
41.766711153007456 15.4262
41.79054163368412 15.3876
41.814560204340054 15.3579
41.838394485526365 15.3263
41.86223066180303 15.2912
41.88625497706819 15.2694
41.910094962812 15.276
41.93393684811168 15.3045
41.95778063445365 15.1697
41.981812625263366 15.1386
42.00566023303407 15.1837
42.029509746323676 15.1234
42.05336116662236 15.1245
42.077400857069705 15.0976
42.10125611078846 15.0665
42.12511327600405 14.9948
42.14897235421036 14.9651
42.173019768448455 15.0004
42.19688269209613 14.9186
42.22074753323349 14.9476
42.24461429335818 14.9221
42.268669455600495 14.8949
42.292540073217886 14.8437
42.31641261433284 14.7921
42.34028708044675 14.8166
42.36435001496739 14.7831
42.38822835065557 14.8294
42.41210861586426 14.7135
42.4359908120986 14.7136
42.46006154323262 14.6677
42.48394762115317 14.6427
42.507835634632315 14.6467
42.531912233047436 14.6009
42.55580413732265 14.5811
42.579697981698 14.5633
42.60359376768525 14.4871
42.62767820545945 14.5252
42.65157789440821 14.4964
42.67547952952185 14.5143
42.699383112316 14.4081
42.72347541395347 14.3986
42.74738291190531 14.375
42.771292362102166 14.3449
42.795203766063516 14.2691
42.819303956130405 14.2914
42.843219287476536 14.2641
42.86713657716324 14.2328
42.89105582671383 14.2451
42.91516392983864 14.2306
42.939087119032166 14.2126
42.963012272677304 14.1917
42.98693939230129 14.1344
43.01105543317513 14.1279
43.034986504731386 14.0958
43.05891954686589 14.0577
43.08285456110972 14.0232
43.10697856448665 14.0038
43.130917542983475 14.0431
43.15485849820081 13.9565
43.17880143167367 13.9429
43.20293342237094 13.9138
43.226880332449 13.8668
43.25082922540554 13.8877
43.27496722682525 13.8955
43.29892010567796 13.8646
43.32287497204102 13.7914
43.34683182745632 13.7296
43.370977859791836 13.767999999999999
43.39493871351105 13.7511
43.41890156092628 13.7277
43.44286640358341 13.6963
43.46702049182749 13.6632
43.49098934522816 13.6401
43.51496019852649 13.6013
43.5389330532723 13.5798
43.56309522248204 13.5602
43.58707210044314 13.5311
43.61105098451946 13.5044
43.63503187626491 13.5568
43.659202151562134 13.4863
43.68318707902681 13.4488
43.70717401884041 13.4602
43.731162972560874 13.3855
43.75534137913236 13.3665
43.779334381108384 13.3289
43.803329401683186 13.3082
43.82732644241872 13.3305
43.8515130055166 13.3309
43.87551410707659 13.2926
43.89951723350145 13.2792
43.923709934595614 13.2637
43.94771713129917 13.2163
43.97172635758096 13.1888
43.99573761501002 13.1753
44.0199385169922 13.1632
44.04395385732619 13.0954
44.067971233533086 13.124
44.09199064718605 13.1037
44.11619977548961 13.0224
44.14022328470671 13.0364
44.16424883610785 13.0032
44.18827643127035 13.0005
44.21249381139513 12.963
44.236525514814076 12.932
44.26055926674478 12.9169
44.28459506876863 12.8505
44.3088207262813 12.8465
44.33286064928722 12.8292
44.35690262714919 12.8076
44.38094666145278 12.7904
44.4051806219871 12.8147
44.42922879003185 12.734000000000002
44.45327901929361 12.7245
44.477331311362136 12.7313
44.501573600619416 12.6922
44.525630039221795 12.6988
44.54968854541895 12.7006
44.573937102200176 12.6096
44.5979997645541 12.565999999999999
44.622064499300315 12.5492
44.64613130803592 12.58
44.67038823869318 12.5556
44.69445921643748 12.5008
44.718532272981385 12.4542
44.742607409926194 12.455
44.76687274034801 12.4486
44.79095205918753 12.3932
44.81503346325094 12.4004
44.839116954143876 12.4002
44.86339071028742 12.3619
44.88747839599524 12.3132
44.91156817336837 12.2877
44.93566004401666 12.2958
44.959942251908146 12.2534
44.984038330325966 12.2195
45.00813650686762 12.1773
45.03223678314731 12.2223
45.05652746888232 12.1695
45.08063196592069 12.1836
45.104738567558705 12.1637
45.128847275414856 12.1567
45.15314646515866 12.0551
45.17725940679741 12.0865
45.20137445952892 12.0555
45.22568004865265 12.026
45.24979934496396 12.0198
45.27392075725247 11.9866
45.29804428714431 11.9689
45.322358426247604 11.9249
45.346486212804315 11.9006
45.370616121861914 11.9039
45.39474815505086 11.8957
45.41907087049246 11.86
45.4432071734666 11.8684
45.46734560548283 11.8347
45.49148616817604 11.8325
45.51581748638564 11.763
45.5399623320197 11.7152
45.56410931325473 11.7263
45.58825843173002 11.7224
45.61259837920865 11.6848
45.636751793816 11.6589
45.66090735060093 11.6585
45.68506505120716 11.6461
45.7094136545275 11.5853
45.73357566449271 11.5455
45.75773982322992 11.5704
45.78190613238733 11.5561
45.806263418194064 11.4776
45.83043404997326 11.5053
45.85460683713677 11.512
45.87897065658495 11.4226
45.90314777634752 11.4212
45.92732705646868 11.4329
45.9515084986045 11.3549
45.97588104735473 11.4045
46.00006683541565 11.3518
46.02425479047904 11.3264
46.04844491420549 11.365
46.0728262191024 11.2576
46.09702070211635 11.2392
46.12121735879483 11.2766
46.14541619080294 11.2719
46.169806278764455 11.2396
46.194009483459034 11.2144
46.21821486849841 11.2154
46.24242243555223 11.174000000000001
46.266821333570014 11.1509
46.29103328674601 11.120999999999999
46.31524742696538 11.116
46.33946375590237 11.0208
46.36387149104216 11.0303
46.38809221957392 11.0313
46.41231514186606 11.0025
46.436540259597464 11.0136
46.460956858999374 10.974
46.48518638983522 10.9624
46.509418121166966 10.9059
46.533652054678114 10.9201
46.55807754555709 10.8762
46.58231590571962 10.884
46.60655647313217 10.8538
46.630988654873654 10.8429
46.655233659129024 10.7894
46.67948087571551 10.8284
46.70373030632484 10.7895
46.72817142736393 10.7837
46.752425308428684 10.7781
46.77668140861147 10.7672
46.80093972960865 10.6682
46.82538981736788 10.6686
46.849652602470904 10.6653
46.87391761349769 10.6655
46.8981848521493 10.6112
46.9226439341274 10.6022
46.946915650573224 10.5601
46.97118959976749 10.5585
46.99546578341598 10.5315
47.019933887188216 10.5106
47.04421456235744 10.4665
47.06849747711879 10.455
47.09278263318286 10.4717
47.11725978640143 10.4575
47.14154944775105 10.4224
47.165841355555656 10.3914
47.1901355115306 10.3684
47.214621741924994 10.3689
47.23892041698887 10.3415
47.26322134538975 10.3309
47.28771440635075 10.3023
47.31201986422527 10.2972
47.33632758061436 10.2784
47.360637557241866 10.2227
47.38513974410611 10.2366
47.40945426407847 10.1785
47.43377104948137 10.1691
47.45809010204344 10.1538
47.48260144275502 10.1676
47.506925052572285 10.1806
47.53125093475548 10.1406
47.55557909103813 10.1081
47.58009961361992 10.049
47.60443234110732 10.0858
47.62876734791564 10.0505
47.65310463578333 10.0533
47.6776343683373 10.035
47.7019762413987 10.0181
47.72632040075572 9.96776
47.75066684815169 9.986989999999999
47.77520581885936 9.93694
47.799556865477655 9.9317
47.823910205386 9.89605
47.84826584033272 9.90952
47.87281407745551 9.857560000000001
47.89717432569297 9.85569
47.92153687423484 9.84932
47.94609208429692 9.80678
47.97045925671401 9.79275
47.99482873471275 9.73382
48.01920052005013 9.77703
48.04376504619224 9.746939999999999
48.068141469543484 9.7654
48.09252020552573 9.73674
48.11690125590099 9.702210000000001
48.1414751266064 9.68372
48.16586082917454 9.64152
48.19024885144316 9.62272
48.2146391951793 9.61763
48.239222439012764 9.65185
48.26361744916137 9.56438
48.28801478610016 9.58537
48.31241445160131 9.55593
48.337007097209366 9.53657
48.36141144338331 9.52642
48.38581812345755 9.50506
48.41022713920929 9.47948
48.434829215320704 9.47889
48.45924292604658 9.44684
48.48365897780325 9.45473
48.50807737237308 9.44085
48.532688907799276 9.417760000000001
48.55711201168574 9.37331
48.581537463754074 9.35411
48.60615611725119 9.37942
48.63058628942721 9.340760000000001
48.65501881516546 9.32275
48.6794536962573 9.28566
48.70408185970339 9.268139999999999
48.72852147531801 9.26525
48.75296345168211 9.22973
48.77740779059232 9.214360000000001
48.80204549302823 9.2177
48.82649458091802 9.24452
48.85094603676547 9.166
48.87539986237231 9.14639
48.90004713292306 9.151480000000001
48.92450572200832 9.12915
48.94896668628025 9.108460000000001
48.97343002754588 9.113489999999999
48.99808689542115 9.04429
49.02255501470614 9.03575
49.04702551642794 9.04583
49.0714984023988 9.035630000000001
49.096164896893235 9.02477
49.120642575466796 8.992230000000001
49.145122643748394 8.97564
49.16960510355558 8.95031
49.19428125404938 8.94175
49.2187685210852 8.93344
49.243258185121555 8.90365
49.26794160167084 8.90293
49.2924360839405 8.87396
49.31693296869764 8.84868
49.34143225776915 8.82513
49.36612538195438 8.79684
49.39062950396021 8.78698
49.41513603578346 8.74414
49.4396449792564 8.75179
49.46434784069503 8.74549
49.488861631846454 8.71931
49.513377840166804 8.69175
49.537896467493745 8.70523
49.56260909589029 8.64274
49.587132585683285 8.65817
49.611658500018365 8.6409
49.636186840738596 8.59522
49.66090926588511 8.611180000000001
49.685442483902584 8.585460000000001
49.70997813385706 8.58336
49.734516217597076 8.567039999999999
49.75924846937352 8.55028
49.7837914452858 8.545539999999999
49.80833686055187 8.52662
49.83288471702571 8.48484
49.85762682540054 8.50648
49.882179588965734 8.43449
49.9067347993235 8.44731
49.93129245833333 8.431519999999999
49.95604445336378 8.43618
49.98060703442832 8.38901
50.005172069746266 8.37914
50.02993150438364 8.392000000000001
50.05450147301533 8.38835
50.07907390151433 8.33324
50.10364879174981 8.30565
50.12841816587289 8.28422
50.1529980044635 8.28402
50.17758031042124 8.27563
50.20216508562089 8.27437
50.22694442953363 8.237680000000001
50.25153416817468 8.22225
50.27612638170508 8.21781
50.300721072005196 8.18178
50.325510416102105 8.19104
50.350110084975064 8.13258
50.37471223628208 8.1427
50.39931687190919 8.1198
50.424116246675766 8.130189999999999
50.44872587605249 8.112630000000001
50.47333799543065 8.0664
50.49795260670191 8.07664
50.52276204271512 8.046
50.54738166295838 8.0595
50.57200378079314 8.029760000000001
50.596628398116835 8.00585
50.62144792604559 7.9667
50.646077567609396 7.97854
50.670709714377715 7.968439999999999
50.69553683636198 7.9234100000000005
50.72017401885922 7.93934
50.7448137122895 7.94274
50.76945591856022 7.895589999999999
50.79429318636823 7.87225
50.818940443716784 7.87564
50.84359021965163 7.82625
50.868242516085964 7.8642
50.893089960641895 7.82795
50.917747323549435 7.79853
50.94240721271973 7.8197600000000005
50.96706963007175 7.7394300000000005
50.99192728239342 7.771489999999999
51.01659478166073 7.7668800000000005
51.04126481489051 7.73762
51.06593738400761 7.7542800000000005
51.090805275207074 7.70153
51.11548294172845 7.658689999999999
51.14016314993547 7.689710000000001
51.164845901758845 7.64009
51.18972406304274 7.64301
51.21441192780656 7.63117
51.23910234200271 7.6126
51.2637953075678 7.590269999999999
51.288683770237945 7.57757
51.31338186432707 7.54827
51.33808251561888 7.54725
51.362978729967345 7.51007
51.387684521509755 7.526619999999999
51.41239287610203 7.54466
51.437103795691165 7.487839999999999
51.46201036644977 7.45414
51.486726441956634 7.44584
51.51144508832545 7.46547
51.536166307509156 7.415
51.56108326624387 7.39554
51.58580965706056 7.390060000000001
51.61053862657523 7.426830000000001
51.635270176746864 7.3541300000000005
51.66019755512065 7.376860000000001
51.68493429268881 7.33781
51.70967361681515 7.331919999999999
51.73441552946465 7.323689999999999
51.759353359237934 7.32045
51.7841004750961 7.31975
51.80885018539685 7.2542800000000005
51.833602492111254 7.256880000000001
51.8585508051424 7.246760000000001
51.883308330926425 7.22
51.90806845906181 7.20357
51.932831191525715 7.153339999999999
51.95779001977161 7.154539999999999
51.98255798721516 7.15453
52.00732856494335 7.142239999999999
52.03229530577543 7.103110000000001
52.057071130455945 7.1068
52.081849571391054 7.11797
52.106630630568695 7.097339999999999
52.13160794279417 7.075810000000001
52.15639426492067 7.041180000000001
52.18118321127822 7.02676
52.205974783860896 7.007060000000001
52.23096269971011 6.99297
52.255759551287994 7.002439999999999
52.280559035098186 6.9695100000000005
52.30536115314103 6.96047
52.33035970494467 6.908060000000001
52.35516711807904 6.93548
52.37997717147198 6.91737
52.40478986713005 6.884539999999999
52.42979908731974 6.84455
52.454617094216 6.84318
52.47943774942214 6.86269
52.50426105495102 6.859960000000001
52.529280976059844 6.84285
52.554109609024096 6.8153
52.57894089837482 6.79241
52.60377484613117 6.81418
52.62880550079408 6.7934
52.65364479223379 6.75811
52.67848674816189 6.75433
52.70352547971946 6.77267
52.72837279155837 6.75485
52.753222773982785 6.68003
52.778075429022984 6.709230000000001
52.80312495150885 6.6944
52.827982978797436 6.65508
52.85284368481815 6.66673
52.87770707160767 6.63842
52.90276741793998 6.63577
52.92763619336701 6.60953
52.952507655698504 6.60544
52.977381806977576 6.61207
53.00245301017842 6.555810000000001
53.02733256653592 6.5651
53.052214817996074 6.542330000000001
53.077099766608484 6.54411
53.102181859804446 6.527080000000001
53.127072229988265 6.5107099999999996
53.15196530349892 6.52274
53.17686108239249 6.4372
53.20195409881522 6.46379
53.22685531582556 6.44816
53.25175924441303 6.42654
53.27666588664027 6.4402800000000004
53.30176985962693 6.39117
53.3266819565689 6.39926
53.35159677336455 6.3724
53.376514312083096 6.39168
53.40162927507703 6.36491
53.42655228516116 6.3611699999999995
53.45147802340193 6.284330000000001
53.47660125628886 6.27681
53.50153247842639 6.25727
53.52646643496923 6.26193
53.55140312799818 6.26559
53.576537409691696 6.268269999999999
53.60147960336152 6.23727
53.626424539786164 6.23376
53.65137222105307 6.23913
53.67651758529126 6.199330000000001
53.70147078399681 6.16919
53.72642673383343 6.20705
53.75138543689533 6.1978800000000005
53.776541917524526 6.1504900000000005
53.801506154876755 6.16554
53.826473151763246 6.11153
53.851442910284916 6.0997699999999995
53.87661054126026 6.0635
53.9015858509782 6.0901
53.92656392866066 6.08124
53.95154477641532 6.0376900000000004
53.976723591801296 6.021
54.00171000771266 6.01494
54.02669920004598 6.02462
54.051691170915745 6.01408
54.076881204886796 5.96927
54.101878760928514 5.966819999999999
54.12687910187696 5.9893
54.152077577768296 5.96318
54.1770835166946 5.89731
54.20209224691339 5.89551
54.22710377055121 5.8796800000000005
54.25231352511594 5.92997
54.27733066384342 5.84615
54.30235060239643 5.84215
54.32737334290836 5.82524
54.35259441062629 5.81009
54.377622783395324 5.75145
54.40265396455061 5.801419999999999
54.42768795623251 5.81493
54.45292037169559 5.7660599999999995
54.477960012857906 5.75141
54.50300247099511 5.70932
54.52804774825457 5.76605
54.55329154616743 5.6991
54.57834249018678 5.66639
54.6033962597977 5.5911800000000005
54.6284528571545 5.62055
54.653708072335164 5.58188
54.67877035378786 5.59406
54.70383546947698 5.5818
54.72890342156389 5.5326900000000006
54.7541700889442 5.51374
54.77924374251975 5.506469999999999
54.8043202390049 5.51588
54.82959552413022 5.43469
54.8546777351945 5.45979
54.87976279569621 5.3685
54.90485070780914 5.40377
54.930137506558005 5.38391
54.95523115074295 5.40142
54.98032765308844 5.34837
55.005427015775496 5.32174
55.03072536339621 5.36495
55.05583047570572 5.31051
55.080938454927676 5.28334
55.10604930325027 5.25358
55.131359235107396 5.2735
55.15647585066083 5.21517
55.181595341907496 5.19168
55.20671771104285 5.15182
55.232039262617704 5.15826
55.25716741665048 5.14059
55.28229845518636 5.13175
55.30743238042802 5.07139
55.33276558731939 5.05941
55.357905315183636 5.07231
55.383047936390035 4.99942
55.40819345314859 4.97944
55.433538351073295 4.94086
55.458689688238415 4.98267
55.483843927614096 4.92186
55.509197623043605 4.92584
55.53435769621134 4.88169
55.55952067826466 4.80079
55.5846865714265 4.80451
55.61005202069737 4.79911
55.63522376553902 4.82129
55.66039842818645 4.77077
55.68557601087004 4.76317
55.7109532500271 4.68295
55.73613670233794 4.742719999999999
