TT I
1.2716486653135266 7.28257
1.2939594142134223 7.062189999999999
1.3162702121660406 6.98275
1.3385810600174564 6.49094
1.3608919586137629 6.872000000000001
1.383202908801069 6.26031
1.405513911425503 6.1587
1.4278249673332093 6.87807
1.4501343378461518 6.28543
1.4724455028545926 5.37361
1.4947567236847858 5.88164
1.517068001182951 5.82091
1.5393793361953272 5.96477
1.5616907295681737 5.10109
1.5840021821477681 5.03987
1.60631369478041 4.6611400000000005
1.6286252683124185 5.10276
1.6509369035901333 5.02073
1.6732468618895553 4.77836
1.695558623192809 4.50718
1.7178704487808514 4.86327
1.7401823395001077 4.76222
1.7625012545597203 4.81746
1.7848028405262486 4.84459
1.8071218901122095 4.92396
1.8294236121921872 4.53369
1.8517427996910911 4.88443
1.8740620574440425 4.19219
1.8963639900671978 4.66137
1.9186833908139995 4.6428
1.9409854680117449 5.10697
1.9633050151394713 4.95881
1.9856246367570705 3.9897400000000003
2.0079269371922672 4.18122
2.03024671027244 4.7003900000000005
2.0525491637446027 4.79551
2.074869091674931 4.62448
2.097171701569106 4.4406300000000005
2.1194917877373847 5.12625
2.141811954326636 4.68204
2.164114805233074 4.5692
2.186435135143035 5.06785
2.208738150935709 10.1277
2.231058647554722 18.4682
2.2533792288321184 13.4864
2.275682498336085 8.00555
2.298003251406138 5.61446
2.3203066942619714 5.12292
2.3426276225136022 5.41512
2.3649486396617507 5.6603
2.387252348930071 5.816269999999999
2.4095735463442893 5.57754
2.4318774374315884 6.0342
2.4541988185014043 5.8146
2.476502894794693 6.34732
2.498824462909887 6.55318
2.521146125856138 6.558160000000001
2.5434504863470337 7.630269999999999
2.5657723414244717 7.95075
2.588076895590662 7.640160000000001
2.610398946189713 7.437710000000001
2.6327210958598384 7.6971
2.6550259469304716 7.86278
2.6773482972090137 8.44197
2.6996533504259 7.985289999999999
2.7219759047039602 7.917610000000001
2.744298562293959 8.11467
2.7666039251246595 7.9343
2.7889267918020164 8.03088
2.8112323652516555 8.11018
2.833555444408179 8.33574
2.8558786311183852 8.23161
2.8781845268938557 8.854619999999999
2.9005079311721484 8.46996
2.9228140460410397 8.576880000000001
2.9451376712799635 9.56373
2.967444008632326 8.97452
2.9897678582247247 9.75203
3.0120918213106695 10.6466
3.0343984987899373 10.198
3.0567226913198637 10.8333
3.079029599759726 11.1767
3.101354025127254 11.8185
3.123678568232338 12.947000000000001
3.145985829517914 12.8229
3.16831061055229 13.0919
3.1906181112775593 13.9255
3.212943133635653 14.9124
3.2352682779763207 14.4757
3.2575761442691227 15.5792
3.2799015350264273 15.6213
3.302209649240067 16.2292
3.3245352898092655 16.7016
3.3468436553365257 16.3924
3.369169549113219 17.7265
3.3914955708171384 18.3353
3.413804319727358 18.5895
3.4361305997334863 19.0162
3.4584396084414553 18.8989
3.4807661501462652 20.0186
3.503092824025881 20.2469
3.5254022288463154 20.5885
3.5477291695206588 21.2367
3.5700388426251948 22.4428
3.5923660534916446 23.3837
3.6146934007816114 32.2656
3.637003482731501 59.8754
3.6593311053109985 64.8558
3.681641464033634 41.9409
3.7039693653009733 28.1991
3.726297407241705 25.9759
3.7486081875460804 25.4563
3.7709365132734978 26.1495
3.793247578841633 26.5972
3.8155761917550093 26.0242
3.8378875459837216 26.7719
3.8602164494827234 27.5843
3.882545499606844 28.1578
3.9048572932539183 28.8003
3.9271866390645718 28.7953
3.9494987298666713 29.3794
3.971828374764527 30.115
3.9941581705403255 30.468000000000004
4.016470713506008 31.2647
4.038800813471445 31.3868
4.061113662089144 32.2377
4.0834440696459176 33.6259
4.105774632334751 33.8631
4.128087945865126 34.0843
4.150418821249301 35.3405
4.172732448931298 36.3827
4.195063640413578 37.4715
4.2173775856475215 40.8446
4.239709096631102 62.4213
4.262040768704612 154.264
4.284355196706267 193.798
4.306687193387355 130.832
4.329001947444346 63.3134
4.35133427213731 46.0227
4.373666762177566 44.41
4.395982011761091 44.2618
4.418314834921175 45.0343
4.44063041906622 50.2139
4.4629635787515625 56.3408
4.4852969080429785 56.4011
4.5076130004776225 52.4815
4.529946671403969 53.3153
4.552263106909177 55.5675
4.574597122877047 54.2508
4.596931312711224 53.3406
4.619248269273446 53.2875
4.6415828092605835 54.5976
4.663900117405352 55.5857
4.686235010953232 56.7378
4.708552674085913 58.1667
4.730887924602802 59.6778
4.753223354952695 61.7718
4.775541557023902 63.8224
4.797877349456786 66.1317
4.820195915032126 67.5081
4.842532072957498 67.9614
4.864868414979744 70.4611
4.88718753227192 73.1066
4.909524244902505 75.4523
4.931843734218147 76.4528
4.954180820867835 78.8062
4.976518095879839 80.717
4.998838149695359 83.8056
5.021175803844231 87.6791
5.043496238205739 91.8322
5.065834274903528 96.3677
5.088172504230693 100.425
5.1104935158799565 106.96799999999999
5.132832132875765 126.17299999999999
5.155153533596801 156.89700000000002
5.1774925416746225 192.297
5.199814334878411 375.17699999999996
5.2221537374521505 1048.68
5.244493338631803 3012.14
5.266815727034316 7855.17
5.289155727832427 12571.0
5.311478517248165 9022.88
5.333818921080011 3010.35
5.356159527788849 589.015
5.3784829252032536 195.451
5.400823940070432 150.97
5.423147747031976 130.819
5.445489173474152 119.796
5.467830807066149 117.26100000000001
5.490155234831516 114.09700000000001
5.512497285125229 109.535
5.534822130975162 105.376
5.557164601388673 102.72
5.579489868738879 99.531
5.601832762690846 98.4272
5.6241758697774475 97.1951
5.646501775867269 96.3953
5.668845311622074 95.40100000000001
5.691171647754637 94.43299999999999
5.713515615597765 93.1484
5.735859800852677 92.6467
5.758186788542988 93.7205
5.780531411018185 95.2442
5.802858837297399 94.7452
5.825203900414495 94.5805
5.8475491852224 95.8957
5.869877275883075 96.5382
5.892223006467101 94.7319
5.914551544266608 95.1013
5.936897724049891 97.8011
5.959244129804903 103.242
5.981573344815301 125.713
6.0039202049061 227.18599999999998
6.026249875609095 480.787
6.04859719346037 1003.68
6.070927323278297 2228.62
6.093275102315365 4443.16
6.115623113320588 5012.88
6.137953938319995 3177.25
6.160302415650845 967.362
6.182633708324452 230.308
6.2049826554078376 113.182
6.227331838745022 91.4406
6.249663839443684 84.3168
6.27201349767565 81.3777
6.294345974611799 83.89200000000001
6.316696111167083 88.8207
6.339046488263839 84.7419
6.361379686074702 75.7962
6.383730546639482 71.2792
6.406064229255215 69.5557
6.428415576718203 69.6009
6.450749747566656 68.3673
6.47310158535871 66.4985
6.495453669698332 65.4129
6.517788579421056 64.7092
6.540141159237969 63.3907
6.562476565766648 62.9716
6.5848296444934045 62.4587
6.607182974060425 62.3726
6.6295191323281015 62.7991
6.651872965955752 64.4138
6.6742096296068985 79.2205
6.6965639707294615 104.285
6.71891856698715 102.094
6.741255995248479 77.85
6.763611104154477 63.6536
6.785949046381137 59.3977
6.808304671371482 58.6781
6.8306605557940046 59.3071
6.852999275508618 58.3015
6.875355681171544 57.2869
6.897694923437771 56.5535
6.92005185377892 56.2776
6.9423916220322655 55.98
6.964749080490181 55.4628
6.987106804399774 55.7003
7.009447368180821 56.071000000000005
7.031805625367033 55.863
7.054146723727803 55.3311
7.076505517631004 54.9047
7.098864581288365 55.2665
7.121206488070854 55.4329
7.143566093607822 55.7748
7.165908543567245 55.8002
7.188268694426048 55.5222
7.2106291193438095 55.138000000000005
7.232972390625943 56.0726
7.255333366030969 63.6178
7.277677189091925 93.4584
7.300038718428332 117.24600000000001
7.322400526130865 102.766
7.344745183422596 72.3079
7.367107550224791 58.4692
7.389452767901992 55.4119
7.411815697249891 54.8089
7.434161478756298 54.3589
7.456524974096713 53.7173
7.478888753837185 53.8556
7.501235387657368 54.3372
7.523599738562711 54.0499
7.545946944825532 54.5126
7.568311870344528 54.8383
7.5906770845765665 55.3159
7.613025156078678 56.4033
7.635390950099687 57.0572
7.657739602662809 56.3508
7.680105979923558 55.8276
7.702472650212829 56.3439
7.724822180948224 56.4004
7.747189439655568 56.3863
7.769539560075357 56.3952
7.791907410653562 56.6757
7.81425812420825 56.3541
7.836626570110925 56.494
7.858995315087906 57.6977
7.881346924933401 57.7975
7.903716270417482 57.9986
7.926068482028405 58.5447
7.948438431475253 58.9877
7.9708086843180235 59.3191
7.993161805171116 60.2355
8.015532667162402 61.0093
8.037886398416653 61.6181
8.060257873014221 62.2412
8.082629655331942 63.1954
8.104984308787587 63.8632
8.127356708900503 66.6767
8.149711981398308 71.1628
8.172085002766314 72.5124
8.194458336181368 70.7695
8.216814543847752 69.2714
8.23918850371002 69.3595
8.26154533906492 70.6345
8.283919928836452 72.0037
8.306277395339652 72.6353
8.328652618483376 73.7414
8.351028159736202 76.4649
8.373386579575245 78.8511
8.395762759396959 80.502
8.418121819038275 84.3857
8.440498640894003 93.1816
8.462875785192262 104.116
8.485235811156207 122.277
8.507613602688501 172.767
8.529974277114228 261.468
8.552352719347912 404.106
8.574731488360351 685.748
8.59709314210385 1214.31
8.619472567021075 1842.18
8.64183487789147 2132.13
8.664214962183097 1781.22
8.686577933647762 943.878
8.708958680784317 381.26300000000003
8.731339760774953 166.641
8.753703729764451 111.11
8.77608547780821 99.2951
8.798450116065078 95.6923
8.820832535634787 92.6773
8.843215292401656 91.7914
8.865580941199045 90.8058
8.887964374703538 90.1644
8.910330701447199 90.8024
8.932714815164482 91.1848
8.955099270424924 89.4102
8.977466620733543 86.9403
8.999851761421976 85.4598
9.022219798361645 83.6992
9.04460562795561 83.7789
9.066991803441677 83.9813
9.089360876979615 83.833
9.111747746589993 83.4665
9.13411751544971 82.47200000000001
9.156505082664324 81.7898
9.178875550323522 81.9171
9.20126381862328 82.07700000000001
9.223652438908596 82.4338
9.246023961427412 82.3051
9.26841328802173 82.0624
9.290785518039224 82.0561
9.313175554425882 83.5905
9.335565947154315 84.8374
9.357939245086508 84.5703
9.380330352834827 84.3803
9.40270436697103 84.5764
9.425096193225055 84.4439
9.447488380180165 84.8403
9.469863475295412 84.2876
9.492256385987508 84.9098
9.514632206018318 85.295
9.537025843935714 85.5496
9.559402392368193 86.6025
9.581796761000229 88.2488
9.604191496441521 90.1323
9.626569144158516 92.6829
9.648964615551032 95.2807
9.671343000390081 95.5329
9.693739211225699 94.0472
9.716135793237463 92.9866
9.738515290448102 93.321
9.760912617143402 94.9968
9.783292860202891 96.4144
9.805690935076182 98.1325
9.828089385495742 99.1638
9.850470754023561 100.84
9.872869957865444 105.88799999999999
9.89525208097539 115.212
9.917652041736662 123.071
9.940052382417589 126.993
9.962435644102392 144.075
9.984836746950979 186.389
10.007220771957746 250.227
10.029622640473708 359.48400000000004
10.052007432299963 549.7669999999999
10.074410069984072 849.923
10.096813093716005 1279.64
10.119199042482517 1740.86
10.141602840636468 1945.41
10.163989564971628 1587.52
10.186394141051062 911.16
10.208799107559706 404.12
10.231187001965623 188.725
10.253592751657669 125.647
10.275981430388155 112.689
10.298387966769793 110.838
10.320794897965431 111.274
10.343184759907361 109.89399999999999
10.36559248305461 106.17200000000001
10.387983138083852 104.31299999999999
10.410391656691655 109.334
10.432800574501677 121.557
10.455192425893369 138.45600000000002
10.47760214443012 165.59900000000002
10.499994797678786 212.74599999999998
10.522405320453982 294.059
10.54479877906917 406.844
10.567210109595656 495.728
10.5896218454736 557.2330000000001
10.612016518879773 498.755
10.634429067781074 347.531
10.656824555333241 205.15900000000002
10.679237920773568 125.66
10.701651695961992 96.0295
10.724048411481384 88.978
10.746463008485165 86.6374
10.768860546937125 84.8689
10.791275969274796 83.0706
10.81369180576079 81.7469
10.836090585366925 80.8807
10.858507252467449 79.7578
10.88090686379991 79.095
10.903324365036394 78.3242
10.925724811614439 77.8529
10.948143150509463 78.3349
10.970561909719066 77.8402
10.992963615930844 76.77600000000001
11.015383218085756 74.9159
11.037785768347074 73.3024
11.06020621697282 72.8701
11.082627090322113 72.3034
11.105030913430326 71.2415
11.12745263854165 71.7742
11.149857314510728 73.6804
11.172279894912576 76.3485
11.194702904450653 76.3154
11.217108866490921 73.687
11.239532736615194 71.1808
11.26193956033512 70.1596
11.284364294577085 68.8867
11.306789462371718 67.6875
11.329197585398376 67.1116
11.351623622610898 66.7727
11.37403261614354 65.767
11.396459526308487 66.1061
11.418869393879497 65.5967
11.441297180532617 64.9599
11.463725406927658 64.7151
11.486136592353875 64.4825
11.508565700543707 64.6936
11.530977768845315 65.8504
11.553407762368774 65.843
11.575838200059769 65.3523
11.598251599479612 64.1166
11.620682927815501 63.3258
11.64309721895548 63.4095
11.665529441478206 62.8707
11.687962112597958 62.5162
11.710377748130886 62.9174
11.732811318753434 62.8696
11.755227854859067 62.6762
11.777662328529495 62.5356
11.800079768750786 62.3913
11.822515149015453 62.4385
11.844950984084935 62.9017
11.867369787303163 62.3569
11.889806534289491 62.3674
11.912226250487029 62.6432
11.934663912939751 62.5929
11.9571020346363 62.9264
11.979523127133968 62.968
12.001962169624331 63.8959
12.024384183972964 65.2412
12.046824150809913 68.3712
12.069264581333726 72.8766
12.091687985297767 79.3318
12.11412934550045 88.6333
12.136553680195208 104.62200000000001
12.158995973632788 126.821
12.181438735204349 153.276
12.20386447284199 178.833
12.226308172985636 199.07299999999998
12.24873485024193 193.479
12.271179492516982 161.517
12.293607112949127 125.441
12.316052700916226 93.4552
12.338498763250042 75.6043
12.360927805303868 68.2535
12.383374818673879 65.4886
12.405804812803074 64.2659
12.428252780773262 63.9238
12.45070122756722 64.111
12.473132656675375 64.1044
12.49558206341869 64.7128
12.518014453510101 64.5683
12.540464823770117 64.583
12.562915677315177 64.517
12.58534951575545 65.096
12.607801338171472 66.2199
12.630236146511358 69.3535
12.652688941369085 72.0941
12.675124723177234 72.2385
12.697578494048786 70.5299
12.720032754458185 68.0834
12.742470003354093 67.4287
12.764925245138771 67.605
12.787363476431278 68.0492
12.809819703166806 68.3041
12.83227642391173 69.1167
12.854716135692716 69.5863
12.877173846755147 70.6802
12.899614549869717 71.4001
12.9220732548287 72.2571
12.94453245827299 72.6757
12.966974655289818 73.7195
12.989434858002571 74.4309
13.011878055298721 74.8975
13.034339260862497 75.8604
13.056800969391883 77.3046
13.079245674017244 79.3657
13.101708390774869 82.5392
13.12415410463411 90.5382
13.146617833206086 101.368
13.169064559883248 112.711
13.191529303857127 127.98100000000001
13.213994557076367 152.922
13.236442809902437 192.96400000000003
13.258909083908291 250.185
13.28135835851934 308.942
13.30382565690295 371.504
13.326293469022952 415.406
13.348744283242008 417.055
13.371213125129904 353.24199999999996
13.39366497011003 264.332
13.416134845360597 176.31599999999997
13.438605238843131 126.118
13.46105863690397 107.899
13.483530069144786 107.115
13.505984506951902 112.184
13.528456981549432 122.524
13.550929978879088 138.334
13.573385983253365 163.982
13.595860028340867 203.398
13.618317081455832 254.391
13.64079217790333 305.857
13.663250283359057 343.87800000000004
13.685726434770173 360.56699999999995
13.708203115221277 328.86800000000005
13.730662806148091 261.68
13.75314054697177 185.13
13.775601299246777 128.836
13.798080104050406 97.4823
13.820559442405358 85.3981
13.843021793671388 81.6481
13.865502201420897 80.1177
13.887965623051947 79.6659
13.910447103807167 78.5289
13.932929122629764 77.1608
13.955394156785959 76.5568
13.977877254034569 75.6932
14.000343367582113 74.9841
14.022827546871707 74.3258
14.045294743423524 73.5272
14.06778000837062 72.9387
14.090265817715476 72.7692
14.112734645763819 72.3032
14.13522154619454 72.2109
14.157691466286913 72.1517
14.180179461423874 71.8294
14.202668005486178 71.2584
14.22513957064374 70.7943
14.247629214846473 70.4036
14.270101881097517 70.1099
14.29259262906496 70.1447
14.315083930490205 70.4091
14.337558255389705 70.4542
14.360050666019726 70.3274
14.382526101071944 69.7318
14.405019624534942 69.3366
14.427513705993134 68.8887
14.449990813291825 68.8903
14.47248601302899 68.5864
14.49496423954951 68.6642
14.517460561197822 68.9236
14.539939910570322 68.6157
14.562437357763558 69.0713
14.58493536931253 69.8312
14.607416409993311 70.3828
14.62991555254159 70.7042
14.652397725157423 70.604
14.674898002342799 70.6799
14.697398848433282 70.5535
14.719882725991326 71.5458
14.74238471217934 72.8054
14.764869730765593 76.2735
14.787372860692983 79.59100000000001
14.809876564079925 83.9108
14.83236330125751 90.2567
14.854868153850365 99.0924
14.877356041159485 113.538
14.899862046604186 133.118
14.922351087688757 158.131
14.944858249632887 184.386
14.967365991421232 206.428
14.989856770231246 217.123
15.012365673994204 213.736
15.03485761569738 184.905
15.05736768508665 147.72899999999998
15.07987833888692 114.866
15.102372032001655 90.3435
15.124883856909658 77.0356
15.14737872204565 72.5385
15.169891721717274 70.7424
15.192405310371893 70.3102
15.214901940621196 70.2568
15.237416709527137 69.8071
15.259914520936249 69.7016
15.282430473753607 69.1734
15.304947020131227 68.2373
15.327446610371178 67.61399999999999
15.349964346154254 67.0922
15.372465126703139 66.84899999999999
15.394984055556009 66.638
15.417486030076159 66.4948
15.44000615566487 66.1252
15.462526881230803 65.9019
15.485030653812652 66.0766
15.507552581617434 65.9669
15.530057557334603 65.8364
15.55258069104857 66.1071
15.575104429329837 66.1103
15.597611216864632 65.6729
15.620136166564563 65.8332
15.6426441664095 67.2939
15.665170331202765 69.9893
15.687697105158826 72.6082
15.710206930593545 76.2911
15.732734925158933 80.7398
15.755245972089478 87.3458
15.77777519094324 97.102
15.800287463046663 110.714
15.822817909869592 129.68
15.84534897229804 150.071
15.867863089299354 171.31099999999998
15.890395385222186 184.975
15.912910736597423 188.449
15.935444269699861 177.437
15.957978423016485 153.614
15.980495633101265 122.70700000000001
16.003031029129367 97.0348
16.02554948280019 77.5298
16.048086125229432 67.9184
16.070623392487107 64.7447
16.09314371869582 63.5486
16.11568223789321 62.6297
16.13820381691126 61.5424
16.160743591742527 60.9383
16.183283996022084 60.184
16.205807461423195 59.3264
16.228349126881973 58.8887
16.25087385432698 58.8503
16.27341678466365 58.1282
16.29594277784926 57.9306
16.31848697676433 57.9796
16.341031811604868 57.832
16.36355971058487 57.8204
16.3861058195587 57.8686
16.40863499352978 56.9395
16.431182380342005 56.1941
16.453730407713202 55.9516
16.476261501364792 55.6749
16.498810812136167 55.3722
16.52134319004079 55.458
16.54389378792203 55.2715
16.566445031001553 55.1474
16.588979342490088 54.8946
16.61153187824822 55.1073
16.634067483263312 54.7366
16.656621315414416 54.5747
16.679175797408888 54.3763
16.701713349928728 54.448
16.72426913389191 54.7063
16.74680798922351 54.6417
16.76936507887444 54.6385
16.791905240734874 54.6981
16.814463639794468 54.5298
16.837022695210294 54.4354
16.859564824093756 54.9716
16.882125194503903 55.2413
16.904668639217885 55.7972
16.927230328348003 56.0005
16.949792678493612 55.9253
16.972338104193863 55.3842
16.994901778652235 55.251999999999995
17.017448529496576 55.5053
17.040013531998152 55.7964
17.06257920018044 56.465
17.0851279459922 56.9564
17.107694947817667 57.8994
17.130245028099072 58.6506
17.15281336730298 60.0477
17.17536478578733 61.7
17.19793446610687 64.205
17.220504818648422 67.3268
17.243058251703697 70.49
17.265629950971032 74.9623
17.288184731571736 79.1073
17.310757781306908 81.91
17.33333150794385 83.3216
17.355888317140174 80.8661
17.37846339986244 75.9455
17.401021565958885 70.7163
17.42359800851343 65.55
17.44617513265564 61.8694
17.468735341390783 59.9486
17.491261035594565 59.0624
17.51396340099364 58.8624
17.536490463869136 58.8781
17.559018209820174 59.0717
17.58154663977963 59.2218
17.604251766089718 59.457
17.626781572227713 59.5639
17.64931206518155 59.7278
17.671843245885103 60.0693
17.69455114821572 60.3834
17.717083712612634 60.7857
17.739616967569667 60.8556
17.762150914021706 61.1368
17.78486160749854 61.1415
17.807396945166804 62.1375
17.829932977143503 63.0759
17.85246970436452 64.6472
17.875183204129467 66.5178
17.897721330097664 68.52
17.920260154126645 70.8124
17.942799677153296 74.1332
17.9655159983646 78.1602
17.988056927677544 83.9666
18.010598558807683 92.2607
18.033140892692916 101.931
18.05586005052525 111.794
18.07840379824407 122.71799999999999
18.10094825154059 132.08100000000002
18.12366954819864 138.05
18.146215420998306 137.222
18.16876200220057 130.595
18.191309292745153 117.15100000000001
18.214033452627167 104.521
18.236582170236648 92.5839
18.259131600016456 87.5745
18.281681742907335 87.7746
18.304408781233683 91.4622
18.32696035875955 95.5048
18.349512652227624 99.7887
18.372065662579683 103.11
18.394795594587553 104.348
18.41735004715306 101.359
18.43990521943684 94.7603
18.46246111238171 85.9932
18.485193953325208 76.7509
18.507751296070428 69.6438
18.530309362314178 65.5862
18.552868153000343 63.4138
18.57560391815056 62.0311
18.59816416623245 61.636
18.620725141597372 61.2106
18.643286845190268 60.5925
18.666025549835414 60.4156
18.688588718427933 59.6385
18.711152618092243 59.5751
18.73389353884365 59.108000000000004
18.75645890921984 58.9024
18.77902501351406 58.5397
18.801591852673102 58.5928
18.824335739722738 57.9216
18.846904057212626 58.0516
18.8694731124168 57.6597
18.89204290628315 57.6241
18.914789774966803 57.336999999999996
18.937361054791623 57.088
18.959933076131318 56.8416
18.982505839934877 56.7618
19.00525570560582 56.7617
19.027829963004184 56.5261
19.05040496572238 57.0277
19.072980714710468 56.8236
19.095733592739563 56.9352
19.11831084296757 57.2524
19.140888842324735 57.5918
19.16346759176222 57.9056
19.18622349753803 58.3726
19.208803755869358 59.3697
19.231384767143577 60.7037
19.253966532312948 62.4826
19.276725481241822 64.6855
19.29930876296784 67.1937
19.3218928014549 69.8061
19.34465404436217 72.5025
19.36723960516257 74.5414
19.389825925592426 75.158
19.412413006605938 74.2094
19.43517731967805 71.3114
19.457765930683355 67.2161
19.48035530514408 63.2842
19.50294544401556 59.4663
19.525712842708348 56.8518
19.54830451925909 55.0948
19.570896963095727 54.0649
19.593490175174704 53.7157
19.616260674962184 53.7162
19.638855432416964 53.4718
19.661450960992624 53.5914
19.68404726164677 53.3524
19.706820878021247 53.4158
19.729418731756834 53.4428
19.752017360452857 53.2265
19.77461676506804 53.4245
19.797393513540218 53.6848
19.819994478951667 54.0762
19.84259622316767 54.3582
19.8651987471481 54.6997
19.887978643247177 54.9946
19.91058273574792 55.4787
19.933187610901943 56.3342
19.955969879466828 57.6285
19.97857632894404 59.1563
20.00118356396599 60.6328
20.023791585494575 62.6092
20.046577028914875 65.3044
20.069186632506966 66.983
20.091797025500632 68.5715
20.114408208858933 69.1319
20.137196842715273 68.986
20.159809615886765 67.9973
20.18242318232135 65.6997
20.20503754298326 63.751999999999995
20.227829382875154 62.8093
20.250445341109344 62.4276
20.27306209647285 63.001000000000005
20.29567964993108 63.6427
20.31847471147704 64.5728
20.34109387027612 64.8307
20.363713830075454 64.209
20.386334591841646 63.3459
20.409132890679302 60.867
20.431755265564437 58.0896
20.454378445325528 55.7748
20.477002430930366 53.5345
20.499803982716553 52.2324
20.522429589228004 51.338
20.54505600449589 50.7473
20.567683229489194 50.6146
20.590488049900088 50.4371
20.61311690359731 50.1168
20.63574656993626 49.9333
20.658553853717297 49.5748
20.681185154618298 49.34
20.703817271080066 49.4572
20.72645020407368 49.123000000000005
20.749260783967177 49.0101
20.771895359337133 48.8895
20.794530754161617 48.8197
20.817166969412938 48.5552
20.83998086114876 48.6197
20.86261872660049 48.5687
20.885257415405402 48.7616
20.90789692853701 48.5917
20.930714147864748 48.4429
20.953355319030678 48.6066
20.97599731745334 48.5385
20.99864014410749 48.4658
21.021460706796564 48.4161
21.044105199328826 48.8184
21.06675052302631 48.9311
21.089396678865015 49.2202
21.112220600704806 49.3029
21.134868430275347 49.6441
21.15751709492456 50.0833
21.180166595629693 50.2858
21.202993892429635 50.8482
21.22564507473034 51.1816
21.24829709602816 51.1438
21.27112693608965 51.2669
21.293780644891275 51.236999999999995
21.316435195634053 50.6856
21.339090589297417 50.0056
21.361923832041875 49.4612
21.384580921090404 48.8948
21.407238856007325 48.4599
21.429897637773326 48.4171
21.45273429906592 48.3781
21.475394784108598 48.3444
21.498056118951983 48.2022
21.520718304578022 48.4003
21.543558400304388 48.7987
21.566222297108816 48.7411
21.58888704765135 48.9279
21.61155265291521 49.089
21.63439619898156 49.6129
21.657063523335786 49.8077
21.67973170537063 50.3823
21.7024007460706 51.0165
21.72524775840385 51.8026
21.747918526116475 52.7631
21.770590155457388 54.1322
21.79326264741238 55.8089
21.816113141960237 57.6167
21.838787368860547 59.3442
21.861462461341976 60.898
21.884315579735777 62.4109
21.90699241312273 63.2403
21.92967011506078 63.9768
21.95234868653799 63.6999
21.9752053151131 62.7606
21.997885635446785 61.0257
22.020566828293532 59.5307
22.04324889464272 57.7243
22.066109049404666 56.4841
22.088792872571794 55.8835
22.111477572219204 55.7361
22.1341631493376 55.8295
22.157026846313123 55.6043
22.179714188221507 55.0069
22.202402410582668 54.0548
22.22509151438863 52.4908
22.24795876962584 51.4191
22.270649646204486 50.4573
22.293341407213727 49.7916
22.316034053646906 49.3962
22.338904883215342 49.1413
22.36159931041458 48.9279
22.38429462602756 48.8706
22.40699083104897 48.6902
22.429865251039757 48.5435
22.452563244831367 48.6869
22.47526213102522 48.663000000000004
22.49813925616515 48.5445
22.520839937143307 48.4657
22.543541513520587 48.4798
22.56624398629403 48.3271
22.589124730075895 48.3423
22.611829005656723 48.5371
22.63453418063466 48.5515
22.657240256008077 48.7875
22.680124634582935 48.9997
22.70283252079775 49.2707
22.725541310413075 49.5692
22.74825100442868 49.7742
22.771139033969575 50.1893
22.79385054687155 50.4462
22.81656296718292 51.2495
22.83927629590484 52.2584
22.862167992606945 53.0941
22.88488314827121 54.2246
22.907599215359284 55.0472
22.93031619487366 55.9383
22.953211574954405 56.6041
22.975930389478226 57.3464
22.998650119445763 57.6168
23.02137076586092 57.1264
23.044269845560063 55.8358
23.06699233506288 54.4156
23.089715744034912 52.6839
23.112617610931565 51.1434
23.135342869061212 49.943000000000005
23.158069049684816 49.2587
23.1807961538087 48.7534
23.20370174880544 48.8176
23.226430710184808 48.6758
23.249160598093425 48.7681
23.271891413539002 48.7774
23.294800752937697 48.863
23.31753343374794 48.8413
23.340267045128353 49.0273
23.36300158808808 49.4022
23.38591468821339 49.7473
23.408651104658304 50.2759
23.431388455719986 50.8064
23.454126742409 51.8018
23.4770436196085 52.8876
23.499783787914662 54.1659
23.522524894889884 55.0148
23.54526694154616 55.8386
23.56818761219047 56.7359
23.59093154860734 57.1423
23.613676427751283 57.3983
23.636422250635754 56.4857
23.659346731118656 54.9178
23.68209445191868 53.4681
23.704843119509587 51.4079
23.72759273490623 49.6271
23.750521041644767 48.3344
23.77327256312355 47.1747
23.796025035462787 46.5675
23.818956224555475 46.0213
23.841710609113413 45.8868
23.86446594758979 45.5546
23.887222241002014 45.4265
23.910157285144578 45.0549
23.932915498962537 45.1904
23.955674670778713 45.0662
23.978434801611975 44.8089
24.001373717286125 44.5439
24.024135776723917 44.4809
24.046898798245582 44.4406
24.06966278287146 44.3017
24.092605586582614 44.1658
24.115371508023642 44.0996
24.1381383956401 43.9222
24.16090625045381 43.8953
24.183852958731244 43.8077
24.206622758582608 43.7216
24.229393528706886 43.6091
24.252165270127392 43.5106
24.27511589952438 43.5863
24.297889594216997 43.357
24.32066426328598 43.2372
24.34343990775613 43.2822
24.36639447485003 43.2117
24.38917208083877 43.0998
24.41195066531332 42.9297
24.43490819850244 42.9578
24.457688750692377 42.8351
24.48047028445616 42.8085
24.503252800821233 42.9859
24.526214300784112 42.916000000000004
24.548998793132213 43.0756
24.57178427117417 42.8927
24.59457073593893 42.828
24.617536219319863 42.8351
24.64032466834748 42.8086
24.663114107195035 42.7395
24.685904536893013 42.4859
24.708874020360852 42.4171
24.731666442613744 42.3997
24.754459858818787 42.4232
24.777254270007962 42.1974
24.80022777025625 42.0732
24.82302418230472 42.1048
24.845821592443674 42.0483
24.86862000170663 42.1697
24.891597535453727 42.0452
24.914397953892728 42.177
24.93719937456671 42.1184
24.96000179851076 42.343999999999994
24.98298338249997 42.4711
25.00578782394922 42.6578
25.028593271784167 42.7665
25.05157790644186 43.2684
25.07438537804115 43.1374
25.097193859145293 43.4989
25.120003350792075 43.7068
25.142992065061257 44.0269
25.165803588823465 44.261
25.18861612625217 44.5104
25.211429678386736 44.6366
25.234422489079968 44.6954
25.257238081693636 44.7703
25.280054692141732 44.9243
25.3028723214652 44.8058
25.325869245420463 44.8119
25.348688923599397 44.784
25.371509623787006 44.8022
25.394331347025812 44.4934
25.41733240110666 43.9726
25.440156181590016 43.3291
25.46298098826268 42.7828
25.48580682216873 42.3442
25.50881202326435 41.8574
25.53163992281684 41.4644
25.55446885274561 41.1691
25.577298814096377 40.7852
25.600308179121807 40.7495
25.623140214533745 40.8738
25.64597328451537 40.6748
25.66898578564376 40.3572
25.691820936010206 40.4835
25.714657124097695 40.4378
25.737494350954734 40.5306
25.760511045684957 40.4489
25.783350361364224 40.4702
25.806190718969255 40.4054
25.82903211955018 40.5326
25.852053024868923 40.4722
25.874896522722523 40.4598
25.897741066713106 40.4752
25.920586657892454 40.655
25.943611790812668 40.6353
25.966459487728237 40.9968
25.989308234998564 40.9314
26.01215803367705 41.2778
26.03518741123814 41.4535
26.05803932412957 41.5301
26.080892291600094 41.4067
26.10374631470478 41.5155
26.12677995397268 41.5371
26.14963609978026 41.5776
26.172493304397875 41.2622
26.19535156888223 41.1287
26.218389486949604 40.7851
26.241249882640123 40.4617
26.26411134137826 40.2644
26.28715248187403 40.2344
26.31001607820869 40.044000000000004
26.3328807407756 39.8499
26.35574647063438 40.0023
26.37879191991473 40.1148
26.401659795896734 40.1052
26.424528742360263 40.2609
26.447398760366614 40.3782
26.470448535598294 40.4817
26.49332070826805 40.7659
26.516193955675355 41.0348
26.53906827888316 41.1434
26.562122397260108 41.4139
26.584998883685063 41.726000000000006
26.607876449110325 41.9578
26.63075509460056 42.0277
26.65381357334404 42.08
26.67669439061878 41.9752
26.699576291163382 41.8715
26.722459276044212 41.8015
26.745522132402975 41.5868
26.768407297649354 41.3921
26.791293550442003 40.9852
26.814180891848974 40.7406
26.837248143099337 40.5766
26.860137673466657 40.4059
26.88302829566349 40.0538
26.90592001075963 39.8992
26.92899167420566 39.7526
26.951885586870763 39.5121
26.974780595655517 39.3612
26.99785558178161 39.0955
27.020752794605112 39.06
27.043651106772522 38.83
27.06655051935668 38.8977
27.089629948036183 38.6757
27.112531573292053 38.5807
27.135434302194138 38.6776
27.158338135817015 38.5616
27.181422024430987 38.5277
27.204328079372566 38.4541
27.22723524226965 38.4572
27.250143514198573 38.5202
27.273231880156334 38.4966
27.296142382065014 38.3584
27.319053996245536 38.2775
27.341966723775965 38.3786
27.365059584515222 38.3646
27.38797455070062 38.4544
27.410890633481237 38.3243
27.433807833936918 38.3314
27.456905206923906 38.4862
27.47982465472398 38.4909
27.502745223449743 38.4908
27.525666914182825 38.5964
27.548768816912457 38.478
27.571692763693633 38.4026
27.59461783573812 38.2028
27.617723149491244 38.1156
27.640650484125285 38.106
27.66357894728264 38.0926
27.686508540048052 38.0002
27.709618414237887 38.0833
27.732550278321757 37.7572
27.755483275279115 37.7777
27.778417406196485 37.830999999999996
27.801531858397514 37.8874
27.824468269376716 37.760999999999996
27.847405817586786 37.8263
27.870344504116094 37.9606
27.893463551932008 38.1072
27.916404527281053 38.3204
27.93934664422563 38.3648
27.962289903855886 38.4003
27.98541356491974 38.5015
28.00835912214229 38.718
28.03130582533231 38.9266
28.054253675581805 39.0876
28.077381967556104 38.9464
28.100332124185126 38.8981
28.123283431160893 38.8957
28.146235889577238 38.7548
28.169368830154156 38.4596
28.192323603752033 38.3866
28.215279532083304 38.0052
28.238415973016764 37.9166
28.261374223145094 37.7678
28.284333631303806 37.5973
28.307294198589954 37.4337
28.330435319167677 37.1504
28.353398217078915 36.9145
28.376362277420153 36.6241
28.39932750129032 36.543
28.422473319286713 36.4272
28.44544088262495 36.3765
28.468409612800283 36.2408
28.491379510913497 36.0681
28.51453004413313 35.8625
28.53750229057244 35.8875
28.56047570826344 35.816
28.583450298308804 35.824
28.606605564586562 35.695
28.629582511831156 35.7469
28.65256063474956 35.5743
28.675539934446338 35.6091
28.698699951647605 35.5641
28.72168161743193 35.4743
28.74466446331978 35.5608
28.767648490417624 35.4189
28.790813276438353 35.411
28.813799678527303 35.425
28.836787265157085 35.3533
28.859955641890075 35.3673
28.882945610203045 35.374
28.905936766392035 35.2726
28.928929111566863 35.3049
28.952102288520145 35.1904
28.975097024308607 35.1047
28.998092952423807 35.0254
29.021090073977508 34.8353
29.04426806913204 34.7759
29.067267590245258 34.591
29.090268308143695 34.562
29.11327022394099 34.4884
29.13645305530891 34.3932
29.159457379627167 34.363
29.18246290519685 34.3451
29.20546963313352 34.3682
29.22865731875826 34.3213
29.25166646419296 34.2797
29.27467681535305 34.238
29.29768837335608 34.2696
29.320880931312562 34.2677
29.34389491580634 34.2883
29.366910110507334 34.1615
29.38992651653503 34.244
29.41312396492981 34.1192
29.436142806456754 34.1861
29.45916286268059 33.9752
29.48236399319994 33.8419
29.50538649169417 33.8657
29.528410208259935 33.7583
29.55143514402014 33.4243
29.574641196749695 33.404
29.597668583816574 33.3594
29.6206971934585 33.0355
29.64372702680042 33.1032
29.666938019934474 33.0791
29.689970313635285 32.9737
29.713003834422636 32.9576
29.73603858342347 32.9345
29.759254535188578 32.7962
29.78229175361658 32.8437
29.80533020365064 32.8331
29.82836988641968 32.836
29.85159081507472 32.7079
29.874632976355343 32.666
29.89767637376955 32.7173
29.920721008448314 32.5258
29.9439469322847 32.5764
29.96699405457564 32.4406
29.9900424175358 32.4702
30.013092022298157 32.4687
30.03632295963995 32.475
30.059375061131373 32.3975
30.08242840783577 32.4509
30.105483000888153 32.4847
30.128718970092244 32.3113
30.151776069006917 32.4509
30.17483441768648 32.3538
30.198074175317235 32.3995
30.221135036724256 32.4663
30.24419715131772 32.3305
30.267260520236203 32.2092
30.290505341942243 32.2973
30.313571232750228 32.2675
30.336638381310948 32.2438
30.35970678876503 32.2086
30.38295669299435 32.2732
30.40602763151657 32.1197
30.429099832366074 32.0537
30.452173296685572 32.0999
30.47542830191959 32.0651
30.498504306502497 31.9642
30.521581577995562 31.9839
30.544660117543582 32.0505
30.56792024229725 32.2472
30.59100133132069 32.166
30.614083691845494 32.0907
30.637167325018545 32.1104
30.660432587840603 32.2781
30.683518779717886 32.1834
30.70660624769615 32.134
30.729694992924372 32.2092
30.75296541239743 32.2261
30.77605672557558 32.1144
30.799149319462742 32.1018
30.8224236211637 31.9594
30.845518789950724 31.8416
30.868615242910597 31.7056
30.891712981195973 31.6063
30.91499247215866 31.5202
30.938092794619365 31.5505
30.96119440587579 31.4513
30.984297307082752 31.3495
31.00758200598383 31.3421
31.030687500658694 31.2492
31.053794288760695 31.255
31.076902371446767 31.0571
31.100192296997445 31.083000000000002
31.12330298246119 31.0345
31.14641496599209 30.9592
31.169528248749216 30.9652
31.19282341969534 30.8567
31.215939314557186 30.9355
31.239056512134788 30.9712
31.262175013589378 30.9047
31.28547544871168 30.7966
31.30859657161541 30.8102
31.331719001892175 30.8177
31.35484274070538 30.9411
31.378148458819545 30.8621
31.401274828443725 30.8817
31.424402510106933 30.8002
31.447712205419993 30.9291
31.470842524931633 30.8012
31.493974159989783 30.796
31.51710711176168 30.8554
31.54042212308802 30.7636
31.563557722100917 30.7003
31.586694641341655 30.6904
31.609832881979628 30.5573
31.63315322823208 30.3867
31.656294125521327 30.2905
31.679436347728515 30.2641
31.70257989602529 30.2055
31.725905596152327 30.1238
31.74905181052835 30.2188
31.772199354521323 30.2399
31.79534822930507 30.2301
31.818679302290967 30.0487
31.84183085259981 30.0775
31.864983737233473 30.0526
31.88813795736804 30.0568
31.911474422233013 29.9264
31.934631327356435 30.0443
31.9577895715215 29.9964
31.980949155906522 29.9837
32.004291031706956 29.929000000000002
32.027453310562606 29.925
32.05061693318573 29.7055
32.07396288236386 29.7994
32.09712920658542 29.6769
32.12029687812702 29.6235
32.14346589817093 29.5502
32.166817291729984 29.476999999999997
32.18998902288583 29.3831
32.21316210610336 29.3483
32.23633654256711 29.3173
32.259693399663725 29.2786
32.282870556771144 29.1046
32.30604907069099 29.0901
32.329228942610065 29.035
32.35259128243769 28.9321
32.375773884550505 28.8942
32.398957848235646 28.921999999999997
32.422143174682176 28.7527
32.445511016471215 28.6931
32.468699082679954 28.7429
32.49188851523011 28.6233
32.51507931531304 28.5903
32.538452678331 28.6727
32.56164622776311 28.5663
32.58484114831493 28.4134
32.60803744118015 28.4562
32.631416344731896 28.444000000000003
32.654615396551876 28.4423
32.67781582427913 28.4291
32.701198898634416 28.3347
32.72440209253756 28.2515
32.747606665947124 28.2708
32.77081262006088 28.1522
32.79420126883317 28.171999999999997
32.81740999876112 28.1431
32.840620112999424 28.1091
32.86383161274818 27.980999999999998
32.88722585534586 28.0124
32.91044014056596 28.005
32.933655814909734 27.9838
32.95687287957963 28.0072
32.98027273544904 27.8703
33.00349259526636 27.8003
33.026713849030116 27.8183
33.04993649794511 27.775
33.073341986570746 27.798000000000002
33.09656744032826 27.8764
33.11979429286444 27.7886
33.14302254538647 27.7447
33.166433686291185 27.6651
33.18966475336992 27.6672
33.212897224069096 27.5171
33.23613109959831 27.6164
33.259547912343415 27.5659
33.2827846121627 27.5848
33.306022720453775 27.4251
33.32926223842861 27.3133
33.352684742614166 27.3633
33.37592709463173 27.3427
33.399170859982064 27.3025
33.422597648419426 27.1574
33.44584425514446 27.0964
33.46909227885668 27.0607
33.4923417207723 26.9948
33.51577423505344 27.0448
33.539026528130385 26.8601
33.56228024307245 26.8412
33.585535381098246 26.7507
33.60897364093058 26.7042
33.63223163992385 26.7345
33.6554910656699 26.5841
33.678751919389796 26.6789
33.702195944520106 26.5481
33.72545966903325 26.5164
33.74872482519663 26.4447
33.771991414233746 26.4716
33.79544122444841 26.436
33.81871069412428 26.3616
33.84198160035767 26.3205
33.86525394437455 26.3697
33.88870955949969 26.3073
33.911984794020626 26.2221
33.93526147001624 26.2501
33.958539588715006 26.1276
33.98200102861669 26.0488
34.0052820477047 26.0191
34.02856451319451 26.0306
34.05203033759056 25.9661
34.07531571090147 25.9234
34.09860253431845 25.9375
34.121890809074316 25.7903
34.145362493118924 25.785999999999998
34.16865368561615 25.8169
34.191946333164054 25.6258
34.21524043699793 25.6317
34.23871800066799 25.7643
34.26201503218366 25.6508
34.28531352370466 25.4959
34.30861347646881 25.4819
34.33209693978188 25.4924
34.3553998301885 25.4609
34.378704185565205 25.4578
34.402010007152356 25.3637
34.42549939016683 25.3667
34.44880815937748 25.2878
34.472118398533134 25.266
34.49543010887669 25.201
34.51892543169198 25.0524
34.54224009966052 25.1462
34.56555624255917 25.0908
34.58887386163339 24.9898
34.61237514439016 25.0365
34.6356957311114 24.9943
34.65901779775809 24.9812
34.68252356662995 24.9561
34.705848608458616 24.8838
34.72917513396849 24.8226
34.75250314440949 24.8738
34.77601490857862 24.6877
34.799345904259795 24.6824
34.82267838863559 24.7674
34.846012362958525 24.6454
34.869530142679984 24.5853
34.89286711232212 24.5606
34.91620557568269 24.5767
34.93954553401677 24.5195
34.9630693495876 24.4509
34.986412313340814 24.5014
35.00975677584668 24.5413
35.033102738362956 24.3341
35.05663261012228 24.3011
35.0799815881786 24.3185
35.10333207003229 24.2649
35.12668405694369 24.2249
35.150220005273056 24.1567
35.17357501786656 24.166999999999998
35.19693153931268 24.1547
35.220289570874385 24.1113
35.24383161619786 24.1493
35.267192683604904 24.1336
35.290555264930376 24.0755
35.314101899412165 24.1248
35.33746752422433 24.0307
35.36083466676374 24.0733
35.38420332829803 23.9617
35.407756095629054 23.9117
35.43112781085063 23.9112
35.45450104888391 23.9064
35.477875810999194 23.9465
35.50143473172161 23.7968
35.52481255774625 23.8329
35.54819191167777 23.8931
35.57157279478914 23.772
35.595137889488406 23.7492
35.61852184675279 23.6183
35.641907337029984 23.6051
35.665294361595684 23.6163
35.68886565090076 23.5306
35.7122557598848 23.5206
35.73564740699838 23.4839
35.759040593519934 23.4372
35.78261809810353 23.4834
35.80601437933051 23.3768
35.829412203814705 23.2865
35.85281157283719 23.2481
35.876395313415884 23.2182
35.8997977874528 23.168000000000003
35.92320180988546 23.1285
35.946790244133936 22.9985
35.97019737933222 23.0857
35.993606066789866 23.0681
36.01701630779276 22.9841
36.04061101440684 22.9747
36.06402437852291 22.9101
36.08743930005611 22.9045
36.1108557802951 22.7837
36.13445678011326 22.8333
36.15787639383515 22.8631
36.18129757014299 22.6978
36.20472031032821 22.6705
36.22832762423364 22.6414
36.25175350829375 22.653000000000002
36.275180960119776 22.6088
36.298609981005924 22.6238
36.32222362992669 22.651999999999997
36.34565580510207 22.6094
36.36908955323448 22.5117
36.39252487562093 22.4636
36.416144880530226 22.4142
36.43958336764275 22.3993
36.463023432914625 22.4162
36.486465077645676 22.2849
36.51009145956204 22.2706
36.53353627947859 22.285999999999998
36.55698268276811 22.2542
36.58043067073321 22.230999999999998
36.60406345072071 22.0937
36.62751462435344 22.1878
36.65096738658405 22.1648
36.67460498210655 22.1145
36.69806093788647 22.0533
36.72151848619297 22.0745
36.744977628333636 21.9852
36.76862165890998 21.9529
36.79208400512205 21.9216
36.81554794910557 21.8709
36.83901349217101 21.8036
36.862663978991606 21.7732
36.88613273667352 21.7637
36.90960309738324 21.6936
36.933075062434064 21.6302
36.95673202673572 21.6222
36.98020721697122 21.6101
37.003684015502365 21.5574
37.027162423645365 21.5137
37.050825886711465 21.5154
37.07430753063053 21.4854
37.09779078812467 21.4358
37.121275660513014 21.4335
37.144945643673694 21.4187
37.16843376245278 21.4123
37.19192350009803 21.4546
37.215414857931435 21.3411
37.239091382563885 21.2249
37.262585997426164 21.1299
37.28608223645736 21.1764
37.309763684451696 21.1846
37.33326318851098 21.1557
37.356764320726555 21.0396
37.380267082425526 21.0976
37.40395510942588 21.0408
37.42746114683234 21.0798
37.45096881771841 20.9855
37.474478123414166 20.98
37.49817275092816 20.9245
37.52168534303452 20.8711
37.54519957395567 20.7976
37.568715445024665 20.791999999999998
37.592416694607714 20.8004
37.61593586281424 20.7844
37.63945667518264 20.8113
37.66297913304891 20.686
37.68668702630454 20.6836
37.710212792059274 20.6015
37.733740207334854 20.6405
37.757269273470364 20.5768
37.780983832050374 20.513
37.80451621684926 20.5247
37.82805025654007 20.4845
37.851585952464795 20.4658
37.8753071980695 20.3228
37.89884622345676 20.3617
37.92238690911902 20.3062
37.94611318753442 20.3015
37.969657210779765 20.2185
37.99320289834801 20.2035
38.016750251586465 20.1101
38.04048325513017 20.1644
38.06403395679343 20.0679
38.087586328183946 20.0944
38.11114037065203 20.072
38.13488012115898 20.0314
38.1584375229181 19.9507
38.181996599821 19.9654
38.205557353221124 19.9686
38.229303872575656 19.8316
38.2528679961576 19.8751
38.27643380031219 19.8579
38.30000128639589 19.7721
38.32375459653193 19.8232
38.34732546371299 19.7771
38.37089801690786 19.7468
38.39447225747609 19.6583
38.418232380377425 19.6393
38.441810012983396 19.7015
38.46538933705673 19.6038
38.488970353960084 19.5527
38.51273731166058 19.562
38.536321731567014 19.5321
38.55990784840681 19.4418
38.58367995004091 19.3635
38.60726947812959 19.392
38.63086070726198 19.4617
38.654453638806274 19.3393
38.678232613930824 19.2485
38.70182896773327 19.2354
38.72542702806741 19.2181
38.7490267963045 19.2119
38.77281266709232 19.1628
38.79641586862214 19.1664
38.8200207821842 19.1056
38.843627409152944 19.1208
38.86742019782782 19.0343
38.891030269149255 19.0266
38.914642058016156 19.0479
38.938255565806124 18.9539
38.96205529464307 18.9462
38.98567225787121 18.9229
39.00929094417078 18.8975
39.03291135492255 18.8434
39.05671804624804 18.8334
39.080341923549106 18.8088
39.103967529460334 18.7388
39.127594865365744 18.6582
39.15140854155791 18.6741
39.17503935514948 18.7031
39.19867190290282 18.6759
39.22249083587951 18.5827
39.24612686969409 18.5508
39.269764641845306 18.5945
39.293404153722804 18.5499
39.317230110864074 18.4213
39.34087311998506 18.4162
39.36451787301696 18.4395
39.388164371352595 18.3642
39.41199737518003 18.3188
39.43564738196752 18.2752
39.45929913825317 18.2931
39.48295264543308 18.2643
39.506792718520884 18.2481
39.530449745387216 18.2298
39.55410852735203 18.223
39.57776906581474 18.2005
39.60161623079 18.1505
39.625280300200025 18.0801
39.64894613032202 18.0181
39.67261372255866 18.0284
39.6964680021016 17.9878
39.72013913657293 17.9913
39.74381203738292 18.0178
39.76748670593756 17.9209
39.79134812278169 17.8957
39.81502634488497 17.9051
39.83870633896685 17.809
39.862388106436654 17.8232
39.88625668336918 17.8139
39.90994201572829 17.7855
39.933629125719285 17.7333
39.957503091207826 17.7167
39.9811937746168 17.7494
40.00488623990914 17.6554
40.02858048850006 17.6001
40.05246165409549 17.5664
40.076159487492085 17.5232
40.099859108448875 17.5816
40.123560518384345 17.523
40.1474489070226 17.5028
40.171153913178564 17.4285
40.194860712584955 17.4219
40.2185693066637 17.4384
40.242464941335314 17.3463
40.26617714307655 17.2965
40.289891143772046 17.3102
40.3136069448471 17.2514
40.33750984859743 17.2743
40.3612292688043 17.2508
40.3849504936829 17.152
40.40867352466194 17.2134
40.43258372059144 17.1653
40.45631038219906 17.1332
40.48003885420956 17.051
40.503769138055105 17.0462
40.52768664931955 17.0518
40.55142057531802 17.0336
40.57515631746428 16.9736
40.599079334038514 17.0597
40.62281872700477 16.9877
40.64655994043941 16.9058
40.67030297578061 16.8391
40.69423334835778 16.8455
40.71798004609188 16.7914
40.74172857006355 16.7634
40.76547892171441 16.7659
40.7894166736039 16.7306
40.813170699248566 16.6959
40.83692655691388 16.6866
40.86068424804498 16.7207
40.884629402612525 16.6973
40.908390779366385 16.6509
40.932153993938 16.6334
40.95591904777605 16.5745
40.979871628443995 16.6018
41.003640379561936 16.5561
41.02741097430883 16.5084
41.05118341413683 16.4736
41.075143444384416 16.3986
41.098919593177826 16.4041
41.1226975914255 16.3527
41.14647744058318 16.3538
41.170444943946755 16.3251
41.19422851378379 16.2784
41.218013938914645 16.3323
41.24198706625173 16.2561
41.26577622087193 16.1912
41.289567235177785 16.1878
41.31336011063129 16.1824
41.337340752422875 16.1453
41.361137369129835 16.1022
41.38493585138705 16.1292
41.40873620066004 16.0601
41.43272438060107 16.0188
41.45652848292052 15.9389
41.48033445666918 15.9237
41.50414230331616 15.9103
41.528138045159764 15.9582
41.551949656675205 15.8621
41.575763145513235 15.8906
41.59957851314666 15.8194
41.62358184070442 15.8041
41.64740098505737 15.7647
41.6712220126409 15.7112
41.69504492493139 15.7285
41.71905586207357 15.687999999999999
41.74288256296395 15.6909
41.766711153007456 15.6194
41.79054163368412 15.642000000000001
41.814560204340054 15.6289
41.838394485526365 15.61
41.86223066180303 15.5638
41.88625497706819 15.5098
41.910094962812 15.5371
41.93393684811168 15.4575
41.95778063445365 15.4121
41.981812625263366 15.4601
42.00566023303407 15.3923
42.029509746323676 15.3452
42.05336116662236 15.3305
42.077400857069705 15.2918
42.10125611078846 15.2936
42.12511327600405 15.2537
42.14897235421036 15.2197
42.173019768448455 15.2433
42.19688269209613 15.2371
42.22074753323349 15.1943
42.24461429335818 15.1267
42.268669455600495 15.120999999999999
42.292540073217886 15.0853
42.31641261433284 15.0495
42.34028708044675 15.0456
42.36435001496739 15.0231
42.38822835065557 15.0056
42.41210861586426 14.9503
42.4359908120986 14.9499
42.46006154323262 14.9242
42.48394762115317 14.8668
42.507835634632315 14.8541
42.531912233047436 14.8515
42.55580413732265 14.8709
42.579697981698 14.8059
42.60359376768525 14.7374
42.62767820545945 14.7524
42.65157789440821 14.7156
42.67547952952185 14.6837
42.699383112316 14.6887
42.72347541395347 14.6524
42.74738291190531 14.5897
42.771292362102166 14.6554
42.795203766063516 14.5704
42.819303956130405 14.5419
42.843219287476536 14.5125
42.86713657716324 14.4757
42.89105582671383 14.422
42.91516392983864 14.3888
42.939087119032166 14.4087
42.963012272677304 14.4341
42.98693939230129 14.3002
43.01105543317513 14.296
43.034986504731386 14.3555
43.05891954686589 14.3229
43.08285456110972 14.3079
43.10697856448665 14.225
43.130917542983475 14.181
43.15485849820081 14.1915
43.17880143167367 14.155999999999999
43.20293342237094 14.1134
43.226880332449 14.0632
43.25082922540554 14.1065
43.27496722682525 14.0819
43.29892010567796 14.0294
43.32287497204102 13.9883
43.34683182745632 13.9865
43.370977859791836 13.967
43.39493871351105 13.9674
43.41890156092628 13.9532
43.44286640358341 13.9226
43.46702049182749 13.9047
43.49098934522816 13.8668
43.51496019852649 13.7934
43.5389330532723 13.7725
43.56309522248204 13.7832
43.58707210044314 13.752
43.61105098451946 13.6748
43.63503187626491 13.6758
43.659202151562134 13.7169
43.68318707902681 13.7378
43.70717401884041 13.6228
43.731162972560874 13.5999
43.75534137913236 13.5489
43.779334381108384 13.5481
43.803329401683186 13.5087
43.82732644241872 13.5419
43.8515130055166 13.4969
43.87551410707659 13.4937
43.89951723350145 13.39
43.923709934595614 13.431
43.94771713129917 13.4122
43.97172635758096 13.3949
43.99573761501002 13.3394
44.0199385169922 13.3157
44.04395385732619 13.2891
44.067971233533086 13.3414
44.09199064718605 13.2623
44.11619977548961 13.2405
44.14022328470671 13.2037
44.16424883610785 13.2
44.18827643127035 13.2278
44.21249381139513 13.2073
44.236525514814076 13.1295
44.26055926674478 13.1008
44.28459506876863 13.0646
44.3088207262813 13.0498
44.33286064928722 13.0151
44.35690262714919 13.0182
44.38094666145278 12.9787
44.4051806219871 12.9741
44.42922879003185 12.9485
44.45327901929361 12.9187
44.477331311362136 12.8567
44.501573600619416 12.8506
44.525630039221795 12.8486
44.54968854541895 12.79
44.573937102200176 12.8057
44.5979997645541 12.8136
44.622064499300315 12.7789
44.64613130803592 12.7276
44.67038823869318 12.7452
44.69445921643748 12.6945
44.718532272981385 12.6766
44.742607409926194 12.6275
44.76687274034801 12.6134
44.79095205918753 12.5904
44.81503346325094 12.5802
44.839116954143876 12.5732
44.86339071028742 12.5378
44.88747839599524 12.5152
44.91156817336837 12.4821
44.93566004401666 12.4911
44.959942251908146 12.46
44.984038330325966 12.4059
45.00813650686762 12.4013
45.03223678314731 12.4261
45.05652746888232 12.3933
45.08063196592069 12.3317
45.104738567558705 12.3171
45.128847275414856 12.3109
45.15314646515866 12.2476
45.17725940679741 12.2427
45.20137445952892 12.2482
45.22568004865265 12.2441
45.24979934496396 12.2027
45.27392075725247 12.1872
45.29804428714431 12.1345
45.322358426247604 12.1456
45.346486212804315 12.0905
45.370616121861914 12.0678
45.39474815505086 12.0589
45.41907087049246 12.0123
45.4432071734666 11.9885
45.46734560548283 11.9968
45.49148616817604 12.0207
45.51581748638564 11.9471
45.5399623320197 11.9073
45.56410931325473 11.8794
45.58825843173002 11.9118
45.61259837920865 11.8921
45.636751793816 11.8388
45.66090735060093 11.8067
45.68506505120716 11.7995
45.7094136545275 11.7827
45.73357566449271 11.75
45.75773982322992 11.7273
45.78190613238733 11.7194
45.806263418194064 11.7237
45.83043404997326 11.6748
45.85460683713677 11.6511
45.87897065658495 11.6727
45.90314777634752 11.6097
45.92732705646868 11.6061
45.9515084986045 11.5628
45.97588104735473 11.5466
46.00006683541565 11.5306
46.02425479047904 11.4985
46.04844491420549 11.4767
46.0728262191024 11.4557
46.09702070211635 11.4175
46.12121735879483 11.46
46.14541619080294 11.4213
46.169806278764455 11.4036
46.194009483459034 11.4329
46.21821486849841 11.3778
46.24242243555223 11.3361
46.266821333570014 11.3067
46.29103328674601 11.2447
46.31524742696538 11.2843
46.33946375590237 11.2775
46.36387149104216 11.2622
46.38809221957392 11.1868
46.41231514186606 11.1527
46.436540259597464 11.1673
46.460956858999374 11.1481
46.48518638983522 11.1542
46.509418121166966 11.0793
46.533652054678114 11.0701
46.55807754555709 11.0596
46.58231590571962 11.0358
46.60655647313217 11.0196
46.630988654873654 10.9767
46.655233659129024 10.9628
46.67948087571551 10.9775
46.70373030632484 10.9604
46.72817142736393 10.9325
46.752425308428684 10.8977
46.77668140861147 10.9065
46.80093972960865 10.8439
46.82538981736788 10.8264
46.849652602470904 10.8356
46.87391761349769 10.8092
46.8981848521493 10.7756
46.9226439341274 10.7755
46.946915650573224 10.7293
46.97118959976749 10.6907
46.99546578341598 10.6628
47.019933887188216 10.6779
47.04421456235744 10.685
47.06849747711879 10.6456
47.09278263318286 10.6487
47.11725978640143 10.6071
47.14154944775105 10.5969
47.165841355555656 10.5816
47.1901355115306 10.567
47.214621741924994 10.5669
47.23892041698887 10.4895
47.26322134538975 10.4898
47.28771440635075 10.4486
47.31201986422527 10.4599
47.33632758061436 10.4527
47.360637557241866 10.4255
47.38513974410611 10.4087
47.40945426407847 10.3291
47.43377104948137 10.3833
47.45809010204344 10.3538
47.48260144275502 10.311
47.506925052572285 10.2466
47.53125093475548 10.2648
47.55557909103813 10.2176
47.58009961361992 10.2313
47.60443234110732 10.1979
47.62876734791564 10.2005
47.65310463578333 10.2183
47.6776343683373 10.1799
47.7019762413987 10.1295
47.72632040075572 10.1211
47.75066684815169 10.0853
47.77520581885936 10.0643
47.799556865477655 10.0918
47.823910205386 10.0796
47.84826584033272 10.0385
47.87281407745551 10.0123
47.89717432569297 9.97909
47.92153687423484 10.0065
47.94609208429692 9.95882
47.97045925671401 9.94543
47.99482873471275 9.91928
48.01920052005013 9.89587
48.04376504619224 9.89685
48.068141469543484 9.90515
48.09252020552573 9.89005
48.11690125590099 9.85851
48.1414751266064 9.81035
48.16586082917454 9.76649
48.19024885144316 9.7664
48.2146391951793 9.77928
48.239222439012764 9.75507
48.26361744916137 9.729289999999999
48.28801478610016 9.71882
48.31241445160131 9.71818
48.337007097209366 9.710510000000001
48.36141144338331 9.687330000000001
48.38581812345755 9.672130000000001
48.41022713920929 9.62096
48.434829215320704 9.615680000000001
48.45924292604658 9.58617
48.48365897780325 9.57391
48.50807737237308 9.5241
48.532688907799276 9.52829
48.55711201168574 9.515310000000001
48.581537463754074 9.51554
48.60615611725119 9.51975
48.63058628942721 9.44745
48.65501881516546 9.42067
48.6794536962573 9.434619999999999
48.70408185970339 9.447339999999999
48.72852147531801 9.404910000000001
48.75296345168211 9.4173
48.77740779059232 9.3722
48.80204549302823 9.36765
48.82649458091802 9.3735
48.85094603676547 9.295060000000001
48.87539986237231 9.282110000000001
48.90004713292306 9.28668
48.92450572200832 9.25489
48.94896668628025 9.23367
48.97343002754588 9.26883
48.99808689542115 9.24953
49.02255501470614 9.18768
49.04702551642794 9.158760000000001
49.0714984023988 9.1429
49.096164896893235 9.129489999999999
49.120642575466796 9.12399
49.145122643748394 9.0925
49.16960510355558 9.1071
49.19428125404938 9.0845
49.2187685210852 9.085
49.243258185121555 9.063080000000001
49.26794160167084 9.02797
49.2924360839405 8.99361
49.31693296869764 8.9754
49.34143225776915 8.9585
49.36612538195438 8.94791
49.39062950396021 8.936160000000001
49.41513603578346 8.895710000000001
49.4396449792564 8.88218
49.46434784069503 8.905660000000001
49.488861631846454 8.8933
49.513377840166804 8.85083
49.537896467493745 8.79036
49.56260909589029 8.760480000000001
49.587132585683285 8.80819
49.611658500018365 8.77541
49.636186840738596 8.76642
49.66090926588511 8.75025
49.685442483902584 8.719710000000001
49.70997813385706 8.69695
49.734516217597076 8.66313
49.75924846937352 8.65034
49.7837914452858 8.64275
49.80833686055187 8.62462
49.83288471702571 8.61553
49.85762682540054 8.61871
49.882179588965734 8.554739999999999
49.9067347993235 8.5332
49.93129245833333 8.55023
49.95604445336378 8.579880000000001
49.98060703442832 8.55204
50.005172069746266 8.52328
50.02993150438364 8.503639999999999
50.05450147301533 8.45502
50.07907390151433 8.48598
50.10364879174981 8.42982
50.12841816587289 8.4168
50.1529980044635 8.39975
50.17758031042124 8.39545
50.20216508562089 8.356539999999999
50.22694442953363 8.35055
50.25153416817468 8.33332
50.27612638170508 8.31432
50.300721072005196 8.30751
50.325510416102105 8.31194
50.350110084975064 8.251669999999999
50.37471223628208 8.26169
50.39931687190919 8.25048
50.424116246675766 8.195039999999999
50.44872587605249 8.211960000000001
50.47333799543065 8.1948
50.49795260670191 8.19095
50.52276204271512 8.161610000000001
50.54738166295838 8.16494
50.57200378079314 8.15226
50.596628398116835 8.115039999999999
50.62144792604559 8.08956
50.646077567609396 8.10843
50.670709714377715 8.09601
50.69553683636198 8.07227
50.72017401885922 8.06447
50.7448137122895 8.05494
50.76945591856022 8.01028
50.79429318636823 7.98035
50.818940443716784 7.96583
50.84359021965163 7.92175
50.868242516085964 7.940460000000001
50.893089960641895 7.9025300000000005
50.917747323549435 7.93502
50.94240721271973 7.90924
50.96706963007175 7.8744
50.99192728239342 7.85169
51.01659478166073 7.874460000000001
51.04126481489051 7.82545
51.06593738400761 7.8302
51.090805275207074 7.83472
51.11548294172845 7.7976399999999995
51.14016314993547 7.80784
51.164845901758845 7.7645
51.18972406304274 7.7381899999999995
51.21441192780656 7.74896
51.23910234200271 7.7256800000000005
51.2637953075678 7.71972
51.288683770237945 7.7012
51.31338186432707 7.6807
51.33808251561888 7.630210000000001
51.362978729967345 7.62724
51.387684521509755 7.645
51.41239287610203 7.60929
51.437103795691165 7.607760000000001
51.46201036644977 7.60372
51.486726441956634 7.5739600000000005
51.51144508832545 7.54404
51.536166307509156 7.53735
51.56108326624387 7.48723
51.58580965706056 7.49565
51.61053862657523 7.4954600000000005
51.635270176746864 7.481139999999999
51.66019755512065 7.44756
51.68493429268881 7.44232
51.70967361681515 7.4247
51.73441552946465 7.3939
51.759353359237934 7.39791
51.7841004750961 7.37511
51.80885018539685 7.385510000000001
51.833602492111254 7.32955
51.8585508051424 7.32615
51.883308330926425 7.29335
51.90806845906181 7.295560000000001
51.932831191525715 7.270689999999999
51.95779001977161 7.269080000000001
51.98255798721516 7.2192
52.00732856494335 7.21064
52.03229530577543 7.22082
52.057071130455945 7.209960000000001
52.081849571391054 7.21195
52.106630630568695 7.17665
52.13160794279417 7.153630000000001
52.15639426492067 7.12818
52.18118321127822 7.1146
52.205974783860896 7.12367
52.23096269971011 7.10854
52.255759551287994 7.10285
52.280559035098186 7.09169
52.30536115314103 7.043810000000001
52.33035970494467 7.04339
52.35516711807904 7.04317
52.37997717147198 7.01288
52.40478986713005 7.02323
52.42979908731974 6.99862
52.454617094216 7.00925
52.47943774942214 6.94152
52.50426105495102 6.937119999999999
52.529280976059844 6.92081
52.554109609024096 6.909510000000001
52.57894089837482 6.87512
52.60377484613117 6.92051
52.62880550079408 6.88607
52.65364479223379 6.8541
52.67848674816189 6.84179
52.70352547971946 6.833760000000001
52.72837279155837 6.81572
52.753222773982785 6.79482
52.778075429022984 6.8002199999999995
52.80312495150885 6.8163
52.827982978797436 6.7983199999999995
52.85284368481815 6.7518199999999995
52.87770707160767 6.72315
52.90276741793998 6.6901600000000006
52.92763619336701 6.6536100000000005
52.952507655698504 6.69764
52.977381806977576 6.67338
53.00245301017842 6.6382
53.02733256653592 6.661639999999999
53.052214817996074 6.626
53.077099766608484 6.6015
53.102181859804446 6.6171
53.127072229988265 6.62283
53.15196530349892 6.591889999999999
53.17686108239249 6.565410000000001
53.20195409881522 6.55385
53.22685531582556 6.50766
53.25175924441303 6.489319999999999
53.27666588664027 6.49303
53.30176985962693 6.49736
53.3266819565689 6.49985
53.35159677336455 6.4871300000000005
53.376514312083096 6.39848
53.40162927507703 6.41915
53.42655228516116 6.437880000000001
53.45147802340193 6.40906
53.47660125628886 6.413469999999999
53.50153247842639 6.3849599999999995
53.52646643496923 6.37244
53.55140312799818 6.3513
53.576537409691696 6.35888
53.60147960336152 6.34385
53.626424539786164 6.33408
53.65137222105307 6.30262
53.67651758529126 6.28676
53.70147078399681 6.26411
53.72642673383343 6.25125
53.75138543689533 6.27414
53.776541917524526 6.207319999999999
53.801506154876755 6.2241599999999995
53.826473151763246 6.20834
53.851442910284916 6.1904
53.87661054126026 6.201980000000001
53.9015858509782 6.2151
53.92656392866066 6.15319
53.95154477641532 6.15382
53.976723591801296 6.11868
54.00171000771266 6.11262
54.02669920004598 6.1222
54.051691170915745 6.0814699999999995
54.076881204886796 6.06083
54.101878760928514 6.05576
54.12687910187696 6.0552
54.152077577768296 6.01919
54.1770835166946 6.02475
54.20209224691339 6.014819999999999
54.22710377055121 5.99262
54.25231352511594 5.96256
54.27733066384342 5.99554
54.30235060239643 5.97389
54.32737334290836 5.90445
54.35259441062629 5.89038
54.377622783395324 5.8939
54.40265396455061 5.8756900000000005
54.42768795623251 5.81959
54.45292037169559 5.81746
54.477960012857906 5.87924
54.50300247099511 5.7813300000000005
54.52804774825457 5.78328
54.55329154616743 5.74669
54.57834249018678 5.730119999999999
54.6033962597977 5.75218
54.6284528571545 5.69609
54.653708072335164 5.65728
54.67877035378786 5.660019999999999
54.70383546947698 5.63779
54.72890342156389 5.63486
54.7541700889442 5.58406
54.77924374251975 5.593999999999999
54.8043202390049 5.56763
54.82959552413022 5.49032
54.8546777351945 5.57282
54.87976279569621 5.517580000000001
54.90485070780914 5.49446
54.930137506558005 5.46885
54.95523115074295 5.47682
54.98032765308844 5.42178
55.005427015775496 5.42061
55.03072536339621 5.4117
55.05583047570572 5.352
55.080938454927676 5.34998
55.10604930325027 5.37091
55.131359235107396 5.3879
55.15647585066083 5.27153
55.181595341907496 5.29822
55.20671771104285 5.2754199999999996
55.232039262617704 5.25488
55.25716741665048 5.1988900000000005
55.28229845518636 5.21587
55.30743238042802 5.1807099999999995
55.33276558731939 5.14403
55.357905315183636 5.11421
55.383047936390035 5.06711
55.40819345314859 5.0544400000000005
55.433538351073295 5.04241
55.458689688238415 5.07431
55.483843927614096 5.00747
55.509197623043605 4.96669
55.53435769621134 4.94358
55.55952067826466 4.9199
55.5846865714265 4.905530000000001
55.61005202069737 4.96955
55.63522376553902 4.902819999999999
55.66039842818645 4.87328
55.68557601087004 4.892469999999999
55.7109532500271 4.76832
55.73613670233794 4.80106
