TT I
1.2716486653135266 7.279710000000001
1.2939594142134223 7.35715
1.3162702121660406 6.8132600000000005
1.3385810600174564 6.569139999999999
1.3608919586137629 6.39436
1.383202908801069 5.894419999999999
1.405513911425503 6.34861
1.4278249673332093 6.46199
1.4501343378461518 6.40207
1.4724455028545926 5.79049
1.4947567236847858 5.576630000000001
1.517068001182951 6.08258
1.5393793361953272 5.98076
1.5616907295681737 5.13785
1.5840021821477681 5.40986
1.60631369478041 5.1157
1.6286252683124185 5.22475
1.6509369035901333 4.98601
1.6732468618895553 4.97642
1.695558623192809 4.73519
1.7178704487808514 5.01079
1.7401823395001077 4.56125
1.7625012545597203 4.46226
1.7848028405262486 4.9576
1.8071218901122095 5.02531
1.8294236121921872 5.03426
1.8517427996910911 4.55091
1.8740620574440425 4.59267
1.8963639900671978 5.03465
1.9186833908139995 4.535909999999999
1.9409854680117449 4.3003599999999995
1.9633050151394713 4.87321
1.9856246367570705 5.0991800000000005
2.0079269371922672 4.72472
2.03024671027244 4.6899
2.0525491637446027 4.31182
2.074869091674931 4.83518
2.097171701569106 4.75594
2.1194917877373847 4.85002
2.141811954326636 5.609
2.164114805233074 5.10625
2.186435135143035 4.93011
2.208738150935709 6.01694
2.231058647554722 6.763960000000001
2.2533792288321184 6.17647
2.275682498336085 5.90319
2.298003251406138 5.6441099999999995
2.3203066942619714 5.466819999999999
2.3426276225136022 5.3413900000000005
2.3649486396617507 5.50065
2.387252348930071 6.0268
2.4095735463442893 5.79637
2.4318774374315884 5.6342300000000005
2.4541988185014043 6.3735
2.476502894794693 7.136639999999999
2.498824462909887 7.30885
2.521146125856138 7.21572
2.5434504863470337 7.63589
2.5657723414244717 8.25496
2.588076895590662 8.5312
2.610398946189713 8.378630000000001
2.6327210958598384 8.42441
2.6550259469304716 8.724160000000001
2.6773482972090137 8.89809
2.6996533504259 8.44099
2.7219759047039602 8.58431
2.744298562293959 8.36024
2.7666039251246595 8.80127
2.7889267918020164 8.658560000000001
2.8112323652516555 8.73059
2.833555444408179 8.50517
2.8558786311183852 8.29974
2.8781845268938557 8.98816
2.9005079311721484 9.65586
2.9228140460410397 9.17109
2.9451376712799635 9.302589999999999
2.967444008632326 9.4874
2.9897678582247247 9.97439
3.0120918213106695 10.1909
3.0343984987899373 10.3887
3.0567226913198637 11.0226
3.079029599759726 11.5417
3.101354025127254 12.2384
3.123678568232338 12.665
3.145985829517914 12.9265
3.16831061055229 13.2535
3.1906181112775593 13.6826
3.212943133635653 15.050999999999998
3.2352682779763207 15.3872
3.2575761442691227 15.5283
3.2799015350264273 15.844000000000001
3.302209649240067 15.8462
3.3245352898092655 16.2839
3.3468436553365257 16.875
3.369169549113219 17.0334
3.3914955708171384 18.337
3.413804319727358 18.5853
3.4361305997334863 18.5988
3.4584396084414553 19.0356
3.4807661501462652 19.768
3.503092824025881 20.0743
3.5254022288463154 20.373
3.5477291695206588 20.6776
3.5700388426251948 21.4525
3.5923660534916446 22.2183
3.6146934007816114 23.9693
3.637003482731501 28.0201
3.6593311053109985 30.1272
3.681641464033634 26.5551
3.7039693653009733 24.5514
3.726297407241705 24.8645
3.7486081875460804 24.9321
3.7709365132734978 25.0988
3.793247578841633 26.0786
3.8155761917550093 26.3415
3.8378875459837216 26.4136
3.8602164494827234 27.1769
3.882545499606844 27.6673
3.9048572932539183 28.4257
3.9271866390645718 28.8831
3.9494987298666713 29.1425
3.971828374764527 30.0688
3.9941581705403255 30.2782
4.016470713506008 30.683000000000003
4.038800813471445 31.3273
4.061113662089144 31.9162
4.0834440696459176 32.4831
4.105774632334751 32.8334
4.128087945865126 33.7927
4.150418821249301 34.3729
4.172732448931298 34.834
4.195063640413578 35.9683
4.2173775856475215 36.4862
4.239709096631102 39.6065
4.262040768704612 55.2982
4.284355196706267 64.013
4.306687193387355 54.8422
4.329001947444346 44.3914
4.35133427213731 42.0783
4.373666762177566 41.5492
4.395982011761091 42.1521
4.418314834921175 43.4338
4.44063041906622 45.0774
4.4629635787515625 47.1269
4.4852969080429785 48.1073
4.5076130004776225 50.0321
4.529946671403969 53.8685
4.552263106909177 57.0872
4.574597122877047 55.0082
4.596931312711224 52.8106
4.619248269273446 52.8835
4.6415828092605835 53.9567
4.663900117405352 54.9897
4.686235010953232 56.5663
4.708552674085913 58.0757
4.730887924602802 59.4491
4.753223354952695 61.4446
4.775541557023902 64.1751
4.797877349456786 66.8684
4.820195915032126 67.7096
4.842532072957498 67.7574
4.864868414979744 70.5699
4.88718753227192 74.3406
4.909524244902505 76.2059
4.931843734218147 76.2019
4.954180820867835 78.1241
4.976518095879839 80.6927
4.998838149695359 82.98200000000001
5.021175803844231 86.5563
5.043496238205739 89.4695
5.065834274903528 93.818
5.088172504230693 98.075
5.1104935158799565 104.3
5.132832132875765 116.706
5.155153533596801 135.846
5.1774925416746225 177.118
5.199814334878411 386.897
5.2221537374521505 1030.71
5.244493338631803 2856.21
5.266815727034316 8047.04
5.289155727832427 13806.2
5.311478517248165 8406.84
5.333818921080011 2252.47
5.356159527788849 417.805
5.3784829252032536 177.847
5.400823940070432 143.608
5.423147747031976 125.064
5.445489173474152 116.445
5.467830807066149 116.85
5.490155234831516 116.226
5.512497285125229 110.45200000000001
5.534822130975162 104.557
5.557164601388673 100.721
5.579489868738879 98.155
5.601832762690846 96.8941
5.6241758697774475 95.4677
5.646501775867269 94.6781
5.668845311622074 94.8338
5.691171647754637 93.8381
5.713515615597765 92.2762
5.735859800852677 92.0205
5.758186788542988 93.6915
5.780531411018185 96.4414
5.802858837297399 95.7911
5.825203900414495 95.8283
5.8475491852224 98.2513
5.869877275883075 96.572
5.892223006467101 94.4927
5.914551544266608 93.6953
5.936897724049891 97.0288
5.959244129804903 104.095
5.981573344815301 133.409
6.0039202049061 248.74099999999999
6.026249875609095 487.01300000000003
6.04859719346037 981.28
6.070927323278297 2303.01
6.093275102315365 4763.98
6.115623113320588 5513.82
6.137953938319995 2820.07
6.160302415650845 748.71
6.182633708324452 179.41299999999998
6.2049826554078376 100.03200000000001
6.227331838745022 86.4938
6.249663839443684 81.1685
6.27201349767565 77.3123
6.294345974611799 75.9581
6.316696111167083 75.0856
6.339046488263839 73.6601
6.361379686074702 71.3064
6.383730546639482 69.3206
6.406064229255215 68.6866
6.428415576718203 69.6242
6.450749747566656 68.0052
6.47310158535871 65.9534
6.495453669698332 64.1227
6.517788579421056 63.5
6.540141159237969 62.6387
6.562476565766648 62.0013
6.5848296444934045 61.7601
6.607182974060425 61.8422
6.6295191323281015 61.6094
6.651872965955752 60.4711
6.6742096296068985 61.6012
6.6965639707294615 66.0065
6.71891856698715 65.4418
6.741255995248479 61.2522
6.763611104154477 58.1795
6.785949046381137 57.5052
6.808304671371482 57.9456
6.8306605557940046 59.0488
6.852999275508618 57.943000000000005
6.875355681171544 56.638999999999996
6.897694923437771 55.7236
6.92005185377892 55.3044
6.9423916220322655 55.0405
6.964749080490181 54.4598
6.987106804399774 55.0292
7.009447368180821 55.1112
7.031805625367033 54.4575
7.054146723727803 54.3226
7.076505517631004 53.6619
7.098864581288365 54.1416
7.121206488070854 53.7905
7.143566093607822 54.0906
7.165908543567245 55.038000000000004
7.188268694426048 55.1143
7.2106291193438095 54.0496
7.232972390625943 53.4125
7.255333366030969 54.0437
7.277677189091925 58.5126
7.300038718428332 63.4555
7.322400526130865 61.2144
7.344745183422596 56.6866
7.367107550224791 53.6547
7.389452767901992 53.2709
7.411815697249891 53.3018
7.434161478756298 52.68
7.456524974096713 52.8016
7.478888753837185 52.7761
7.501235387657368 53.4676
7.523599738562711 53.9003
7.545946944825532 55.2746
7.568311870344528 56.1828
7.5906770845765665 54.9728
7.613025156078678 54.422
7.635390950099687 54.7078
7.657739602662809 54.6813
7.680105979923558 55.3509
7.702472650212829 56.1452
7.724822180948224 55.7833
7.747189439655568 55.3991
7.769539560075357 54.9043
7.791907410653562 55.6406
7.81425812420825 55.88399999999999
7.836626570110925 56.0113
7.858995315087906 56.7008
7.881346924933401 57.0487
7.903716270417482 57.3145
7.926068482028405 57.8307
7.948438431475253 58.7252
7.9708086843180235 59.0105
7.993161805171116 59.7365
8.015532667162402 60.104
8.037886398416653 61.4745
8.060257873014221 62.0257
8.082629655331942 62.6324
8.104984308787587 63.1046
8.127356708900503 64.2928
8.149711981398308 67.5196
8.172085002766314 69.1052
8.194458336181368 68.0593
8.216814543847752 67.6319
8.23918850371002 68.4845
8.26154533906492 69.5281
8.283919928836452 71.2547
8.306277395339652 72.2182
8.328652618483376 73.4404
8.351028159736202 75.5962
8.373386579575245 77.7689
8.395762759396959 79.4057
8.418121819038275 81.9253
8.440498640894003 86.3739
8.462875785192262 96.7178
8.485235811156207 125.09100000000001
8.507613602688501 181.678
8.529974277114228 272.847
8.552352719347912 407.152
8.574731488360351 667.638
8.59709314210385 1251.21
8.619472567021075 2050.7
8.64183487789147 2344.52
8.664214962183097 1732.98
8.686577933647762 792.3969999999999
8.708958680784317 290.008
8.731339760774953 136.124
8.753703729764451 102.976
8.77608547780821 95.0605
8.798450116065078 92.7244
8.820832535634787 91.02
8.843215292401656 91.1652
8.865580941199045 90.2734
8.887964374703538 89.9281
8.910330701447199 89.62
8.932714815164482 89.012
8.955099270424924 86.5606
8.977466620733543 84.6594
8.999851761421976 84.1971
9.022219798361645 83.1293
9.04460562795561 83.1155
9.066991803441677 83.3995
9.089360876979615 83.928
9.111747746589993 83.7622
9.13411751544971 82.8603
9.156505082664324 81.9422
9.178875550323522 81.3363
9.20126381862328 81.9343
9.223652438908596 83.2456
9.246023961427412 84.3347
9.26841328802173 84.9478
9.290785518039224 83.9649
9.313175554425882 84.6172
9.335565947154315 85.4123
9.357939245086508 86.0054
9.380330352834827 85.0824
9.40270436697103 84.7323
9.425096193225055 84.1775
9.447488380180165 84.1753
9.469863475295412 84.1744
9.492256385987508 84.1812
9.514632206018318 84.8655
9.537025843935714 85.1918
9.559402392368193 86.4617
9.581796761000229 88.7791
9.604191496441521 90.0513
9.626569144158516 91.712
9.648964615551032 92.2031
9.671343000390081 91.505
9.693739211225699 91.103
9.716135793237463 91.6735
9.738515290448102 92.4396
9.760912617143402 93.9723
9.783292860202891 95.87299999999999
9.805690935076182 98.0481
9.828089385495742 98.7013
9.850470754023561 99.9115
9.872869957865444 101.63799999999999
9.89525208097539 105.057
9.917652041736662 110.50299999999999
9.940052382417589 122.04
9.962435644102392 152.07299999999998
9.984836746950979 196.833
10.007220771957746 261.869
10.029622640473708 369.23199999999997
10.052007432299963 550.257
10.074410069984072 855.299
10.096813093716005 1355.46
10.119199042482517 1912.51
10.141602840636468 2019.88
10.163989564971628 1454.71
10.186394141051062 719.552
10.208799107559706 304.113
10.231187001965623 158.888
10.253592751657669 117.04899999999999
10.275981430388155 107.944
10.298387966769793 105.34899999999999
10.320794897965431 105.041
10.343184759907361 103.647
10.36559248305461 102.475
10.387983138083852 104.022
10.410391656691655 111.611
10.432800574501677 124.055
10.455192425893369 140.336
10.47760214443012 167.583
10.499994797678786 212.93400000000003
10.522405320453982 297.33299999999997
10.54479877906917 422.866
10.567210109595656 554.476
10.5896218454736 592.8340000000001
10.612016518879773 466.496
10.634429067781074 286.175
10.656824555333241 165.201
10.679237920773568 110.03299999999999
10.701651695961992 92.1364
10.724048411481384 88.0083
10.746463008485165 85.7332
10.768860546937125 83.7021
10.791275969274796 82.3657
10.81369180576079 81.3495
10.836090585366925 80.4143
10.858507252467449 78.918
10.88090686379991 77.9723
10.903324365036394 77.22800000000001
10.925724811614439 76.508
10.948143150509463 76.5547
10.970561909719066 75.8088
10.992963615930844 75.3751
11.015383218085756 74.0017
11.037785768347074 72.7055
11.06020621697282 71.6247
11.082627090322113 70.6507
11.105030913430326 70.2697
11.12745263854165 70.0364
11.149857314510728 69.538
11.172279894912576 69.8565
11.194702904450653 69.2169
11.217108866490921 68.3892
11.239532736615194 67.57600000000001
11.26193956033512 66.9998
11.284364294577085 66.868
11.306789462371718 66.3546
11.329197585398376 65.6772
11.351623622610898 65.9732
11.37403261614354 65.2645
11.396459526308487 64.8985
11.418869393879497 64.6966
11.441297180532617 64.3344
11.463725406927658 63.8819
11.486136592353875 63.5258
11.508565700543707 63.4177
11.530977768845315 63.4633
11.553407762368774 63.485
11.575838200059769 63.4009
11.598251599479612 62.7101
11.620682927815501 62.6183
11.64309721895548 62.6359
11.665529441478206 62.1455
11.687962112597958 62.2073
11.710377748130886 62.193000000000005
11.732811318753434 61.9826
11.755227854859067 61.868
11.777662328529495 61.739
11.800079768750786 61.9116
11.822515149015453 61.8294
11.844950984084935 62.2023
11.867369787303163 61.5091
11.889806534289491 61.6219
11.912226250487029 62.0674
11.934663912939751 62.5847
11.9571020346363 63.343999999999994
11.979523127133968 63.3871
12.001962169624331 64.2779
12.024384183972964 65.8705
12.046824150809913 69.2463
12.069264581333726 73.6082
12.091687985297767 80.1241
12.11412934550045 89.1218
12.136553680195208 105.331
12.158995973632788 128.733
12.181438735204349 159.195
12.20386447284199 192.93400000000003
12.226308172985636 207.32299999999998
12.24873485024193 190.327
12.271179492516982 148.952
12.293607112949127 107.87100000000001
12.316052700916226 81.0861
12.338498763250042 68.5801
12.360927805303868 63.891000000000005
12.383374818673879 63.0277
12.405804812803074 62.8428
12.428252780773262 62.963
12.45070122756722 63.35
12.473132656675375 63.1112
12.49558206341869 63.821999999999996
12.518014453510101 63.912
12.540464823770117 63.8693
12.562915677315177 63.9906
12.58534951575545 64.2
12.607801338171472 64.0787
12.630236146511358 64.907
12.652688941369085 65.6654
12.675124723177234 66.2186
12.697578494048786 66.3231
12.720032754458185 66.1831
12.742470003354093 66.2831
12.764925245138771 66.7717
12.787363476431278 67.0253
12.809819703166806 67.2312
12.83227642391173 68.1192
12.854716135692716 68.8869
12.877173846755147 70.3438
12.899614549869717 70.7885
12.9220732548287 71.5691
12.94453245827299 72.1269
12.966974655289818 73.0453
12.989434858002571 73.8013
13.011878055298721 74.3795
13.034339260862497 75.8733
13.056800969391883 77.0865
13.079245674017244 80.1549
13.101708390774869 84.7709
13.12415410463411 93.2768
13.146617833206086 103.209
13.169064559883248 114.15100000000001
13.191529303857127 129.576
13.213994557076367 152.945
13.236442809902437 190.454
13.258909083908291 250.986
13.28135835851934 325.586
13.30382565690295 401.78
13.326293469022952 449.486
13.348744283242008 413.935
13.371213125129904 318.026
13.39366497011003 216.09
13.416134845360597 145.69299999999998
13.438605238843131 112.105
13.46105863690397 104.18299999999999
13.483530069144786 106.54700000000001
13.505984506951902 112.76899999999999
13.528456981549432 123.824
13.550929978879088 139.558
13.573385983253365 164.12400000000002
13.595860028340867 202.797
13.618317081455832 257.688
13.64079217790333 327.22
13.663250283359057 377.949
13.685726434770173 385.12699999999995
13.708203115221277 321.22700000000003
13.730662806148091 236.41400000000002
13.75314054697177 160.549
13.775601299246777 112.646
13.798080104050406 90.5581
13.820559442405358 83.03299999999999
13.843021793671388 79.9389
13.865502201420897 78.7594
13.887965623051947 78.4463
13.910447103807167 77.4412
13.932929122629764 76.3411
13.955394156785959 76.0303
13.977877254034569 75.0523
14.000343367582113 74.0565
14.022827546871707 73.4598
14.045294743423524 72.6384
14.06778000837062 71.9624
14.090265817715476 72.1778
14.112734645763819 71.581
14.13522154619454 71.445
14.157691466286913 71.361
14.180179461423874 71.1942
14.202668005486178 70.6234
14.22513957064374 70.0557
14.247629214846473 69.646
14.270101881097517 69.3888
14.29259262906496 68.9445
14.315083930490205 68.8819
14.337558255389705 68.875
14.360050666019726 68.8885
14.382526101071944 68.7282
14.405019624534942 68.3635
14.427513705993134 68.072
14.449990813291825 68.1985
14.47248601302899 67.8891
14.49496423954951 67.9906
14.517460561197822 68.0411
14.539939910570322 67.8298
14.562437357763558 68.0492
14.58493536931253 68.4035
14.607416409993311 68.4575
14.62991555254159 68.94800000000001
14.652397725157423 69.023
14.674898002342799 69.5121
14.697398848433282 69.9456
14.719882725991326 71.4115
14.74238471217934 73.3824
14.764869730765593 76.8994
14.787372860692983 79.8647
14.809876564079925 84.6363
14.83236330125751 90.8125
14.854868153850365 99.7912
14.877356041159485 114.461
14.899862046604186 133.195
14.922351087688757 161.22299999999998
14.944858249632887 195.017
14.967365991421232 222.273
14.989856770231246 231.245
15.012365673994204 212.267
15.03485761569738 174.766
15.05736768508665 130.827
15.07987833888692 100.589
15.102372032001655 82.363
15.124883856909658 73.2694
15.14737872204565 70.54899999999999
15.169891721717274 69.2664
15.192405310371893 68.8697
15.214901940621196 68.4774
15.237416709527137 67.8664
15.259914520936249 67.6233
15.282430473753607 66.9188
15.304947020131227 66.2542
15.327446610371178 66.3986
15.349964346154254 66.1756
15.372465126703139 66.0019
15.394984055556009 65.7678
15.417486030076159 65.4587
15.44000615566487 65.3046
15.462526881230803 65.0024
15.485030653812652 64.953
15.507552581617434 64.6969
15.530057557334603 64.8302
15.55258069104857 64.9418
15.575104429329837 65.1729
15.597611216864632 65.2814
15.620136166564563 66.1257
15.6426441664095 67.8914
15.665170331202765 70.2967
15.687697105158826 73.2477
15.710206930593545 76.4134
15.732734925158933 81.3162
15.755245972089478 88.0024
15.77777519094324 97.0195
15.800287463046663 110.09299999999999
15.822817909869592 130.295
15.84534897229804 153.546
15.867863089299354 180.545
15.890395385222186 197.477
15.912910736597423 195.877
15.935444269699861 173.732
15.957978423016485 139.388
15.980495633101265 107.58
16.003031029129367 84.6713
16.02554948280019 70.3453
16.048086125229432 64.2716
16.070623392487107 62.4037
16.09314371869582 61.4692
16.11568223789321 60.651
16.13820381691126 60.0098
16.160743591742527 59.6755
16.183283996022084 59.1831
16.205807461423195 58.5189
16.228349126881973 57.9075
16.25087385432698 57.8825
16.27341678466365 57.1942
16.29594277784926 56.9077
16.31848697676433 56.5744
16.341031811604868 56.2089
16.36355971058487 56.1048
16.3861058195587 55.9998
16.40863499352978 55.4441
16.431182380342005 55.0804
16.453730407713202 54.9995
16.476261501364792 54.7809
16.498810812136167 54.7146
16.52134319004079 54.6129
16.54389378792203 54.4345
16.566445031001553 54.3302
16.588979342490088 54.1689
16.61153187824822 54.2759
16.634067483263312 54.19
16.656621315414416 53.9854
16.679175797408888 53.7363
16.701713349928728 53.8224
16.72426913389191 53.7732
16.74680798922351 53.7964
16.76936507887444 53.8292
16.791905240734874 53.8265
16.814463639794468 53.7721
16.837022695210294 53.7514
16.859564824093756 54.0514
16.882125194503903 54.0321
16.904668639217885 54.3486
16.927230328348003 54.053000000000004
16.949792678493612 54.512
16.972338104193863 54.512
16.994901778652235 54.4525
17.017448529496576 54.7561
17.040013531998152 55.3404
17.06257920018044 55.9182
17.0851279459922 56.6736
17.107694947817667 57.434
17.130245028099072 58.1665
17.15281336730298 59.4936
17.17536478578733 61.2547
17.19793446610687 63.7264
17.220504818648422 66.6077
17.243058251703697 70.1352
17.265629950971032 75.0915
17.288184731571736 80.2492
17.310757781306908 83.47200000000001
17.33333150794385 83.287
17.355888317140174 79.5085
17.37846339986244 72.5475
17.401021565958885 66.8169
17.42359800851343 62.7099
17.44617513265564 60.1092
17.468735341390783 59.0853
17.491261035594565 58.4063
17.51396340099364 58.0947
17.536490463869136 58.1372
17.559018209820174 58.2457
17.58154663977963 58.4301
17.604251766089718 58.5649
17.626781572227713 58.9127
17.64931206518155 59.1297
17.671843245885103 59.2928
17.69455114821572 59.4727
17.717083712612634 59.9332
17.739616967569667 60.3161
17.762150914021706 60.8294
17.78486160749854 60.9566
17.807396945166804 62.2394
17.829932977143503 63.3544
17.85246970436452 64.8502
17.875183204129467 66.4341
17.897721330097664 68.4297
17.920260154126645 70.7546
17.942799677153296 74.1615
17.9655159983646 78.1142
17.988056927677544 83.3562
18.010598558807683 91.2342
18.033140892692916 102.046
18.05586005052525 114.48
18.07840379824407 128.554
18.10094825154059 138.39600000000002
18.12366954819864 142.19799999999998
18.146215420998306 136.42
18.16876200220057 123.711
18.191309292745153 108.27600000000001
18.214033452627167 94.5389
18.236582170236648 86.7239
18.259131600016456 83.4956
18.281681742907335 85.1339
18.304408781233683 90.96
18.32696035875955 97.4374
18.349512652227624 102.09100000000001
18.372065662579683 105.706
18.394795594587553 104.87200000000001
18.41735004715306 97.5069
18.43990521943684 88.7972
18.46246111238171 80.4917
18.485193953325208 71.654
18.507751296070428 66.2864
18.530309362314178 63.5702
18.552868153000343 61.9792
18.57560391815056 60.9585
18.59816416623245 60.6844
18.620725141597372 60.2153
18.643286845190268 59.6508
18.666025549835414 59.5007
18.688588718427933 58.6712
18.711152618092243 58.6938
18.73389353884365 58.4186
18.75645890921984 58.1217
18.77902501351406 57.7994
18.801591852673102 57.9136
18.824335739722738 57.263999999999996
18.846904057212626 57.2892
18.8694731124168 56.8847
18.89204290628315 56.9513
18.914789774966803 56.8223
18.937361054791623 56.2893
18.959933076131318 56.1286
18.982505839934877 56.1269
19.00525570560582 56.1255
19.027829963004184 55.7171
19.05040496572238 56.0056
19.072980714710468 56.4266
19.095733592739563 56.4179
19.11831084296757 56.5114
19.140888842324735 56.7461
19.16346759176222 57.0942
19.18622349753803 57.4776
19.208803755869358 58.4275
19.231384767143577 60.043
19.253966532312948 61.5044
19.276725481241822 63.7352
19.29930876296784 66.3218
19.3218928014549 69.5059
19.34465404436217 72.5758
19.36723960516257 74.6341
19.389825925592426 74.9876
19.412413006605938 72.6424
19.43517731967805 68.3738
19.457765930683355 63.7048
19.48035530514408 59.5576
19.50294544401556 56.8981
19.525712842708348 54.8528
19.54830451925909 53.9802
19.570896963095727 53.2612
19.593490175174704 53.0798
19.616260674962184 53.1143
19.638855432416964 52.6069
19.661450960992624 52.9482
19.68404726164677 52.6619
19.706820878021247 52.5582
19.729418731756834 52.7144
19.752017360452857 52.6434
19.77461676506804 52.876999999999995
19.797393513540218 53.0814
19.819994478951667 53.2984
19.84259622316767 53.7707
19.8651987471481 54.1754
19.887978643247177 54.2081
19.91058273574792 54.8447
19.933187610901943 55.6696
19.955969879466828 56.9017
19.97857632894404 58.398999999999994
20.00118356396599 60.2583
20.023791585494575 62.5896
20.046577028914875 65.5503
20.069186632506966 68.0729
20.091797025500632 69.797
20.114408208858933 69.6883
20.137196842715273 68.8828
20.159809615886765 66.256
20.18242318232135 63.1901
20.20503754298326 61.1747
20.227829382875154 60.7967
20.250445341109344 61.3469
20.27306209647285 62.4371
20.29567964993108 64.1132
20.31847471147704 65.0088
20.34109387027612 65.3669
20.363713830075454 64.1842
20.386334591841646 61.8482
20.409132890679302 58.6053
20.431755265564437 55.803000000000004
20.454378445325528 53.3121
20.477002430930366 51.7135
20.499803982716553 50.6518
20.522429589228004 49.9883
20.54505600449589 49.7207
20.567683229489194 49.7184
20.590488049900088 49.5672
20.61311690359731 49.3142
20.63574656993626 49.1811
20.658553853717297 48.7376
20.681185154618298 48.7246
20.703817271080066 48.7985
20.72645020407368 48.4064
20.749260783967177 48.4425
20.771895359337133 48.3579
20.794530754161617 48.2475
20.817166969412938 48.2433
20.83998086114876 48.2221
20.86261872660049 48.0333
20.885257415405402 48.0578
20.90789692853701 48.0009
20.930714147864748 47.8092
20.953355319030678 48.0145
20.97599731745334 48.1148
20.99864014410749 47.9002
21.021460706796564 47.934
21.044105199328826 48.0966
21.06675052302631 48.3482
21.089396678865015 48.4563
21.112220600704806 48.7292
21.134868430275347 49.136
21.15751709492456 49.4052
21.180166595629693 49.7158
21.202993892429635 50.2874
21.22564507473034 50.756
21.24829709602816 50.74100000000001
21.27112693608965 50.868
21.293780644891275 50.5329
21.316435195634053 49.7313
21.339090589297417 49.1495
21.361923832041875 48.5754
21.384580921090404 47.9553
21.407238856007325 47.6284
21.429897637773326 47.5973
21.45273429906592 47.8515
21.475394784108598 47.8037
21.498056118951983 47.6623
21.520718304578022 48.0149
21.543558400304388 48.1405
21.566222297108816 48.2625
21.58888704765135 48.476000000000006
21.61155265291521 48.8429
21.63439619898156 49.3252
21.657063523335786 49.553999999999995
21.67973170537063 49.9268
21.7024007460706 50.5541
21.72524775840385 51.3443
21.747918526116475 52.2588
21.770590155457388 53.5703
21.79326264741238 55.1577
21.816113141960237 57.0732
21.838787368860547 59.1798
21.861462461341976 61.2278
21.884315579735777 63.2561
21.90699241312273 64.3294
21.92967011506078 64.2321
21.95234868653799 62.5842
21.9752053151131 60.795
21.997885635446785 58.7524
22.020566828293532 56.9759
22.04324889464272 55.6226
22.066109049404666 55.0081
22.088792872571794 55.1804
22.111477572219204 55.5222
22.1341631493376 55.5587
22.157026846313123 54.9345
22.179714188221507 54.038999999999994
22.202402410582668 52.5597
22.22509151438863 51.2189
22.24795876962584 49.9345
22.270649646204486 49.2217
22.293341407213727 48.7444
22.316034053646906 48.4548
22.338904883215342 48.2392
22.36159931041458 48.2584
22.38429462602756 48.1095
22.40699083104897 47.9273
22.429865251039757 47.9179
22.452563244831367 48.0466
22.47526213102522 47.8147
22.49813925616515 47.8836
22.520839937143307 47.7982
22.543541513520587 47.989
22.56624398629403 47.8761
22.589124730075895 47.6054
22.611829005656723 48.0083
22.63453418063466 48.1076
22.657240256008077 48.3232
22.680124634582935 48.4537
22.70283252079775 48.733000000000004
22.725541310413075 48.9637
22.74825100442868 49.1688
22.771139033969575 49.8591
22.79385054687155 49.9792
22.81656296718292 50.591
22.83927629590484 51.4637
22.862167992606945 52.6074
22.88488314827121 53.798
22.907599215359284 54.8991
22.93031619487366 56.1659
22.953211574954405 56.833
22.975930389478226 57.1992
22.998650119445763 57.0094
23.02137076586092 55.7563
23.044269845560063 54.0198
23.06699233506288 52.3313
23.089715744034912 50.9107
23.112617610931565 49.5173
23.135342869061212 48.742
23.158069049684816 48.1936
23.1807961538087 47.8799
23.20370174880544 48.0144
23.226430710184808 48.0748
23.249160598093425 48.2454
23.271891413539002 48.16
23.294800752937697 48.1852
23.31753343374794 48.5726
23.340267045128353 48.5715
23.36300158808808 49.1211
23.38591468821339 49.2722
23.408651104658304 49.6528
23.431388455719986 50.3278
23.454126742409 51.0294
23.4770436196085 52.107
23.499783787914662 53.6483
23.522524894889884 54.9525
23.54526694154616 56.1441
23.56818761219047 57.1154
23.59093154860734 57.4315
23.613676427751283 57.199
23.636422250635754 55.8783
23.659346731118656 53.8417
23.68209445191868 51.7481
23.704843119509587 49.7084
23.72759273490623 48.0743
23.750521041644767 46.8783
23.77327256312355 45.9661
23.796025035462787 45.6687
23.818956224555475 45.2783
23.841710609113413 45.2017
23.86446594758979 45.0487
23.887222241002014 44.7621
23.910157285144578 44.5036
23.932915498962537 44.4806
23.955674670778713 44.268
23.978434801611975 44.0694
24.001373717286125 44.0477
24.024135776723917 43.9094
24.046898798245582 43.7099
24.06966278287146 43.7197
24.092605586582614 43.5893
24.115371508023642 43.4677
24.1381383956401 43.1815
24.16090625045381 43.2266
24.183852958731244 43.2592
24.206622758582608 43.001999999999995
24.229393528706886 42.9411
24.252165270127392 42.9516
24.27511589952438 42.8996
24.297889594216997 42.7709
24.32066426328598 42.5676
24.34343990775613 42.5105
24.36639447485003 42.6262
24.38917208083877 42.528999999999996
24.41195066531332 42.3577
24.43490819850244 42.4592
24.457688750692377 42.3185
24.48047028445616 42.2361
24.503252800821233 42.4926
24.526214300784112 42.4939
24.548998793132213 42.4599
24.57178427117417 42.2947
24.59457073593893 42.3562
24.617536219319863 42.1408
24.64032466834748 42.1028
24.663114107195035 42.0989
24.685904536893013 41.8676
24.708874020360852 41.7725
24.731666442613744 41.5694
24.754459858818787 41.6459
24.777254270007962 41.6549
24.80022777025625 41.6185
24.82302418230472 41.4665
24.845821592443674 41.65
24.86862000170663 41.6278
24.891597535453727 41.6549
24.914397953892728 41.7412
24.93719937456671 41.681999999999995
24.96000179851076 41.8811
24.98298338249997 42.0864
25.00578782394922 42.2822
25.028593271784167 42.2988
25.05157790644186 42.6899
25.07438537804115 42.8662
25.097193859145293 43.1355
25.120003350792075 43.4223
25.142992065061257 43.6521
25.165803588823465 43.9178
25.18861612625217 44.1174
25.211429678386736 43.9499
25.234422489079968 44.0215
25.257238081693636 44.1239
25.280054692141732 44.2996
25.3028723214652 44.2346
25.325869245420463 44.3645
25.348688923599397 44.3311
25.371509623787006 44.1886
25.394331347025812 43.7262
25.41733240110666 43.2622
25.440156181590016 42.4281
25.46298098826268 41.9757
25.48580682216873 41.3731
25.50881202326435 40.9365
25.53163992281684 40.5108
25.55446885274561 40.2665
25.577298814096377 40.1649
25.600308179121807 40.2235
25.623140214533745 40.3088
25.64597328451537 40.1457
25.66898578564376 40.0332
25.691820936010206 39.9556
25.714657124097695 39.9282
25.737494350954734 39.9867
25.760511045684957 39.82
25.783350361364224 39.9427
25.806190718969255 39.8528
25.82903211955018 39.9618
25.852053024868923 39.998000000000005
25.874896522722523 39.996
25.897741066713106 40.0567
25.920586657892454 40.1013
25.943611790812668 40.2756
25.966459487728237 40.4119
25.989308234998564 40.3984
26.01215803367705 40.7561
26.03518741123814 40.9883
26.05803932412957 41.0459
26.080892291600094 41.0537
26.10374631470478 41.0524
26.12677995397268 41.201
26.14963609978026 41.0188
26.172493304397875 40.3832
26.19535156888223 40.3567
26.218389486949604 39.9902
26.241249882640123 39.8197
26.26411134137826 39.4951
26.28715248187403 39.5381
26.31001607820869 39.3933
26.3328807407756 39.2577
26.35574647063438 39.5406
26.37879191991473 39.4486
26.401659795896734 39.4885
26.424528742360263 39.7185
26.447398760366614 39.8798
26.470448535598294 39.9242
26.49332070826805 40.2354
26.516193955675355 40.5431
26.53906827888316 40.7188
26.562122397260108 40.9755
26.584998883685063 41.3573
26.607876449110325 41.4876
26.63075509460056 41.7945
26.65381357334404 41.8203
26.67669439061878 41.6165
26.699576291163382 41.3736
26.722459276044212 41.1372
26.745522132402975 40.9253
26.768407297649354 40.6576
26.791293550442003 40.3965
26.814180891848974 40.2159
26.837248143099337 39.8225
26.860137673466657 39.8371
26.88302829566349 39.5524
26.90592001075963 39.3218
26.92899167420566 39.1088
26.951885586870763 38.8328
26.974780595655517 38.7014
26.99785558178161 38.5005
27.020752794605112 38.3534
27.043651106772522 38.2242
27.06655051935668 38.3068
27.089629948036183 38.0483
27.112531573292053 38.1134
27.135434302194138 38.1605
27.158338135817015 37.948
27.181422024430987 37.9255
27.204328079372566 37.926
27.22723524226965 37.9467
27.250143514198573 38.115
27.273231880156334 38.0016
27.296142382065014 37.7117
27.319053996245536 37.8848
27.341966723775965 37.8884
27.365059584515222 37.9045
27.38797455070062 37.9229
27.410890633481237 37.7977
27.433807833936918 37.8728
27.456905206923906 37.9606
27.47982465472398 37.9753
27.502745223449743 38.0915
27.525666914182825 38.0831
27.548768816912457 38.0559
27.571692763693633 38.0749
27.59461783573812 37.8366
27.617723149491244 37.5752
27.640650484125285 37.5284
27.66357894728264 37.5326
27.686508540048052 37.5709
27.709618414237887 37.3583
27.732550278321757 37.2687
27.755483275279115 37.3815
27.778417406196485 37.4809
27.801531858397514 37.3567
27.824468269376716 37.2417
27.847405817586786 37.321999999999996
27.870344504116094 37.4372
27.893463551932008 37.6153
27.916404527281053 37.8204
27.93934664422563 37.8574
27.962289903855886 37.9717
27.98541356491974 38.2889
28.00835912214229 38.2633
28.03130582533231 38.5172
28.054253675581805 38.6056
28.077381967556104 38.6111
28.100332124185126 38.2667
28.123283431160893 38.2686
28.146235889577238 38.094
28.169368830154156 37.9573
28.192323603752033 37.7558
28.215279532083304 37.477
28.238415973016764 37.1537
28.261374223145094 37.124
28.284333631303806 36.9532
28.307294198589954 36.734
28.330435319167677 36.4491
28.353398217078915 36.1272
28.376362277420153 35.9805
28.39932750129032 35.9213
28.422473319286713 35.8054
28.44544088262495 35.8422
28.468409612800283 35.6306
28.491379510913497 35.5018
28.51453004413313 35.2608
28.53750229057244 35.2775
28.56047570826344 35.27
28.583450298308804 35.3755
28.606605564586562 34.9831
28.629582511831156 35.0653
28.65256063474956 35.077
28.675539934446338 35.1013
28.698699951647605 35.1059
28.72168161743193 34.9071
28.74466446331978 34.9796
28.767648490417624 34.9011
28.790813276438353 34.9074
28.813799678527303 34.9999
28.836787265157085 34.9299
28.859955641890075 34.821
28.882945610203045 34.8403
28.905936766392035 34.8061
28.928929111566863 34.875
28.952102288520145 34.7976
28.975097024308607 34.548
28.998092952423807 34.4898
29.021090073977508 34.3345
29.04426806913204 34.2132
29.067267590245258 34.0585
29.090268308143695 34.0258
29.11327022394099 33.9242
29.13645305530891 33.8853
29.159457379627167 33.859
29.18246290519685 33.7784
29.20546963313352 33.8369
29.22865731875826 33.8325
29.25166646419296 33.8318
29.27467681535305 33.6672
29.29768837335608 33.7261
29.320880931312562 33.721
29.34389491580634 33.7574
29.366910110507334 33.8329
29.38992651653503 33.7413
29.41312396492981 33.6622
29.436142806456754 33.5843
29.45916286268059 33.4461
29.48236399319994 33.402
29.50538649169417 33.1517
29.528410208259935 33.1704
29.55143514402014 32.9376
29.574641196749695 32.8201
29.597668583816574 32.6893
29.6206971934585 32.6367
29.64372702680042 32.6742
29.666938019934474 32.4865
29.689970313635285 32.4917
29.713003834422636 32.5074
29.73603858342347 32.4403
29.759254535188578 32.3011
29.78229175361658 32.3245
29.80533020365064 32.3269
29.82836988641968 32.2643
29.85159081507472 32.239000000000004
29.874632976355343 32.2787
29.89767637376955 32.324
29.920721008448314 32.0676
29.9439469322847 32.1656
29.96699405457564 31.9649
29.9900424175358 32.078
30.013092022298157 32.0208
30.03632295963995 31.9121
30.059375061131373 32.0059
30.08242840783577 31.944000000000003
30.105483000888153 32.052
30.128718970092244 31.9657
30.151776069006917 31.930999999999997
30.17483441768648 31.9763
30.198074175317235 31.9133
30.221135036724256 31.9414
30.24419715131772 31.994
30.267260520236203 31.8485
30.290505341942243 31.8908
30.313571232750228 31.8667
30.336638381310948 31.8459
30.35970678876503 31.717
30.38295669299435 31.6941
30.40602763151657 31.662
30.429099832366074 31.5873
30.452173296685572 31.5643
30.47542830191959 31.5559
30.498504306502497 31.5209
30.521581577995562 31.645
30.544660117543582 31.6355
30.56792024229725 31.7305
30.59100133132069 31.7501
30.614083691845494 31.6548
30.637167325018545 31.7711
30.660432587840603 31.8022
30.683518779717886 31.7538
30.70660624769615 31.6474
30.729694992924372 31.6238
30.75296541239743 31.711
30.77605672557558 31.6615
30.799149319462742 31.6035
30.8224236211637 31.5168
30.845518789950724 31.3188
30.868615242910597 31.3184
30.891712981195973 31.0907
30.91499247215866 31.0655
30.938092794619365 31.0189
30.96119440587579 31.0285
30.984297307082752 30.9199
31.00758200598383 30.7833
31.030687500658694 30.7147
31.053794288760695 30.6619
31.076902371446767 30.5652
31.100192296997445 30.6434
31.12330298246119 30.5801
31.14641496599209 30.4135
31.169528248749216 30.5094
31.19282341969534 30.4524
31.215939314557186 30.5415
31.239056512134788 30.5967
31.262175013589378 30.4088
31.28547544871168 30.4176
31.30859657161541 30.3358
31.331719001892175 30.3254
31.35484274070538 30.5482
31.378148458819545 30.4758
31.401274828443725 30.4949
31.424402510106933 30.4769
31.447712205419993 30.5181
31.470842524931633 30.3757
31.493974159989783 30.3713
31.51710711176168 30.2777
31.54042212308802 30.2561
31.563557722100917 30.2404
31.586694641341655 30.0248
31.609832881979628 30.0703
31.63315322823208 30.0441
31.656294125521327 29.7737
31.679436347728515 29.7944
31.70257989602529 29.7425
31.725905596152327 29.7061
31.74905181052835 29.6227
31.772199354521323 29.7149
31.79534822930507 29.7264
31.818679302290967 29.6266
31.84183085259981 29.658
31.864983737233473 29.5979
31.88813795736804 29.7616
31.911474422233013 29.5716
31.934631327356435 29.6914
31.9577895715215 29.6121
31.980949155906522 29.6405
32.004291031706956 29.6389
32.027453310562606 29.5021
32.05061693318573 29.3325
32.07396288236386 29.3681
32.09712920658542 29.2241
32.12029687812702 29.125
32.14346589817093 29.0276
32.166817291729984 29.0226
32.18998902288583 28.96
32.21316210610336 28.9152
32.23633654256711 28.7672
32.259693399663725 28.7762
32.282870556771144 28.7308
32.30604907069099 28.7013
32.329228942610065 28.6591
32.35259128243769 28.5276
32.375773884550505 28.5401
32.398957848235646 28.589000000000002
32.422143174682176 28.4525
32.445511016471215 28.3418
32.468699082679954 28.2399
32.49188851523011 28.2302
32.51507931531304 28.1857
32.538452678331 28.2682
32.56164622776311 28.0805
32.58484114831493 27.983
32.60803744118015 27.9877
32.631416344731896 28.0199
32.654615396551876 28.0152
32.67781582427913 28.018
32.701198898634416 27.9172
32.72440209253756 27.7764
32.747606665947124 27.8219
32.77081262006088 27.695999999999998
32.79420126883317 27.7159
32.81740999876112 27.7258
32.840620112999424 27.6567
32.86383161274818 27.5886
32.88722585534586 27.537
32.91044014056596 27.57
32.933655814909734 27.4936
32.95687287957963 27.5518
32.98027273544904 27.4798
33.00349259526636 27.3649
33.026713849030116 27.4689
33.04993649794511 27.4641
33.073341986570746 27.3648
33.09656744032826 27.3835
33.11979429286444 27.401999999999997
33.14302254538647 27.3943
33.166433686291185 27.3252
33.18966475336992 27.2172
33.212897224069096 27.066999999999997
33.23613109959831 27.0929
33.259547912343415 27.0041
33.2827846121627 27.1636
33.306022720453775 27.0681
33.32926223842861 26.9891
33.352684742614166 27.0108
33.37592709463173 26.9558
33.399170859982064 26.9127
33.422597648419426 26.7943
33.44584425514446 26.708000000000002
33.46909227885668 26.6671
33.4923417207723 26.5087
33.51577423505344 26.5723
33.539026528130385 26.4719
33.56228024307245 26.4643
33.585535381098246 26.4509
33.60897364093058 26.3697
33.63223163992385 26.3549
33.6554910656699 26.1635
33.678751919389796 26.2241
33.702195944520106 26.1254
33.72545966903325 26.2317
33.74872482519663 26.1258
33.771991414233746 26.072
33.79544122444841 26.069000000000003
33.81871069412428 25.9652
33.84198160035767 26.0148
33.86525394437455 25.9929
33.88870955949969 25.8386
33.911984794020626 25.8816
33.93526147001624 25.788
33.958539588715006 25.729
33.98200102861669 25.7277
34.0052820477047 25.6239
34.02856451319451 25.5787
34.05203033759056 25.6129
34.07531571090147 25.6741
34.09860253431845 25.6594
34.121890809074316 25.5511
34.145362493118924 25.4818
34.16865368561615 25.3116
34.191946333164054 25.2756
34.21524043699793 25.3751
34.23871800066799 25.389
34.26201503218366 25.2204
34.28531352370466 25.1988
34.30861347646881 25.1386
34.33209693978188 25.0711
34.3553998301885 25.0403
34.378704185565205 24.9981
34.402010007152356 24.9913
34.42549939016683 24.9856
34.44880815937748 24.9634
34.472118398533134 24.8936
34.49543010887669 24.840999999999998
34.51892543169198 24.7753
34.54224009966052 24.7736
34.56555624255917 24.7751
34.58887386163339 24.5894
34.61237514439016 24.6406
34.6356957311114 24.605999999999998
34.65901779775809 24.537
34.68252356662995 24.4552
34.705848608458616 24.5358
34.72917513396849 24.5054
34.75250314440949 24.5021
34.77601490857862 24.3928
34.799345904259795 24.2883
34.82267838863559 24.2588
34.846012362958525 24.2909
34.869530142679984 24.1901
34.89286711232212 24.166999999999998
34.91620557568269 24.1991
34.93954553401677 24.1147
34.9630693495876 24.0456
34.986412313340814 24.153000000000002
35.00975677584668 24.1617
35.033102738362956 23.9967
35.05663261012228 23.9784
35.0799815881786 23.9374
35.10333207003229 23.8873
35.12668405694369 23.8856
35.150220005273056 23.8954
35.17357501786656 23.8408
35.19693153931268 23.7909
35.220289570874385 23.7915
35.24383161619786 23.8233
35.267192683604904 23.8199
35.290555264930376 23.7783
35.314101899412165 23.6814
35.33746752422433 23.6557
35.36083466676374 23.77
35.38420332829803 23.6779
35.407756095629054 23.6534
35.43112781085063 23.5983
35.45450104888391 23.5931
35.477875810999194 23.5826
35.50143473172161 23.4967
35.52481255774625 23.5225
35.54819191167777 23.3895
35.57157279478914 23.4108
35.595137889488406 23.3802
35.61852184675279 23.3122
35.641907337029984 23.2437
35.665294361595684 23.2089
35.68886565090076 23.2343
35.7122557598848 23.224
35.73564740699838 23.1181
35.759040593519934 23.0498
35.78261809810353 23.0212
35.80601437933051 22.9692
35.829412203814705 22.9082
35.85281157283719 22.811999999999998
35.876395313415884 22.857
35.8997977874528 22.8605
35.92320180988546 22.8376
35.946790244133936 22.7796
35.97019737933222 22.7932
35.993606066789866 22.7575
36.01701630779276 22.6802
36.04061101440684 22.6416
36.06402437852291 22.6009
36.08743930005611 22.654
36.1108557802951 22.6233
36.13445678011326 22.5787
36.15787639383515 22.4896
36.18129757014299 22.4905
36.20472031032821 22.4311
36.22832762423364 22.3382
36.25175350829375 22.346
36.275180960119776 22.239
36.298609981005924 22.3097
36.32222362992669 22.2917
36.34565580510207 22.3163
36.36908955323448 22.188000000000002
36.39252487562093 22.0797
36.416144880530226 22.1123
36.43958336764275 22.0657
36.463023432914625 22.0993
36.486465077645676 22.0211
36.51009145956204 22.0068
36.53353627947859 21.9517
36.55698268276811 21.9259
36.58043067073321 21.9426
36.60406345072071 21.8885
36.62751462435344 21.9181
36.65096738658405 21.7462
36.67460498210655 21.7455
36.69806093788647 21.7595
36.72151848619297 21.7099
36.744977628333636 21.7092
36.76862165890998 21.5225
36.79208400512205 21.5605
36.81554794910557 21.5939
36.83901349217101 21.5373
36.862663978991606 21.4757
36.88613273667352 21.4318
36.90960309738324 21.5144
36.933075062434064 21.4422
36.95673202673572 21.4078
36.98020721697122 21.3335
37.003684015502365 21.2568
37.027162423645365 21.2529
37.050825886711465 21.1904
37.07430753063053 21.1587
37.09779078812467 21.160999999999998
37.121275660513014 21.1106
37.144945643673694 21.0931
37.16843376245278 21.0572
37.19192350009803 21.0898
37.215414857931435 21.0488
37.239091382563885 20.9134
37.262585997426164 20.9457
37.28608223645736 20.9088
37.309763684451696 20.8323
37.33326318851098 20.8079
37.356764320726555 20.7898
37.380267082425526 20.7778
37.40395510942588 20.8013
37.42746114683234 20.684
37.45096881771841 20.6274
37.474478123414166 20.6434
37.49817275092816 20.6167
37.52168534303452 20.5616
37.54519957395567 20.5506
37.568715445024665 20.533
37.592416694607714 20.5373
37.61593586281424 20.4957
37.63945667518264 20.5306
37.66297913304891 20.4011
37.68668702630454 20.3162
37.710212792059274 20.2605
37.733740207334854 20.2534
37.757269273470364 20.2603
37.780983832050374 20.2485
37.80451621684926 20.2935
37.82805025654007 20.1567
37.851585952464795 20.0941
37.8753071980695 20.0638
37.89884622345676 20.0446
37.92238690911902 20.0486
37.94611318753442 19.951
37.969657210779765 19.9151
37.99320289834801 19.957
38.016750251586465 19.9399
38.04048325513017 19.8195
38.06403395679343 19.814
38.087586328183946 19.802
38.11114037065203 19.8004
38.13488012115898 19.8192
38.1584375229181 19.7367
38.181996599821 19.6766
38.205557353221124 19.6556
38.229303872575656 19.6701
38.2528679961576 19.5808
38.27643380031219 19.5455
38.30000128639589 19.517
38.32375459653193 19.5462
38.34732546371299 19.5036
38.37089801690786 19.4257
38.39447225747609 19.3534
38.418232380377425 19.3758
38.441810012983396 19.4138
38.46538933705673 19.3383
38.488970353960084 19.2737
38.51273731166058 19.2353
38.536321731567014 19.2152
38.55990784840681 19.1253
38.58367995004091 19.0815
38.60726947812959 19.0639
38.63086070726198 19.0981
38.654453638806274 19.1047
38.678232613930824 19.0512
38.70182896773327 18.9767
38.72542702806741 18.9239
38.7490267963045 18.9382
38.77281266709232 18.8885
38.79641586862214 18.9395
38.8200207821842 18.8008
38.843627409152944 18.8621
38.86742019782782 18.7881
38.891030269149255 18.79
38.914642058016156 18.7867
38.938255565806124 18.7414
38.96205529464307 18.6832
38.98567225787121 18.6628
39.00929094417078 18.6306
39.03291135492255 18.5614
39.05671804624804 18.5449
39.080341923549106 18.5349
39.103967529460334 18.4945
39.127594865365744 18.4686
39.15140854155791 18.4484
39.17503935514948 18.4542
39.19867190290282 18.366
39.22249083587951 18.2978
39.24612686969409 18.3366
39.269764641845306 18.3176
39.293404153722804 18.2772
39.317230110864074 18.1596
39.34087311998506 18.1699
39.36451787301696 18.2368
39.388164371352595 18.1008
39.41199737518003 18.1365
39.43564738196752 18.0538
39.45929913825317 18.0721
39.48295264543308 18.0474
39.506792718520884 17.971
39.530449745387216 17.9709
39.55410852735203 17.9836
39.57776906581474 17.9458
39.60161623079 17.892
39.625280300200025 17.8785
39.64894613032202 17.7782
39.67261372255866 17.7771
39.6964680021016 17.7775
39.72013913657293 17.7633
39.74381203738292 17.7302
39.76748670593756 17.7367
39.79134812278169 17.641
39.81502634488497 17.6662
39.83870633896685 17.6085
39.862388106436654 17.5876
39.88625668336918 17.5464
39.90994201572829 17.5215
39.933629125719285 17.5156
39.957503091207826 17.4067
39.9811937746168 17.4129
40.00488623990914 17.3543
40.02858048850006 17.3276
40.05246165409549 17.3447
40.076159487492085 17.2805
40.099859108448875 17.3106
40.123560518384345 17.3364
40.1474489070226 17.3034
40.171153913178564 17.2362
40.194860712584955 17.2303
40.2185693066637 17.1793
40.242464941335314 17.1472
40.26617714307655 17.0557
40.289891143772046 17.0622
40.3136069448471 16.9734
40.33750984859743 16.99
40.3612292688043 17.0067
40.3849504936829 16.9611
40.40867352466194 16.9511
40.43258372059144 16.9564
40.45631038219906 16.9328
40.48003885420956 16.7878
40.503769138055105 16.84
40.52768664931955 16.8216
40.55142057531802 16.8152
40.57515631746428 16.7805
40.599079334038514 16.7382
40.62281872700477 16.6401
40.64655994043941 16.6837
40.67030297578061 16.6382
40.69423334835778 16.6263
40.71798004609188 16.6095
40.74172857006355 16.5628
40.76547892171441 16.4961
40.7894166736039 16.4614
40.813170699248566 16.4371
40.83692655691388 16.4179
40.86068424804498 16.482
40.884629402612525 16.4083
40.908390779366385 16.4534
40.932153993938 16.3924
40.95591904777605 16.2847
40.979871628443995 16.3169
41.003640379561936 16.3559
41.02741097430883 16.3049
41.05118341413683 16.2451
41.075143444384416 16.194000000000003
41.098919593177826 16.1898
41.1226975914255 16.1716
41.14647744058318 16.0964
41.170444943946755 16.0711
41.19422851378379 16.0599
41.218013938914645 16.006
41.24198706625173 15.9998
41.26577622087193 16.0292
41.289567235177785 15.9836
41.31336011063129 15.9536
41.337340752422875 15.9134
41.361137369129835 15.8963
41.38493585138705 15.8855
41.40873620066004 15.8321
41.43272438060107 15.8322
41.45652848292052 15.7563
41.48033445666918 15.7034
41.50414230331616 15.7191
41.528138045159764 15.6969
41.551949656675205 15.6572
41.575763145513235 15.6282
41.59957851314666 15.5947
41.62358184070442 15.5499
41.64740098505737 15.5563
41.6712220126409 15.4863
41.69504492493139 15.5249
41.71905586207357 15.4963
41.74288256296395 15.4714
41.766711153007456 15.4593
41.79054163368412 15.4493
41.814560204340054 15.4267
41.838394485526365 15.3458
41.86223066180303 15.3317
41.88625497706819 15.3406
41.910094962812 15.2879
41.93393684811168 15.2547
41.95778063445365 15.2077
41.981812625263366 15.1924
42.00566023303407 15.129000000000001
42.029509746323676 15.152000000000001
42.05336116662236 15.1078
42.077400857069705 15.0781
42.10125611078846 15.0852
42.12511327600405 15.0643
42.14897235421036 15.0319
42.173019768448455 15.0188
42.19688269209613 14.952
42.22074753323349 14.9587
42.24461429335818 14.8967
42.268669455600495 14.8658
42.292540073217886 14.8892
42.31641261433284 14.8582
42.34028708044675 14.8139
42.36435001496739 14.8184
42.38822835065557 14.8197
42.41210861586426 14.7801
42.4359908120986 14.7425
42.46006154323262 14.6811
42.48394762115317 14.6236
42.507835634632315 14.716
42.531912233047436 14.6206
42.55580413732265 14.6024
42.579697981698 14.5903
42.60359376768525 14.5408
42.62767820545945 14.58
42.65157789440821 14.5593
42.67547952952185 14.5045
42.699383112316 14.4506
42.72347541395347 14.4163
42.74738291190531 14.3745
42.771292362102166 14.3722
42.795203766063516 14.3485
42.819303956130405 14.3346
42.843219287476536 14.3086
42.86713657716324 14.2325
42.89105582671383 14.2658
42.91516392983864 14.1855
42.939087119032166 14.1817
42.963012272677304 14.2039
42.98693939230129 14.1956
43.01105543317513 14.1208
43.034986504731386 14.0929
43.05891954686589 14.0916
43.08285456110972 14.0989
43.10697856448665 14.0793
43.130917542983475 14.0231
43.15485849820081 14.0586
43.17880143167367 13.9259
43.20293342237094 13.960999999999999
43.226880332449 13.8976
43.25082922540554 13.9164
43.27496722682525 13.876
43.29892010567796 13.8516
43.32287497204102 13.8173
43.34683182745632 13.7766
43.370977859791836 13.7224
43.39493871351105 13.7536
43.41890156092628 13.757
43.44286640358341 13.7057
43.46702049182749 13.7024
43.49098934522816 13.681
43.51496019852649 13.6214
43.5389330532723 13.6284
43.56309522248204 13.5767
43.58707210044314 13.5798
43.61105098451946 13.5519
43.63503187626491 13.5575
43.659202151562134 13.5041
43.68318707902681 13.4764
43.70717401884041 13.4543
43.731162972560874 13.4149
43.75534137913236 13.4063
43.779334381108384 13.3754
43.803329401683186 13.3634
43.82732644241872 13.3576
43.8515130055166 13.3091
43.87551410707659 13.2968
43.89951723350145 13.2694
43.923709934595614 13.2136
43.94771713129917 13.2206
43.97172635758096 13.2364
43.99573761501002 13.2081
44.0199385169922 13.1728
44.04395385732619 13.1092
44.067971233533086 13.1033
44.09199064718605 13.0926
44.11619977548961 13.0587
44.14022328470671 13.0436
44.16424883610785 13.0143
44.18827643127035 13.0196
44.21249381139513 12.9728
44.236525514814076 12.9642
44.26055926674478 12.9085
44.28459506876863 12.9581
44.3088207262813 12.8826
44.33286064928722 12.8502
44.35690262714919 12.8314
44.38094666145278 12.7946
44.4051806219871 12.7939
44.42922879003185 12.7262
44.45327901929361 12.725
44.477331311362136 12.7688
44.501573600619416 12.7209
44.525630039221795 12.6746
44.54968854541895 12.6755
44.573937102200176 12.6527
44.5979997645541 12.6361
44.622064499300315 12.548
44.64613130803592 12.575999999999999
44.67038823869318 12.5364
44.69445921643748 12.5038
44.718532272981385 12.4372
44.742607409926194 12.5125
44.76687274034801 12.4351
44.79095205918753 12.3936
44.81503346325094 12.3767
44.839116954143876 12.4288
44.86339071028742 12.3398
44.88747839599524 12.3558
44.91156817336837 12.3402
44.93566004401666 12.3324
44.959942251908146 12.2943
44.984038330325966 12.2776
45.00813650686762 12.1938
45.03223678314731 12.1976
45.05652746888232 12.1809
45.08063196592069 12.2044
45.104738567558705 12.1482
45.128847275414856 12.1083
45.15314646515866 12.05
45.17725940679741 12.0872
45.20137445952892 12.0369
45.22568004865265 12.0667
45.24979934496396 12.0344
45.27392075725247 12.0109
45.29804428714431 12.0191
45.322358426247604 11.944
45.346486212804315 11.897
45.370616121861914 11.9135
45.39474815505086 11.8581
45.41907087049246 11.8807
45.4432071734666 11.8338
45.46734560548283 11.8355
45.49148616817604 11.8167
45.51581748638564 11.8003
45.5399623320197 11.7971
45.56410931325473 11.7405
45.58825843173002 11.8061
45.61259837920865 11.7062
45.636751793816 11.7304
45.66090735060093 11.6481
45.68506505120716 11.5955
45.7094136545275 11.627
45.73357566449271 11.5878
45.75773982322992 11.5816
45.78190613238733 11.5822
45.806263418194064 11.5175
45.83043404997326 11.5218
45.85460683713677 11.5087
45.87897065658495 11.5357
45.90314777634752 11.4523
45.92732705646868 11.4384
45.9515084986045 11.4082
45.97588104735473 11.4524
46.00006683541565 11.3511
46.02425479047904 11.3257
46.04844491420549 11.342
46.0728262191024 11.324000000000002
46.09702070211635 11.288
46.12121735879483 11.3169
46.14541619080294 11.264000000000001
46.169806278764455 11.2249
46.194009483459034 11.2167
46.21821486849841 11.2104
46.24242243555223 11.1516
46.266821333570014 11.1519
46.29103328674601 11.1178
46.31524742696538 11.1518
46.33946375590237 11.1182
46.36387149104216 11.043
46.38809221957392 11.015999999999998
46.41231514186606 11.0428
46.436540259597464 10.999
46.460956858999374 11.0111
46.48518638983522 10.957
46.509418121166966 10.9644
46.533652054678114 10.9301
46.55807754555709 10.8958
46.58231590571962 10.8885
46.60655647313217 10.9045
46.630988654873654 10.8545
46.655233659129024 10.794
46.67948087571551 10.8332
46.70373030632484 10.7823
46.72817142736393 10.7602
46.752425308428684 10.7077
46.77668140861147 10.692
46.80093972960865 10.7009
46.82538981736788 10.6435
46.849652602470904 10.6471
46.87391761349769 10.6388
46.8981848521493 10.6441
46.9226439341274 10.6111
46.946915650573224 10.562999999999999
46.97118959976749 10.5924
46.99546578341598 10.5166
47.019933887188216 10.5239
47.04421456235744 10.5253
47.06849747711879 10.4821
47.09278263318286 10.4709
47.11725978640143 10.4795
47.14154944775105 10.4388
47.165841355555656 10.3969
47.1901355115306 10.3926
47.214621741924994 10.3758
47.23892041698887 10.3524
47.26322134538975 10.2772
47.28771440635075 10.294
47.31201986422527 10.2923
47.33632758061436 10.2482
47.360637557241866 10.2529
47.38513974410611 10.2379
47.40945426407847 10.2212
47.43377104948137 10.2037
47.45809010204344 10.1638
47.48260144275502 10.1384
47.506925052572285 10.1294
47.53125093475548 10.1263
47.55557909103813 10.102
47.58009961361992 10.0642
47.60443234110732 10.0575
47.62876734791564 10.0557
47.65310463578333 10.0386
47.6776343683373 10.0128
47.7019762413987 9.98099
47.72632040075572 9.92302
47.75066684815169 9.96063
47.77520581885936 9.95247
47.799556865477655 9.922369999999999
47.823910205386 9.9537
47.84826584033272 9.8923
47.87281407745551 9.811639999999999
47.89717432569297 9.860430000000001
47.92153687423484 9.85113
47.94609208429692 9.81423
47.97045925671401 9.81171
47.99482873471275 9.77213
48.01920052005013 9.74622
48.04376504619224 9.748510000000001
48.068141469543484 9.745619999999999
48.09252020552573 9.73156
48.11690125590099 9.69956
48.1414751266064 9.6863
48.16586082917454 9.68511
48.19024885144316 9.640360000000001
48.2146391951793 9.66533
48.239222439012764 9.618739999999999
48.26361744916137 9.60093
48.28801478610016 9.60627
48.31241445160131 9.564789999999999
48.337007097209366 9.55531
48.36141144338331 9.52917
48.38581812345755 9.509160000000001
48.41022713920929 9.49558
48.434829215320704 9.474210000000001
48.45924292604658 9.465639999999999
48.48365897780325 9.46124
48.50807737237308 9.46076
48.532688907799276 9.4331
48.55711201168574 9.40521
48.581537463754074 9.365210000000001
48.60615611725119 9.39659
48.63058628942721 9.3602
48.65501881516546 9.324060000000001
48.6794536962573 9.29542
48.70408185970339 9.2973
48.72852147531801 9.2465
48.75296345168211 9.22359
48.77740779059232 9.24184
48.80204549302823 9.19402
48.82649458091802 9.16121
48.85094603676547 9.17915
48.87539986237231 9.17952
48.90004713292306 9.16587
48.92450572200832 9.112210000000001
48.94896668628025 9.12324
48.97343002754588 9.11588
48.99808689542115 9.086039999999999
49.02255501470614 9.06502
49.04702551642794 9.04111
49.0714984023988 9.03166
49.096164896893235 9.01003
49.120642575466796 8.983260000000001
49.145122643748394 8.974639999999999
49.16960510355558 8.942969999999999
49.19428125404938 8.94225
49.2187685210852 8.91312
49.243258185121555 8.91323
49.26794160167084 8.89372
49.2924360839405 8.86523
49.31693296869764 8.83649
49.34143225776915 8.83038
49.36612538195438 8.79618
49.39062950396021 8.798210000000001
49.41513603578346 8.7462
49.4396449792564 8.76895
49.46434784069503 8.78006
49.488861631846454 8.748569999999999
49.513377840166804 8.73755
49.537896467493745 8.66588
49.56260909589029 8.6792
49.587132585683285 8.67348
49.611658500018365 8.67755
49.636186840738596 8.62102
49.66090926588511 8.65243
49.685442483902584 8.61276
49.70997813385706 8.58422
49.734516217597076 8.5665
49.75924846937352 8.56136
49.7837914452858 8.56548
49.80833686055187 8.520610000000001
49.83288471702571 8.47906
49.85762682540054 8.486130000000001
49.882179588965734 8.42826
49.9067347993235 8.46097
49.93129245833333 8.42477
49.95604445336378 8.4392
49.98060703442832 8.416210000000001
50.005172069746266 8.4159
50.02993150438364 8.41461
50.05450147301533 8.35801
50.07907390151433 8.34403
50.10364879174981 8.30879
50.12841816587289 8.32116
50.1529980044635 8.30467
50.17758031042124 8.27403
50.20216508562089 8.27402
50.22694442953363 8.243839999999999
50.25153416817468 8.23155
50.27612638170508 8.20337
50.300721072005196 8.17328
50.325510416102105 8.205160000000001
50.350110084975064 8.156939999999999
50.37471223628208 8.14986
50.39931687190919 8.10845
50.424116246675766 8.10418
50.44872587605249 8.09936
50.47333799543065 8.09481
50.49795260670191 8.06522
50.52276204271512 8.04814
50.54738166295838 8.04064
50.57200378079314 8.04615
50.596628398116835 8.02075
50.62144792604559 7.98395
50.646077567609396 7.9577100000000005
50.670709714377715 7.980060000000001
50.69553683636198 7.9393899999999995
50.72017401885922 7.88744
50.7448137122895 7.90205
50.76945591856022 7.89088
50.79429318636823 7.886239999999999
50.818940443716784 7.886019999999999
50.84359021965163 7.85019
50.868242516085964 7.8483
50.893089960641895 7.8235399999999995
50.917747323549435 7.8388100000000005
50.94240721271973 7.8514
50.96706963007175 7.798710000000001
50.99192728239342 7.7667
51.01659478166073 7.7537199999999995
51.04126481489051 7.71173
51.06593738400761 7.719860000000001
51.090805275207074 7.7192
51.11548294172845 7.656439999999999
51.14016314993547 7.7008
51.164845901758845 7.66621
51.18972406304274 7.645589999999999
51.21441192780656 7.60152
51.23910234200271 7.595560000000001
51.2637953075678 7.5829
51.288683770237945 7.59266
51.31338186432707 7.58405
51.33808251561888 7.5004100000000005
51.362978729967345 7.52729
51.387684521509755 7.5423800000000005
51.41239287610203 7.51213
51.437103795691165 7.50612
51.46201036644977 7.471439999999999
51.486726441956634 7.44384
51.51144508832545 7.4471
51.536166307509156 7.440810000000001
51.56108326624387 7.41488
51.58580965706056 7.37795
51.61053862657523 7.40124
51.635270176746864 7.3426100000000005
51.66019755512065 7.34415
51.68493429268881 7.3460600000000005
51.70967361681515 7.32415
51.73441552946465 7.30812
51.759353359237934 7.2736600000000005
51.7841004750961 7.312360000000001
51.80885018539685 7.27371
51.833602492111254 7.21108
51.8585508051424 7.217510000000001
51.883308330926425 7.20857
51.90806845906181 7.20225
51.932831191525715 7.20286
51.95779001977161 7.17754
51.98255798721516 7.159660000000001
52.00732856494335 7.13983
52.03229530577543 7.130260000000001
52.057071130455945 7.0979
52.081849571391054 7.12528
52.106630630568695 7.090210000000001
52.13160794279417 7.047810000000001
52.15639426492067 7.05693
52.18118321127822 7.05456
52.205974783860896 6.984369999999999
52.23096269971011 7.01322
52.255759551287994 6.96645
52.280559035098186 6.981160000000001
52.30536115314103 6.96133
52.33035970494467 6.96673
52.35516711807904 6.942889999999999
52.37997717147198 6.90675
52.40478986713005 6.9066600000000005
52.42979908731974 6.855169999999999
52.454617094216 6.854889999999999
52.47943774942214 6.8643600000000005
52.50426105495102 6.8942
52.529280976059844 6.82742
52.554109609024096 6.85584
52.57894089837482 6.82057
52.60377484613117 6.7702800000000005
52.62880550079408 6.789210000000001
52.65364479223379 6.735939999999999
52.67848674816189 6.70874
52.70352547971946 6.72887
52.72837279155837 6.70258
52.753222773982785 6.660819999999999
52.778075429022984 6.69862
52.80312495150885 6.689889999999999
52.827982978797436 6.7093300000000005
52.85284368481815 6.66397
52.87770707160767 6.667789999999999
52.90276741793998 6.60273
52.92763619336701 6.614789999999999
52.952507655698504 6.597860000000001
52.977381806977576 6.5632600000000005
53.00245301017842 6.54927
53.02733256653592 6.53263
53.052214817996074 6.53527
53.077099766608484 6.56367
53.102181859804446 6.542999999999999
53.127072229988265 6.50945
53.15196530349892 6.51279
53.17686108239249 6.44424
53.20195409881522 6.47741
53.22685531582556 6.46548
53.25175924441303 6.38563
53.27666588664027 6.41793
53.30176985962693 6.457730000000001
53.3266819565689 6.360040000000001
53.35159677336455 6.35347
53.376514312083096 6.39088
53.40162927507703 6.36851
53.42655228516116 6.32846
53.45147802340193 6.3362099999999995
53.47660125628886 6.27928
53.50153247842639 6.28397
53.52646643496923 6.26858
53.55140312799818 6.25023
53.576537409691696 6.25101
53.60147960336152 6.26451
53.626424539786164 6.21239
53.65137222105307 6.16744
53.67651758529126 6.22297
53.70147078399681 6.19038
53.72642673383343 6.16375
53.75138543689533 6.14855
53.776541917524526 6.165430000000001
53.801506154876755 6.14575
53.826473151763246 6.12587
53.851442910284916 6.08484
53.87661054126026 6.06677
53.9015858509782 6.0804
53.92656392866066 6.07454
53.95154477641532 6.0769400000000005
53.976723591801296 6.07523
54.00171000771266 6.031540000000001
54.02669920004598 6.04651
54.051691170915745 5.9794
54.076881204886796 5.98045
54.101878760928514 6.0147900000000005
54.12687910187696 5.97696
54.152077577768296 5.96464
54.1770835166946 5.94661
54.20209224691339 5.91489
54.22710377055121 5.91395
54.25231352511594 5.88736
54.27733066384342 5.8721
54.30235060239643 5.83296
54.32737334290836 5.8229
54.35259441062629 5.797000000000001
54.377622783395324 5.78585
54.40265396455061 5.78143
54.42768795623251 5.74374
54.45292037169559 5.69834
54.477960012857906 5.74986
54.50300247099511 5.75795
54.52804774825457 5.70101
54.55329154616743 5.6788
54.57834249018678 5.6588199999999995
54.6033962597977 5.63476
54.6284528571545 5.61966
54.653708072335164 5.58154
54.67877035378786 5.640630000000001
54.70383546947698 5.5681199999999995
54.72890342156389 5.566669999999999
54.7541700889442 5.51179
54.77924374251975 5.5281199999999995
54.8043202390049 5.49355
54.82959552413022 5.415030000000001
54.8546777351945 5.411569999999999
54.87976279569621 5.4465900000000005
54.90485070780914 5.4558800000000005
54.930137506558005 5.33985
54.95523115074295 5.41634
54.98032765308844 5.3616
55.005427015775496 5.342630000000001
55.03072536339621 5.3129
55.05583047570572 5.31205
55.080938454927676 5.2653099999999995
55.10604930325027 5.23002
55.131359235107396 5.2674199999999995
55.15647585066083 5.21951
55.181595341907496 5.174259999999999
55.20671771104285 5.18901
55.232039262617704 5.13699
55.25716741665048 5.09682
55.28229845518636 5.13631
55.30743238042802 5.06083
55.33276558731939 5.02554
55.357905315183636 5.01355
55.383047936390035 5.02053
55.40819345314859 4.98525
55.433538351073295 5.00229
55.458689688238415 4.96715
55.483843927614096 4.94803
55.509197623043605 4.92012
55.53435769621134 4.87327
55.55952067826466 4.8114099999999995
55.5846865714265 4.84354
55.61005202069737 4.80302
55.63522376553902 4.78998
55.66039842818645 4.818569999999999
55.68557601087004 4.75904
55.7109532500271 4.70496
55.73613670233794 4.72884
