TT I
1.2716486653135266 7.55158
1.2939594142134223 7.457789999999999
1.3162702121660406 6.89812
1.3385810600174564 7.17135
1.3608919586137629 7.15528
1.383202908801069 6.49566
1.405513911425503 6.41161
1.4278249673332093 6.734939999999999
1.4501343378461518 6.5324599999999995
1.4724455028545926 5.86397
1.4947567236847858 6.0537
1.517068001182951 6.26503
1.5393793361953272 6.32453
1.5616907295681737 6.44843
1.5840021821477681 5.78958
1.60631369478041 5.3232
1.6286252683124185 6.379630000000001
1.6509369035901333 5.31372
1.6732468618895553 5.24696
1.695558623192809 4.77926
1.7178704487808514 5.12723
1.7401823395001077 5.59795
1.7625012545597203 5.16306
1.7848028405262486 5.015569999999999
1.8071218901122095 4.89661
1.8294236121921872 4.915690000000001
1.8517427996910911 5.19142
1.8740620574440425 4.5717099999999995
1.8963639900671978 4.8364
1.9186833908139995 4.61705
1.9409854680117449 5.45906
1.9633050151394713 5.34682
1.9856246367570705 4.81859
2.0079269371922672 5.01997
2.03024671027244 4.94578
2.0525491637446027 4.601380000000001
2.074869091674931 4.43616
2.097171701569106 5.07399
2.1194917877373847 5.87196
2.141811954326636 5.36246
2.164114805233074 5.23346
2.186435135143035 6.894369999999999
2.208738150935709 18.3809
2.231058647554722 42.5981
2.2533792288321184 32.9215
2.275682498336085 13.9376
2.298003251406138 6.12955
2.3203066942619714 5.13012
2.3426276225136022 5.2482
2.3649486396617507 5.37066
2.387252348930071 5.21906
2.4095735463442893 5.20373
2.4318774374315884 5.30854
2.4541988185014043 5.33817
2.476502894794693 5.0873099999999996
2.498824462909887 5.5025699999999995
2.521146125856138 5.9857
2.5434504863470337 6.26626
2.5657723414244717 6.32605
2.588076895590662 6.389959999999999
2.610398946189713 6.86601
2.6327210958598384 6.835380000000001
2.6550259469304716 6.73267
2.6773482972090137 7.098489999999999
2.6996533504259 7.097739999999999
2.7219759047039602 6.95498
2.744298562293959 7.01895
2.7666039251246595 6.875589999999999
2.7889267918020164 7.766260000000001
2.8112323652516555 7.64462
2.833555444408179 8.57427
2.8558786311183852 8.09448
2.8781845268938557 8.1474
2.9005079311721484 8.5022
2.9228140460410397 9.06761
2.9451376712799635 9.47403
2.967444008632326 9.70721
2.9897678582247247 9.92591
3.0120918213106695 10.3835
3.0343984987899373 10.6344
3.0567226913198637 11.2507
3.079029599759726 12.4829
3.101354025127254 12.6936
3.123678568232338 13.0293
3.145985829517914 13.6049
3.16831061055229 13.8907
3.1906181112775593 14.6332
3.212943133635653 14.5892
3.2352682779763207 15.1884
3.2575761442691227 15.9349
3.2799015350264273 15.9595
3.302209649240067 16.861
3.3245352898092655 17.1415
3.3468436553365257 17.5992
3.369169549113219 18.4554
3.3914955708171384 19.5099
3.413804319727358 19.4236
3.4361305997334863 19.4999
3.4584396084414553 19.9913
3.4807661501462652 20.9927
3.503092824025881 21.1785
3.5254022288463154 21.8793
3.5477291695206588 22.7298
3.5700388426251948 23.6114
3.5923660534916446 25.5382
3.6146934007816114 46.7751
3.637003482731501 130.474
3.6593311053109985 149.072
3.681641464033634 80.3754
3.7039693653009733 35.8678
3.726297407241705 27.7038
3.7486081875460804 26.7196
3.7709365132734978 27.1512
3.793247578841633 27.393
3.8155761917550093 27.4734
3.8378875459837216 27.6515
3.8602164494827234 28.6454
3.882545499606844 29.1951
3.9048572932539183 29.7552
3.9271866390645718 30.5394
3.9494987298666713 30.3947
3.971828374764527 31.0241
3.9941581705403255 31.9024
4.016470713506008 32.3938
4.038800813471445 33.2642
4.061113662089144 33.9898
4.0834440696459176 35.0281
4.105774632334751 35.1971
4.128087945865126 35.9496
4.150418821249301 37.1986
4.172732448931298 38.5136
4.195063640413578 41.1701
4.2173775856475215 46.7945
4.239709096631102 92.7465
4.262040768704612 356.38599999999997
4.284355196706267 505.158
4.306687193387355 323.573
4.329001947444346 110.77799999999999
4.35133427213731 54.1568
4.373666762177566 47.7657
4.395982011761091 46.4912
4.418314834921175 48.0251
4.44063041906622 58.7284
4.4629635787515625 76.5849
4.4852969080429785 77.7067
4.5076130004776225 60.0748
4.529946671403969 53.6817
4.552263106909177 52.8316
4.574597122877047 52.8638
4.596931312711224 53.7335
4.619248269273446 55.059
4.6415828092605835 56.0383
4.663900117405352 56.7309
4.686235010953232 58.2314
4.708552674085913 59.4623
4.730887924602802 61.3146
4.753223354952695 63.1674
4.775541557023902 64.2888
4.797877349456786 65.8002
4.820195915032126 67.3531
4.842532072957498 68.9757
4.864868414979744 71.3569
4.88718753227192 73.9379
4.909524244902505 75.1908
4.931843734218147 77.0535
4.954180820867835 80.0315
4.976518095879839 82.855
4.998838149695359 86.4426
5.021175803844231 90.2852
5.043496238205739 93.8904
5.065834274903528 99.0423
5.088172504230693 104.081
5.1104935158799565 113.169
5.132832132875765 147.226
5.155153533596801 216.639
5.1774925416746225 270.737
5.199814334878411 481.82800000000003
5.2221537374521505 1269.56
5.244493338631803 2895.1
5.266815727034316 6240.02
5.289155727832427 11111.7
5.311478517248165 10063.2
5.333818921080011 4363.6
5.356159527788849 969.7660000000001
5.3784829252032536 258.39599999999996
5.400823940070432 173.202
5.423147747031976 145.054
5.445489173474152 130.739
5.467830807066149 122.67
5.490155234831516 117.088
5.512497285125229 111.89299999999999
5.534822130975162 109.51
5.557164601388673 106.447
5.579489868738879 103.49799999999999
5.601832762690846 102.338
5.6241758697774475 101.984
5.646501775867269 101.50399999999999
5.668845311622074 99.0134
5.691171647754637 97.912
5.713515615597765 96.475
5.735859800852677 95.9431
5.758186788542988 95.1503
5.780531411018185 95.9818
5.802858837297399 95.2408
5.825203900414495 95.4588
5.8475491852224 96.7672
5.869877275883075 96.7622
5.892223006467101 98.0945
5.914551544266608 100.014
5.936897724049891 103.329
5.959244129804903 109.87
5.981573344815301 134.976
6.0039202049061 247.92700000000002
6.026249875609095 531.88
6.04859719346037 1013.52
6.070927323278297 1908.38
6.093275102315365 3677.75
6.115623113320588 4853.83
6.137953938319995 3945.47
6.160302415650845 1493.47
6.182633708324452 367.9
6.2049826554078376 145.407
6.227331838745022 106.525
6.249663839443684 94.0286
6.27201349767565 89.7315
6.294345974611799 99.0534
6.316696111167083 121.137
6.339046488263839 113.488
6.361379686074702 89.6629
6.383730546639482 76.5108
6.406064229255215 72.4423
6.428415576718203 71.6019
6.450749747566656 70.0841
6.47310158535871 69.0261
6.495453669698332 67.9859
6.517788579421056 67.2116
6.540141159237969 66.4948
6.562476565766648 66.0201
6.5848296444934045 65.6894
6.607182974060425 65.35300000000001
6.6295191323281015 65.8645
6.651872965955752 70.7596
6.6742096296068985 110.056
6.6965639707294615 188.592
6.71891856698715 194.669
6.741255995248479 122.555
6.763611104154477 76.95100000000001
6.785949046381137 64.0641
6.808304671371482 61.5544
6.8306605557940046 60.9286
6.852999275508618 60.0732
6.875355681171544 59.5586
6.897694923437771 58.8198
6.92005185377892 58.9593
6.9423916220322655 59.0233
6.964749080490181 57.7226
6.987106804399774 57.8782
7.009447368180821 57.751999999999995
7.031805625367033 57.9651
7.054146723727803 57.8792
7.076505517631004 57.6008
7.098864581288365 57.7997
7.121206488070854 57.833999999999996
7.143566093607822 57.4456
7.165908543567245 57.9511
7.188268694426048 58.4275
7.2106291193438095 57.9465
7.232972390625943 60.4312
7.255333366030969 77.8877
7.277677189091925 163.64700000000002
7.300038718428332 248.743
7.322400526130865 210.528
7.344745183422596 117.111
7.367107550224791 69.4725
7.389452767901992 59.7658
7.411815697249891 58.1053
7.434161478756298 57.1199
7.456524974096713 56.4773
7.478888753837185 56.4438
7.501235387657368 56.8544
7.523599738562711 57.023999999999994
7.545946944825532 56.9915
7.568311870344528 57.6912
7.5906770845765665 58.0817
7.613025156078678 60.1685
7.635390950099687 61.9929
7.657739602662809 60.6555
7.680105979923558 58.9306
7.702472650212829 58.4413
7.724822180948224 58.0995
7.747189439655568 58.0903
7.769539560075357 58.1477
7.791907410653562 58.6201
7.81425812420825 58.248999999999995
7.836626570110925 58.879
7.858995315087906 59.6374
7.881346924933401 59.7246
7.903716270417482 60.0989
7.926068482028405 60.2261
7.948438431475253 61.1921
7.9708086843180235 61.7113
7.993161805171116 62.434
8.015532667162402 62.608000000000004
8.037886398416653 63.6809
8.060257873014221 64.0916
8.082629655331942 64.9245
8.104984308787587 66.0901
8.127356708900503 70.7277
8.149711981398308 79.7399
8.172085002766314 84.054
8.194458336181368 78.1521
8.216814543847752 72.6679
8.23918850371002 71.9116
8.26154533906492 72.4149
8.283919928836452 73.8523
8.306277395339652 74.7905
8.328652618483376 76.2112
8.351028159736202 78.2925
8.373386579575245 80.6212
8.395762759396959 83.0368
8.418121819038275 89.2736
8.440498640894003 108.90700000000001
8.462875785192262 131.19799999999998
8.485235811156207 146.422
8.507613602688501 187.548
8.529974277114228 285.753
8.552352719347912 421.764
8.574731488360351 615.5790000000001
8.59709314210385 966.803
8.619472567021075 1506.26
8.64183487789147 2036.3
8.664214962183097 2054.17
8.686577933647762 1275.08
8.708958680784317 557.2919999999999
8.731339760774953 226.708
8.753703729764451 129.408
8.77608547780821 108.35700000000001
8.798450116065078 101.853
8.820832535634787 97.7793
8.843215292401656 95.3977
8.865580941199045 93.256
8.887964374703538 92.428
8.910330701447199 94.0406
8.932714815164482 98.5357
8.955099270424924 98.1077
8.977466620733543 93.2807
8.999851761421976 88.9477
9.022219798361645 86.5886
9.04460562795561 86.1123
9.066991803441677 85.4958
9.089360876979615 85.1165
9.111747746589993 84.8
9.13411751544971 83.9222
9.156505082664324 83.9778
9.178875550323522 84.6444
9.20126381862328 85.2192
9.223652438908596 85.8173
9.246023961427412 85.2515
9.26841328802173 84.4501
9.290785518039224 84.334
9.313175554425882 85.0699
9.335565947154315 85.3251
9.357939245086508 85.6131
9.380330352834827 85.5706
9.40270436697103 85.6266
9.425096193225055 85.4033
9.447488380180165 86.2376
9.469863475295412 86.0649
9.492256385987508 86.6474
9.514632206018318 87.5303
9.537025843935714 87.8319
9.559402392368193 88.7924
9.581796761000229 89.6262
9.604191496441521 91.4093
9.626569144158516 96.1994
9.648964615551032 103.959
9.671343000390081 106.671
9.693739211225699 102.51899999999999
9.716135793237463 97.2818
9.738515290448102 96.0284
9.760912617143402 96.7903
9.783292860202891 98.2824
9.805690935076182 99.0916
9.828089385495742 100.523
9.850470754023561 103.544
9.872869957865444 113.82799999999999
9.89525208097539 137.558
9.917652041736662 158.425
9.940052382417589 157.217
9.962435644102392 158.828
9.984836746950979 193.935
10.007220771957746 265.032
10.029622640473708 367.35
10.052007432299963 501.17699999999996
10.074410069984072 689.778
10.096813093716005 1008.09
10.119199042482517 1466.43
10.141602840636468 1870.44
10.163989564971628 1818.79
10.186394141051062 1264.46
10.208799107559706 600.206
10.231187001965623 273.976
10.253592751657669 154.619
10.275981430388155 124.669
10.298387966769793 122.111
10.320794897965431 126.859
10.343184759907361 126.13600000000001
10.36559248305461 117.279
10.387983138083852 110.555
10.410391656691655 113.087
10.432800574501677 124.975
10.455192425893369 143.873
10.47760214443012 168.778
10.499994797678786 199.653
10.522405320453982 249.533
10.54479877906917 333.775
10.567210109595656 439.624
10.5896218454736 534.717
10.612016518879773 546.305
10.634429067781074 428.48199999999997
10.656824555333241 260.82
10.679237920773568 151.214
10.701651695961992 106.456
10.724048411481384 94.6079
10.746463008485165 90.2393
10.768860546937125 88.7232
10.791275969274796 86.4359
10.81369180576079 85.1801
10.836090585366925 83.8708
10.858507252467449 82.6838
10.88090686379991 81.7186
10.903324365036394 81.6384
10.925724811614439 81.9508
10.948143150509463 84.5341
10.970561909719066 84.0636
10.992963615930844 81.1211
11.015383218085756 77.9756
11.037785768347074 76.1339
11.06020621697282 75.4237
11.082627090322113 74.9531
11.105030913430326 74.5179
11.12745263854165 75.5886
11.149857314510728 81.1746
11.172279894912576 91.3646
11.194702904450653 93.78299999999999
11.217108866490921 87.7862
11.239532736615194 80.32600000000001
11.26193956033512 76.6934
11.284364294577085 74.5983
11.306789462371718 71.6105
11.329197585398376 69.9242
11.351623622610898 69.1884
11.37403261614354 68.3102
11.396459526308487 68.3954
11.418869393879497 67.9915
11.441297180532617 67.7047
11.463725406927658 67.1373
11.486136592353875 66.7204
11.508565700543707 68.2284
11.530977768845315 71.5001
11.553407762368774 73.268
11.575838200059769 72.2302
11.598251599479612 69.0729
11.620682927815501 66.851
11.64309721895548 65.9101
11.665529441478206 65.1539
11.687962112597958 65.0969
11.710377748130886 65.3207
11.732811318753434 65.0857
11.755227854859067 65.1995
11.777662328529495 65.3333
11.800079768750786 64.898
11.822515149015453 64.7511
11.844950984084935 64.9059
11.867369787303163 64.664
11.889806534289491 64.6457
11.912226250487029 64.8845
11.934663912939751 65.0391
11.9571020346363 65.2134
11.979523127133968 65.39399999999999
12.001962169624331 65.8555
12.024384183972964 67.2906
12.046824150809913 70.8298
12.069264581333726 76.5494
12.091687985297767 83.0637
12.11412934550045 91.2109
12.136553680195208 100.859
12.158995973632788 115.524
12.181438735204349 134.739
12.20386447284199 165.331
12.226308172985636 197.445
12.24873485024193 214.115
12.271179492516982 194.773
12.293607112949127 154.747
12.316052700916226 117.45700000000001
12.338498763250042 91.7705
12.360927805303868 77.7245
12.383374818673879 70.794
12.405804812803074 67.8142
12.428252780773262 67.0187
12.45070122756722 66.7466
12.473132656675375 66.6107
12.49558206341869 66.9919
12.518014453510101 67.0073
12.540464823770117 67.206
12.562915677315177 67.2894
12.58534951575545 68.1977
12.607801338171472 70.8301
12.630236146511358 79.3937
12.652688941369085 87.7535
12.675124723177234 88.8335
12.697578494048786 82.1156
12.720032754458185 74.6721
12.742470003354093 71.2228
12.764925245138771 70.2188
12.787363476431278 70.2365
12.809819703166806 70.6026
12.83227642391173 71.3176
12.854716135692716 71.7893
12.877173846755147 73.0102
12.899614549869717 73.1504
12.9220732548287 73.9083
12.94453245827299 74.4801
12.966974655289818 75.389
12.989434858002571 76.2019
13.011878055298721 76.9248
13.034339260862497 77.7691
13.056800969391883 78.9546
13.079245674017244 81.2999
13.101708390774869 83.9508
13.12415410463411 92.02
13.146617833206086 105.34899999999999
13.169064559883248 119.37299999999999
13.191529303857127 134.548
13.213994557076367 151.357
13.236442809902437 173.58700000000002
13.258909083908291 207.632
13.28135835851934 253.153
13.30382565690295 318.455
13.326293469022952 398.019
13.348744283242008 448.73
13.371213125129904 422.152
13.39366497011003 331.67
13.416134845360597 226.005
13.438605238843131 151.037
13.46105863690397 119.77
13.483530069144786 113.899
13.505984506951902 118.191
13.528456981549432 127.61399999999999
13.550929978879088 138.714
13.573385983253365 153.84
13.595860028340867 176.43099999999998
13.618317081455832 209.812
13.64079217790333 256.17400000000004
13.663250283359057 310.85400000000004
13.685726434770173 360.29900000000004
13.708203115221277 371.24699999999996
13.730662806148091 318.664
13.75314054697177 237.243
13.775601299246777 160.60299999999998
13.798080104050406 113.301
13.820559442405358 92.3795
13.843021793671388 85.7681
13.865502201420897 83.3648
13.887965623051947 82.539
13.910447103807167 81.3503
13.932929122629764 79.8241
13.955394156785959 79.5201
13.977877254034569 78.5309
14.000343367582113 77.5915
14.022827546871707 76.648
14.045294743423524 76.2529
14.06778000837062 75.4279
14.090265817715476 75.281
14.112734645763819 74.9909
14.13522154619454 75.0156
14.157691466286913 75.5539
14.180179461423874 74.8883
14.202668005486178 74.0283
14.22513957064374 73.1056
14.247629214846473 72.9598
14.270101881097517 72.7202
14.29259262906496 73.1531
14.315083930490205 74.5677
14.337558255389705 75.2487
14.360050666019726 74.8831
14.382526101071944 73.3759
14.405019624534942 72.1722
14.427513705993134 71.3384
14.449990813291825 71.0589
14.47248601302899 71.0154
14.49496423954951 71.1261
14.517460561197822 71.1677
14.539939910570322 70.813
14.562437357763558 71.2429
14.58493536931253 72.8017
14.607416409993311 74.46
14.62991555254159 75.8459
14.652397725157423 75.3136
14.674898002342799 74.1007
14.697398848433282 73.0068
14.719882725991326 73.524
14.74238471217934 74.3811
14.764869730765593 78.0352
14.787372860692983 82.09299999999999
14.809876564079925 87.4788
14.83236330125751 93.0163
14.854868153850365 99.3964
14.877356041159485 107.741
14.899862046604186 119.125
14.922351087688757 135.475
14.944858249632887 157.74200000000002
14.967365991421232 185.282
14.989856770231246 212.12900000000002
15.012365673994204 226.979
15.03485761569738 212.72799999999998
15.05736768508665 176.99400000000003
15.07987833888692 136.209
15.102372032001655 104.486
15.124883856909658 84.3483
15.14737872204565 76.2235
15.169891721717274 73.7234
15.192405310371893 73.3835
15.214901940621196 74.1533
15.237416709527137 74.7899
15.259914520936249 75.3473
15.282430473753607 74.3222
15.304947020131227 72.7486
15.327446610371178 71.2897
15.349964346154254 69.7939
15.372465126703139 69.2689
15.394984055556009 68.9813
15.417486030076159 68.6521
15.44000615566487 68.1288
15.462526881230803 68.4578
15.485030653812652 68.7548
15.507552581617434 68.9129
15.530057557334603 68.903
15.55258069104857 68.84
15.575104429329837 68.7639
15.597611216864632 68.1505
15.620136166564563 68.315
15.6426441664095 69.4558
15.665170331202765 71.8822
15.687697105158826 75.0248
15.710206930593545 79.2612
15.732734925158933 83.4052
15.755245972089478 88.2915
15.77777519094324 94.1492
15.800287463046663 102.389
15.822817909869592 114.209
15.84534897229804 129.74
15.867863089299354 150.985
15.890395385222186 175.264
15.912910736597423 194.493
15.935444269699861 202.487
15.957978423016485 182.95
15.980495633101265 151.855
16.003031029129367 117.958
16.02554948280019 89.8563
16.048086125229432 75.0965
16.070623392487107 69.9896
16.09314371869582 68.7987
16.11568223789321 67.8788
16.13820381691126 66.32
16.160743591742527 64.9607
16.183283996022084 63.4128
16.205807461423195 61.9274
16.228349126881973 61.2946
16.25087385432698 61.3687
16.27341678466365 60.542
16.29594277784926 60.7259
16.31848697676433 61.343
16.341031811604868 62.207
16.36355971058487 62.8745
16.3861058195587 62.6673
16.40863499352978 60.9923
16.431182380342005 59.5171
16.453730407713202 58.4894
16.476261501364792 57.9089
16.498810812136167 57.6622
16.52134319004079 57.8189
16.54389378792203 57.5917
16.566445031001553 57.1999
16.588979342490088 57.1318
16.61153187824822 56.9467
16.634067483263312 56.8318
16.656621315414416 56.653
16.679175797408888 56.4527
16.701713349928728 56.7751
16.72426913389191 57.0933
16.74680798922351 57.1348
16.76936507887444 56.9591
16.791905240734874 57.1666
16.814463639794468 57.0543
16.837022695210294 56.9908
16.859564824093756 57.3794
16.882125194503903 58.5639
16.904668639217885 59.6956
16.927230328348003 60.073
16.949792678493612 59.98
16.972338104193863 59.1238
16.994901778652235 58.0988
17.017448529496576 57.6305
17.040013531998152 57.5505
17.06257920018044 58.0966
17.0851279459922 58.8599
17.107694947817667 59.9978
17.130245028099072 61.0569
17.15281336730298 62.3626
17.17536478578733 63.6243
17.19793446610687 64.9923
17.220504818648422 66.8202
17.243058251703697 68.523
17.265629950971032 72.2145
17.288184731571736 76.3784
17.310757781306908 81.4075
17.33333150794385 84.8268
17.355888317140174 85.895
17.37846339986244 83.8508
17.401021565958885 77.9023
17.42359800851343 71.4935
17.44617513265564 66.5188
17.468735341390783 63.1039
17.491261035594565 61.4912
17.51396340099364 60.9794
17.536490463869136 61.1531
17.559018209820174 61.2812
17.58154663977963 61.1578
17.604251766089718 61.2086
17.626781572227713 61.5816
17.64931206518155 61.8873
17.671843245885103 62.7231
17.69455114821572 62.7543
17.717083712612634 63.1244
17.739616967569667 63.3755
17.762150914021706 63.4341
17.78486160749854 63.3452
17.807396945166804 63.9203
17.829932977143503 64.8183
17.85246970436452 66.3532
17.875183204129467 68.4991
17.897721330097664 70.9331
17.920260154126645 73.8142
17.942799677153296 76.6179
17.9655159983646 79.2285
17.988056927677544 82.58200000000001
18.010598558807683 87.2254
18.033140892692916 93.417
18.05586005052525 101.454
18.07840379824407 111.541
18.10094825154059 124.294
18.12366954819864 137.377
18.146215420998306 145.41299999999998
18.16876200220057 144.42600000000002
18.191309292745153 134.266
18.214033452627167 118.68700000000001
18.236582170236648 103.11399999999999
18.259131600016456 92.3799
18.281681742907335 87.8419
18.304408781233683 88.3303
18.32696035875955 91.2603
18.349512652227624 96.001
18.372065662579683 102.854
18.394795594587553 108.288
18.41735004715306 110.321
18.43990521943684 106.448
18.46246111238171 97.3972
18.485193953325208 86.4663
18.507751296070428 76.7128
18.530309362314178 70.5186
18.552868153000343 66.9104
18.57560391815056 64.9108
18.59816416623245 64.2589
18.620725141597372 63.7246
18.643286845190268 63.2172
18.666025549835414 62.8097
18.688588718427933 62.0555
18.711152618092243 61.9752
18.73389353884365 61.6576
18.75645890921984 61.0644
18.77902501351406 60.867
18.801591852673102 60.7336
18.824335739722738 60.2505
18.846904057212626 60.2164
18.8694731124168 59.8135
18.89204290628315 59.9361
18.914789774966803 59.4509
18.937361054791623 59.326
18.959933076131318 59.0719
18.982505839934877 59.1477
19.00525570560582 59.1505
19.027829963004184 58.9918
19.05040496572238 59.2072
19.072980714710468 59.2459
19.095733592739563 59.3119
19.11831084296757 59.6561
19.140888842324735 60.5243
19.16346759176222 60.771
19.18622349753803 61.1569
19.208803755869358 61.8204
19.231384767143577 62.2767
19.253966532312948 63.0173
19.276725481241822 64.4701
19.29930876296784 65.7142
19.3218928014549 68.1066
19.34465404436217 71.71
19.36723960516257 75.6305
19.389825925592426 78.5535
19.412413006605938 79.7049
19.43517731967805 78.0536
19.457765930683355 74.2702
19.48035530514408 69.2279
19.50294544401556 64.4132
19.525712842708348 60.5482
19.54830451925909 58.3589
19.570896963095727 56.5842
19.593490175174704 56.0476
19.616260674962184 55.94
19.638855432416964 55.4902
19.661450960992624 55.7068
19.68404726164677 55.5674
19.706820878021247 55.2263
19.729418731756834 55.4462
19.752017360452857 55.305
19.77461676506804 55.4032
19.797393513540218 55.4984
19.819994478951667 55.8755
19.84259622316767 56.6515
19.8651987471481 57.2202
19.887978643247177 57.3882
19.91058273574792 57.5406
19.933187610901943 58.1599
19.955969879466828 58.7373
19.97857632894404 59.611000000000004
20.00118356396599 60.4842
20.023791585494575 61.8573
20.046577028914875 64.1447
20.069186632506966 66.5939
20.091797025500632 69.0796
20.114408208858933 71.0869
20.137196842715273 72.48
20.159809615886765 72.5464
20.18242318232135 69.7863
20.20503754298326 67.2057
20.227829382875154 65.14
20.250445341109344 63.7535
20.27306209647285 63.1196
20.29567964993108 63.6078
20.31847471147704 64.8911
20.34109387027612 66.8158
20.363713830075454 67.7783
20.386334591841646 67.593
20.409132890679302 65.7637
20.431755265564437 62.9925
20.454378445325528 59.6776
20.477002430930366 56.9293
20.499803982716553 55.3719
20.522429589228004 54.2669
20.54505600449589 53.5858
20.567683229489194 53.2193
20.590488049900088 52.6576
20.61311690359731 52.3432
20.63574656993626 52.0252
20.658553853717297 51.5609
20.681185154618298 51.5648
20.703817271080066 51.4969
20.72645020407368 51.1623
20.749260783967177 51.0764
20.771895359337133 50.9937
20.794530754161617 50.7647
20.817166969412938 50.855
20.83998086114876 50.6457
20.86261872660049 50.3576
20.885257415405402 50.5083
20.90789692853701 50.303000000000004
20.930714147864748 50.165
20.953355319030678 50.336000000000006
20.97599731745334 50.4914
20.99864014410749 50.3168
21.021460706796564 50.3123
21.044105199328826 50.6041
21.06675052302631 50.8666
21.089396678865015 50.8727
21.112220600704806 50.9595
21.134868430275347 51.2256
21.15751709492456 51.3077
21.180166595629693 51.5799
21.202993892429635 52.0307
21.22564507473034 52.5286
21.24829709602816 52.9387
21.27112693608965 53.1651
21.293780644891275 53.611999999999995
21.316435195634053 53.0573
21.339090589297417 52.3216
21.361923832041875 51.9138
21.384580921090404 51.188
21.407238856007325 50.4566
21.429897637773326 50.2463
21.45273429906592 50.0919
21.475394784108598 49.9659
21.498056118951983 49.9457
21.520718304578022 50.2579
21.543558400304388 50.27
21.566222297108816 50.3748
21.58888704765135 50.5004
21.61155265291521 50.8564
21.63439619898156 51.5162
21.657063523335786 51.7479
21.67973170537063 52.1087
21.7024007460706 52.5979
21.72524775840385 53.1807
21.747918526116475 53.7873
21.770590155457388 54.7119
21.79326264741238 55.8296
21.816113141960237 57.0013
21.838787368860547 58.5151
21.861462461341976 60.1286
21.884315579735777 62.4916
21.90699241312273 64.4416
21.92967011506078 66.3622
21.95234868653799 67.4915
21.9752053151131 67.3113
21.997885635446785 65.8824
22.020566828293532 63.4565
22.04324889464272 60.7591
22.066109049404666 58.7369
22.088792872571794 57.6934
22.111477572219204 57.5933
22.1341631493376 57.7938
22.157026846313123 58.0383
22.179714188221507 57.8567
22.202402410582668 57.2611
22.22509151438863 55.7926
22.24795876962584 54.4092
22.270649646204486 53.1454
22.293341407213727 52.1983
22.316034053646906 51.4173
22.338904883215342 50.9925
22.36159931041458 51.0319
22.38429462602756 50.9275
22.40699083104897 50.7664
22.429865251039757 50.8827
22.452563244831367 51.0077
22.47526213102522 50.8259
22.49813925616515 50.5318
22.520839937143307 50.1745
22.543541513520587 50.3653
22.56624398629403 50.1515
22.589124730075895 50.0752
22.611829005656723 50.3006
22.63453418063466 50.2542
22.657240256008077 50.4939
22.680124634582935 50.7602
22.70283252079775 51.0022
22.725541310413075 51.2418
22.74825100442868 51.4202
22.771139033969575 51.8261
22.79385054687155 52.0689
22.81656296718292 52.4598
22.83927629590484 52.886
22.862167992606945 53.5396
22.88488314827121 54.4509
22.907599215359284 55.3699
22.93031619487366 56.2775
22.953211574954405 57.4073
22.975930389478226 58.8227
22.998650119445763 59.9895
23.02137076586092 60.2697
23.044269845560063 59.4972
23.06699233506288 58.1403
23.089715744034912 56.2518
23.112617610931565 54.181000000000004
23.135342869061212 52.7179
23.158069049684816 51.3875
23.1807961538087 50.9002
23.20370174880544 50.6885
23.226430710184808 50.688
23.249160598093425 50.6047
23.271891413539002 50.6608
23.294800752937697 50.7233
23.31753343374794 50.8193
23.340267045128353 50.7593
23.36300158808808 51.1888
23.38591468821339 51.2745
23.408651104658304 51.4642
23.431388455719986 52.0309
23.454126742409 52.5105
23.4770436196085 53.1636
23.499783787914662 53.9094
23.522524894889884 54.7665
23.54526694154616 55.8126
23.56818761219047 57.2902
23.59093154860734 58.4005
23.613676427751283 59.5392
23.636422250635754 59.9128
23.659346731118656 59.2112
23.68209445191868 57.5294
23.704843119509587 55.2748
23.72759273490623 53.038999999999994
23.750521041644767 50.9635
23.77327256312355 49.5118
23.796025035462787 48.6792
23.818956224555475 47.9255
23.841710609113413 47.7861
23.86446594758979 47.5504
23.887222241002014 47.2408
23.910157285144578 46.9586
23.932915498962537 46.7296
23.955674670778713 46.6824
23.978434801611975 46.5489
24.001373717286125 46.2412
24.024135776723917 46.3664
24.046898798245582 46.0912
24.06966278287146 46.2498
24.092605586582614 45.8679
24.115371508023642 45.701
24.1381383956401 45.5777
24.16090625045381 45.6227
24.183852958731244 45.5178
24.206622758582608 45.4215
24.229393528706886 45.2906
24.252165270127392 45.4691
24.27511589952438 45.2693
24.297889594216997 44.9821
24.32066426328598 44.8691
24.34343990775613 44.9228
24.36639447485003 44.8243
24.38917208083877 44.8586
24.41195066531332 44.7648
24.43490819850244 44.6911
24.457688750692377 44.3774
24.48047028445616 44.3343
24.503252800821233 44.4782
24.526214300784112 44.6244
24.548998793132213 44.5696
24.57178427117417 44.3945
24.59457073593893 44.5524
24.617536219319863 44.3892
24.64032466834748 44.4705
24.663114107195035 44.3743
24.685904536893013 44.1397
24.708874020360852 44.1743
24.731666442613744 44.1229
24.754459858818787 43.9077
24.777254270007962 43.9262
24.80022777025625 43.9346
24.82302418230472 43.8778
24.845821592443674 43.646
24.86862000170663 43.6816
24.891597535453727 43.5414
24.914397953892728 43.6948
24.93719937456671 43.7029
24.96000179851076 43.7398
24.98298338249997 43.9225
25.00578782394922 44.021
25.028593271784167 44.1622
25.05157790644186 44.4889
25.07438537804115 44.4598
25.097193859145293 44.6048
25.120003350792075 44.7958
25.142992065061257 45.2605
25.165803588823465 45.367
25.18861612625217 45.7014
25.211429678386736 45.9635
25.234422489079968 46.1372
25.257238081693636 46.1666
25.280054692141732 46.2045
25.3028723214652 46.126999999999995
25.325869245420463 46.2531
25.348688923599397 46.1996
25.371509623787006 46.2888
25.394331347025812 46.4515
25.41733240110666 46.1623
25.440156181590016 45.7836
25.46298098826268 45.2938
25.48580682216873 44.6017
25.50881202326435 43.8765
25.53163992281684 43.2999
25.55446885274561 42.8571
25.577298814096377 42.507
25.600308179121807 42.3661
25.623140214533745 42.4136
25.64597328451537 42.1668
25.66898578564376 42.0299
25.691820936010206 42.0179
25.714657124097695 41.9864
25.737494350954734 42.0833
25.760511045684957 42.0161
25.783350361364224 41.9882
25.806190718969255 42.023
25.82903211955018 42.2279
25.852053024868923 42.1645
25.874896522722523 42.1916
25.897741066713106 41.9724
25.920586657892454 42.0775
25.943611790812668 42.1316
25.966459487728237 42.2458
25.989308234998564 42.0341
26.01215803367705 42.43600000000001
26.03518741123814 42.6725
26.05803932412957 42.7033
26.080892291600094 42.8144
26.10374631470478 42.9583
26.12677995397268 43.1141
26.14963609978026 43.3981
26.172493304397875 43.1412
26.19535156888223 43.0599
26.218389486949604 42.6593
26.241249882640123 42.2382
26.26411134137826 41.9713
26.28715248187403 41.8433
26.31001607820869 41.6961
26.3328807407756 41.503
26.35574647063438 41.7735
26.37879191991473 41.5106
26.401659795896734 41.4922
26.424528742360263 41.7343
26.447398760366614 41.848
26.470448535598294 41.8332
26.49332070826805 42.0752
26.516193955675355 42.3808
26.53906827888316 42.3679
26.562122397260108 42.5057
26.584998883685063 42.7498
26.607876449110325 42.7984
26.63075509460056 43.1207
26.65381357334404 43.3718
26.67669439061878 43.6272
26.699576291163382 43.6195
26.722459276044212 43.5256
26.745522132402975 43.2696
26.768407297649354 43.107
26.791293550442003 42.6412
26.814180891848974 42.4421
26.837248143099337 42.1194
26.860137673466657 41.9134
26.88302829566349 41.7748
26.90592001075963 41.6394
26.92899167420566 41.4219
26.951885586870763 41.1023
26.974780595655517 40.7459
26.99785558178161 40.6157
27.020752794605112 40.5138
27.043651106772522 40.3915
27.06655051935668 40.275999999999996
27.089629948036183 40.1306
27.112531573292053 39.9682
27.135434302194138 40.0624
27.158338135817015 39.9408
27.181422024430987 39.9053
27.204328079372566 39.8962
27.22723524226965 39.9773
27.250143514198573 40.0685
27.273231880156334 39.9737
27.296142382065014 39.6941
27.319053996245536 39.6907
27.341966723775965 39.747
27.365059584515222 39.7967
27.38797455070062 39.8279
27.410890633481237 39.7714
27.433807833936918 39.5837
27.456905206923906 39.6966
27.47982465472398 39.7299
27.502745223449743 39.7464
27.525666914182825 39.9313
27.548768816912457 39.9331
27.571692763693633 39.8035
27.59461783573812 39.7612
27.617723149491244 39.6384
27.640650484125285 39.5666
27.66357894728264 39.5258
27.686508540048052 39.5022
27.709618414237887 39.3391
27.732550278321757 39.1566
27.755483275279115 39.1246
27.778417406196485 39.2176
27.801531858397514 39.2195
27.824468269376716 39.0988
27.847405817586786 39.1984
27.870344504116094 39.2535
27.893463551932008 39.2526
27.916404527281053 39.4882
27.93934664422563 39.3903
27.962289903855886 39.4253
27.98541356491974 39.7193
28.00835912214229 39.7542
28.03130582533231 40.1512
28.054253675581805 40.2699
28.077381967556104 40.2051
28.100332124185126 40.332
28.123283431160893 40.3176
28.146235889577238 40.2862
28.169368830154156 40.0387
28.192323603752033 39.9404
28.215279532083304 39.6732
28.238415973016764 39.4665
28.261374223145094 39.4384
28.284333631303806 39.2358
28.307294198589954 39.0503
28.330435319167677 38.6734
28.353398217078915 38.4641
28.376362277420153 38.1478
28.39932750129032 37.964
28.422473319286713 37.7779
28.44544088262495 37.7384
28.468409612800283 37.6095
28.491379510913497 37.3108
28.51453004413313 37.2541
28.53750229057244 37.2664
28.56047570826344 37.1717
28.583450298308804 37.2266
28.606605564586562 37.0318
28.629582511831156 37.028
28.65256063474956 36.9024
28.675539934446338 36.7746
28.698699951647605 36.7515
28.72168161743193 36.7375
28.74466446331978 36.7934
28.767648490417624 36.675
28.790813276438353 36.6473
28.813799678527303 36.6126
28.836787265157085 36.5993
28.859955641890075 36.5948
28.882945610203045 36.6059
28.905936766392035 36.4811
28.928929111566863 36.7084
28.952102288520145 36.6082
28.975097024308607 36.4548
28.998092952423807 36.2934
29.021090073977508 36.3271
29.04426806913204 36.1227
29.067267590245258 35.8677
29.090268308143695 35.9962
29.11327022394099 35.8909
29.13645305530891 35.7982
29.159457379627167 35.6544
29.18246290519685 35.6777
29.20546963313352 35.5825
29.22865731875826 35.5546
29.25166646419296 35.5018
29.27467681535305 35.4508
29.29768837335608 35.3903
29.320880931312562 35.4485
29.34389491580634 35.3068
29.366910110507334 35.3311
29.38992651653503 35.3684
29.41312396492981 35.3936
29.436142806456754 35.4357
29.45916286268059 35.255
29.48236399319994 35.2359
29.50538649169417 35.1723
29.528410208259935 35.088
29.55143514402014 34.8972
29.574641196749695 34.6284
29.597668583816574 34.6763
29.6206971934585 34.3963
29.64372702680042 34.4491
29.666938019934474 34.3892
29.689970313635285 34.3416
29.713003834422636 34.222
29.73603858342347 34.1209
29.759254535188578 34.0624
29.78229175361658 34.0578
29.80533020365064 34.0366
29.82836988641968 34.0837
29.85159081507472 33.9012
29.874632976355343 34.025
29.89767637376955 33.9914
29.920721008448314 33.789
29.9439469322847 33.72
29.96699405457564 33.6227
29.9900424175358 33.6559
30.013092022298157 33.5859
30.03632295963995 33.6307
30.059375061131373 33.6707
30.08242840783577 33.6698
30.105483000888153 33.6991
30.128718970092244 33.5024
30.151776069006917 33.5597
30.17483441768648 33.5254
30.198074175317235 33.5485
30.221135036724256 33.5865
30.24419715131772 33.5482
30.267260520236203 33.4219
30.290505341942243 33.4713
30.313571232750228 33.4402
30.336638381310948 33.488
30.35970678876503 33.5169
30.38295669299435 33.3894
30.40602763151657 33.2928
30.429099832366074 33.2225
30.452173296685572 33.1603
30.47542830191959 33.1783
30.498504306502497 33.118
30.521581577995562 33.1654
30.544660117543582 33.1842
30.56792024229725 33.1735
30.59100133132069 33.1953
30.614083691845494 33.2156
30.637167325018545 33.2752
30.660432587840603 33.2586
30.683518779717886 33.1838
30.70660624769615 33.3345
30.729694992924372 33.3052
30.75296541239743 33.3205
30.77605672557558 33.2465
30.799149319462742 33.3152
30.8224236211637 33.163000000000004
30.845518789950724 33.0782
30.868615242910597 32.9984
30.891712981195973 32.7989
30.91499247215866 32.7941
30.938092794619365 32.7736
30.96119440587579 32.6448
30.984297307082752 32.5424
31.00758200598383 32.4193
31.030687500658694 32.3381
31.053794288760695 32.292
31.076902371446767 32.181999999999995
31.100192296997445 32.2474
31.12330298246119 32.2319
31.14641496599209 32.0724
31.169528248749216 32.1284
31.19282341969534 32.0189
31.215939314557186 32.0892
31.239056512134788 32.0484
31.262175013589378 31.9565
31.28547544871168 31.9049
31.30859657161541 31.9002
31.331719001892175 31.923000000000002
31.35484274070538 31.98
31.378148458819545 31.9793
31.401274828443725 31.9589
31.424402510106933 31.8938
31.447712205419993 32.0266
31.470842524931633 31.9121
31.493974159989783 31.8636
31.51710711176168 31.8896
31.54042212308802 31.8943
31.563557722100917 31.8949
31.586694641341655 31.8273
31.609832881979628 31.6493
31.63315322823208 31.5275
31.656294125521327 31.5146
31.679436347728515 31.554000000000002
31.70257989602529 31.484
31.725905596152327 31.2771
31.74905181052835 31.2113
31.772199354521323 31.1207
31.79534822930507 31.1565
31.818679302290967 31.1796
31.84183085259981 31.1863
31.864983737233473 31.136999999999997
31.88813795736804 31.2096
31.911474422233013 31.0326
31.934631327356435 31.1023
31.9577895715215 31.0311
31.980949155906522 31.2004
32.004291031706956 31.0956
32.027453310562606 30.9843
32.05061693318573 30.9304
32.07396288236386 30.9327
32.09712920658542 30.8842
32.12029687812702 30.6986
32.14346589817093 30.659000000000002
32.166817291729984 30.6183
32.18998902288583 30.5439
32.21316210610336 30.5212
32.23633654256711 30.386999999999997
32.259693399663725 30.3664
32.282870556771144 30.1994
32.30604907069099 30.2012
32.329228942610065 30.2112
32.35259128243769 30.0469
32.375773884550505 29.9423
32.398957848235646 29.9864
32.422143174682176 29.9178
32.445511016471215 29.8205
32.468699082679954 29.7958
32.49188851523011 29.8423
32.51507931531304 29.7083
32.538452678331 29.624000000000002
32.56164622776311 29.4916
32.58484114831493 29.4378
32.60803744118015 29.5302
32.631416344731896 29.5056
32.654615396551876 29.4893
32.67781582427913 29.4776
32.701198898634416 29.3119
32.72440209253756 29.3816
32.747606665947124 29.2994
32.77081262006088 29.1985
32.79420126883317 29.1485
32.81740999876112 29.1758
32.840620112999424 29.0426
32.86383161274818 29.0343
32.88722585534586 29.0501
32.91044014056596 29.0646
32.933655814909734 28.9665
32.95687287957963 28.9931
32.98027273544904 28.9336
33.00349259526636 28.8821
33.026713849030116 28.9306
33.04993649794511 28.8047
33.073341986570746 28.7474
33.09656744032826 28.7938
33.11979429286444 28.7953
33.14302254538647 28.7122
33.166433686291185 28.6736
33.18966475336992 28.6665
33.212897224069096 28.6192
33.23613109959831 28.522
33.259547912343415 28.4471
33.2827846121627 28.4527
33.306022720453775 28.5055
33.32926223842861 28.4098
33.352684742614166 28.4019
33.37592709463173 28.4244
33.399170859982064 28.285999999999998
33.422597648419426 28.2661
33.44584425514446 28.1912
33.46909227885668 28.1002
33.4923417207723 28.0548
33.51577423505344 28.1007
33.539026528130385 27.927
33.56228024307245 27.9955
33.585535381098246 27.7256
33.60897364093058 27.6764
33.63223163992385 27.6729
33.6554910656699 27.5747
33.678751919389796 27.546
33.702195944520106 27.5515
33.72545966903325 27.5491
33.74872482519663 27.5549
33.771991414233746 27.4112
33.79544122444841 27.4206
33.81871069412428 27.358
33.84198160035767 27.3584
33.86525394437455 27.2319
33.88870955949969 27.2453
33.911984794020626 27.2003
33.93526147001624 27.1774
33.958539588715006 27.1681
33.98200102861669 27.1449
34.0052820477047 26.9857
34.02856451319451 26.9793
34.05203033759056 26.9299
34.07531571090147 26.9979
34.09860253431845 26.8908
34.121890809074316 26.872
34.145362493118924 26.8276
34.16865368561615 26.7375
34.191946333164054 26.7215
34.21524043699793 26.6933
34.23871800066799 26.6642
34.26201503218366 26.5427
34.28531352370466 26.4919
34.30861347646881 26.4317
34.33209693978188 26.395
34.3553998301885 26.4279
34.378704185565205 26.3814
34.402010007152356 26.2916
34.42549939016683 26.3041
34.44880815937748 26.1969
34.472118398533134 26.1962
34.49543010887669 26.0906
34.51892543169198 26.0643
34.54224009966052 25.994
34.56555624255917 26.0725
34.58887386163339 26.0204
34.61237514439016 25.9243
34.6356957311114 25.8929
34.65901779775809 25.8987
34.68252356662995 25.8245
34.705848608458616 25.7599
34.72917513396849 25.7178
34.75250314440949 25.6865
34.77601490857862 25.675
34.799345904259795 25.6146
34.82267838863559 25.6147
34.846012362958525 25.5408
34.869530142679984 25.4744
34.89286711232212 25.486
34.91620557568269 25.4812
34.93954553401677 25.4898
34.9630693495876 25.3694
34.986412313340814 25.3948
35.00975677584668 25.4661
35.033102738362956 25.3462
35.05663261012228 25.2485
35.0799815881786 25.2134
35.10333207003229 25.1564
35.12668405694369 25.1682
35.150220005273056 25.209
35.17357501786656 25.0607
35.19693153931268 25.0738
35.220289570874385 25.0169
35.24383161619786 25.0015
35.267192683604904 25.1084
35.290555264930376 25.0053
35.314101899412165 24.9889
35.33746752422433 24.9151
35.36083466676374 24.9096
35.38420332829803 24.8257
35.407756095629054 24.8949
35.43112781085063 24.8771
35.45450104888391 24.8284
35.477875810999194 24.7848
35.50143473172161 24.6651
35.52481255774625 24.7536
35.54819191167777 24.6494
35.57157279478914 24.6649
35.595137889488406 24.5833
35.61852184675279 24.5067
35.641907337029984 24.4758
35.665294361595684 24.4265
35.68886565090076 24.3864
35.7122557598848 24.3878
35.73564740699838 24.3663
35.759040593519934 24.2717
35.78261809810353 24.2986
35.80601437933051 24.2694
35.829412203814705 24.1374
35.85281157283719 24.1063
35.876395313415884 24.1409
35.8997977874528 23.989
35.92320180988546 24.022
35.946790244133936 23.9499
35.97019737933222 23.9434
35.993606066789866 23.9443
36.01701630779276 23.9083
36.04061101440684 23.7636
36.06402437852291 23.8249
36.08743930005611 23.7899
36.1108557802951 23.6662
36.13445678011326 23.7633
36.15787639383515 23.7504
36.18129757014299 23.6391
36.20472031032821 23.6199
36.22832762423364 23.6097
36.25175350829375 23.5325
36.275180960119776 23.4345
36.298609981005924 23.5707
36.32222362992669 23.4989
36.34565580510207 23.4109
36.36908955323448 23.3375
36.39252487562093 23.2546
36.416144880530226 23.2071
36.43958336764275 23.1815
36.463023432914625 23.171
36.486465077645676 23.1607
36.51009145956204 23.2423
36.53353627947859 23.2434
36.55698268276811 23.1493
36.58043067073321 23.0806
36.60406345072071 22.9537
36.62751462435344 22.9712
36.65096738658405 22.9994
36.67460498210655 22.9521
36.69806093788647 22.8778
36.72151848619297 22.8245
36.744977628333636 22.8217
36.76862165890998 22.761
36.79208400512205 22.7914
36.81554794910557 22.7807
36.83901349217101 22.6759
36.862663978991606 22.6142
36.88613273667352 22.5536
36.90960309738324 22.5767
36.933075062434064 22.5853
36.95673202673572 22.5409
36.98020721697122 22.4877
37.003684015502365 22.3477
37.027162423645365 22.3625
37.050825886711465 22.3371
37.07430753063053 22.2596
37.09779078812467 22.2669
37.121275660513014 22.1718
37.144945643673694 22.1569
37.16843376245278 22.1337
37.19192350009803 22.1117
37.215414857931435 22.1155
37.239091382563885 22.0652
37.262585997426164 21.9951
37.28608223645736 21.994
37.309763684451696 21.9524
37.33326318851098 21.9321
37.356764320726555 21.8549
37.380267082425526 21.8598
37.40395510942588 21.8909
37.42746114683234 21.7067
37.45096881771841 21.6878
37.474478123414166 21.6917
37.49817275092816 21.6984
37.52168534303452 21.6537
37.54519957395567 21.5897
37.568715445024665 21.552
37.592416694607714 21.5355
37.61593586281424 21.5706
37.63945667518264 21.6203
37.66297913304891 21.5081
37.68668702630454 21.5491
37.710212792059274 21.4197
37.733740207334854 21.3745
37.757269273470364 21.3418
37.780983832050374 21.3035
37.80451621684926 21.2663
37.82805025654007 21.2392
37.851585952464795 21.1484
37.8753071980695 21.1307
37.89884622345676 21.0878
37.92238690911902 21.051
37.94611318753442 21.0214
37.969657210779765 20.9927
37.99320289834801 21.0469
38.016750251586465 20.9581
38.04048325513017 20.9169
38.06403395679343 20.866999999999997
38.087586328183946 20.7914
38.11114037065203 20.8173
38.13488012115898 20.8092
38.1584375229181 20.7223
38.181996599821 20.7109
38.205557353221124 20.6836
38.229303872575656 20.6312
38.2528679961576 20.5673
38.27643380031219 20.5894
38.30000128639589 20.4561
38.32375459653193 20.5464
38.34732546371299 20.5106
38.37089801690786 20.4195
38.39447225747609 20.3783
38.418232380377425 20.3492
38.441810012983396 20.3633
38.46538933705673 20.2597
38.488970353960084 20.2883
38.51273731166058 20.3002
38.536321731567014 20.2166
38.55990784840681 20.1524
38.58367995004091 20.1162
38.60726947812959 20.0607
38.63086070726198 20.0908
38.654453638806274 20.1187
38.678232613930824 20.0803
38.70182896773327 20.0273
38.72542702806741 19.9596
38.7490267963045 19.9767
38.77281266709232 19.9567
38.79641586862214 19.9153
38.8200207821842 19.8626
38.843627409152944 19.8343
38.86742019782782 19.8131
38.891030269149255 19.7518
38.914642058016156 19.6961
38.938255565806124 19.6793
38.96205529464307 19.6659
38.98567225787121 19.6361
39.00929094417078 19.6
39.03291135492255 19.5728
39.05671804624804 19.5559
39.080341923549106 19.476
39.103967529460334 19.5062
39.127594865365744 19.4239
39.15140854155791 19.3818
39.17503935514948 19.4084
39.19867190290282 19.3604
39.22249083587951 19.35
39.24612686969409 19.3196
39.269764641845306 19.281
39.293404153722804 19.2111
39.317230110864074 19.1285
39.34087311998506 19.0918
39.36451787301696 19.1393
39.388164371352595 19.0707
39.41199737518003 19.0648
39.43564738196752 19.0165
39.45929913825317 18.9678
39.48295264543308 18.9406
39.506792718520884 18.9548
39.530449745387216 18.8992
39.55410852735203 18.8984
39.57776906581474 18.9156
39.60161623079 18.8287
39.625280300200025 18.8469
39.64894613032202 18.7454
39.67261372255866 18.7956
39.6964680021016 18.7518
39.72013913657293 18.7118
39.74381203738292 18.6704
39.76748670593756 18.6372
39.79134812278169 18.5934
39.81502634488497 18.5585
39.83870633896685 18.5162
39.862388106436654 18.4576
39.88625668336918 18.5062
39.90994201572829 18.4693
39.933629125719285 18.416
39.957503091207826 18.3465
39.9811937746168 18.4081
40.00488623990914 18.3585
40.02858048850006 18.2872
40.05246165409549 18.2636
40.076159487492085 18.1615
40.099859108448875 18.2099
40.123560518384345 18.1795
40.1474489070226 18.1699
40.171153913178564 18.1387
40.194860712584955 18.0686
40.2185693066637 18.0672
40.242464941335314 18.073
40.26617714307655 17.9953
40.289891143772046 18.0043
40.3136069448471 17.9912
40.33750984859743 17.9737
40.3612292688043 17.9624
40.3849504936829 17.9232
40.40867352466194 17.8687
40.43258372059144 17.7782
40.45631038219906 17.7343
40.48003885420956 17.7013
40.503769138055105 17.7395
40.52768664931955 17.7146
40.55142057531802 17.7084
40.57515631746428 17.6875
40.599079334038514 17.6357
40.62281872700477 17.5575
40.64655994043941 17.5231
40.67030297578061 17.4793
40.69423334835778 17.5401
40.71798004609188 17.4651
40.74172857006355 17.4578
40.76547892171441 17.4441
40.7894166736039 17.3983
40.813170699248566 17.3869
40.83692655691388 17.3328
40.86068424804498 17.3839
40.884629402612525 17.2982
40.908390779366385 17.2866
40.932153993938 17.2631
40.95591904777605 17.2183
40.979871628443995 17.2215
41.003640379561936 17.1415
41.02741097430883 17.1608
41.05118341413683 17.1684
41.075143444384416 17.0631
41.098919593177826 17.0548
41.1226975914255 17.057000000000002
41.14647744058318 16.9747
41.170444943946755 16.9231
41.19422851378379 16.9607
41.218013938914645 16.9008
41.24198706625173 16.8438
41.26577622087193 16.8448
41.289567235177785 16.8005
41.31336011063129 16.7385
41.337340752422875 16.745
41.361137369129835 16.7306
41.38493585138705 16.7
41.40873620066004 16.6723
41.43272438060107 16.6464
41.45652848292052 16.5878
41.48033445666918 16.5521
41.50414230331616 16.5359
41.528138045159764 16.5466
41.551949656675205 16.5078
41.575763145513235 16.4826
41.59957851314666 16.4793
41.62358184070442 16.4034
41.64740098505737 16.3966
41.6712220126409 16.3664
41.69504492493139 16.292
41.71905586207357 16.3297
41.74288256296395 16.2599
41.766711153007456 16.3015
41.79054163368412 16.1978
41.814560204340054 16.2372
41.838394485526365 16.2256
41.86223066180303 16.2201
41.88625497706819 16.1668
41.910094962812 16.0945
41.93393684811168 16.0804
41.95778063445365 16.0165
41.981812625263366 15.9584
42.00566023303407 15.9678
42.029509746323676 16.0349
42.05336116662236 16.0116
42.077400857069705 15.9887
42.10125611078846 15.8896
42.12511327600405 15.8552
42.14897235421036 15.8398
42.173019768448455 15.7884
42.19688269209613 15.7961
42.22074753323349 15.7572
42.24461429335818 15.7486
42.268669455600495 15.7124
42.292540073217886 15.6866
42.31641261433284 15.6634
42.34028708044675 15.6056
42.36435001496739 15.604000000000001
42.38822835065557 15.5795
42.41210861586426 15.5245
42.4359908120986 15.562999999999999
42.46006154323262 15.5244
42.48394762115317 15.4421
42.507835634632315 15.4515
42.531912233047436 15.4673
42.55580413732265 15.4214
42.579697981698 15.3721
42.60359376768525 15.3279
42.62767820545945 15.3557
42.65157789440821 15.2859
42.67547952952185 15.2532
42.699383112316 15.2522
42.72347541395347 15.193
42.74738291190531 15.1229
42.771292362102166 15.1941
42.795203766063516 15.1714
42.819303956130405 15.0806
42.843219287476536 15.0688
42.86713657716324 15.0427
42.89105582671383 15.0845
42.91516392983864 14.9962
42.939087119032166 14.9505
42.963012272677304 14.9846
42.98693939230129 14.9785
43.01105543317513 14.9089
43.034986504731386 14.888
43.05891954686589 14.8487
43.08285456110972 14.8689
43.10697856448665 14.8275
43.130917542983475 14.767000000000001
43.15485849820081 14.706
43.17880143167367 14.6969
43.20293342237094 14.7217
43.226880332449 14.6848
43.25082922540554 14.6362
43.27496722682525 14.5976
43.29892010567796 14.6054
43.32287497204102 14.5485
43.34683182745632 14.5056
43.370977859791836 14.5125
43.39493871351105 14.5025
43.41890156092628 14.5104
43.44286640358341 14.5044
43.46702049182749 14.3775
43.49098934522816 14.3442
43.51496019852649 14.3668
43.5389330532723 14.2986
43.56309522248204 14.2939
43.58707210044314 14.3496
43.61105098451946 14.2463
43.63503187626491 14.2292
43.659202151562134 14.2238
43.68318707902681 14.2251
43.70717401884041 14.1978
43.731162972560874 14.1463
43.75534137913236 14.115
43.779334381108384 14.0241
43.803329401683186 14.0283
43.82732644241872 14.0614
43.8515130055166 14.0035
43.87551410707659 14.0076
43.89951723350145 13.9675
43.923709934595614 13.9501
43.94771713129917 13.9704
43.97172635758096 13.9338
43.99573761501002 13.9047
44.0199385169922 13.8406
44.04395385732619 13.7999
44.067971233533086 13.862
44.09199064718605 13.7961
44.11619977548961 13.7262
44.14022328470671 13.7274
44.16424883610785 13.7194
44.18827643127035 13.6841
44.21249381139513 13.6639
44.236525514814076 13.6241
44.26055926674478 13.6412
44.28459506876863 13.62
44.3088207262813 13.5778
44.33286064928722 13.5687
44.35690262714919 13.4933
44.38094666145278 13.4586
44.4051806219871 13.4804
44.42922879003185 13.4464
44.45327901929361 13.4198
44.477331311362136 13.4092
44.501573600619416 13.4224
44.525630039221795 13.3862
44.54968854541895 13.3421
44.573937102200176 13.3245
44.5979997645541 13.2946
44.622064499300315 13.2508
44.64613130803592 13.2102
44.67038823869318 13.2233
44.69445921643748 13.2014
44.718532272981385 13.1177
44.742607409926194 13.1557
44.76687274034801 13.1617
44.79095205918753 13.0758
44.81503346325094 13.0687
44.839116954143876 13.0636
44.86339071028742 13.0363
44.88747839599524 12.9687
44.91156817336837 12.9474
44.93566004401666 12.9857
44.959942251908146 12.968
44.984038330325966 12.914000000000001
45.00813650686762 12.8421
45.03223678314731 12.864
45.05652746888232 12.8234
45.08063196592069 12.8409
45.104738567558705 12.7826
45.128847275414856 12.7956
45.15314646515866 12.7699
45.17725940679741 12.7369
45.20137445952892 12.7348
45.22568004865265 12.706
45.24979934496396 12.6856
45.27392075725247 12.6893
45.29804428714431 12.6586
45.322358426247604 12.6066
45.346486212804315 12.6036
45.370616121861914 12.595
45.39474815505086 12.5225
45.41907087049246 12.5506
45.4432071734666 12.4613
45.46734560548283 12.515
45.49148616817604 12.4869
45.51581748638564 12.4137
45.5399623320197 12.4566
45.56410931325473 12.4163
45.58825843173002 12.3788
45.61259837920865 12.3783
45.636751793816 12.3204
45.66090735060093 12.2818
45.68506505120716 12.2709
45.7094136545275 12.2098
45.73357566449271 12.2247
45.75773982322992 12.1974
45.78190613238733 12.1727
45.806263418194064 12.135
45.83043404997326 12.1165
45.85460683713677 12.1188
45.87897065658495 12.0987
45.90314777634752 12.0399
45.92732705646868 12.0437
45.9515084986045 12.0504
45.97588104735473 12.0087
46.00006683541565 11.9959
46.02425479047904 11.9411
46.04844491420549 11.9105
46.0728262191024 11.9098
46.09702070211635 11.9193
46.12121735879483 11.8749
46.14541619080294 11.8334
46.169806278764455 11.823
46.194009483459034 11.8428
46.21821486849841 11.7826
46.24242243555223 11.7443
46.266821333570014 11.7245
46.29103328674601 11.6966
46.31524742696538 11.7081
46.33946375590237 11.6924
46.36387149104216 11.6289
46.38809221957392 11.6257
46.41231514186606 11.6142
46.436540259597464 11.6218
46.460956858999374 11.5579
46.48518638983522 11.52
46.509418121166966 11.4932
46.533652054678114 11.5118
46.55807754555709 11.5106
46.58231590571962 11.4945
46.60655647313217 11.4618
46.630988654873654 11.4244
46.655233659129024 11.3982
46.67948087571551 11.4263
46.70373030632484 11.3778
46.72817142736393 11.3837
46.752425308428684 11.3349
46.77668140861147 11.3323
46.80093972960865 11.2833
46.82538981736788 11.2773
46.849652602470904 11.2699
46.87391761349769 11.2534
46.8981848521493 11.186
46.9226439341274 11.1535
46.946915650573224 11.123
46.97118959976749 11.1318
46.99546578341598 11.0886
47.019933887188216 11.0889
47.04421456235744 11.0604
47.06849747711879 11.0632
47.09278263318286 11.0381
47.11725978640143 11.0393
47.14154944775105 11.0208
47.165841355555656 10.9783
47.1901355115306 10.9484
47.214621741924994 10.9117
47.23892041698887 10.9358
47.26322134538975 10.8572
47.28771440635075 10.8359
47.31201986422527 10.8599
47.33632758061436 10.824000000000002
47.360637557241866 10.8322
47.38513974410611 10.7878
47.40945426407847 10.7825
47.43377104948137 10.7773
47.45809010204344 10.7506
47.48260144275502 10.7404
47.506925052572285 10.6974
47.53125093475548 10.6745
47.55557909103813 10.6547
47.58009961361992 10.6463
47.60443234110732 10.5798
47.62876734791564 10.5766
47.65310463578333 10.5749
47.6776343683373 10.5483
47.7019762413987 10.4959
47.72632040075572 10.489
47.75066684815169 10.4785
47.77520581885936 10.482000000000001
47.799556865477655 10.4455
47.823910205386 10.4667
47.84826584033272 10.4508
47.87281407745551 10.3926
47.89717432569297 10.407
47.92153687423484 10.3735
47.94609208429692 10.357999999999999
47.97045925671401 10.3478
47.99482873471275 10.3063
48.01920052005013 10.2543
48.04376504619224 10.2632
48.068141469543484 10.2921
48.09252020552573 10.2674
48.11690125590099 10.2213
48.1414751266064 10.2019
48.16586082917454 10.1972
48.19024885144316 10.1574
48.2146391951793 10.1397
48.239222439012764 10.1372
48.26361744916137 10.1301
48.28801478610016 10.1295
48.31241445160131 10.0632
48.337007097209366 10.0456
48.36141144338331 10.0521
48.38581812345755 10.0346
48.41022713920929 10.019
48.434829215320704 9.980410000000001
48.45924292604658 9.96852
48.48365897780325 9.94153
48.50807737237308 9.94208
48.532688907799276 9.918510000000001
48.55711201168574 9.88848
48.581537463754074 9.87454
48.60615611725119 9.84468
48.63058628942721 9.860510000000001
48.65501881516546 9.869530000000001
48.6794536962573 9.7807
48.70408185970339 9.80516
48.72852147531801 9.77852
48.75296345168211 9.727210000000001
48.77740779059232 9.78456
48.80204549302823 9.74775
48.82649458091802 9.726230000000001
48.85094603676547 9.67615
48.87539986237231 9.61304
48.90004713292306 9.61694
48.92450572200832 9.59427
48.94896668628025 9.61455
48.97343002754588 9.59639
48.99808689542115 9.60038
49.02255501470614 9.57484
49.04702551642794 9.54434
49.0714984023988 9.4983
49.096164896893235 9.50015
49.120642575466796 9.44672
49.145122643748394 9.474680000000001
49.16960510355558 9.42839
49.19428125404938 9.44642
49.2187685210852 9.38836
49.243258185121555 9.37618
49.26794160167084 9.37214
49.2924360839405 9.36482
49.31693296869764 9.32605
49.34143225776915 9.29208
49.36612538195438 9.27904
49.39062950396021 9.295689999999999
49.41513603578346 9.288889999999999
49.4396449792564 9.22616
49.46434784069503 9.2233
49.488861631846454 9.23219
49.513377840166804 9.202630000000001
49.537896467493745 9.145560000000001
49.56260909589029 9.10103
49.587132585683285 9.135019999999999
49.611658500018365 9.13001
49.636186840738596 9.12951
49.66090926588511 9.06995
49.685442483902584 9.0462
49.70997813385706 9.01217
49.734516217597076 9.02188
49.75924846937352 9.02615
49.7837914452858 9.0175
49.80833686055187 8.97795
49.83288471702571 8.92816
49.85762682540054 8.94576
49.882179588965734 8.93939
49.9067347993235 8.91123
49.93129245833333 8.900269999999999
49.95604445336378 8.88775
49.98060703442832 8.838230000000001
50.005172069746266 8.84352
50.02993150438364 8.80242
50.05450147301533 8.78534
50.07907390151433 8.79442
50.10364879174981 8.735289999999999
50.12841816587289 8.73615
50.1529980044635 8.757810000000001
50.17758031042124 8.70687
50.20216508562089 8.70095
50.22694442953363 8.684660000000001
50.25153416817468 8.650780000000001
50.27612638170508 8.6794
50.300721072005196 8.65864
50.325510416102105 8.61525
50.350110084975064 8.584810000000001
50.37471223628208 8.63441
50.39931687190919 8.58436
50.424116246675766 8.55325
50.44872587605249 8.53771
50.47333799543065 8.53064
50.49795260670191 8.49891
50.52276204271512 8.44869
50.54738166295838 8.471589999999999
50.57200378079314 8.49099
50.596628398116835 8.4291
50.62144792604559 8.428889999999999
50.646077567609396 8.422080000000001
50.670709714377715 8.42695
50.69553683636198 8.3678
50.72017401885922 8.381269999999999
50.7448137122895 8.38106
50.76945591856022 8.328330000000001
50.79429318636823 8.30847
50.818940443716784 8.31284
50.84359021965163 8.25864
50.868242516085964 8.29572
50.893089960641895 8.2264
50.917747323549435 8.211689999999999
50.94240721271973 8.218869999999999
50.96706963007175 8.182160000000001
50.99192728239342 8.1769
51.01659478166073 8.170960000000001
51.04126481489051 8.160210000000001
51.06593738400761 8.14724
51.090805275207074 8.119539999999999
51.11548294172845 8.10897
51.14016314993547 8.114360000000001
51.164845901758845 8.07872
51.18972406304274 7.99879
51.21441192780656 8.024239999999999
51.23910234200271 8.055760000000001
51.2637953075678 8.00698
51.288683770237945 8.00804
51.31338186432707 7.99879
51.33808251561888 7.939939999999999
51.362978729967345 7.98775
51.387684521509755 7.9569600000000005
51.41239287610203 7.89694
51.437103795691165 7.88288
51.46201036644977 7.87385
51.486726441956634 7.844519999999999
51.51144508832545 7.85043
51.536166307509156 7.8192699999999995
51.56108326624387 7.81313
51.58580965706056 7.788469999999999
51.61053862657523 7.73889
51.635270176746864 7.7034199999999995
51.66019755512065 7.77402
51.68493429268881 7.704110000000001
51.70967361681515 7.690110000000001
51.73441552946465 7.697489999999999
51.759353359237934 7.69009
51.7841004750961 7.686660000000001
51.80885018539685 7.65132
51.833602492111254 7.6344199999999995
51.8585508051424 7.6157
51.883308330926425 7.5778
51.90806845906181 7.555
51.932831191525715 7.565510000000001
51.95779001977161 7.56808
51.98255798721516 7.50564
52.00732856494335 7.5060899999999995
52.03229530577543 7.50742
52.057071130455945 7.47457
52.081849571391054 7.45701
52.106630630568695 7.445939999999999
52.13160794279417 7.411969999999999
52.15639426492067 7.45533
52.18118321127822 7.4162
52.205974783860896 7.401260000000001
52.23096269971011 7.41029
52.255759551287994 7.39743
52.280559035098186 7.34145
52.30536115314103 7.32718
52.33035970494467 7.340660000000001
52.35516711807904 7.314010000000001
52.37997717147198 7.301139999999999
52.40478986713005 7.323339999999999
52.42979908731974 7.233060000000001
52.454617094216 7.238010000000001
52.47943774942214 7.221030000000001
52.50426105495102 7.233630000000001
52.529280976059844 7.199330000000001
52.554109609024096 7.20374
52.57894089837482 7.141960000000001
52.60377484613117 7.158060000000001
52.62880550079408 7.13812
52.65364479223379 7.136539999999999
52.67848674816189 7.09448
52.70352547971946 7.09824
52.72837279155837 7.07365
52.753222773982785 7.070010000000001
52.778075429022984 7.076739999999999
52.80312495150885 7.04851
52.827982978797436 7.04625
52.85284368481815 6.97502
52.87770707160767 6.979589999999999
52.90276741793998 6.96253
52.92763619336701 6.96502
52.952507655698504 6.95317
52.977381806977576 6.95178
53.00245301017842 6.93297
53.02733256653592 6.8823300000000005
53.052214817996074 6.89607
53.077099766608484 6.88853
53.102181859804446 6.873589999999999
53.127072229988265 6.87379
53.15196530349892 6.80737
53.17686108239249 6.80238
53.20195409881522 6.81042
53.22685531582556 6.7960199999999995
53.25175924441303 6.757999999999999
53.27666588664027 6.76054
53.30176985962693 6.721539999999999
53.3266819565689 6.70568
53.35159677336455 6.71507
53.376514312083096 6.7356
53.40162927507703 6.71127
53.42655228516116 6.70568
53.45147802340193 6.6520399999999995
53.47660125628886 6.6435
53.50153247842639 6.62177
53.52646643496923 6.6173
53.55140312799818 6.642180000000001
53.576537409691696 6.65372
53.60147960336152 6.559080000000001
53.626424539786164 6.51355
53.65137222105307 6.5452
53.67651758529126 6.50726
53.70147078399681 6.530930000000001
53.72642673383343 6.560639999999999
53.75138543689533 6.4818
53.776541917524526 6.51954
53.801506154876755 6.472090000000001
53.826473151763246 6.45143
53.851442910284916 6.40512
53.87661054126026 6.46119
53.9015858509782 6.39151
53.92656392866066 6.374230000000001
53.95154477641532 6.42199
53.976723591801296 6.38253
54.00171000771266 6.359719999999999
54.02669920004598 6.35075
54.051691170915745 6.3163599999999995
54.076881204886796 6.29753
54.101878760928514 6.29397
54.12687910187696 6.25553
54.152077577768296 6.263669999999999
54.1770835166946 6.24241
54.20209224691339 6.23687
54.22710377055121 6.231
54.25231352511594 6.23038
54.27733066384342 6.16076
54.30235060239643 6.1493400000000005
54.32737334290836 6.161490000000001
54.35259441062629 6.09393
54.377622783395324 6.1005
54.40265396455061 6.11453
54.42768795623251 6.10126
54.45292037169559 6.040690000000001
54.477960012857906 6.02969
54.50300247099511 5.99067
54.52804774825457 6.04178
54.55329154616743 5.98533
54.57834249018678 5.96405
54.6033962597977 5.89714
54.6284528571545 5.91386
54.653708072335164 5.90525
54.67877035378786 5.84515
54.70383546947698 5.84205
54.72890342156389 5.83716
54.7541700889442 5.777880000000001
54.77924374251975 5.8017900000000004
54.8043202390049 5.75205
54.82959552413022 5.77798
54.8546777351945 5.75394
54.87976279569621 5.70646
54.90485070780914 5.69501
54.930137506558005 5.66326
54.95523115074295 5.68759
54.98032765308844 5.627330000000001
55.005427015775496 5.608709999999999
55.03072536339621 5.64386
55.05583047570572 5.62208
55.080938454927676 5.5685
55.10604930325027 5.5902
55.131359235107396 5.5054099999999995
55.15647585066083 5.46655
55.181595341907496 5.455030000000001
55.20671771104285 5.44751
55.232039262617704 5.43653
55.25716741665048 5.37456
55.28229845518636 5.32939
55.30743238042802 5.2965599999999995
55.33276558731939 5.29205
55.357905315183636 5.28819
55.383047936390035 5.28984
55.40819345314859 5.224130000000001
55.433538351073295 5.21557
55.458689688238415 5.1894800000000005
55.483843927614096 5.14111
55.509197623043605 5.13427
55.53435769621134 5.14364
55.55952067826466 5.13345
55.5846865714265 5.045719999999999
55.61005202069737 5.03299
55.63522376553902 5.11923
55.66039842818645 5.03046
55.68557601087004 4.99691
55.7109532500271 4.951890000000001
55.73613670233794 5.01869
