TT I
1.2716486653135266 6.94675
1.2939594142134223 6.65153
1.3162702121660406 6.61135
1.3385810600174564 6.53137
1.3608919586137629 6.12297
1.383202908801069 6.55445
1.405513911425503 6.26171
1.4278249673332093 5.71844
1.4501343378461518 6.24403
1.4724455028545926 5.600230000000001
1.4947567236847858 5.375380000000001
1.517068001182951 5.837940000000001
1.5393793361953272 5.58424
1.5616907295681737 5.72804
1.5840021821477681 4.78613
1.60631369478041 3.84725
1.6286252683124185 4.56874
1.6509369035901333 3.764
1.6732468618895553 4.01088
1.695558623192809 4.4829
1.7178704487808514 4.69766
1.7401823395001077 4.356
1.7625012545597203 4.24377
1.7848028405262486 4.136080000000001
1.8071218901122095 4.373819999999999
1.8294236121921872 3.75725
1.8517427996910911 3.8144699999999996
1.8740620574440425 4.20578
1.8963639900671978 3.99361
1.9186833908139995 4.2055
1.9409854680117449 4.85469
1.9633050151394713 4.692
1.9856246367570705 4.10279
2.0079269371922672 4.18574
2.03024671027244 3.9824900000000003
2.0525491637446027 3.9312199999999997
2.074869091674931 3.7598
2.097171701569106 3.9282800000000004
2.1194917877373847 4.10875
2.141811954326636 4.3464
2.164114805233074 4.48003
2.186435135143035 4.70937
2.208738150935709 4.9901599999999995
2.231058647554722 6.5297
2.2533792288321184 6.29828
2.275682498336085 5.06193
2.298003251406138 5.127280000000001
2.3203066942619714 5.15549
2.3426276225136022 4.966559999999999
2.3649486396617507 5.25398
2.387252348930071 6.1258099999999995
2.4095735463442893 5.81612
2.4318774374315884 5.81305
2.4541988185014043 6.23475
2.476502894794693 6.79988
2.498824462909887 6.4120800000000004
2.521146125856138 7.2366600000000005
2.5434504863470337 7.16527
2.5657723414244717 7.26808
2.588076895590662 7.86307
2.610398946189713 7.7516
2.6327210958598384 8.31607
2.6550259469304716 7.832889999999999
2.6773482972090137 8.462589999999999
2.6996533504259 8.35115
2.7219759047039602 8.701080000000001
2.744298562293959 9.08315
2.7666039251246595 8.168610000000001
2.7889267918020164 8.401
2.8112323652516555 7.492999999999999
2.833555444408179 7.94247
2.8558786311183852 8.10561
2.8781845268938557 9.03422
2.9005079311721484 9.38391
2.9228140460410397 8.97936
2.9451376712799635 9.54624
2.967444008632326 9.73927
2.9897678582247247 9.89354
3.0120918213106695 10.7364
3.0343984987899373 10.4749
3.0567226913198637 11.1171
3.079029599759726 11.6202
3.101354025127254 12.0973
3.123678568232338 12.6301
3.145985829517914 12.6385
3.16831061055229 13.1647
3.1906181112775593 13.5628
3.212943133635653 14.3179
3.2352682779763207 14.5154
3.2575761442691227 14.7576
3.2799015350264273 14.912
3.302209649240067 15.4841
3.3245352898092655 16.0985
3.3468436553365257 16.2708
3.369169549113219 16.8514
3.3914955708171384 17.5013
3.413804319727358 17.898
3.4361305997334863 18.5247
3.4584396084414553 18.8232
3.4807661501462652 19.5208
3.503092824025881 19.7219
3.5254022288463154 19.7651
3.5477291695206588 20.4466
3.5700388426251948 20.8114
3.5923660534916446 21.7656
3.6146934007816114 22.6019
3.637003482731501 27.5039
3.6593311053109985 29.8324
3.681641464033634 26.5519
3.7039693653009733 23.9411
3.726297407241705 23.9121
3.7486081875460804 23.854
3.7709365132734978 24.2662
3.793247578841633 25.1626
3.8155761917550093 25.2034
3.8378875459837216 25.5609
3.8602164494827234 25.9362
3.882545499606844 26.6148
3.9048572932539183 27.4217
3.9271866390645718 28.0482
3.9494987298666713 28.0998
3.971828374764527 28.9688
3.9941581705403255 29.1288
4.016470713506008 30.0658
4.038800813471445 30.4358
4.061113662089144 30.9116
4.0834440696459176 31.6093
4.105774632334751 31.828000000000003
4.128087945865126 32.3507
4.150418821249301 33.2455
4.172732448931298 33.8092
4.195063640413578 34.3162
4.2173775856475215 34.8316
4.239709096631102 37.7165
4.262040768704612 52.4111
4.284355196706267 64.3
4.306687193387355 56.565
4.329001947444346 44.5236
4.35133427213731 40.5741
4.373666762177566 40.423
4.395982011761091 41.3851
4.418314834921175 42.0364
4.44063041906622 43.8024
4.4629635787515625 45.0589
4.4852969080429785 46.225
4.5076130004776225 46.2119
4.529946671403969 46.6525
4.552263106909177 47.2748
4.574597122877047 48.3643
4.596931312711224 49.7527
4.619248269273446 50.7515
4.6415828092605835 51.5965
4.663900117405352 52.7841
4.686235010953232 54.271
4.708552674085913 55.7368
4.730887924602802 56.7519
4.753223354952695 58.0735
4.775541557023902 59.6922
4.797877349456786 61.0464
4.820195915032126 63.0858
4.842532072957498 64.1084
4.864868414979744 66.0331
4.88718753227192 68.1079
4.909524244902505 70.0741
4.931843734218147 71.7555
4.954180820867835 74.2629
4.976518095879839 77.4891
4.998838149695359 79.9609
5.021175803844231 83.1445
5.043496238205739 86.1976
5.065834274903528 89.8307
5.088172504230693 94.1905
5.1104935158799565 98.0221
5.132832132875765 105.044
5.155153533596801 118.109
5.1774925416746225 137.702
5.199814334878411 230.37099999999998
5.2221537374521505 800.2660000000001
5.244493338631803 2490.13
5.266815727034316 7157.49
5.289155727832427 13597.3
5.311478517248165 9612.86
5.333818921080011 3341.2
5.356159527788849 686.331
5.3784829252032536 209.812
5.400823940070432 145.12
5.423147747031976 123.90299999999999
5.445489173474152 113.51799999999999
5.467830807066149 108.05799999999999
5.490155234831516 104.529
5.512497285125229 101.49
5.534822130975162 99.9862
5.557164601388673 97.4334
5.579489868738879 94.9887
5.601832762690846 93.4858
5.6241758697774475 92.2937
5.646501775867269 92.0156
5.668845311622074 90.0955
5.691171647754637 89.9796
5.713515615597765 89.1671
5.735859800852677 88.0735
5.758186788542988 87.4782
5.780531411018185 87.0805
5.802858837297399 86.3969
5.825203900414495 86.60799999999999
5.8475491852224 86.7686
5.869877275883075 87.1489
5.892223006467101 88.0874
5.914551544266608 88.9418
5.936897724049891 91.19
5.959244129804903 95.2471
5.981573344815301 106.51100000000001
6.0039202049061 163.476
6.026249875609095 393.584
6.04859719346037 888.633
6.070927323278297 2055.08
6.093275102315365 4579.09
6.115623113320588 5615.48
6.137953938319995 3624.92
6.160302415650845 1085.73
6.182633708324452 241.824
6.2049826554078376 109.68299999999999
6.227331838745022 87.7712
6.249663839443684 80.368
6.27201349767565 75.9986
6.294345974611799 74.0543
6.316696111167083 73.1537
6.339046488263839 72.1357
6.361379686074702 68.5889
6.383730546639482 66.688
6.406064229255215 64.7459
6.428415576718203 64.8193
6.450749747566656 63.6233
6.47310158535871 62.4458
6.495453669698332 61.6162
6.517788579421056 61.4656
6.540141159237969 60.4493
6.562476565766648 59.2179
6.5848296444934045 59.1773
6.607182974060425 58.5233
6.6295191323281015 58.1899
6.651872965955752 57.8615
6.6742096296068985 58.6354
6.6965639707294615 63.2518
6.71891856698715 64.1544
6.741255995248479 60.1777
6.763611104154477 57.1368
6.785949046381137 55.2106
6.808304671371482 54.4559
6.8306605557940046 54.5447
6.852999275508618 53.6077
6.875355681171544 53.5948
6.897694923437771 53.4993
6.92005185377892 53.1599
6.9423916220322655 53.1467
6.964749080490181 52.6902
6.987106804399774 52.6454
7.009447368180821 52.5766
7.031805625367033 52.4232
7.054146723727803 52.2756
7.076505517631004 52.5418
7.098864581288365 52.2879
7.121206488070854 51.9586
7.143566093607822 51.696999999999996
7.165908543567245 51.8369
7.188268694426048 51.5123
7.2106291193438095 51.4954
7.232972390625943 51.4232
7.255333366030969 52.0152
7.277677189091925 55.6951
7.300038718428332 61.9955
7.322400526130865 61.5131
7.344745183422596 56.0314
7.367107550224791 52.3243
7.389452767901992 51.5806
7.411815697249891 51.6254
7.434161478756298 51.1173
7.456524974096713 51.4265
7.478888753837185 51.6616
7.501235387657368 52.8915
7.523599738562711 58.448
7.545946944825532 68.3823
7.568311870344528 72.4849
7.5906770845765665 65.0559
7.613025156078678 56.4722
7.635390950099687 53.6127
7.657739602662809 52.9918
7.680105979923558 52.5905
7.702472650212829 52.8755
7.724822180948224 53.0631
7.747189439655568 53.3267
7.769539560075357 53.2239
7.791907410653562 53.6388
7.81425812420825 53.7624
7.836626570110925 53.9083
7.858995315087906 54.9354
7.881346924933401 55.2685
7.903716270417482 55.5779
7.926068482028405 55.5636
7.948438431475253 56.1835
7.9708086843180235 56.7778
7.993161805171116 57.3619
8.015532667162402 57.5889
8.037886398416653 58.6888
8.060257873014221 59.281000000000006
8.082629655331942 59.7017
8.104984308787587 60.2906
8.127356708900503 61.3216
8.149711981398308 62.3651
8.172085002766314 63.9154
8.194458336181368 63.9312
8.216814543847752 64.6954
8.23918850371002 65.6884
8.26154533906492 66.5208
8.283919928836452 68.2156
8.306277395339652 69.1693
8.328652618483376 70.4659
8.351028159736202 72.3234
8.373386579575245 74.0264
8.395762759396959 75.5305
8.418121819038275 78.1297
8.440498640894003 81.533
8.462875785192262 86.6602
8.485235811156207 94.6015
8.507613602688501 128.31
8.529974277114228 228.862
8.552352719347912 375.115
8.574731488360351 616.3530000000001
8.59709314210385 1099.85
8.619472567021075 1838.0
8.64183487789147 2285.73
8.664214962183097 1970.65
8.686577933647762 1114.09
8.708958680784317 416.733
8.731339760774953 171.58700000000002
8.753703729764451 108.969
8.77608547780821 95.1288
8.798450116065078 91.4559
8.820832535634787 88.5326
8.843215292401656 87.1848
8.865580941199045 85.8526
8.887964374703538 84.5459
8.910330701447199 83.9616
8.932714815164482 83.3363
8.955099270424924 82.4577
8.977466620733543 81.7031
8.999851761421976 81.1352
9.022219798361645 80.1268
9.04460562795561 80.4075
9.066991803441677 79.8945
9.089360876979615 79.7311
9.111747746589993 79.2515
9.13411751544971 79.0075
9.156505082664324 79.0746
9.178875550323522 79.7927
9.20126381862328 81.7242
9.223652438908596 90.8571
9.246023961427412 105.86200000000001
9.26841328802173 112.757
9.290785518039224 102.399
9.313175554425882 88.8557
9.335565947154315 81.7905
9.357939245086508 80.0468
9.380330352834827 79.8212
9.40270436697103 80.1983
9.425096193225055 80.2687
9.447488380180165 80.6323
9.469863475295412 81.0589
9.492256385987508 81.2164
9.514632206018318 81.8659
9.537025843935714 82.0356
9.559402392368193 82.2012
9.581796761000229 83.3837
9.604191496441521 83.9751
9.626569144158516 84.7031
9.648964615551032 85.4495
9.671343000390081 86.7342
9.693739211225699 87.3565
9.716135793237463 88.103
9.738515290448102 88.8613
9.760912617143402 89.7239
9.783292860202891 90.6791
9.805690935076182 92.0233
9.828089385495742 92.5086
9.850470754023561 94.2611
9.872869957865444 96.5027
9.89525208097539 99.2301
9.917652041736662 103.10799999999999
9.940052382417589 106.34299999999999
9.962435644102392 115.166
9.984836746950979 147.41899999999998
10.007220771957746 227.458
10.029622640473708 348.99199999999996
10.052007432299963 518.465
10.074410069984072 775.362
10.096813093716005 1202.6
10.119199042482517 1783.99
10.141602840636468 2098.94
10.163989564971628 1712.22
10.186394141051062 1022.76
10.208799107559706 449.589
10.231187001965623 201.755
10.253592751657669 125.351
10.275981430388155 108.26299999999999
10.298387966769793 103.35799999999999
10.320794897965431 102.156
10.343184759907361 101.051
10.36559248305461 99.0678
10.387983138083852 97.7024
10.410391656691655 98.9458
10.432800574501677 107.6
10.455192425893369 129.377
10.47760214443012 161.887
10.499994797678786 203.445
10.522405320453982 273.097
10.54479877906917 385.847
10.567210109595656 510.89300000000003
10.5896218454736 589.315
10.612016518879773 561.901
10.634429067781074 399.68300000000005
10.656824555333241 230.68099999999998
10.679237920773568 140.993
10.701651695961992 103.568
10.724048411481384 92.7512
10.746463008485165 86.4651
10.768860546937125 82.4654
10.791275969274796 80.367
10.81369180576079 79.2216
10.836090585366925 78.0795
10.858507252467449 76.8242
10.88090686379991 75.9727
10.903324365036394 74.7923
10.925724811614439 73.6716
10.948143150509463 73.7296
10.970561909719066 72.5145
10.992963615930844 72.0246
11.015383218085756 71.0636
11.037785768347074 70.2051
11.06020621697282 69.5282
11.082627090322113 69.0691
11.105030913430326 68.3049
11.12745263854165 67.4738
11.149857314510728 67.0684
11.172279894912576 68.0505
11.194702904450653 67.5099
11.217108866490921 66.7035
11.239532736615194 65.7547
11.26193956033512 65.5188
11.284364294577085 65.1381
11.306789462371718 64.1737
11.329197585398376 63.9649
11.351623622610898 63.8298
11.37403261614354 63.2674
11.396459526308487 63.0999
11.418869393879497 62.6842
11.441297180532617 62.3752
11.463725406927658 61.6443
11.486136592353875 61.7174
11.508565700543707 61.321000000000005
11.530977768845315 61.5882
11.553407762368774 61.3697
11.575838200059769 61.256
11.598251599479612 61.0023
11.620682927815501 60.7322
11.64309721895548 60.7386
11.665529441478206 60.3704
11.687962112597958 59.9524
11.710377748130886 60.4143
11.732811318753434 60.2386
11.755227854859067 59.9144
11.777662328529495 59.8442
11.800079768750786 59.8282
11.822515149015453 59.7731
11.844950984084935 60.0128
11.867369787303163 59.9424
11.889806534289491 60.2433
11.912226250487029 62.22
11.934663912939751 65.1586
11.9571020346363 68.0502
11.979523127133968 68.3941
12.001962169624331 66.3669
12.024384183972964 64.016
12.046824150809913 64.3178
12.069264581333726 69.5469
12.091687985297767 76.7452
12.11412934550045 86.3876
12.136553680195208 98.9865
12.158995973632788 120.20299999999999
12.181438735204349 146.79
12.20386447284199 179.325
12.226308172985636 203.00900000000001
12.24873485024193 211.76
12.271179492516982 177.481
12.293607112949127 137.52100000000002
12.316052700916226 98.255
12.338498763250042 74.852
12.360927805303868 64.8603
12.383374818673879 62.2634
12.405804812803074 61.1031
12.428252780773262 61.2394
12.45070122756722 61.138000000000005
12.473132656675375 61.0725
12.49558206341869 61.4805
12.518014453510101 61.2728
12.540464823770117 61.5673
12.562915677315177 61.4982
12.58534951575545 62.1113
12.607801338171472 62.1668
12.630236146511358 62.8946
12.652688941369085 63.7561
12.675124723177234 63.9586
12.697578494048786 64.505
12.720032754458185 63.7515
12.742470003354093 64.0577
12.764925245138771 64.6262
12.787363476431278 64.8791
12.809819703166806 65.3459
12.83227642391173 66.0525
12.854716135692716 66.4715
12.877173846755147 67.7467
12.899614549869717 68.3296
12.9220732548287 68.8339
12.94453245827299 69.1589
12.966974655289818 70.4942
12.989434858002571 71.4212
13.011878055298721 71.8805
13.034339260862497 72.8017
13.056800969391883 74.3922
13.079245674017244 76.5719
13.101708390774869 78.3799
13.12415410463411 82.4985
13.146617833206086 92.8612
13.169064559883248 108.039
13.191529303857127 126.137
13.213994557076367 148.681
13.236442809902437 181.357
13.258909083908291 229.578
13.28135835851934 292.944
13.30382565690295 369.48900000000003
13.326293469022952 437.042
13.348744283242008 452.233
13.371213125129904 383.51800000000003
13.39366497011003 282.518
13.416134845360597 185.785
13.438605238843131 127.965
13.46105863690397 102.77
13.483530069144786 99.4953
13.505984506951902 107.31
13.528456981549432 120.463
13.550929978879088 136.043
13.573385983253365 157.26
13.595860028340867 190.24599999999998
13.618317081455832 236.822
13.64079217790333 297.58299999999997
13.663250283359057 356.51099999999997
13.685726434770173 391.43699999999995
13.708203115221277 363.336
13.730662806148091 288.621
13.75314054697177 206.924
13.775601299246777 137.909
13.798080104050406 100.624
13.820559442405358 84.6615
13.843021793671388 79.7726
13.865502201420897 77.6902
13.887965623051947 77.0941
13.910447103807167 75.858
13.932929122629764 74.6859
13.955394156785959 74.3076
13.977877254034569 73.5164
14.000343367582113 72.5324
14.022827546871707 72.2779
14.045294743423524 71.7005
14.06778000837062 70.7906
14.090265817715476 71.1
14.112734645763819 71.7598
14.13522154619454 73.4326
14.157691466286913 74.9355
14.180179461423874 75.1886
14.202668005486178 73.36
14.22513957064374 70.93
14.247629214846473 69.07
14.270101881097517 68.1062
14.29259262906496 67.6992
14.315083930490205 67.4055
14.337558255389705 67.5472
14.360050666019726 67.469
14.382526101071944 66.8568
14.405019624534942 66.5114
14.427513705993134 66.4624
14.449990813291825 66.4418
14.47248601302899 66.1759
14.49496423954951 66.3934
14.517460561197822 66.6439
14.539939910570322 66.1604
14.562437357763558 66.317
14.58493536931253 66.8235
14.607416409993311 66.8185
14.62991555254159 67.2339
14.652397725157423 67.3143
14.674898002342799 67.3475
14.697398848433282 67.5742
14.719882725991326 68.3668
14.74238471217934 68.7552
14.764869730765593 70.8282
14.787372860692983 74.4505
14.809876564079925 81.1957
14.83236330125751 88.8583
14.854868153850365 97.7029
14.877356041159485 110.34299999999999
14.899862046604186 125.84100000000001
14.922351087688757 149.041
14.944858249632887 179.40200000000002
14.967365991421232 209.222
14.989856770231246 229.34599999999998
15.012365673994204 229.521
15.03485761569738 201.638
15.05736768508665 160.12
15.07987833888692 121.93299999999999
15.102372032001655 94.1735
15.124883856909658 77.363
15.14737872204565 71.4121
15.169891721717274 68.7824
15.192405310371893 67.9438
15.214901940621196 67.4508
15.237416709527137 66.7459
15.259914520936249 66.5484
15.282430473753607 65.8427
15.304947020131227 65.4387
15.327446610371178 65.2865
15.349964346154254 64.7095
15.372465126703139 64.6055
15.394984055556009 64.3262
15.417486030076159 63.9338
15.44000615566487 63.5471
15.462526881230803 63.6506
15.485030653812652 63.8713
15.507552581617434 63.6081
15.530057557334603 63.3357
15.55258069104857 63.442
15.575104429329837 63.761
15.597611216864632 63.5161
15.620136166564563 63.6618
15.6426441664095 63.9556
15.665170331202765 65.318
15.687697105158826 68.6105
15.710206930593545 74.006
15.732734925158933 79.7049
15.755245972089478 86.7804
15.77777519094324 94.8608
15.800287463046663 105.929
15.822817909869592 122.853
15.84534897229804 143.96
15.867863089299354 169.385
15.890395385222186 191.41299999999998
15.912910736597423 203.394
15.935444269699861 194.775
15.957978423016485 169.592
15.980495633101265 134.364
16.003031029129367 104.848
16.02554948280019 81.6906
16.048086125229432 69.623
16.070623392487107 64.8492
16.09314371869582 63.1058
16.11568223789321 61.4404
16.13820381691126 60.0064
16.160743591742527 59.1474
16.183283996022084 58.4452
16.205807461423195 57.4666
16.228349126881973 57.1315
16.25087385432698 57.0959
16.27341678466365 56.1864
16.29594277784926 56.0624
16.31848697676433 55.6472
16.341031811604868 55.4777
16.36355971058487 55.407
16.3861058195587 55.0815
16.40863499352978 54.4046
16.431182380342005 54.2915
16.453730407713202 53.9392
16.476261501364792 53.6851
16.498810812136167 53.3417
16.52134319004079 53.7227
16.54389378792203 53.5144
16.566445031001553 53.4154
16.588979342490088 53.1943
16.61153187824822 53.065
16.634067483263312 52.8935
16.656621315414416 52.9577
16.679175797408888 52.662
16.701713349928728 52.9229
16.72426913389191 52.9898
16.74680798922351 52.8855
16.76936507887444 52.9353
16.791905240734874 52.6895
16.814463639794468 52.5966
16.837022695210294 52.6587
16.859564824093756 52.9054
16.882125194503903 53.1841
16.904668639217885 53.5872
16.927230328348003 53.7407
16.949792678493612 54.4136
16.972338104193863 54.4143
16.994901778652235 54.1383
17.017448529496576 53.8413
17.040013531998152 53.9848
17.06257920018044 54.2049
17.0851279459922 55.0289
17.107694947817667 56.0049
17.130245028099072 57.345
17.15281336730298 58.6209
17.17536478578733 60.3354
17.19793446610687 62.275
17.220504818648422 65.1088
17.243058251703697 67.9094
17.265629950971032 72.4729
17.288184731571736 77.2148
17.310757781306908 81.9616
17.33333150794385 83.3525
17.355888317140174 82.8179
17.37846339986244 78.7628
17.401021565958885 72.4747
17.42359800851343 66.2464
17.44617513265564 61.6979
17.468735341390783 59.1449
17.491261035594565 57.674
17.51396340099364 57.0996
17.536490463869136 57.2506
17.559018209820174 57.3489
17.58154663977963 57.3941
17.604251766089718 57.5701
17.626781572227713 57.8667
17.64931206518155 57.8307
17.671843245885103 58.3049
17.69455114821572 58.2447
17.717083712612634 58.84
17.739616967569667 59.3889
17.762150914021706 60.1491
17.78486160749854 60.3167
17.807396945166804 60.9088
17.829932977143503 61.4271
17.85246970436452 61.9917
17.875183204129467 63.8503
17.897721330097664 66.4552
17.920260154126645 69.8428
17.942799677153296 73.579
17.9655159983646 77.4709
17.988056927677544 82.1537
18.010598558807683 88.8317
18.033140892692916 98.1299
18.05586005052525 109.417
18.07840379824407 121.171
18.10094825154059 133.602
18.12366954819864 142.924
18.146215420998306 144.7
18.16876200220057 138.464
18.191309292745153 124.471
18.214033452627167 109.62899999999999
18.236582170236648 96.0912
18.259131600016456 88.4669
18.281681742907335 86.2176
18.304408781233683 89.0178
18.32696035875955 94.3048
18.349512652227624 99.4255
18.372065662579683 105.383
18.394795594587553 107.91799999999999
18.41735004715306 104.99799999999999
18.43990521943684 99.0691
18.46246111238171 89.4574
18.485193953325208 79.4815
18.507751296070428 71.0249
18.530309362314178 65.8137
18.552868153000343 63.0035
18.57560391815056 61.4688
18.59816416623245 60.7533
18.620725141597372 60.0926
18.643286845190268 59.718999999999994
18.666025549835414 58.952
18.688588718427933 58.373999999999995
18.711152618092243 58.3035
18.73389353884365 57.9859
18.75645890921984 57.3245
18.77902501351406 57.1697
18.801591852673102 57.2822
18.824335739722738 56.6362
18.846904057212626 56.8364
18.8694731124168 56.306999999999995
18.89204290628315 56.1388
18.914789774966803 56.1011
18.937361054791623 55.7702
18.959933076131318 55.3877
18.982505839934877 55.0373
19.00525570560582 55.341
19.027829963004184 55.1955
19.05040496572238 55.3256
19.072980714710468 55.1149
19.095733592739563 55.1055
19.11831084296757 55.2932
19.140888842324735 55.9903
19.16346759176222 56.3709
19.18622349753803 57.1355
19.208803755869358 58.1324
19.231384767143577 59.5001
19.253966532312948 60.9747
19.276725481241822 62.845
19.29930876296784 65.529
19.3218928014549 68.8684
19.34465404436217 72.4436
19.36723960516257 74.9215
19.389825925592426 76.2367
19.412413006605938 75.5231
19.43517731967805 72.4947
19.457765930683355 68.1893
19.48035530514408 63.4799
19.50294544401556 59.4689
19.525712842708348 56.1983
19.54830451925909 54.5114
19.570896963095727 53.07
19.593490175174704 52.4607
19.616260674962184 52.6232
19.638855432416964 52.1373
19.661450960992624 52.232
19.68404726164677 51.9794
19.706820878021247 51.9035
19.729418731756834 52.0787
19.752017360452857 51.8741
19.77461676506804 51.9873
19.797393513540218 51.9757
19.819994478951667 52.1309
19.84259622316767 52.8852
19.8651987471481 53.4694
19.887978643247177 53.8084
19.91058273574792 54.3237
19.933187610901943 55.224
19.955969879466828 56.3112
19.97857632894404 57.4839
20.00118356396599 58.8591
20.023791585494575 61.0295
20.046577028914875 63.8075
20.069186632506966 66.4903
20.091797025500632 69.0714
20.114408208858933 70.471
20.137196842715273 70.8854
20.159809615886765 69.4083
20.18242318232135 66.8211
20.20503754298326 64.184
20.227829382875154 62.7897
20.250445341109344 62.023
20.27306209647285 62.4412
20.29567964993108 63.573
20.31847471147704 64.8886
20.34109387027612 65.6349
20.363713830075454 65.705
20.386334591841646 64.3361
20.409132890679302 61.8476
20.431755265564437 58.3908
20.454378445325528 55.4218
20.477002430930366 53.0772
20.499803982716553 51.1863
20.522429589228004 50.0606
20.54505600449589 49.4759
20.567683229489194 49.2351
20.590488049900088 49.0522
20.61311690359731 48.927
20.63574656993626 48.8119
20.658553853717297 48.3646
20.681185154618298 48.4267
20.703817271080066 48.3248
20.72645020407368 47.8023
20.749260783967177 47.9819
20.771895359337133 48.0535
20.794530754161617 48.1994
20.817166969412938 48.1936
20.83998086114876 47.8401
20.86261872660049 47.7999
20.885257415405402 47.7778
20.90789692853701 47.4675
20.930714147864748 47.5029
20.953355319030678 47.4716
20.97599731745334 47.4829
20.99864014410749 47.4205
21.021460706796564 47.4743
21.044105199328826 47.7767
21.06675052302631 47.8393
21.089396678865015 47.9328
21.112220600704806 48.1265
21.134868430275347 48.6228
21.15751709492456 48.7426
21.180166595629693 49.0679
21.202993892429635 49.7203
21.22564507473034 50.2691
21.24829709602816 50.5292
21.27112693608965 50.765
21.293780644891275 50.7629
21.316435195634053 50.0358
21.339090589297417 49.2432
21.361923832041875 48.766000000000005
21.384580921090404 48.0401
21.407238856007325 47.5494
21.429897637773326 47.4947
21.45273429906592 47.4195
21.475394784108598 47.3707
21.498056118951983 47.2771
21.520718304578022 47.54
21.543558400304388 47.3687
21.566222297108816 47.6617
21.58888704765135 47.6794
21.61155265291521 48.0293
21.63439619898156 48.5692
21.657063523335786 49.0034
21.67973170537063 49.6375
21.7024007460706 50.2018
21.72524775840385 50.935
21.747918526116475 51.8706
21.770590155457388 53.0409
21.79326264741238 54.3011
21.816113141960237 56.1688
21.838787368860547 58.0564
21.861462461341976 60.4629
21.884315579735777 63.0032
21.90699241312273 64.6633
21.92967011506078 65.5175
21.95234868653799 65.3014
21.9752053151131 64.0866
21.997885635446785 62.1345
22.020566828293532 60.052
22.04324889464272 58.0376
22.066109049404666 56.4892
22.088792872571794 55.8852
22.111477572219204 55.8969
22.1341631493376 56.1455
22.157026846313123 56.0512
22.179714188221507 55.4885
22.202402410582668 54.4918
22.22509151438863 52.9277
22.24795876962584 51.4229
22.270649646204486 50.1526
22.293341407213727 49.0497
22.316034053646906 48.4946
22.338904883215342 47.9417
22.36159931041458 48.1201
22.38429462602756 47.8255
22.40699083104897 47.5641
22.429865251039757 47.5015
22.452563244831367 47.6515
22.47526213102522 47.5922
22.49813925616515 47.6787
22.520839937143307 47.4495
22.543541513520587 47.6494
22.56624398629403 47.4892
22.589124730075895 47.2946
22.611829005656723 47.6021
22.63453418063466 47.6611
22.657240256008077 47.6398
22.680124634582935 47.9107
22.70283252079775 48.4374
22.725541310413075 48.8631
22.74825100442868 49.1559
22.771139033969575 49.7374
22.79385054687155 49.9
22.81656296718292 50.578
22.83927629590484 51.4607
22.862167992606945 52.339
22.88488314827121 53.3611
22.907599215359284 54.4279
22.93031619487366 55.8616
22.953211574954405 56.7339
22.975930389478226 57.5942
22.998650119445763 58.1892
23.02137076586092 57.4578
23.044269845560063 56.4671
23.06699233506288 54.8202
23.089715744034912 52.9287
23.112617610931565 51.0355
23.135342869061212 49.6982
23.158069049684816 48.82
23.1807961538087 48.2475
23.20370174880544 47.9106
23.226430710184808 47.8468
23.249160598093425 47.6587
23.271891413539002 47.8581
23.294800752937697 48.0538
23.31753343374794 48.3744
23.340267045128353 48.6019
23.36300158808808 49.1432
23.38591468821339 49.5152
23.408651104658304 50.0454
23.431388455719986 50.4545
23.454126742409 51.1575
23.4770436196085 52.0477
23.499783787914662 53.5298
23.522524894889884 54.5657
23.54526694154616 55.9255
23.56818761219047 57.3226
23.59093154860734 58.1776
23.613676427751283 58.6675
23.636422250635754 58.0327
23.659346731118656 56.4572
23.68209445191868 54.6265
23.704843119509587 52.1233
23.72759273490623 50.0762
23.750521041644767 48.3568
23.77327256312355 47.0762
23.796025035462787 46.1158
23.818956224555475 45.4322
23.841710609113413 45.2948
23.86446594758979 45.07
23.887222241002014 44.6575
23.910157285144578 44.3415
23.932915498962537 44.2937
23.955674670778713 44.1548
23.978434801611975 43.9673
24.001373717286125 43.9741
24.024135776723917 43.8401
24.046898798245582 43.7499
24.06966278287146 43.6139
24.092605586582614 43.3066
24.115371508023642 43.1158
24.1381383956401 43.078
24.16090625045381 43.0407
24.183852958731244 43.1188
24.206622758582608 42.8179
24.229393528706886 42.5822
24.252165270127392 42.8702
24.27511589952438 42.8298
24.297889594216997 42.443000000000005
24.32066426328598 42.2633
24.34343990775613 42.4281
24.36639447485003 42.1964
24.38917208083877 42.2
24.41195066531332 42.1203
24.43490819850244 42.3097
24.457688750692377 42.0696
24.48047028445616 42.1771
24.503252800821233 42.1769
24.526214300784112 42.3062
24.548998793132213 42.178999999999995
24.57178427117417 42.0637
24.59457073593893 42.0626
24.617536219319863 42.172
24.64032466834748 42.1509
24.663114107195035 42.0363
24.685904536893013 41.873000000000005
24.708874020360852 41.6755
24.731666442613744 41.7577
24.754459858818787 41.6971
24.777254270007962 41.4015
24.80022777025625 41.2145
24.82302418230472 41.3191
24.845821592443674 41.4092
24.86862000170663 41.2777
24.891597535453727 41.1562
24.914397953892728 41.4469
24.93719937456671 41.411
24.96000179851076 41.6365
24.98298338249997 41.6874
25.00578782394922 41.9586
25.028593271784167 41.9269
25.05157790644186 42.3818
25.07438537804115 42.6739
25.097193859145293 42.9022
25.120003350792075 43.2464
25.142992065061257 43.7138
25.165803588823465 43.9693
25.18861612625217 44.1742
25.211429678386736 44.2822
25.234422489079968 44.4173
25.257238081693636 44.5153
25.280054692141732 44.6109
25.3028723214652 44.5639
25.325869245420463 44.7106
25.348688923599397 44.8084
25.371509623787006 44.8425
25.394331347025812 44.4844
25.41733240110666 44.086999999999996
25.440156181590016 43.2568
25.46298098826268 42.797
25.48580682216873 42.1103
25.50881202326435 41.5427
25.53163992281684 41.0729
25.55446885274561 40.573
25.577298814096377 40.1876
25.600308179121807 40.2533
25.623140214533745 40.2054
25.64597328451537 40.0772
25.66898578564376 39.6792
25.691820936010206 39.7771
25.714657124097695 39.6395
25.737494350954734 39.9009
25.760511045684957 39.6847
25.783350361364224 39.73
25.806190718969255 39.7672
25.82903211955018 39.9982
25.852053024868923 39.9671
25.874896522722523 39.955999999999996
25.897741066713106 39.882
25.920586657892454 40.0569
25.943611790812668 40.1244
25.966459487728237 40.2615
25.989308234998564 40.2527
26.01215803367705 40.6644
26.03518741123814 40.9679
26.05803932412957 41.0682
26.080892291600094 40.9785
26.10374631470478 41.1424
26.12677995397268 41.2687
26.14963609978026 41.261
26.172493304397875 40.986999999999995
26.19535156888223 40.8617
26.218389486949604 40.452
26.241249882640123 40.1258
26.26411134137826 39.7517
26.28715248187403 39.6034
26.31001607820869 39.5354
26.3328807407756 39.3203
26.35574647063438 39.4769
26.37879191991473 39.527
26.401659795896734 39.5887
26.424528742360263 39.7437
26.447398760366614 39.7889
26.470448535598294 40.0235
26.49332070826805 40.1605
26.516193955675355 40.5241
26.53906827888316 40.7369
26.562122397260108 41.0466
26.584998883685063 41.3412
26.607876449110325 41.5404
26.63075509460056 41.8836
26.65381357334404 42.0578
26.67669439061878 41.9592
26.699576291163382 41.9613
26.722459276044212 41.8964
26.745522132402975 41.7424
26.768407297649354 41.3924
26.791293550442003 40.9659
26.814180891848974 40.5531
26.837248143099337 40.3257
26.860137673466657 40.1663
26.88302829566349 39.7769
26.90592001075963 39.7218
26.92899167420566 39.5593
26.951885586870763 39.1286
26.974780595655517 38.9719
26.99785558178161 38.7684
27.020752794605112 38.5932
27.043651106772522 38.2848
27.06655051935668 38.2947
27.089629948036183 38.101
27.112531573292053 38.1166
27.135434302194138 38.217
27.158338135817015 37.849000000000004
27.181422024430987 38.028
27.204328079372566 37.9584
27.22723524226965 37.9581
27.250143514198573 38.0766
27.273231880156334 37.9255
27.296142382065014 37.9025
27.319053996245536 37.7923
27.341966723775965 37.8536
27.365059584515222 37.9281
27.38797455070062 37.9722
27.410890633481237 37.8189
27.433807833936918 37.872
27.456905206923906 37.9151
27.47982465472398 37.9694
27.502745223449743 38.1304
27.525666914182825 38.1936
27.548768816912457 38.2046
27.571692763693633 38.2175
27.59461783573812 38.0403
27.617723149491244 37.8724
27.640650484125285 37.8093
27.66357894728264 37.6033
27.686508540048052 37.5309
27.709618414237887 37.5609
27.732550278321757 37.5117
27.755483275279115 37.2517
27.778417406196485 37.527
27.801531858397514 37.5096
27.824468269376716 37.3142
27.847405817586786 37.4006
27.870344504116094 37.3942
27.893463551932008 37.6
27.916404527281053 37.7237
27.93934664422563 37.8648
27.962289903855886 38.1743
27.98541356491974 38.3961
28.00835912214229 38.4442
28.03130582533231 38.6327
28.054253675581805 38.814
28.077381967556104 38.7956
28.100332124185126 38.8127
28.123283431160893 38.7963
28.146235889577238 38.8355
28.169368830154156 38.5705
28.192323603752033 38.291
28.215279532083304 37.9731
28.238415973016764 37.6759
28.261374223145094 37.6093
28.284333631303806 37.4929
28.307294198589954 37.3035
28.330435319167677 36.8747
28.353398217078915 36.6138
28.376362277420153 36.4614
28.39932750129032 36.3081
28.422473319286713 36.0319
28.44544088262495 36.0436
28.468409612800283 35.8262
28.491379510913497 35.5703
28.51453004413313 35.4687
28.53750229057244 35.4959
28.56047570826344 35.3133
28.583450298308804 35.451
28.606605564586562 35.3243
28.629582511831156 35.2795
28.65256063474956 34.9942
28.675539934446338 35.029
28.698699951647605 35.0653
28.72168161743193 34.9938
28.74466446331978 35.0659
28.767648490417624 34.827
28.790813276438353 34.864000000000004
28.813799678527303 34.9233
28.836787265157085 34.9148
28.859955641890075 34.9457
28.882945610203045 34.8996
28.905936766392035 34.708
28.928929111566863 34.8743
28.952102288520145 34.8223
28.975097024308607 34.7459
28.998092952423807 34.5434
29.021090073977508 34.4445
29.04426806913204 34.4178
29.067267590245258 34.1851
29.090268308143695 34.1269
29.11327022394099 34.0162
29.13645305530891 33.9727
29.159457379627167 33.8917
29.18246290519685 33.8499
29.20546963313352 33.8536
29.22865731875826 33.8821
29.25166646419296 33.8641
29.27467681535305 33.6686
29.29768837335608 33.7704
29.320880931312562 33.764
29.34389491580634 33.7825
29.366910110507334 33.7916
29.38992651653503 33.7524
29.41312396492981 33.8429
29.436142806456754 33.7258
29.45916286268059 33.5431
29.48236399319994 33.489000000000004
29.50538649169417 33.559
29.528410208259935 33.3854
29.55143514402014 33.0753
29.574641196749695 32.9345
29.597668583816574 32.8536
29.6206971934585 32.6568
29.64372702680042 32.7122
29.666938019934474 32.6202
29.689970313635285 32.5337
29.713003834422636 32.4206
29.73603858342347 32.5034
29.759254535188578 32.33
29.78229175361658 32.4034
29.80533020365064 32.4769
29.82836988641968 32.446
29.85159081507472 32.2614
29.874632976355343 32.2273
29.89767637376955 32.2735
29.920721008448314 32.1479
29.9439469322847 32.1814
29.96699405457564 31.97
29.9900424175358 32.1404
30.013092022298157 31.9975
30.03632295963995 31.9183
30.059375061131373 32.0078
30.08242840783577 32.0364
30.105483000888153 32.1362
30.128718970092244 31.9438
30.151776069006917 31.9372
30.17483441768648 31.9542
30.198074175317235 31.9325
30.221135036724256 31.945999999999998
30.24419715131772 31.906999999999996
30.267260520236203 31.7839
30.290505341942243 31.8165
30.313571232750228 31.858
30.336638381310948 31.7797
30.35970678876503 31.8138
30.38295669299435 31.7207
30.40602763151657 31.7242
30.429099832366074 31.7409
30.452173296685572 31.686999999999998
30.47542830191959 31.7275
30.498504306502497 31.5271
30.521581577995562 31.6673
30.544660117543582 31.7458
30.56792024229725 31.8046
30.59100133132069 31.7064
30.614083691845494 31.693
30.637167325018545 31.8519
30.660432587840603 31.9152
30.683518779717886 31.83
30.70660624769615 31.8516
30.729694992924372 31.8669
30.75296541239743 31.9444
30.77605672557558 31.8881
30.799149319462742 31.7985
30.8224236211637 31.6816
30.845518789950724 31.5648
30.868615242910597 31.578000000000003
30.891712981195973 31.3119
30.91499247215866 31.2645
30.938092794619365 31.1661
30.96119440587579 31.1537
30.984297307082752 31.1329
31.00758200598383 30.9721
31.030687500658694 30.9384
31.053794288760695 30.8607
31.076902371446767 30.7329
31.100192296997445 30.7195
31.12330298246119 30.6366
31.14641496599209 30.5298
31.169528248749216 30.6501
31.19282341969534 30.5409
31.215939314557186 30.5219
31.239056512134788 30.6193
31.262175013589378 30.5446
31.28547544871168 30.5978
31.30859657161541 30.4761
31.331719001892175 30.4352
31.35484274070538 30.4175
31.378148458819545 30.5349
31.401274828443725 30.4352
31.424402510106933 30.6355
31.447712205419993 30.6316
31.470842524931633 30.495
31.493974159989783 30.5111
31.51710711176168 30.5592
31.54042212308802 30.6279
31.563557722100917 30.5448
31.586694641341655 30.3184
31.609832881979628 30.14
31.63315322823208 30.153000000000002
31.656294125521327 30.0232
31.679436347728515 29.8605
31.70257989602529 29.8852
31.725905596152327 29.8592
31.74905181052835 29.7634
31.772199354521323 29.915
31.79534822930507 29.8384
31.818679302290967 29.8446
31.84183085259981 29.7902
31.864983737233473 29.8264
31.88813795736804 29.8511
31.911474422233013 29.7674
31.934631327356435 29.799
31.9577895715215 29.7622
31.980949155906522 29.7767
32.004291031706956 29.765
32.027453310562606 29.7361
32.05061693318573 29.6151
32.07396288236386 29.533
32.09712920658542 29.448
32.12029687812702 29.3625
32.14346589817093 29.2504
32.166817291729984 29.2431
32.18998902288583 29.1232
32.21316210610336 28.9717
32.23633654256711 28.8854
32.259693399663725 28.8919
32.282870556771144 28.8309
32.30604907069099 28.8045
32.329228942610065 28.7593
32.35259128243769 28.65
32.375773884550505 28.6358
32.398957848235646 28.5608
32.422143174682176 28.4941
32.445511016471215 28.3446
32.468699082679954 28.3321
32.49188851523011 28.3086
32.51507931531304 28.2205
32.538452678331 28.2267
32.56164622776311 28.1348
32.58484114831493 28.0043
32.60803744118015 28.0761
32.631416344731896 28.1016
32.654615396551876 28.064
32.67781582427913 28.0743
32.701198898634416 28.0065
32.72440209253756 27.869
32.747606665947124 27.9062
32.77081262006088 27.8078
32.79420126883317 27.7589
32.81740999876112 27.7953
32.840620112999424 27.6372
32.86383161274818 27.7014
32.88722585534586 27.6763
32.91044014056596 27.756
32.933655814909734 27.5595
32.95687287957963 27.6844
32.98027273544904 27.5876
33.00349259526636 27.4809
33.026713849030116 27.5378
33.04993649794511 27.5441
33.073341986570746 27.4399
33.09656744032826 27.494
33.11979429286444 27.5202
33.14302254538647 27.5193
33.166433686291185 27.4572
33.18966475336992 27.4322
33.212897224069096 27.3681
33.23613109959831 27.4202
33.259547912343415 27.2769
33.2827846121627 27.2587
33.306022720453775 27.2418
33.32926223842861 27.0862
33.352684742614166 27.1154
33.37592709463173 27.0552
33.399170859982064 27.0363
33.422597648419426 26.9748
33.44584425514446 26.8705
33.46909227885668 26.8652
33.4923417207723 26.6555
33.51577423505344 26.7394
33.539026528130385 26.5686
33.56228024307245 26.5759
33.585535381098246 26.4256
33.60897364093058 26.4182
33.63223163992385 26.4721
33.6554910656699 26.3483
33.678751919389796 26.3018
33.702195944520106 26.1313
33.72545966903325 26.223000000000003
33.74872482519663 26.1809
33.771991414233746 26.0867
33.79544122444841 26.1756
33.81871069412428 26.0143
33.84198160035767 26.1074
33.86525394437455 26.018
33.88870955949969 25.9531
33.911984794020626 26.0282
33.93526147001624 26.0201
33.958539588715006 25.9225
33.98200102861669 25.7428
34.0052820477047 25.754
34.02856451319451 25.7428
34.05203033759056 25.6867
34.07531571090147 25.6091
34.09860253431845 25.5913
34.121890809074316 25.5225
34.145362493118924 25.4917
34.16865368561615 25.4324
34.191946333164054 25.4969
34.21524043699793 25.4741
34.23871800066799 25.3841
34.26201503218366 25.3416
34.28531352370466 25.2993
34.30861347646881 25.2344
34.33209693978188 25.2354
34.3553998301885 25.1399
34.378704185565205 25.1151
34.402010007152356 25.1377
34.42549939016683 25.0948
34.44880815937748 24.9963
34.472118398533134 24.9591
34.49543010887669 24.9162
34.51892543169198 24.8487
34.54224009966052 24.9005
34.56555624255917 24.8227
34.58887386163339 24.6616
34.61237514439016 24.6831
34.6356957311114 24.5816
34.65901779775809 24.5943
34.68252356662995 24.5869
34.705848608458616 24.5491
34.72917513396849 24.5054
34.75250314440949 24.5077
34.77601490857862 24.4207
34.799345904259795 24.3975
34.82267838863559 24.3265
34.846012362958525 24.3473
34.869530142679984 24.3081
34.89286711232212 24.3078
34.91620557568269 24.357
34.93954553401677 24.212
34.9630693495876 24.1327
34.986412313340814 24.1062
35.00975677584668 24.1244
35.033102738362956 24.1093
35.05663261012228 24.0643
35.0799815881786 24.1297
35.10333207003229 23.9778
35.12668405694369 23.9396
35.150220005273056 23.926
35.17357501786656 23.9686
35.19693153931268 23.8007
35.220289570874385 23.8741
35.24383161619786 23.8184
35.267192683604904 23.8096
35.290555264930376 23.7674
35.314101899412165 23.7648
35.33746752422433 23.7094
35.36083466676374 23.7289
35.38420332829803 23.7396
35.407756095629054 23.7293
35.43112781085063 23.7335
35.45450104888391 23.7186
35.477875810999194 23.6196
35.50143473172161 23.5606
35.52481255774625 23.6792
35.54819191167777 23.6463
35.57157279478914 23.558000000000003
35.595137889488406 23.4631
35.61852184675279 23.4494
35.641907337029984 23.4289
35.665294361595684 23.3312
35.68886565090076 23.2765
35.7122557598848 23.2566
35.73564740699838 23.1801
35.759040593519934 23.1531
35.78261809810353 23.1881
35.80601437933051 23.0692
35.829412203814705 23.0224
35.85281157283719 22.9095
35.876395313415884 23.0057
35.8997977874528 22.8983
35.92320180988546 22.9185
35.946790244133936 22.8084
35.97019737933222 22.895
35.993606066789866 22.773000000000003
36.01701630779276 22.7239
36.04061101440684 22.7465
36.06402437852291 22.7548
36.08743930005611 22.6953
36.1108557802951 22.552
36.13445678011326 22.6152
36.15787639383515 22.5853
36.18129757014299 22.5847
36.20472031032821 22.5691
36.22832762423364 22.4117
36.25175350829375 22.4387
36.275180960119776 22.493000000000002
36.298609981005924 22.4824
36.32222362992669 22.4377
36.34565580510207 22.4203
36.36908955323448 22.3113
36.39252487562093 22.1591
36.416144880530226 22.2388
36.43958336764275 22.1681
36.463023432914625 22.2221
36.486465077645676 22.1162
36.51009145956204 22.2167
36.53353627947859 22.1822
36.55698268276811 22.0756
36.58043067073321 22.0402
36.60406345072071 21.9957
36.62751462435344 22.0108
36.65096738658405 21.9137
36.67460498210655 21.9139
36.69806093788647 21.8703
36.72151848619297 21.7642
36.744977628333636 21.7817
36.76862165890998 21.6841
36.79208400512205 21.7144
36.81554794910557 21.7109
36.83901349217101 21.5854
36.862663978991606 21.5829
36.88613273667352 21.4587
36.90960309738324 21.5692
36.933075062434064 21.4675
36.95673202673572 21.4793
36.98020721697122 21.3981
37.003684015502365 21.4161
37.027162423645365 21.3838
37.050825886711465 21.2873
37.07430753063053 21.254
37.09779078812467 21.1951
37.121275660513014 21.1442
37.144945643673694 21.1743
37.16843376245278 21.2278
37.19192350009803 21.1656
37.215414857931435 21.1135
37.239091382563885 21.0264
37.262585997426164 21.004
37.28608223645736 20.912
37.309763684451696 20.9094
37.33326318851098 20.9465
37.356764320726555 20.8919
37.380267082425526 20.9153
37.40395510942588 20.8687
37.42746114683234 20.796999999999997
37.45096881771841 20.6724
37.474478123414166 20.7301
37.49817275092816 20.6625
37.52168534303452 20.6796
37.54519957395567 20.5909
37.568715445024665 20.5796
37.592416694607714 20.522
37.61593586281424 20.5767
37.63945667518264 20.5916
37.66297913304891 20.4868
37.68668702630454 20.4065
37.710212792059274 20.3626
37.733740207334854 20.4084
37.757269273470364 20.2834
37.780983832050374 20.2598
37.80451621684926 20.2664
37.82805025654007 20.1798
37.851585952464795 20.2316
37.8753071980695 20.1203
37.89884622345676 20.1225
37.92238690911902 20.0922
37.94611318753442 20.0213
37.969657210779765 20.0555
37.99320289834801 20.0152
38.016750251586465 19.9506
38.04048325513017 19.9525
38.06403395679343 19.9056
38.087586328183946 19.7876
38.11114037065203 19.8219
38.13488012115898 19.8722
38.1584375229181 19.7386
38.181996599821 19.6968
38.205557353221124 19.7384
38.229303872575656 19.6596
38.2528679961576 19.6253
38.27643380031219 19.6181
38.30000128639589 19.5473
38.32375459653193 19.5417
38.34732546371299 19.5451
38.37089801690786 19.4316
38.39447225747609 19.3746
38.418232380377425 19.3591
38.441810012983396 19.4209
38.46538933705673 19.4385
38.488970353960084 19.3451
38.51273731166058 19.3401
38.536321731567014 19.2694
38.55990784840681 19.2476
38.58367995004091 19.2029
38.60726947812959 19.0707
38.63086070726198 19.1331
38.654453638806274 19.2209
38.678232613930824 19.0036
38.70182896773327 19.0086
38.72542702806741 19.0578
38.7490267963045 19.0192
38.77281266709232 19.0534
38.79641586862214 18.9538
38.8200207821842 18.9156
38.843627409152944 18.8555
38.86742019782782 18.8854
38.891030269149255 18.8456
38.914642058016156 18.8344
38.938255565806124 18.7683
38.96205529464307 18.7328
38.98567225787121 18.6861
39.00929094417078 18.6636
39.03291135492255 18.6989
39.05671804624804 18.6386
39.080341923549106 18.5991
39.103967529460334 18.5517
39.127594865365744 18.4366
39.15140854155791 18.4277
39.17503935514948 18.4811
39.19867190290282 18.4727
39.22249083587951 18.3797
39.24612686969409 18.3801
39.269764641845306 18.3688
39.293404153722804 18.2958
39.317230110864074 18.2454
39.34087311998506 18.1891
39.36451787301696 18.2349
39.388164371352595 18.1559
39.41199737518003 18.1243
39.43564738196752 18.0954
39.45929913825317 18.0991
39.48295264543308 18.0989
39.506792718520884 18.0183
39.530449745387216 17.9508
39.55410852735203 17.9638
39.57776906581474 17.9672
39.60161623079 17.9635
39.625280300200025 17.922
39.64894613032202 17.8505
39.67261372255866 17.9115
39.6964680021016 17.8459
39.72013913657293 17.8147
39.74381203738292 17.81
39.76748670593756 17.7832
39.79134812278169 17.6962
39.81502634488497 17.7251
39.83870633896685 17.738
39.862388106436654 17.6381
39.88625668336918 17.6112
39.90994201572829 17.5707
39.933629125719285 17.5556
39.957503091207826 17.5529
39.9811937746168 17.5716
40.00488623990914 17.4533
40.02858048850006 17.4413
40.05246165409549 17.424
40.076159487492085 17.3967
40.099859108448875 17.4128
40.123560518384345 17.320999999999998
40.1474489070226 17.3299
40.171153913178564 17.2664
40.194860712584955 17.2351
40.2185693066637 17.2584
40.242464941335314 17.2257
40.26617714307655 17.2254
40.289891143772046 17.1824
40.3136069448471 17.1054
40.33750984859743 17.0897
40.3612292688043 16.9826
40.3849504936829 17.0596
40.40867352466194 17.1306
40.43258372059144 17.0177
40.45631038219906 16.9835
40.48003885420956 16.9138
40.503769138055105 16.9033
40.52768664931955 16.9433
40.55142057531802 16.933
40.57515631746428 16.91
40.599079334038514 16.7944
40.62281872700477 16.7778
40.64655994043941 16.7219
40.67030297578061 16.7011
40.69423334835778 16.6824
40.71798004609188 16.6787
40.74172857006355 16.6428
40.76547892171441 16.6237
40.7894166736039 16.5514
40.813170699248566 16.5335
40.83692655691388 16.5351
40.86068424804498 16.5964
40.884629402612525 16.4558
40.908390779366385 16.5039
40.932153993938 16.4353
40.95591904777605 16.3406
40.979871628443995 16.3643
41.003640379561936 16.3651
41.02741097430883 16.294
41.05118341413683 16.3695
41.075143444384416 16.3079
41.098919593177826 16.2147
41.1226975914255 16.2551
41.14647744058318 16.2422
41.170444943946755 16.1868
41.19422851378379 16.1249
41.218013938914645 16.0876
41.24198706625173 16.0503
41.26577622087193 16.0483
41.289567235177785 16.0125
41.31336011063129 15.9906
41.337340752422875 16.0001
41.361137369129835 15.9646
41.38493585138705 15.9687
41.40873620066004 15.8486
41.43272438060107 15.8445
41.45652848292052 15.8159
41.48033445666918 15.8571
41.50414230331616 15.8035
41.528138045159764 15.777000000000001
41.551949656675205 15.703
41.575763145513235 15.7161
41.59957851314666 15.7302
41.62358184070442 15.6253
41.64740098505737 15.6068
41.6712220126409 15.5486
41.69504492493139 15.5505
41.71905586207357 15.5504
41.74288256296395 15.5327
41.766711153007456 15.5509
41.79054163368412 15.4711
41.814560204340054 15.4554
41.838394485526365 15.4552
41.86223066180303 15.411
41.88625497706819 15.3784
41.910094962812 15.3699
41.93393684811168 15.3628
41.95778063445365 15.2709
41.981812625263366 15.2573
42.00566023303407 15.24
42.029509746323676 15.1993
42.05336116662236 15.1541
42.077400857069705 15.1376
42.10125611078846 15.1331
42.12511327600405 15.1267
42.14897235421036 15.095
42.173019768448455 15.0414
42.19688269209613 15.0295
42.22074753323349 15.0455
42.24461429335818 14.9583
42.268669455600495 14.9684
42.292540073217886 14.9976
42.31641261433284 14.9011
42.34028708044675 14.9037
42.36435001496739 14.8988
42.38822835065557 14.8752
42.41210861586426 14.800999999999998
42.4359908120986 14.7432
42.46006154323262 14.7569
42.48394762115317 14.7486
42.507835634632315 14.7497
42.531912233047436 14.6986
42.55580413732265 14.6729
42.579697981698 14.6292
42.60359376768525 14.6148
42.62767820545945 14.5699
42.65157789440821 14.5708
42.67547952952185 14.5488
42.699383112316 14.4636
42.72347541395347 14.4654
42.74738291190531 14.3763
42.771292362102166 14.4287
42.795203766063516 14.4211
42.819303956130405 14.3915
42.843219287476536 14.3387
42.86713657716324 14.3273
42.89105582671383 14.2857
42.91516392983864 14.2971
42.939087119032166 14.2306
42.963012272677304 14.220999999999998
42.98693939230129 14.2089
43.01105543317513 14.1686
43.034986504731386 14.162
43.05891954686589 14.1556
43.08285456110972 14.1693
43.10697856448665 14.1171
43.130917542983475 14.0464
43.15485849820081 14.0504
43.17880143167367 13.9577
43.20293342237094 13.9742
43.226880332449 13.9195
43.25082922540554 13.9352
43.27496722682525 13.9282
43.29892010567796 13.9334
43.32287497204102 13.9019
43.34683182745632 13.8337
43.370977859791836 13.8175
43.39493871351105 13.8134
43.41890156092628 13.8623
43.44286640358341 13.7702
43.46702049182749 13.7157
43.49098934522816 13.7097
43.51496019852649 13.6734
43.5389330532723 13.6598
43.56309522248204 13.6454
43.58707210044314 13.6022
43.61105098451946 13.5668
43.63503187626491 13.5314
43.659202151562134 13.5439
43.68318707902681 13.4864
43.70717401884041 13.4942
43.731162972560874 13.4984
43.75534137913236 13.4275
43.779334381108384 13.4015
43.803329401683186 13.3939
43.82732644241872 13.3892
43.8515130055166 13.3881
43.87551410707659 13.3567
43.89951723350145 13.309000000000001
43.923709934595614 13.2907
43.94771713129917 13.2925
43.97172635758096 13.2303
43.99573761501002 13.1926
44.0199385169922 13.1747
44.04395385732619 13.175
44.067971233533086 13.1281
44.09199064718605 13.110999999999999
44.11619977548961 13.052999999999999
44.14022328470671 13.0891
44.16424883610785 13.0586
44.18827643127035 13.0047
44.21249381139513 13.01
44.236525514814076 12.9783
44.26055926674478 12.9611
44.28459506876863 13.0137
44.3088207262813 12.9343
44.33286064928722 12.9115
44.35690262714919 12.9203
44.38094666145278 12.8664
44.4051806219871 12.8704
44.42922879003185 12.789000000000001
44.45327901929361 12.7831
44.477331311362136 12.7915
44.501573600619416 12.7382
44.525630039221795 12.6808
44.54968854541895 12.6807
44.573937102200176 12.6988
44.5979997645541 12.6615
44.622064499300315 12.6558
44.64613130803592 12.5742
44.67038823869318 12.5973
44.69445921643748 12.6168
44.718532272981385 12.5299
44.742607409926194 12.5472
44.76687274034801 12.5009
44.79095205918753 12.4433
44.81503346325094 12.4242
44.839116954143876 12.4072
44.86339071028742 12.3722
44.88747839599524 12.4103
44.91156817336837 12.3507
44.93566004401666 12.3629
44.959942251908146 12.3157
44.984038330325966 12.2826
45.00813650686762 12.2711
45.03223678314731 12.2483
45.05652746888232 12.1977
45.08063196592069 12.1874
45.104738567558705 12.208
45.128847275414856 12.1923
45.15314646515866 12.1458
45.17725940679741 12.1092
45.20137445952892 12.0993
45.22568004865265 12.0851
45.24979934496396 12.0907
45.27392075725247 12.0359
45.29804428714431 12.0227
45.322358426247604 11.9998
45.346486212804315 11.9417
45.370616121861914 11.999
45.39474815505086 11.9692
45.41907087049246 11.9014
45.4432071734666 11.8805
45.46734560548283 11.876
45.49148616817604 11.9066
45.51581748638564 11.8789
45.5399623320197 11.8378
45.56410931325473 11.7557
45.58825843173002 11.7779
45.61259837920865 11.7723
45.636751793816 11.7524
45.66090735060093 11.7087
45.68506505120716 11.6957
45.7094136545275 11.6695
45.73357566449271 11.6221
45.75773982322992 11.5965
45.78190613238733 11.5779
45.806263418194064 11.5555
45.83043404997326 11.5779
45.85460683713677 11.5725
45.87897065658495 11.4944
45.90314777634752 11.4962
45.92732705646868 11.478
45.9515084986045 11.444
45.97588104735473 11.4389
46.00006683541565 11.4249
46.02425479047904 11.3382
46.04844491420549 11.3951
46.0728262191024 11.3852
46.09702070211635 11.3766
46.12121735879483 11.3281
46.14541619080294 11.3085
46.169806278764455 11.2885
46.194009483459034 11.2746
46.21821486849841 11.2593
46.24242243555223 11.2038
46.266821333570014 11.2011
46.29103328674601 11.1834
46.31524742696538 11.1656
46.33946375590237 11.1035
46.36387149104216 11.107000000000001
46.38809221957392 11.1183
46.41231514186606 11.0561
46.436540259597464 11.1016
46.460956858999374 11.0276
46.48518638983522 11.0339
46.509418121166966 10.9901
46.533652054678114 10.9119
46.55807754555709 10.9712
46.58231590571962 10.942
46.60655647313217 10.8915
46.630988654873654 10.9005
46.655233659129024 10.8662
46.67948087571551 10.8473
46.70373030632484 10.8401
46.72817142736393 10.8407
46.752425308428684 10.7871
46.77668140861147 10.7788
46.80093972960865 10.7693
46.82538981736788 10.7643
46.849652602470904 10.754000000000001
46.87391761349769 10.6956
46.8981848521493 10.6833
46.9226439341274 10.6642
46.946915650573224 10.6341
46.97118959976749 10.5898
46.99546578341598 10.5674
47.019933887188216 10.6101
47.04421456235744 10.5576
47.06849747711879 10.5186
47.09278263318286 10.5099
47.11725978640143 10.5054
47.14154944775105 10.4997
47.165841355555656 10.457
47.1901355115306 10.423
47.214621741924994 10.4283
47.23892041698887 10.4116
47.26322134538975 10.3528
47.28771440635075 10.3678
47.31201986422527 10.3318
47.33632758061436 10.3301
47.360637557241866 10.3131
47.38513974410611 10.2751
47.40945426407847 10.251
47.43377104948137 10.2589
47.45809010204344 10.2369
47.48260144275502 10.2191
47.506925052572285 10.177999999999999
47.53125093475548 10.1373
47.55557909103813 10.1446
47.58009961361992 10.1023
47.60443234110732 10.1221
47.62876734791564 10.1082
47.65310463578333 10.0431
47.6776343683373 10.0527
47.7019762413987 10.051
47.72632040075572 10.0175
47.75066684815169 10.0138
47.77520581885936 9.99894
47.799556865477655 9.95031
47.823910205386 9.98602
47.84826584033272 9.94765
47.87281407745551 9.88021
47.89717432569297 9.91261
47.92153687423484 9.88964
47.94609208429692 9.8395
47.97045925671401 9.83483
47.99482873471275 9.821060000000001
48.01920052005013 9.81949
48.04376504619224 9.76121
48.068141469543484 9.80749
48.09252020552573 9.73643
48.11690125590099 9.71909
48.1414751266064 9.71532
48.16586082917454 9.696530000000001
48.19024885144316 9.66783
48.2146391951793 9.67329
48.239222439012764 9.675989999999999
48.26361744916137 9.62371
48.28801478610016 9.63255
48.31241445160131 9.57134
48.337007097209366 9.57049
48.36141144338331 9.5831
48.38581812345755 9.56205
48.41022713920929 9.57522
48.434829215320704 9.522219999999999
48.45924292604658 9.50415
48.48365897780325 9.504769999999999
48.50807737237308 9.46224
48.532688907799276 9.452869999999999
48.55711201168574 9.4182
48.581537463754074 9.43131
48.60615611725119 9.43821
48.63058628942721 9.384910000000001
48.65501881516546 9.3536
48.6794536962573 9.34085
48.70408185970339 9.28758
48.72852147531801 9.30085
48.75296345168211 9.2891
48.77740779059232 9.253960000000001
48.80204549302823 9.25034
48.82649458091802 9.24912
48.85094603676547 9.20538
48.87539986237231 9.17356
48.90004713292306 9.1994
48.92450572200832 9.168569999999999
48.94896668628025 9.158660000000001
48.97343002754588 9.10904
48.99808689542115 9.13031
49.02255501470614 9.118689999999999
49.04702551642794 9.0993
49.0714984023988 9.0683
49.096164896893235 9.04965
49.120642575466796 9.01919
49.145122643748394 8.9973
49.16960510355558 8.95739
49.19428125404938 8.99442
49.2187685210852 8.96457
49.243258185121555 8.93413
49.26794160167084 8.89862
49.2924360839405 8.90065
49.31693296869764 8.901660000000001
49.34143225776915 8.9002
49.36612538195438 8.8417
49.39062950396021 8.84478
49.41513603578346 8.81708
49.4396449792564 8.817919999999999
49.46434784069503 8.81553
49.488861631846454 8.760110000000001
49.513377840166804 8.72406
49.537896467493745 8.70708
49.56260909589029 8.67735
49.587132585683285 8.72077
49.611658500018365 8.68065
49.636186840738596 8.62036
49.66090926588511 8.64685
49.685442483902584 8.66662
49.70997813385706 8.622110000000001
49.734516217597076 8.61394
49.75924846937352 8.58695
49.7837914452858 8.58331
49.80833686055187 8.53477
49.83288471702571 8.50073
49.85762682540054 8.49505
49.882179588965734 8.49824
49.9067347993235 8.50934
49.93129245833333 8.483310000000001
49.95604445336378 8.49845
49.98060703442832 8.449689999999999
50.005172069746266 8.45016
50.02993150438364 8.41728
50.05450147301533 8.36554
50.07907390151433 8.3742
50.10364879174981 8.35854
50.12841816587289 8.33121
50.1529980044635 8.34458
50.17758031042124 8.338239999999999
50.20216508562089 8.28147
50.22694442953363 8.2867
50.25153416817468 8.299660000000001
50.27612638170508 8.236130000000001
50.300721072005196 8.17372
50.325510416102105 8.20152
50.350110084975064 8.20732
50.37471223628208 8.16429
50.39931687190919 8.15879
50.424116246675766 8.14143
50.44872587605249 8.12787
50.47333799543065 8.14165
50.49795260670191 8.07767
50.52276204271512 8.05263
50.54738166295838 8.06557
50.57200378079314 8.077160000000001
50.596628398116835 8.049389999999999
50.62144792604559 8.01647
50.646077567609396 8.028739999999999
50.670709714377715 8.02741
50.69553683636198 7.9479
50.72017401885922 7.9259699999999995
50.7448137122895 7.95661
50.76945591856022 7.94605
50.79429318636823 7.94565
50.818940443716784 7.89905
50.84359021965163 7.875719999999999
50.868242516085964 7.89395
50.893089960641895 7.85532
50.917747323549435 7.8224100000000005
50.94240721271973 7.825360000000001
50.96706963007175 7.778060000000001
50.99192728239342 7.80767
51.01659478166073 7.772810000000001
51.04126481489051 7.766960000000001
51.06593738400761 7.72992
51.090805275207074 7.74823
51.11548294172845 7.73532
51.14016314993547 7.72178
51.164845901758845 7.713010000000001
51.18972406304274 7.68328
51.21441192780656 7.64629
51.23910234200271 7.614319999999999
51.2637953075678 7.599010000000001
51.288683770237945 7.606319999999999
51.31338186432707 7.56965
51.33808251561888 7.57715
51.362978729967345 7.562310000000001
51.387684521509755 7.53198
51.41239287610203 7.53837
51.437103795691165 7.51819
51.46201036644977 7.50715
51.486726441956634 7.477869999999999
51.51144508832545 7.46099
51.536166307509156 7.45682
51.56108326624387 7.43849
51.58580965706056 7.43124
51.61053862657523 7.390569999999999
51.635270176746864 7.38345
51.66019755512065 7.382460000000001
51.68493429268881 7.3278300000000005
51.70967361681515 7.35495
51.73441552946465 7.36861
51.759353359237934 7.36437
51.7841004750961 7.31163
51.80885018539685 7.30088
51.833602492111254 7.26313
51.8585508051424 7.259119999999999
51.883308330926425 7.214910000000001
51.90806845906181 7.20723
51.932831191525715 7.23493
51.95779001977161 7.181010000000001
51.98255798721516 7.15655
52.00732856494335 7.18576
52.03229530577543 7.16649
52.057071130455945 7.1203899999999996
52.081849571391054 7.13837
52.106630630568695 7.10076
52.13160794279417 7.05318
52.15639426492067 7.0882
52.18118321127822 7.086539999999999
52.205974783860896 7.057410000000001
52.23096269971011 7.02815
52.255759551287994 7.0069
52.280559035098186 7.0327
52.30536115314103 6.95812
52.33035970494467 6.982060000000001
52.35516711807904 6.990819999999999
52.37997717147198 6.94067
52.40478986713005 6.944160000000001
52.42979908731974 6.88075
52.454617094216 6.915430000000001
52.47943774942214 6.899769999999999
52.50426105495102 6.88322
52.529280976059844 6.88431
52.554109609024096 6.844130000000001
52.57894089837482 6.793889999999999
52.60377484613117 6.841069999999999
52.62880550079408 6.8113399999999995
52.65364479223379 6.786239999999999
52.67848674816189 6.76542
52.70352547971946 6.75933
52.72837279155837 6.75608
52.753222773982785 6.72503
52.778075429022984 6.6922
52.80312495150885 6.69303
52.827982978797436 6.6727
52.85284368481815 6.673589999999999
52.87770707160767 6.6745
52.90276741793998 6.65382
52.92763619336701 6.63576
52.952507655698504 6.60425
52.977381806977576 6.596939999999999
53.00245301017842 6.586110000000001
53.02733256653592 6.584969999999999
53.052214817996074 6.55593
53.077099766608484 6.53552
53.102181859804446 6.52818
53.127072229988265 6.53104
53.15196530349892 6.5287
53.17686108239249 6.50208
53.20195409881522 6.49752
53.22685531582556 6.45336
53.25175924441303 6.40412
53.27666588664027 6.45421
53.30176985962693 6.4391
53.3266819565689 6.42629
53.35159677336455 6.4082
53.376514312083096 6.39887
53.40162927507703 6.39229
53.42655228516116 6.37895
53.45147802340193 6.35006
53.47660125628886 6.33151
53.50153247842639 6.31919
53.52646643496923 6.30875
53.55140312799818 6.29093
53.576537409691696 6.25265
53.60147960336152 6.24397
53.626424539786164 6.25528
53.65137222105307 6.22676
53.67651758529126 6.19642
53.70147078399681 6.2129199999999996
53.72642673383343 6.18319
53.75138543689533 6.2043099999999995
53.776541917524526 6.18962
53.801506154876755 6.12398
53.826473151763246 6.09859
53.851442910284916 6.15569
53.87661054126026 6.09622
53.9015858509782 6.114719999999999
53.92656392866066 6.07075
53.95154477641532 6.06278
53.976723591801296 6.0671
54.00171000771266 6.01164
54.02669920004598 6.04
54.051691170915745 6.01661
54.076881204886796 6.00341
54.101878760928514 5.9642
54.12687910187696 5.93325
54.152077577768296 5.97285
54.1770835166946 5.95389
54.20209224691339 5.93389
54.22710377055121 5.9175
54.25231352511594 5.86536
54.27733066384342 5.86217
54.30235060239643 5.89319
54.32737334290836 5.907430000000001
54.35259441062629 5.83741
54.377622783395324 5.817880000000001
54.40265396455061 5.829359999999999
54.42768795623251 5.81871
54.45292037169559 5.76023
54.477960012857906 5.76774
54.50300247099511 5.75485
54.52804774825457 5.75243
54.55329154616743 5.72449
54.57834249018678 5.70553
54.6033962597977 5.65693
54.6284528571545 5.64996
54.653708072335164 5.66671
54.67877035378786 5.63088
54.70383546947698 5.57475
54.72890342156389 5.59362
54.7541700889442 5.56696
54.77924374251975 5.55958
54.8043202390049 5.5314
54.82959552413022 5.482480000000001
54.8546777351945 5.507630000000001
54.87976279569621 5.45545
54.90485070780914 5.44466
54.930137506558005 5.40728
54.95523115074295 5.4257800000000005
54.98032765308844 5.34884
55.005427015775496 5.329359999999999
55.03072536339621 5.3402
55.05583047570572 5.33806
55.080938454927676 5.30879
55.10604930325027 5.265680000000001
55.131359235107396 5.27766
55.15647585066083 5.22607
55.181595341907496 5.25068
55.20671771104285 5.24198
55.232039262617704 5.14783
55.25716741665048 5.15726
55.28229845518636 5.186380000000001
55.30743238042802 5.10907
55.33276558731939 5.0867
55.357905315183636 5.0878
55.383047936390035 5.03125
55.40819345314859 5.0433699999999995
55.433538351073295 5.0535
55.458689688238415 5.04748
55.483843927614096 4.9614199999999995
55.509197623043605 4.95352
55.53435769621134 4.88445
55.55952067826466 4.89189
55.5846865714265 4.89695
55.61005202069737 4.81829
55.63522376553902 4.87948
55.66039842818645 4.80971
55.68557601087004 4.82466
55.7109532500271 4.72452
55.73613670233794 4.77295
