TT I
1.2716486653135266 9.29907
1.2939594142134223 8.29616
1.3162702121660406 8.16681
1.3385810600174564 8.05879
1.3608919586137629 7.9454199999999995
1.383202908801069 7.9299
1.405513911425503 7.21864
1.4278249673332093 7.2168399999999995
1.4501343378461518 6.95103
1.4724455028545926 7.025239999999999
1.4947567236847858 6.860869999999999
1.517068001182951 6.5694300000000005
1.5393793361953272 6.35141
1.5616907295681737 6.696289999999999
1.5840021821477681 6.091880000000001
1.60631369478041 6.599639999999999
1.6286252683124185 6.7713
1.6509369035901333 5.945790000000001
1.6732468618895553 6.249569999999999
1.695558623192809 5.72502
1.7178704487808514 5.99121
1.7401823395001077 5.96571
1.7625012545597203 5.79349
1.7848028405262486 5.6243
1.8071218901122095 5.62688
1.8294236121921872 5.49564
1.8517427996910911 5.77455
1.8740620574440425 5.70327
1.8963639900671978 5.81001
1.9186833908139995 5.4793
1.9409854680117449 6.51255
1.9633050151394713 5.83711
1.9856246367570705 5.30737
2.0079269371922672 5.57685
2.03024671027244 5.111759999999999
2.0525491637446027 5.03185
2.074869091674931 5.4370199999999995
2.097171701569106 5.24974
2.1194917877373847 5.22043
2.141811954326636 5.03126
2.164114805233074 5.08521
2.186435135143035 5.77784
2.208738150935709 5.179130000000001
2.231058647554722 4.41426
2.2533792288321184 3.8549300000000004
2.275682498336085 4.404719999999999
2.298003251406138 4.45354
2.3203066942619714 4.71719
2.3426276225136022 4.14982
2.3649486396617507 4.70372
2.387252348930071 4.49857
2.4095735463442893 4.17862
2.4318774374315884 4.62116
2.4541988185014043 4.230569999999999
2.476502894794693 4.54318
2.498824462909887 4.47725
2.521146125856138 4.65839
2.5434504863470337 4.79683
2.5657723414244717 4.37855
2.588076895590662 4.35555
2.610398946189713 4.67694
2.6327210958598384 5.0599300000000005
2.6550259469304716 4.5380400000000005
2.6773482972090137 4.679180000000001
2.6996533504259 5.150119999999999
2.7219759047039602 5.6252699999999995
2.744298562293959 5.80896
2.7666039251246595 5.37394
2.7889267918020164 6.141430000000001
2.8112323652516555 6.665489999999999
2.833555444408179 6.836689999999999
2.8558786311183852 6.790439999999999
2.8781845268938557 7.5488
2.9005079311721484 8.11272
2.9228140460410397 8.307839999999999
2.9451376712799635 8.70294
2.967444008632326 9.58281
2.9897678582247247 9.6561
3.0120918213106695 10.1001
3.0343984987899373 10.3574
3.0567226913198637 10.7668
3.079029599759726 11.3185
3.101354025127254 12.5189
3.123678568232338 12.6826
3.145985829517914 12.6521
3.16831061055229 13.95
3.1906181112775593 14.2092
3.212943133635653 14.5715
3.2352682779763207 14.84
3.2575761442691227 15.0922
3.2799015350264273 15.5807
3.302209649240067 16.0706
3.3245352898092655 16.5383
3.3468436553365257 17.4575
3.369169549113219 17.3982
3.3914955708171384 18.2775
3.413804319727358 18.8787
3.4361305997334863 18.2389
3.4584396084414553 19.1693
3.4807661501462652 19.965
3.503092824025881 20.2156
3.5254022288463154 20.7288
3.5477291695206588 20.7227
3.5700388426251948 21.1534
3.5923660534916446 21.2093
3.6146934007816114 22.0583
3.637003482731501 22.4501
3.6593311053109985 22.3109
3.681641464033634 22.7596
3.7039693653009733 23.3194
3.726297407241705 23.7858
3.7486081875460804 23.8905
3.7709365132734978 24.5892
3.793247578841633 25.0334
3.8155761917550093 25.3501
3.8378875459837216 25.5766
3.8602164494827234 25.8933
3.882545499606844 26.7346
3.9048572932539183 27.4076
3.9271866390645718 28.0252
3.9494987298666713 28.2968
3.971828374764527 28.6997
3.9941581705403255 28.9008
4.016470713506008 29.5567
4.038800813471445 30.2282
4.061113662089144 30.9689
4.0834440696459176 31.7597
4.105774632334751 31.9539
4.128087945865126 32.4917
4.150418821249301 33.0229
4.172732448931298 34.0743
4.195063640413578 34.2048
4.2173775856475215 35.1876
4.239709096631102 35.4605
4.262040768704612 35.876
4.284355196706267 36.569
4.306687193387355 37.0653
4.329001947444346 38.6431
4.35133427213731 39.5978
4.373666762177566 40.1333
4.395982011761091 40.4808
4.418314834921175 41.8268
4.44063041906622 42.8695
4.4629635787515625 43.2652
4.4852969080429785 44.2322
4.5076130004776225 45.7759
4.529946671403969 46.8418
4.552263106909177 47.0238
4.574597122877047 48.5955
4.596931312711224 49.931000000000004
4.619248269273446 51.0692
4.6415828092605835 52.0342
4.663900117405352 53.3678
4.686235010953232 54.7981
4.708552674085913 56.1062
4.730887924602802 58.145
4.753223354952695 59.3726
4.775541557023902 61.003
4.797877349456786 62.3014
4.820195915032126 64.6174
4.842532072957498 65.4288
4.864868414979744 67.6142
4.88718753227192 70.1393
4.909524244902505 73.2544
4.931843734218147 75.5583
4.954180820867835 79.0688
4.976518095879839 83.912
4.998838149695359 87.915
5.021175803844231 93.3725
5.043496238205739 98.32700000000001
5.065834274903528 105.387
5.088172504230693 113.865
5.1104935158799565 124.32799999999999
5.132832132875765 141.328
5.155153533596801 170.753
5.1774925416746225 242.695
5.199814334878411 665.17
5.2221537374521505 2193.18
5.244493338631803 3792.03
5.266815727034316 4608.82
5.289155727832427 6710.91
5.311478517248165 9149.97
5.333818921080011 7142.65
5.356159527788849 2669.19
5.3784829252032536 669.925
5.400823940070432 272.357
5.423147747031976 188.953
5.445489173474152 155.012
5.467830807066149 137.607
5.490155234831516 127.28
5.512497285125229 119.815
5.534822130975162 115.697
5.557164601388673 111.431
5.579489868738879 107.04899999999999
5.601832762690846 105.167
5.6241758697774475 102.771
5.646501775867269 101.79700000000001
5.668845311622074 100.241
5.691171647754637 99.2178
5.713515615597765 97.6445
5.735859800852677 97.5695
5.758186788542988 96.70200000000001
5.780531411018185 97.3159
5.802858837297399 97.2858
5.825203900414495 98.0887
5.8475491852224 99.6607
5.869877275883075 102.194
5.892223006467101 105.919
5.914551544266608 111.509
5.936897724049891 120.12799999999999
5.959244129804903 136.289
5.981573344815301 176.747
6.0039202049061 337.602
6.026249875609095 839.315
6.04859719346037 1435.47
6.070927323278297 1750.49
6.093275102315365 2184.34
6.115623113320588 3145.41
6.137953938319995 3823.43
6.160302415650845 2513.11
6.182633708324452 910.0310000000001
6.2049826554078376 287.806
6.227331838745022 145.877
6.249663839443684 110.946
6.27201349767565 95.9757
6.294345974611799 87.3276
6.316696111167083 80.9398
6.339046488263839 77.0442
6.361379686074702 73.7575
6.383730546639482 71.3838
6.406064229255215 68.8463
6.428415576718203 68.5023
6.450749747566656 66.7578
6.47310158535871 65.2295
6.495453669698332 64.1198
6.517788579421056 63.2174
6.540141159237969 61.7377
6.562476565766648 60.8065
6.5848296444934045 60.3039
6.607182974060425 59.538999999999994
6.6295191323281015 58.9762
6.651872965955752 58.5122
6.6742096296068985 57.7934
6.6965639707294615 57.6811
6.71891856698715 56.7875
6.741255995248479 56.2232
6.763611104154477 56.0179
6.785949046381137 55.6344
6.808304671371482 54.9132
6.8306605557940046 55.0436
6.852999275508618 54.1244
6.875355681171544 53.8683
6.897694923437771 53.515
6.92005185377892 53.6333
6.9423916220322655 53.3849
6.964749080490181 53.02
6.987106804399774 53.1247
7.009447368180821 52.8486
7.031805625367033 52.0114
7.054146723727803 52.0831
7.076505517631004 52.0479
7.098864581288365 52.0687
7.121206488070854 52.0992
7.143566093607822 51.7475
7.165908543567245 51.3978
7.188268694426048 51.593999999999994
7.2106291193438095 51.1946
7.232972390625943 51.12
7.255333366030969 51.1995
7.277677189091925 51.0205
7.300038718428332 51.2502
7.322400526130865 51.2555
7.344745183422596 51.4346
7.367107550224791 51.6403
7.389452767901992 51.9241
7.411815697249891 51.3187
7.434161478756298 50.9537
7.456524974096713 51.1672
7.478888753837185 51.5996
7.501235387657368 52.8106
7.523599738562711 58.172
7.545946944825532 69.7266
7.568311870344528 74.6933
7.5906770845765665 67.6586
7.613025156078678 58.1004
7.635390950099687 54.6155
7.657739602662809 53.1203
7.680105979923558 52.8356
7.702472650212829 53.1708
7.724822180948224 52.8312
7.747189439655568 53.4625
7.769539560075357 53.7579
7.791907410653562 54.1042
7.81425812420825 54.016000000000005
7.836626570110925 54.2591
7.858995315087906 55.0762
7.881346924933401 55.3625
7.903716270417482 55.8882
7.926068482028405 55.9081
7.948438431475253 56.7276
7.9708086843180235 57.3007
7.993161805171116 58.1972
8.015532667162402 58.3865
8.037886398416653 59.4761
8.060257873014221 60.0092
8.082629655331942 60.4319
8.104984308787587 61.0803
8.127356708900503 61.5993
8.149711981398308 62.7683
8.172085002766314 63.5865
8.194458336181368 64.4482
8.216814543847752 65.5953
8.23918850371002 66.8418
8.26154533906492 68.2514
8.283919928836452 70.002
8.306277395339652 71.3236
8.328652618483376 73.0093
8.351028159736202 75.0921
8.373386579575245 78.0141
8.395762759396959 80.2942
8.418121819038275 84.0758
8.440498640894003 89.5524
8.462875785192262 98.2582
8.485235811156207 116.22399999999999
8.507613602688501 188.612
8.529974277114228 403.325
8.552352719347912 648.73
8.574731488360351 771.7660000000001
8.59709314210385 759.294
8.619472567021075 846.4889999999999
8.64183487789147 1168.02
8.664214962183097 1666.29
8.686577933647762 1752.12
8.708958680784317 1168.47
8.731339760774953 553.061
8.753703729764451 219.44400000000002
8.77608547780821 128.363
8.798450116065078 109.119
8.820832535634787 100.405
8.843215292401656 95.4236
8.865580941199045 91.9163
8.887964374703538 89.12299999999999
8.910330701447199 87.8988
8.932714815164482 86.3831
8.955099270424924 84.6801
8.977466620733543 84.1271
8.999851761421976 83.4275
9.022219798361645 82.2007
9.04460562795561 82.369
9.066991803441677 81.7529
9.089360876979615 81.5932
9.111747746589993 81.2354
9.13411751544971 80.6187
9.156505082664324 80.4734
9.178875550323522 81.0813
9.20126381862328 83.11200000000001
9.223652438908596 91.8502
9.246023961427412 109.34700000000001
9.26841328802173 116.777
9.290785518039224 108.625
9.313175554425882 94.6082
9.335565947154315 85.103
9.357939245086508 82.6427
9.380330352834827 81.8966
9.40270436697103 81.1921
9.425096193225055 80.9586
9.447488380180165 82.0674
9.469863475295412 82.1343
9.492256385987508 82.4082
9.514632206018318 83.3505
9.537025843935714 83.4451
9.559402392368193 83.9657
9.581796761000229 85.0485
9.604191496441521 85.2262
9.626569144158516 85.5586
9.648964615551032 86.8858
9.671343000390081 87.7806
9.693739211225699 88.611
9.716135793237463 89.4981
9.738515290448102 90.4569
9.760912617143402 91.9268
9.783292860202891 93.439
9.805690935076182 94.7577
9.828089385495742 96.0166
9.850470754023561 97.9989
9.872869957865444 100.573
9.89525208097539 104.118
9.917652041736662 108.429
9.940052382417589 115.861
9.962435644102392 136.27700000000002
9.984836746950979 199.84400000000002
10.007220771957746 372.675
10.029622640473708 587.7769999999999
10.052007432299963 691.757
10.074410069984072 672.278
10.096813093716005 665.988
10.119199042482517 784.8330000000001
10.141602840636468 1087.76
10.163989564971628 1478.45
10.186394141051062 1611.02
10.208799107559706 1197.56
10.231187001965623 635.1569999999999
10.253592751657669 271.91
10.275981430388155 149.944
10.298387966769793 121.66799999999999
10.320794897965431 113.74700000000001
10.343184759907361 109.456
10.36559248305461 106.281
10.387983138083852 105.148
10.410391656691655 107.65899999999999
10.432800574501677 124.59899999999999
10.455192425893369 171.762
10.47760214443012 227.118
10.499994797678786 253.34900000000002
10.522405320453982 244.43
10.54479877906917 238.732
10.567210109595656 264.374
10.5896218454736 330.001
10.612016518879773 436.39
10.634429067781074 495.26599999999996
10.656824555333241 421.662
10.679237920773568 280.812
10.701651695961992 160.814
10.724048411481384 110.539
10.746463008485165 94.7282
10.768860546937125 87.8706
10.791275969274796 83.7792
10.81369180576079 81.5334
10.836090585366925 80.0336
10.858507252467449 78.3429
10.88090686379991 77.0683
10.903324365036394 76.2699
10.925724811614439 74.81
10.948143150509463 74.5665
10.970561909719066 73.42399999999999
10.992963615930844 72.7926
11.015383218085756 71.9535
11.037785768347074 71.0102
11.06020621697282 70.363
11.082627090322113 70.0854
11.105030913430326 69.2382
11.12745263854165 68.4856
11.149857314510728 67.29899999999999
11.172279894912576 67.4151
11.194702904450653 66.5712
11.217108866490921 65.8586
11.239532736615194 65.5352
11.26193956033512 65.3173
11.284364294577085 65.2137
11.306789462371718 64.5539
11.329197585398376 64.2975
11.351623622610898 64.1941
11.37403261614354 63.496
11.396459526308487 63.5346
11.418869393879497 63.199
11.441297180532617 62.9884
11.463725406927658 62.3588
11.486136592353875 62.1415
11.508565700543707 61.6748
11.530977768845315 61.5457
11.553407762368774 61.2112
11.575838200059769 61.1334
11.598251599479612 60.9752
11.620682927815501 60.9625
11.64309721895548 60.9873
11.665529441478206 60.6469
11.687962112597958 60.5392
11.710377748130886 60.8028
11.732811318753434 60.3064
11.755227854859067 60.3102
11.777662328529495 60.1255
11.800079768750786 60.3812
11.822515149015453 60.1098
11.844950984084935 60.6503
11.867369787303163 60.473
11.889806534289491 61.1372
11.912226250487029 62.4584
11.934663912939751 65.9132
11.9571020346363 69.3118
11.979523127133968 69.7028
12.001962169624331 69.0467
12.024384183972964 66.9282
12.046824150809913 68.8352
12.069264581333726 78.9809
12.091687985297767 92.7402
12.11412934550045 103.714
12.136553680195208 106.77799999999999
12.158995973632788 104.95700000000001
12.181438735204349 104.366
12.20386447284199 110.66
12.226308172985636 126.575
12.24873485024193 153.607
12.271179492516982 177.47299999999998
12.293607112949127 183.39700000000002
12.316052700916226 153.417
12.338498763250042 110.98100000000001
12.360927805303868 80.75399999999999
12.383374818673879 68.3309
12.405804812803074 64.0181
12.428252780773262 62.9583
12.45070122756722 62.5083
12.473132656675375 61.9375
12.49558206341869 62.1788
12.518014453510101 62.0458
12.540464823770117 62.273
12.562915677315177 62.4023
12.58534951575545 62.8605
12.607801338171472 62.5258
12.630236146511358 62.707
12.652688941369085 63.0426
12.675124723177234 63.6378
12.697578494048786 64.039
12.720032754458185 63.8773
12.742470003354093 64.5001
12.764925245138771 64.8494
12.787363476431278 65.4143
12.809819703166806 65.6593
12.83227642391173 66.402
12.854716135692716 66.8319
12.877173846755147 68.333
12.899614549869717 68.6025
12.9220732548287 69.3962
12.94453245827299 69.8807
12.966974655289818 70.9067
12.989434858002571 72.0626
13.011878055298721 72.8226
13.034339260862497 74.2363
13.056800969391883 75.6211
13.079245674017244 78.7771
13.101708390774869 81.3501
13.12415410463411 87.4454
13.146617833206086 105.523
13.169064559883248 138.63299999999998
13.191529303857127 172.408
13.213994557076367 193.368
13.236442809902437 193.074
13.258909083908291 184.52900000000002
13.28135835851934 184.912
13.30382565690295 198.90400000000002
13.326293469022952 233.93099999999998
13.348744283242008 291.888
13.371213125129904 360.371
13.39366497011003 389.256
13.416134845360597 343.056
13.438605238843131 248.32
13.46105863690397 166.642
13.483530069144786 129.909
13.505984506951902 136.606
13.528456981549432 162.13
13.550929978879088 179.81
13.573385983253365 183.27599999999998
13.595860028340867 174.623
13.618317081455832 168.642
13.64079217790333 174.16400000000002
13.663250283359057 193.477
13.685726434770173 229.614
13.708203115221277 287.784
13.730662806148091 332.126
13.75314054697177 329.894
13.775601299246777 269.89799999999997
13.798080104050406 183.877
13.820559442405358 119.094
13.843021793671388 91.8966
13.865502201420897 82.8235
13.887965623051947 80.1833
13.910447103807167 78.4043
13.932929122629764 76.8366
13.955394156785959 76.0674
13.977877254034569 75.3286
14.000343367582113 74.2572
14.022827546871707 73.6033
14.045294743423524 72.7106
14.06778000837062 72.0912
14.090265817715476 72.0727
14.112734645763819 72.5407
14.13522154619454 74.6663
14.157691466286913 76.3733
14.180179461423874 76.2704
14.202668005486178 74.7823
14.22513957064374 72.3945
14.247629214846473 70.2628
14.270101881097517 69.1254
14.29259262906496 68.4477
14.315083930490205 68.3262
14.337558255389705 67.798
14.360050666019726 67.6925
14.382526101071944 67.6089
14.405019624534942 67.3993
14.427513705993134 67.0299
14.449990813291825 66.9357
14.47248601302899 67.0289
14.49496423954951 67.2557
14.517460561197822 66.9774
14.539939910570322 66.87
14.562437357763558 67.0079
14.58493536931253 67.3202
14.607416409993311 67.3854
14.62991555254159 67.6062
14.652397725157423 68.0674
14.674898002342799 68.064
14.697398848433282 68.7254
14.719882725991326 69.8763
14.74238471217934 70.5191
14.764869730765593 73.5178
14.787372860692983 80.7549
14.809876564079925 95.2384
14.83236330125751 109.73200000000001
14.854868153850365 118.781
14.877356041159485 119.915
14.899862046604186 116.08200000000001
14.922351087688757 113.83200000000001
14.944858249632887 116.197
14.967365991421232 124.491
14.989856770231246 139.481
15.012365673994204 164.547
15.03485761569738 193.63099999999997
15.05736768508665 206.55200000000002
15.07987833888692 193.33599999999998
15.102372032001655 158.33100000000002
15.124883856909658 115.351
15.14737872204565 87.697
15.169891721717274 75.6199
15.192405310371893 71.3108
15.214901940621196 69.4298
15.237416709527137 68.209
15.259914520936249 67.7442
15.282430473753607 66.7015
15.304947020131227 66.2203
15.327446610371178 65.8017
15.349964346154254 65.6763
15.372465126703139 65.3586
15.394984055556009 65.0962
15.417486030076159 65.1709
15.44000615566487 64.8082
15.462526881230803 64.8544
15.485030653812652 64.514
15.507552581617434 64.2149
15.530057557334603 64.3026
15.55258069104857 64.283
15.575104429329837 64.70100000000001
15.597611216864632 64.6707
15.620136166564563 65.0169
15.6426441664095 65.7473
15.665170331202765 67.9322
15.687697105158826 74.0417
15.710206930593545 85.3824
15.732734925158933 97.3917
15.755245972089478 105.21799999999999
15.77777519094324 107.446
15.800287463046663 104.87
15.822817909869592 101.679
15.84534897229804 101.007
15.867863089299354 106.33200000000001
15.890395385222186 114.73899999999999
15.912910736597423 130.095
15.935444269699861 153.293
15.957978423016485 175.498
15.980495633101265 181.468
16.003031029129367 168.99200000000002
16.02554948280019 135.519
16.048086125229432 100.885
16.070623392487107 79.2737
16.09314371869582 68.6296
16.11568223789321 64.3016
16.13820381691126 61.9201
16.160743591742527 60.766000000000005
16.183283996022084 59.836999999999996
16.205807461423195 58.5757
16.228349126881973 58.0733
16.25087385432698 57.7121
16.27341678466365 57.155
16.29594277784926 56.8336
16.31848697676433 56.388000000000005
16.341031811604868 56.023
16.36355971058487 55.7094
16.3861058195587 55.6853
16.40863499352978 55.0147
16.431182380342005 54.7929
16.453730407713202 54.6331
16.476261501364792 54.2781
16.498810812136167 54.17100000000001
16.52134319004079 54.367
16.54389378792203 54.0577
16.566445031001553 53.9894
16.588979342490088 53.7894
16.61153187824822 53.6554
16.634067483263312 53.3331
16.656621315414416 53.2851
16.679175797408888 52.9323
16.701713349928728 53.1995
16.72426913389191 53.3896
16.74680798922351 53.25899999999999
16.76936507887444 53.1183
16.791905240734874 53.1946
16.814463639794468 53.0935
16.837022695210294 53.0474
16.859564824093756 53.2167
16.882125194503903 53.357
16.904668639217885 53.9928
16.927230328348003 54.0137
16.949792678493612 54.4417
16.972338104193863 54.428000000000004
16.994901778652235 54.3978
17.017448529496576 54.3717
17.040013531998152 54.3814
17.06257920018044 54.7129
17.0851279459922 55.9668
17.107694947817667 58.0905
17.130245028099072 60.4592
17.15281336730298 62.6465
17.17536478578733 63.8363
17.19793446610687 63.739
17.220504818648422 63.0462
17.243058251703697 62.4111
17.265629950971032 63.2293
17.288184731571736 64.6474
17.310757781306908 67.1268
17.33333150794385 69.8738
17.355888317140174 74.0038
17.37846339986244 78.6727
17.401021565958885 80.9009
17.42359800851343 78.9281
17.44617513265564 73.6429
17.468735341390783 67.3582
17.491261035594565 62.1419
17.51396340099364 59.1863
17.536490463869136 58.2357
17.559018209820174 57.9163
17.58154663977963 57.9083
17.604251766089718 58.0661
17.626781572227713 58.1028
17.64931206518155 58.3198
17.671843245885103 58.651
17.69455114821572 58.7054
17.717083712612634 59.037
17.739616967569667 59.778
17.762150914021706 60.4846
17.78486160749854 60.7572
17.807396945166804 61.5036
17.829932977143503 62.0054
17.85246970436452 62.9947
17.875183204129467 65.922
17.897721330097664 71.9238
17.920260154126645 78.9473
17.942799677153296 84.6499
17.9655159983646 87.5551
17.988056927677544 87.4977
18.010598558807683 85.6265
18.033140892692916 84.6866
18.05586005052525 84.9228
18.07840379824407 87.4462
18.10094825154059 92.4935
18.12366954819864 101.038
18.146215420998306 113.75299999999999
18.16876200220057 130.155
18.191309292745153 143.562
18.214033452627167 148.005
18.236582170236648 137.869
18.259131600016456 119.53
18.281681742907335 99.9684
18.304408781233683 87.1549
18.32696035875955 81.4052
18.349512652227624 80.2976
18.372065662579683 82.6498
18.394795594587553 86.3923
18.41735004715306 92.4669
18.43990521943684 98.6892
18.46246111238171 102.262
18.485193953325208 99.0022
18.507751296070428 90.9424
18.530309362314178 80.9435
18.552868153000343 71.9287
18.57560391815056 65.8978
18.59816416623245 62.985
18.620725141597372 61.7432
18.643286845190268 60.6619
18.666025549835414 60.1677
18.688588718427933 59.2975
18.711152618092243 59.1504
18.73389353884365 58.8096
18.75645890921984 58.2365
18.77902501351406 57.8986
18.801591852673102 58.0335
18.824335739722738 57.2933
18.846904057212626 57.2462
18.8694731124168 56.8879
18.89204290628315 57.0077
18.914789774966803 56.7161
18.937361054791623 56.4876
18.959933076131318 56.0863
18.982505839934877 56.0699
19.00525570560582 56.0726
19.027829963004184 55.7987
19.05040496572238 55.7011
19.072980714710468 55.9057
19.095733592739563 56.0327
19.11831084296757 56.4331
19.140888842324735 57.7999
19.16346759176222 59.138000000000005
19.18622349753803 60.4435
19.208803755869358 61.29600000000001
19.231384767143577 61.5915
19.253966532312948 61.1096
19.276725481241822 60.7941
19.29930876296784 60.6822
19.3218928014549 61.3372
19.34465404436217 62.0225
19.36723960516257 63.2555
19.389825925592426 65.0255
19.412413006605938 67.2319
19.43517731967805 70.2242
19.457765930683355 72.7143
19.48035530514408 72.9354
19.50294544401556 70.4292
19.525712842708348 66.1425
19.54830451925909 61.4007
19.570896963095727 56.7958
19.593490175174704 54.5565
19.616260674962184 53.6695
19.638855432416964 53.0666
19.661450960992624 52.9728
19.68404726164677 52.7658
19.706820878021247 52.5924
19.729418731756834 52.8686
19.752017360452857 52.4194
19.77461676506804 52.6061
19.797393513540218 52.5371
19.819994478951667 52.8369
19.84259622316767 54.0762
19.8651987471481 55.4273
19.887978643247177 56.3613
19.91058273574792 56.9616
19.933187610901943 57.6353
19.955969879466828 57.6365
19.97857632894404 57.3287
20.00118356396599 56.7134
20.023791585494575 56.7329
20.046577028914875 57.5812
20.069186632506966 58.7577
20.091797025500632 60.7901
20.114408208858933 63.5305
20.137196842715273 66.4289
20.159809615886765 69.6705
20.18242318232135 71.2002
20.20503754298326 70.9433
20.227829382875154 69.009
20.250445341109344 65.7055
20.27306209647285 62.0176
20.29567964993108 59.3945
20.31847471147704 58.2794
20.34109387027612 58.4705
20.363713830075454 59.7918
20.386334591841646 61.6197
20.409132890679302 63.7027
20.431755265564437 63.9174
20.454378445325528 63.1208
20.477002430930366 60.3829
20.499803982716553 57.0868
20.522429589228004 53.8226
20.54505600449589 51.5689
20.567683229489194 50.5662
20.590488049900088 49.8273
20.61311690359731 49.3456
20.63574656993626 49.3439
20.658553853717297 48.9701
20.681185154618298 49.0774
20.703817271080066 48.9075
20.72645020407368 48.5323
20.749260783967177 48.5311
20.771895359337133 48.6975
20.794530754161617 48.5553
20.817166969412938 48.4126
20.83998086114876 48.466
20.86261872660049 48.2295
20.885257415405402 48.0628
20.90789692853701 47.8591
20.930714147864748 47.7849
20.953355319030678 47.8323
20.97599731745334 48.1056
20.99864014410749 48.0166
21.021460706796564 48.1948
21.044105199328826 48.5619
21.06675052302631 48.6723
21.089396678865015 48.5925
21.112220600704806 48.473
21.134868430275347 48.4697
21.15751709492456 48.3354
21.180166595629693 48.2377
21.202993892429635 48.3317
21.22564507473034 48.3989
21.24829709602816 48.8233
21.27112693608965 49.1855
21.293780644891275 49.8837
21.316435195634053 50.2059
21.339090589297417 50.54600000000001
21.361923832041875 50.7287
21.384580921090404 50.2327
21.407238856007325 49.4558
21.429897637773326 48.5891
21.45273429906592 48.2391
21.475394784108598 47.9165
21.498056118951983 47.7711
21.520718304578022 48.0322
21.543558400304388 48.0496
21.566222297108816 48.1786
21.58888704765135 48.2232
21.61155265291521 48.5595
21.63439619898156 49.6546
21.657063523335786 50.7604
21.67973170537063 51.8087
21.7024007460706 52.7249
21.72524775840385 53.2591
21.747918526116475 53.2333
21.770590155457388 52.9155
21.79326264741238 52.833999999999996
21.816113141960237 52.8426
21.838787368860547 53.3596
21.861462461341976 54.2165
21.884315579735777 55.5729
21.90699241312273 56.8818
21.92967011506078 58.6604
21.95234868653799 60.7141
21.9752053151131 62.7281
21.997885635446785 64.6681
22.020566828293532 65.3064
22.04324889464272 64.0065
22.066109049404666 61.3826
22.088792872571794 58.3758
22.111477572219204 55.8803
22.1341631493376 54.3992
22.157026846313123 53.9208
22.179714188221507 54.5229
22.202402410582668 55.086999999999996
22.22509151438863 55.3211
22.24795876962584 55.0725
22.270649646204486 54.1353
22.293341407213727 52.6379
22.316034053646906 51.1578
22.338904883215342 49.8133
22.36159931041458 48.9709
22.38429462602756 48.5573
22.40699083104897 48.1217
22.429865251039757 48.2836
22.452563244831367 48.0656
22.47526213102522 48.0153
22.49813925616515 47.9316
22.520839937143307 47.9469
22.543541513520587 48.0439
22.56624398629403 48.0192
22.589124730075895 47.8883
22.611829005656723 48.1364
22.63453418063466 47.9488
22.657240256008077 48.1421
22.680124634582935 48.5488
22.70283252079775 49.516000000000005
22.725541310413075 50.3996
22.74825100442868 50.8394
22.771139033969575 51.5321
22.79385054687155 51.2193
22.81656296718292 50.9322
22.83927629590484 50.9156
22.862167992606945 50.8027
22.88488314827121 50.763999999999996
22.907599215359284 50.8716
22.93031619487366 51.2408
22.953211574954405 51.5274
22.975930389478226 52.5105
22.998650119445763 53.4804
23.02137076586092 54.5279
23.044269845560063 55.8092
23.06699233506288 57.1481
23.089715744034912 57.5962
23.112617610931565 56.6748
23.135342869061212 54.8694
23.158069049684816 52.8754
23.1807961538087 50.8352
23.20370174880544 49.4961
23.226430710184808 48.93600000000001
23.249160598093425 48.7243
23.271891413539002 48.6868
23.294800752937697 49.2391
23.31753343374794 49.9049
23.340267045128353 50.3804
23.36300158808808 51.003
23.38591468821339 51.315
23.408651104658304 51.3845
23.431388455719986 50.7601
23.454126742409 50.4845
23.4770436196085 50.2896
23.499783787914662 50.3622
23.522524894889884 50.3583
23.54526694154616 50.4648
23.56818761219047 51.1815
23.59093154860734 51.631
23.613676427751283 52.8636
23.636422250635754 54.0432
23.659346731118656 55.4762
23.68209445191868 56.7698
23.704843119509587 57.0005
23.72759273490623 56.2128
23.750521041644767 54.4257
23.77327256312355 52.1416
23.796025035462787 49.6299
23.818956224555475 47.7179
23.841710609113413 46.6589
23.86446594758979 45.9949
23.887222241002014 45.4648
23.910157285144578 44.9253
23.932915498962537 45.0589
23.955674670778713 44.7851
23.978434801611975 44.6111
24.001373717286125 44.4862
24.024135776723917 44.2112
24.046898798245582 44.0603
24.06966278287146 43.9952
24.092605586582614 43.7489
24.115371508023642 43.5784
24.1381383956401 43.4759
24.16090625045381 43.4717
24.183852958731244 43.2834
24.206622758582608 43.2875
24.229393528706886 43.1282
24.252165270127392 43.1644
24.27511589952438 43.1165
24.297889594216997 42.9203
24.32066426328598 42.6366
24.34343990775613 42.773
24.36639447485003 42.7509
24.38917208083877 42.7557
24.41195066531332 42.5346
24.43490819850244 42.5557
24.457688750692377 42.4231
24.48047028445616 42.1716
24.503252800821233 42.3144
24.526214300784112 42.4687
24.548998793132213 42.2905
24.57178427117417 42.1711
24.59457073593893 42.1618
24.617536219319863 42.3657
24.64032466834748 42.3729
24.663114107195035 42.4551
24.685904536893013 42.3782
24.708874020360852 42.32899999999999
24.731666442613744 42.368
24.754459858818787 42.2373
24.777254270007962 42.0494
24.80022777025625 41.7706
24.82302418230472 41.77
24.845821592443674 41.6815
24.86862000170663 41.8353
24.891597535453727 41.7638
24.914397953892728 42.192
24.93719937456671 42.2324
24.96000179851076 41.9959
24.98298338249997 41.9873
25.00578782394922 42.2819
25.028593271784167 42.2932
25.05157790644186 42.5977
25.07438537804115 42.6753
25.097193859145293 42.8874
25.120003350792075 42.882
25.142992065061257 43.1064
25.165803588823465 43.3352
25.18861612625217 43.361999999999995
25.211429678386736 43.3267
25.234422489079968 43.527
25.257238081693636 43.7294
25.280054692141732 44.1102
25.3028723214652 43.9245
25.325869245420463 43.9164
25.348688923599397 43.8298
25.371509623787006 43.7241
25.394331347025812 43.6316
25.41733240110666 43.8478
25.440156181590016 44.0789
25.46298098826268 44.3327
25.48580682216873 44.306000000000004
25.50881202326435 43.7917
25.53163992281684 43.1446
25.55446885274561 42.3372
25.577298814096377 41.3836
25.600308179121807 40.9479
25.623140214533745 40.716
25.64597328451537 40.4588
25.66898578564376 40.2133
25.691820936010206 40.1743
25.714657124097695 40.1675
25.737494350954734 40.1146
25.760511045684957 40.1192
25.783350361364224 40.2319
25.806190718969255 40.4377
25.82903211955018 40.3977
25.852053024868923 40.5692
25.874896522722523 40.5604
25.897741066713106 40.4418
25.920586657892454 40.3028
25.943611790812668 40.299
25.966459487728237 40.1945
25.989308234998564 40.0069
26.01215803367705 40.2209
26.03518741123814 40.3707
26.05803932412957 40.2693
26.080892291600094 40.2484
26.10374631470478 40.2035
26.12677995397268 40.5594
26.14963609978026 40.8574
26.172493304397875 41.0945
26.19535156888223 41.3838
26.218389486949604 41.3854
26.241249882640123 41.3896
26.26411134137826 41.0484
26.28715248187403 40.9061
26.31001607820869 40.5727
26.3328807407756 40.3555
26.35574647063438 40.382
26.37879191991473 40.1619
26.401659795896734 40.1969
26.424528742360263 40.2735
26.447398760366614 40.2765
26.470448535598294 40.2208
26.49332070826805 40.0485
26.516193955675355 40.1584
26.53906827888316 40.2222
26.562122397260108 40.2081
26.584998883685063 40.3998
26.607876449110325 40.5259
26.63075509460056 40.5881
26.65381357334404 40.6876
26.67669439061878 40.8101
26.699576291163382 41.0576
26.722459276044212 41.4993
26.745522132402975 41.8555
26.768407297649354 41.9684
26.791293550442003 41.8049
26.814180891848974 41.6708
26.837248143099337 41.2109
26.860137673466657 40.9651
26.88302829566349 40.354
26.90592001075963 40.1628
26.92899167420566 40.1845
26.951885586870763 39.8863
26.974780595655517 39.7145
26.99785558178161 39.6493
27.020752794605112 39.3774
27.043651106772522 39.0723
27.06655051935668 38.8444
27.089629948036183 38.5182
27.112531573292053 38.5104
27.135434302194138 38.5014
27.158338135817015 38.4709
27.181422024430987 38.3512
27.204328079372566 38.1523
27.22723524226965 38.2445
27.250143514198573 38.3529
27.273231880156334 38.3197
27.296142382065014 38.1507
27.319053996245536 38.1022
27.341966723775965 38.2236
27.365059584515222 38.2118
27.38797455070062 38.0276
27.410890633481237 37.8352
27.433807833936918 37.878
27.456905206923906 37.9466
27.47982465472398 37.8801
27.502745223449743 37.9342
27.525666914182825 37.9691
27.548768816912457 37.9171
27.571692763693633 37.9328
27.59461783573812 38.0398
27.617723149491244 37.9255
27.640650484125285 38.0322
27.66357894728264 38.1557
27.686508540048052 38.2249
27.709618414237887 38.2132
27.732550278321757 38.164
27.755483275279115 38.0984
27.778417406196485 38.0821
27.801531858397514 38.013000000000005
27.824468269376716 37.8332
27.847405817586786 37.6996
27.870344504116094 37.677
27.893463551932008 37.7073
27.916404527281053 37.8682
27.93934664422563 37.7591
27.962289903855886 37.8343
27.98541356491974 37.8182
28.00835912214229 37.8303
28.03130582533231 37.8743
28.054253675581805 37.9706
28.077381967556104 37.9957
28.100332124185126 38.0447
28.123283431160893 38.2414
28.146235889577238 38.4554
28.169368830154156 38.6179
28.192323603752033 38.6432
28.215279532083304 38.5065
28.238415973016764 38.2431
28.261374223145094 38.1256
28.284333631303806 37.891
28.307294198589954 37.7531
28.330435319167677 37.4256
28.353398217078915 37.2525
28.376362277420153 37.1654
28.39932750129032 36.9964
28.422473319286713 36.7421
28.44544088262495 36.628
28.468409612800283 36.3516
28.491379510913497 36.0051
28.51453004413313 35.8003
28.53750229057244 35.7423
28.56047570826344 35.6619
28.583450298308804 35.66
28.606605564586562 35.4298
28.629582511831156 35.423
28.65256063474956 35.4842
28.675539934446338 35.4077
28.698699951647605 35.27
28.72168161743193 35.0444
28.74466446331978 35.0753
28.767648490417624 34.9945
28.790813276438353 34.8827
28.813799678527303 34.8898
28.836787265157085 34.8882
28.859955641890075 34.9154
28.882945610203045 34.8039
28.905936766392035 34.7621
28.928929111566863 34.8552
28.952102288520145 34.7229
28.975097024308607 34.8675
28.998092952423807 34.8111
29.021090073977508 34.8369
29.04426806913204 34.7555
29.067267590245258 34.705
29.090268308143695 34.5836
29.11327022394099 34.5972
29.13645305530891 34.398
29.159457379627167 34.2069
29.18246290519685 34.1178
29.20546963313352 34.0716
29.22865731875826 33.9324
29.25166646419296 33.8745
29.27467681535305 33.6531
29.29768837335608 33.7202
29.320880931312562 33.7269
29.34389491580634 33.6439
29.366910110507334 33.6408
29.38992651653503 33.6623
29.41312396492981 33.7006
29.436142806456754 33.6339
29.45916286268059 33.5832
29.48236399319994 33.5713
29.50538649169417 33.5715
29.528410208259935 33.6674
29.55143514402014 33.5272
29.574641196749695 33.400999999999996
29.597668583816574 33.259
29.6206971934585 33.1891
29.64372702680042 33.0951
29.666938019934474 32.8202
29.689970313635285 32.7072
29.713003834422636 32.6135
29.73603858342347 32.5956
29.759254535188578 32.5313
29.78229175361658 32.376
29.80533020365064 32.4856
29.82836988641968 32.5157
29.85159081507472 32.4399
29.874632976355343 32.3619
29.89767637376955 32.4612
29.920721008448314 32.2312
29.9439469322847 32.333
29.96699405457564 32.2219
29.9900424175358 32.1635
30.013092022298157 32.0917
30.03632295963995 32.0211
30.059375061131373 32.0946
30.08242840783577 32.0551
30.105483000888153 31.9945
30.128718970092244 32.0073
30.151776069006917 31.9592
30.17483441768648 31.9478
30.198074175317235 31.9376
30.221135036724256 31.8919
30.24419715131772 31.8842
30.267260520236203 31.8172
30.290505341942243 31.9453
30.313571232750228 31.9952
30.336638381310948 32.1034
30.35970678876503 32.1166
30.38295669299435 31.9417
30.40602763151657 31.9309
30.429099832366074 32.0707
30.452173296685572 31.9651
30.47542830191959 31.8102
30.498504306502497 31.7368
30.521581577995562 31.7791
30.544660117543582 31.7544
30.56792024229725 31.726999999999997
30.59100133132069 31.619
30.614083691845494 31.6903
30.637167325018545 31.7488
30.660432587840603 31.6066
30.683518779717886 31.5057
30.70660624769615 31.596
30.729694992924372 31.6248
30.75296541239743 31.7115
30.77605672557558 31.7193
30.799149319462742 31.7337
30.8224236211637 31.7741
30.845518789950724 31.7846
30.868615242910597 31.8803
30.891712981195973 31.6855
30.91499247215866 31.6321
30.938092794619365 31.5665
30.96119440587579 31.4348
30.984297307082752 31.3209
31.00758200598383 31.1259
31.030687500658694 31.1007
31.053794288760695 31.0457
31.076902371446767 30.9626
31.100192296997445 30.9555
31.12330298246119 30.8933
31.14641496599209 30.7986
31.169528248749216 30.7051
31.19282341969534 30.7667
31.215939314557186 30.736
31.239056512134788 30.5889
31.262175013589378 30.6086
31.28547544871168 30.6234
31.30859657161541 30.5246
31.331719001892175 30.5231
31.35484274070538 30.5883
31.378148458819545 30.5024
31.401274828443725 30.4312
31.424402510106933 30.4363
31.447712205419993 30.5023
31.470842524931633 30.2857
31.493974159989783 30.3415
31.51710711176168 30.3171
31.54042212308802 30.4444
31.563557722100917 30.5543
31.586694641341655 30.4954
31.609832881979628 30.4564
31.63315322823208 30.5056
31.656294125521327 30.3637
31.679436347728515 30.3106
31.70257989602529 30.2124
31.725905596152327 30.1187
31.74905181052835 29.9528
31.772199354521323 29.921
31.79534822930507 29.9916
31.818679302290967 29.8682
31.84183085259981 29.8283
31.864983737233473 29.7482
31.88813795736804 29.8102
31.911474422233013 29.5694
31.934631327356435 29.5759
31.9577895715215 29.6146
31.980949155906522 29.6148
32.004291031706956 29.6538
32.027453310562606 29.5496
32.05061693318573 29.6384
32.07396288236386 29.6121
32.09712920658542 29.6478
32.12029687812702 29.514
32.14346589817093 29.4823
32.166817291729984 29.4738
32.18998902288583 29.3754
32.21316210610336 29.2151
32.23633654256711 29.078000000000003
32.259693399663725 29.1336
32.282870556771144 29.0242
32.30604907069099 29.0545
32.329228942610065 28.9836
32.35259128243769 28.8243
32.375773884550505 28.7663
32.398957848235646 28.6893
32.422143174682176 28.5832
32.445511016471215 28.4849
32.468699082679954 28.4876
32.49188851523011 28.4099
32.51507931531304 28.3065
32.538452678331 28.4285
32.56164622776311 28.2583
32.58484114831493 28.1877
32.60803744118015 28.2422
32.631416344731896 28.2521
32.654615396551876 28.2567
32.67781582427913 28.0678
32.701198898634416 28.0062
32.72440209253756 28.0519
32.747606665947124 27.9162
32.77081262006088 27.8353
32.79420126883317 27.8335
32.81740999876112 27.8571
32.840620112999424 27.8136
32.86383161274818 27.7019
32.88722585534586 27.8241
32.91044014056596 27.8482
32.933655814909734 27.7245
32.95687287957963 27.7494
32.98027273544904 27.6428
33.00349259526636 27.5691
33.026713849030116 27.6246
33.04993649794511 27.5814
33.073341986570746 27.4697
33.09656744032826 27.4232
33.11979429286444 27.3966
33.14302254538647 27.3498
33.166433686291185 27.4024
33.18966475336992 27.2779
33.212897224069096 27.2531
33.23613109959831 27.2381
33.259547912343415 27.2817
33.2827846121627 27.2678
33.306022720453775 27.1828
33.32926223842861 27.1678
33.352684742614166 27.1979
33.37592709463173 27.0908
33.399170859982064 27.0718
33.422597648419426 27.0328
33.44584425514446 26.9741
33.46909227885668 26.935
33.4923417207723 26.8435
33.51577423505344 26.7919
33.539026528130385 26.6911
33.56228024307245 26.7412
33.585535381098246 26.5509
33.60897364093058 26.4675
33.63223163992385 26.5266
33.6554910656699 26.3945
33.678751919389796 26.4093
33.702195944520106 26.2824
33.72545966903325 26.23
33.74872482519663 26.1689
33.771991414233746 26.2231
33.79544122444841 26.2386
33.81871069412428 26.1114
33.84198160035767 26.0335
33.86525394437455 26.1367
33.88870955949969 25.9279
33.911984794020626 26.0385
33.93526147001624 26.0209
33.958539588715006 25.9451
33.98200102861669 25.8654
34.0052820477047 25.7148
34.02856451319451 25.7648
34.05203033759056 25.7768
34.07531571090147 25.7369
34.09860253431845 25.7508
34.121890809074316 25.6605
34.145362493118924 25.6057
34.16865368561615 25.5187
34.191946333164054 25.4891
34.21524043699793 25.5405
34.23871800066799 25.4715
34.26201503218366 25.3507
34.28531352370466 25.3281
34.30861347646881 25.1673
34.33209693978188 25.2086
34.3553998301885 25.2301
34.378704185565205 25.0796
34.402010007152356 25.12
34.42549939016683 25.0762
34.44880815937748 25.0293
34.472118398533134 25.0242
34.49543010887669 24.9845
34.51892543169198 24.928
34.54224009966052 24.8333
34.56555624255917 24.8881
34.58887386163339 24.8109
34.61237514439016 24.6309
34.6356957311114 24.6541
34.65901779775809 24.6466
34.68252356662995 24.7127
34.705848608458616 24.5915
34.72917513396849 24.5521
34.75250314440949 24.5637
34.77601490857862 24.4324
34.799345904259795 24.3353
34.82267838863559 24.4546
34.846012362958525 24.3967
34.869530142679984 24.3767
34.89286711232212 24.3535
34.91620557568269 24.2917
34.93954553401677 24.2627
34.9630693495876 24.2009
34.986412313340814 24.2847
35.00975677584668 24.2218
35.033102738362956 24.1153
35.05663261012228 24.0562
35.0799815881786 24.0951
35.10333207003229 24.0931
35.12668405694369 24.0886
35.150220005273056 23.9629
35.17357501786656 23.9978
35.19693153931268 23.9447
35.220289570874385 23.8587
35.24383161619786 23.8204
35.267192683604904 23.7929
35.290555264930376 23.7711
35.314101899412165 23.7961
35.33746752422433 23.7982
35.36083466676374 23.6668
35.38420332829803 23.6338
35.407756095629054 23.7
35.43112781085063 23.6733
35.45450104888391 23.5367
35.477875810999194 23.5836
35.50143473172161 23.5322
35.52481255774625 23.5873
35.54819191167777 23.5179
35.57157279478914 23.5271
35.595137889488406 23.511999999999997
35.61852184675279 23.4614
35.641907337029984 23.4268
35.665294361595684 23.4171
35.68886565090076 23.3342
35.7122557598848 23.3857
35.73564740699838 23.3224
35.759040593519934 23.1985
35.78261809810353 23.1898
35.80601437933051 23.0769
35.829412203814705 23.0608
35.85281157283719 23.0029
35.876395313415884 23.0157
35.8997977874528 22.945999999999998
35.92320180988546 22.9542
35.946790244133936 22.8498
35.97019737933222 22.8933
35.993606066789866 22.7684
36.01701630779276 22.7699
36.04061101440684 22.7403
36.06402437852291 22.7171
36.08743930005611 22.6972
36.1108557802951 22.6002
36.13445678011326 22.5905
36.15787639383515 22.5198
36.18129757014299 22.5061
36.20472031032821 22.4876
36.22832762423364 22.3925
36.25175350829375 22.416
36.275180960119776 22.3971
36.298609981005924 22.401
36.32222362992669 22.4179
36.34565580510207 22.3476
36.36908955323448 22.3378
36.39252487562093 22.2383
36.416144880530226 22.158
36.43958336764275 22.179000000000002
36.463023432914625 22.2071
36.486465077645676 22.0908
36.51009145956204 22.1792
36.53353627947859 22.0848
36.55698268276811 22.0778
36.58043067073321 22.0741
36.60406345072071 22.008000000000003
36.62751462435344 21.9723
36.65096738658405 21.9172
36.67460498210655 21.918000000000003
36.69806093788647 21.9033
36.72151848619297 21.7919
36.744977628333636 21.7669
36.76862165890998 21.7834
36.79208400512205 21.7709
36.81554794910557 21.7518
36.83901349217101 21.6114
36.862663978991606 21.6042
36.88613273667352 21.6442
36.90960309738324 21.5915
36.933075062434064 21.5212
36.95673202673572 21.5177
36.98020721697122 21.4417
37.003684015502365 21.396
37.027162423645365 21.359
37.050825886711465 21.3687
37.07430753063053 21.2768
37.09779078812467 21.2636
37.121275660513014 21.250999999999998
37.144945643673694 21.1849
37.16843376245278 21.1138
37.19192350009803 21.1487
37.215414857931435 21.0629
37.239091382563885 21.0503
37.262585997426164 21.0327
37.28608223645736 21.0418
37.309763684451696 20.9899
37.33326318851098 20.9478
37.356764320726555 20.9525
37.380267082425526 20.9578
37.40395510942588 20.8967
37.42746114683234 20.7693
37.45096881771841 20.7333
37.474478123414166 20.7737
37.49817275092816 20.7452
37.52168534303452 20.7151
37.54519957395567 20.6354
37.568715445024665 20.5729
37.592416694607714 20.5264
37.61593586281424 20.5735
37.63945667518264 20.6099
37.66297913304891 20.4783
37.68668702630454 20.4483
37.710212792059274 20.3713
37.733740207334854 20.3267
37.757269273470364 20.3233
37.780983832050374 20.2863
37.80451621684926 20.3283
37.82805025654007 20.3261
37.851585952464795 20.1871
37.8753071980695 20.1725
37.89884622345676 20.1284
37.92238690911902 20.067
37.94611318753442 20.0774
37.969657210779765 20.0233
37.99320289834801 20.0188
38.016750251586465 19.9603
38.04048325513017 19.9713
38.06403395679343 19.9151
38.087586328183946 19.9135
38.11114037065203 19.8687
38.13488012115898 19.8667
38.1584375229181 19.7753
38.181996599821 19.6989
38.205557353221124 19.7048
38.229303872575656 19.7102
38.2528679961576 19.687
38.27643380031219 19.6649
38.30000128639589 19.6442
38.32375459653193 19.5832
38.34732546371299 19.5995
38.37089801690786 19.4963
38.39447225747609 19.4569
38.418232380377425 19.4381
38.441810012983396 19.4321
38.46538933705673 19.4123
38.488970353960084 19.4356
38.51273731166058 19.3966
38.536321731567014 19.2765
38.55990784840681 19.3052
38.58367995004091 19.238
38.60726947812959 19.1053
38.63086070726198 19.146
38.654453638806274 19.1422
38.678232613930824 19.0661
38.70182896773327 19.0421
38.72542702806741 19.021
38.7490267963045 18.9961
38.77281266709232 18.9351
38.79641586862214 18.9974
38.8200207821842 18.955
38.843627409152944 18.9884
38.86742019782782 18.9564
38.891030269149255 18.8023
38.914642058016156 18.7923
38.938255565806124 18.758
38.96205529464307 18.7823
38.98567225787121 18.7394
39.00929094417078 18.7199
39.03291135492255 18.6748
39.05671804624804 18.6465
39.080341923549106 18.6241
39.103967529460334 18.5665
39.127594865365744 18.4957
39.15140854155791 18.5183
39.17503935514948 18.5911
39.19867190290282 18.5082
39.22249083587951 18.4356
39.24612686969409 18.4392
39.269764641845306 18.3702
39.293404153722804 18.340999999999998
39.317230110864074 18.253
39.34087311998506 18.2233
39.36451787301696 18.2859
39.388164371352595 18.1876
39.41199737518003 18.168
39.43564738196752 18.1615
39.45929913825317 18.1079
39.48295264543308 18.07
39.506792718520884 18.0382
39.530449745387216 17.9991
39.55410852735203 18.046
39.57776906581474 17.9976
39.60161623079 18.0004
39.625280300200025 17.8957
39.64894613032202 17.8259
39.67261372255866 17.8691
39.6964680021016 17.8163
39.72013913657293 17.8392
39.74381203738292 17.8181
39.76748670593756 17.794
39.79134812278169 17.7738
39.81502634488497 17.6934
39.83870633896685 17.6963
39.862388106436654 17.6064
39.88625668336918 17.6016
39.90994201572829 17.6251
39.933629125719285 17.5099
39.957503091207826 17.5599
39.9811937746168 17.5843
40.00488623990914 17.4727
40.02858048850006 17.4532
40.05246165409549 17.4623
40.076159487492085 17.4336
40.099859108448875 17.4409
40.123560518384345 17.3431
40.1474489070226 17.347
40.171153913178564 17.2837
40.194860712584955 17.2181
40.2185693066637 17.2578
40.242464941335314 17.1915
40.26617714307655 17.1503
40.289891143772046 17.1857
40.3136069448471 17.1394
40.33750984859743 17.1292
40.3612292688043 17.107
40.3849504936829 17.0778
40.40867352466194 17.0256
40.43258372059144 16.9776
40.45631038219906 17.0006
40.48003885420956 16.959
40.503769138055105 16.8833
40.52768664931955 16.9362
40.55142057531802 16.8337
40.57515631746428 16.827
40.599079334038514 16.8269
40.62281872700477 16.768
40.64655994043941 16.7481
40.67030297578061 16.7306
40.69423334835778 16.6958
40.71798004609188 16.7075
40.74172857006355 16.6363
40.76547892171441 16.6712
40.7894166736039 16.54
40.813170699248566 16.5402
40.83692655691388 16.5584
40.86068424804498 16.5647
40.884629402612525 16.4998
40.908390779366385 16.463
40.932153993938 16.4702
40.95591904777605 16.4341
40.979871628443995 16.4464
41.003640379561936 16.4033
41.02741097430883 16.3437
41.05118341413683 16.3455
41.075143444384416 16.3107
41.098919593177826 16.2665
41.1226975914255 16.2682
41.14647744058318 16.2369
41.170444943946755 16.15
41.19422851378379 16.1695
41.218013938914645 16.0908
41.24198706625173 16.1129
41.26577622087193 16.0636
41.289567235177785 16.052
41.31336011063129 16.0601
41.337340752422875 15.9733
41.361137369129835 15.9943
41.38493585138705 15.9681
41.40873620066004 15.9316
41.43272438060107 15.8523
41.45652848292052 15.8162
41.48033445666918 15.7689
41.50414230331616 15.809000000000001
41.528138045159764 15.8506
41.551949656675205 15.7186
41.575763145513235 15.6627
41.59957851314666 15.687000000000001
41.62358184070442 15.6259
41.64740098505737 15.6426
41.6712220126409 15.6317
41.69504492493139 15.6008
41.71905586207357 15.555
41.74288256296395 15.5112
41.766711153007456 15.5142
41.79054163368412 15.4644
41.814560204340054 15.4606
41.838394485526365 15.4398
41.86223066180303 15.4584
41.88625497706819 15.4287
41.910094962812 15.3688
41.93393684811168 15.3912
41.95778063445365 15.3058
41.981812625263366 15.2789
42.00566023303407 15.2658
42.029509746323676 15.2322
42.05336116662236 15.18
42.077400857069705 15.1807
42.10125611078846 15.1686
42.12511327600405 15.1269
42.14897235421036 15.1237
42.173019768448455 15.0892
42.19688269209613 15.0605
42.22074753323349 15.0498
42.24461429335818 15.0423
42.268669455600495 14.9908
42.292540073217886 14.9837
42.31641261433284 14.9048
42.34028708044675 14.8657
42.36435001496739 14.8623
42.38822835065557 14.8646
42.41210861586426 14.8412
42.4359908120986 14.7943
42.46006154323262 14.8185
42.48394762115317 14.759
42.507835634632315 14.777000000000001
42.531912233047436 14.6706
42.55580413732265 14.7358
42.579697981698 14.6709
42.60359376768525 14.6492
42.62767820545945 14.6146
42.65157789440821 14.6208
42.67547952952185 14.6449
42.699383112316 14.5829
42.72347541395347 14.4879
42.74738291190531 14.479000000000001
42.771292362102166 14.4665
42.795203766063516 14.4951
42.819303956130405 14.4384
42.843219287476536 14.3805
42.86713657716324 14.3552
42.89105582671383 14.3105
42.91516392983864 14.3487
42.939087119032166 14.2691
42.963012272677304 14.2787
42.98693939230129 14.2752
43.01105543317513 14.2004
43.034986504731386 14.1981
43.05891954686589 14.1574
43.08285456110972 14.1222
43.10697856448665 14.1171
43.130917542983475 14.0354
43.15485849820081 14.0444
43.17880143167367 14.0236
43.20293342237094 13.9939
43.226880332449 13.9509
43.25082922540554 13.9644
43.27496722682525 13.9644
43.29892010567796 13.8904
43.32287497204102 13.9034
43.34683182745632 13.8354
43.370977859791836 13.7983
43.39493871351105 13.8752
43.41890156092628 13.8567
43.44286640358341 13.8125
43.46702049182749 13.7618
43.49098934522816 13.7413
43.51496019852649 13.7231
43.5389330532723 13.6992
43.56309522248204 13.6518
43.58707210044314 13.6877
43.61105098451946 13.6113
43.63503187626491 13.5698
43.659202151562134 13.5295
43.68318707902681 13.5534
43.70717401884041 13.5126
43.731162972560874 13.475
43.75534137913236 13.4613
43.779334381108384 13.4521
43.803329401683186 13.405
43.82732644241872 13.4088
43.8515130055166 13.3671
43.87551410707659 13.2908
43.89951723350145 13.3255
43.923709934595614 13.2969
43.94771713129917 13.2708
43.97172635758096 13.2684
43.99573761501002 13.2338
44.0199385169922 13.2403
44.04395385732619 13.2459
44.067971233533086 13.2145
44.09199064718605 13.1536
44.11619977548961 13.1511
44.14022328470671 13.0984
44.16424883610785 13.107999999999999
44.18827643127035 13.0835
44.21249381139513 13.0716
44.236525514814076 13.0069
44.26055926674478 12.9876
44.28459506876863 13.0022
44.3088207262813 12.945
44.33286064928722 12.9359
44.35690262714919 12.9232
44.38094666145278 12.8596
44.4051806219871 12.8533
44.42922879003185 12.8261
44.45327901929361 12.8126
44.477331311362136 12.7755
44.501573600619416 12.7524
44.525630039221795 12.7328
44.54968854541895 12.7395
44.573937102200176 12.704
44.5979997645541 12.7267
44.622064499300315 12.661
44.64613130803592 12.6102
44.67038823869318 12.6284
44.69445921643748 12.5667
44.718532272981385 12.5051
44.742607409926194 12.5314
44.76687274034801 12.5113
44.79095205918753 12.4676
44.81503346325094 12.487
44.839116954143876 12.481
44.86339071028742 12.4029
44.88747839599524 12.3996
44.91156817336837 12.4135
44.93566004401666 12.3888
44.959942251908146 12.3913
44.984038330325966 12.3102
45.00813650686762 12.2571
45.03223678314731 12.2489
45.05652746888232 12.2159
45.08063196592069 12.2579
45.104738567558705 12.2282
45.128847275414856 12.1828
45.15314646515866 12.1471
45.17725940679741 12.1207
45.20137445952892 12.1325
45.22568004865265 12.0993
45.24979934496396 12.0601
45.27392075725247 12.0547
45.29804428714431 12.0289
45.322358426247604 11.9826
45.346486212804315 12.0427
45.370616121861914 11.9715
45.39474815505086 11.9447
45.41907087049246 11.9166
45.4432071734666 11.9108
45.46734560548283 11.9069
45.49148616817604 11.914000000000001
45.51581748638564 11.8497
45.5399623320197 11.8727
45.56410931325473 11.818
45.58825843173002 11.831
45.61259837920865 11.7754
45.636751793816 11.777999999999999
45.66090735060093 11.7184
45.68506505120716 11.7232
45.7094136545275 11.6928
45.73357566449271 11.638
45.75773982322992 11.6221
45.78190613238733 11.6565
45.806263418194064 11.5653
45.83043404997326 11.5447
45.85460683713677 11.5446
45.87897065658495 11.5468
45.90314777634752 11.5154
45.92732705646868 11.497
45.9515084986045 11.4818
45.97588104735473 11.4538
46.00006683541565 11.4074
46.02425479047904 11.3851
46.04844491420549 11.3957
46.0728262191024 11.3575
46.09702070211635 11.3528
46.12121735879483 11.3481
46.14541619080294 11.321
46.169806278764455 11.2624
46.194009483459034 11.2542
46.21821486849841 11.2157
46.24242243555223 11.2504
46.266821333570014 11.2262
46.29103328674601 11.2
46.31524742696538 11.1976
46.33946375590237 11.1419
46.36387149104216 11.1131
46.38809221957392 11.0983
46.41231514186606 11.1241
46.436540259597464 11.1124
46.460956858999374 11.0347
46.48518638983522 11.0226
46.509418121166966 10.9911
46.533652054678114 10.979000000000001
46.55807754555709 10.9701
46.58231590571962 10.9795
46.60655647313217 10.9388
46.630988654873654 10.8738
46.655233659129024 10.8602
46.67948087571551 10.8461
46.70373030632484 10.824000000000002
46.72817142736393 10.8453
46.752425308428684 10.8412
46.77668140861147 10.8026
46.80093972960865 10.7344
46.82538981736788 10.7706
46.849652602470904 10.7078
46.87391761349769 10.7034
46.8981848521493 10.6656
46.9226439341274 10.6321
46.946915650573224 10.6316
46.97118959976749 10.6266
46.99546578341598 10.5653
47.019933887188216 10.5702
47.04421456235744 10.5447
47.06849747711879 10.5659
47.09278263318286 10.5665
47.11725978640143 10.4863
47.14154944775105 10.5146
47.165841355555656 10.5027
47.1901355115306 10.4421
47.214621741924994 10.4298
47.23892041698887 10.4357
47.26322134538975 10.4186
47.28771440635075 10.3866
47.31201986422527 10.4211
47.33632758061436 10.3516
47.360637557241866 10.3083
47.38513974410611 10.2849
47.40945426407847 10.2724
47.43377104948137 10.2838
47.45809010204344 10.2705
47.48260144275502 10.2512
47.506925052572285 10.2144
47.53125093475548 10.1857
47.55557909103813 10.1998
47.58009961361992 10.1253
47.60443234110732 10.0834
47.62876734791564 10.1075
47.65310463578333 10.072000000000001
47.6776343683373 10.078
47.7019762413987 10.0567
47.72632040075572 10.01
47.75066684815169 10.0166
47.77520581885936 9.970989999999999
47.799556865477655 9.99461
47.823910205386 9.95462
47.84826584033272 9.94668
47.87281407745551 9.92158
47.89717432569297 9.89478
47.92153687423484 9.89147
47.94609208429692 9.871839999999999
47.97045925671401 9.86386
47.99482873471275 9.837110000000001
48.01920052005013 9.79521
48.04376504619224 9.75258
48.068141469543484 9.7846
48.09252020552573 9.79527
48.11690125590099 9.77983
48.1414751266064 9.728110000000001
48.16586082917454 9.71073
48.19024885144316 9.679
48.2146391951793 9.71147
48.239222439012764 9.674439999999999
48.26361744916137 9.64851
48.28801478610016 9.62703
48.31241445160131 9.6087
48.337007097209366 9.62447
48.36141144338331 9.622589999999999
48.38581812345755 9.58141
48.41022713920929 9.59225
48.434829215320704 9.532160000000001
48.45924292604658 9.4887
48.48365897780325 9.52236
48.50807737237308 9.46167
48.532688907799276 9.44675
48.55711201168574 9.39696
48.581537463754074 9.43602
48.60615611725119 9.44007
48.63058628942721 9.43192
48.65501881516546 9.41207
48.6794536962573 9.35696
48.70408185970339 9.3214
48.72852147531801 9.30673
48.75296345168211 9.27177
48.77740779059232 9.29802
48.80204549302823 9.31757
48.82649458091802 9.27951
48.85094603676547 9.26115
48.87539986237231 9.22855
48.90004713292306 9.22452
48.92450572200832 9.18392
48.94896668628025 9.13572
48.97343002754588 9.149289999999999
48.99808689542115 9.13815
49.02255501470614 9.166269999999999
49.04702551642794 9.10603
49.0714984023988 9.09522
49.096164896893235 9.06121
49.120642575466796 9.05799
49.145122643748394 9.02432
49.16960510355558 9.00614
49.19428125404938 9.007430000000001
49.2187685210852 8.98279
49.243258185121555 8.963980000000001
49.26794160167084 8.924380000000001
49.2924360839405 8.91974
49.31693296869764 8.91687
49.34143225776915 8.933580000000001
49.36612538195438 8.88518
49.39062950396021 8.858260000000001
49.41513603578346 8.796380000000001
49.4396449792564 8.78058
49.46434784069503 8.813089999999999
49.488861631846454 8.78547
49.513377840166804 8.79038
49.537896467493745 8.76742
49.56260909589029 8.733939999999999
49.587132585683285 8.723239999999999
49.611658500018365 8.71849
49.636186840738596 8.66357
49.66090926588511 8.69815
49.685442483902584 8.65293
49.70997813385706 8.65104
49.734516217597076 8.62936
49.75924846937352 8.59485
49.7837914452858 8.60475
49.80833686055187 8.5478
49.83288471702571 8.53847
49.85762682540054 8.534089999999999
49.882179588965734 8.542010000000001
49.9067347993235 8.51547
49.93129245833333 8.51596
49.95604445336378 8.46927
49.98060703442832 8.47247
50.005172069746266 8.45567
50.02993150438364 8.45983
50.05450147301533 8.42296
50.07907390151433 8.43126
50.10364879174981 8.40731
50.12841816587289 8.37805
50.1529980044635 8.36267
50.17758031042124 8.34786
50.20216508562089 8.37423
50.22694442953363 8.2846
50.25153416817468 8.28545
50.27612638170508 8.28241
50.300721072005196 8.25798
50.325510416102105 8.2221
50.350110084975064 8.22438
50.37471223628208 8.2599
50.39931687190919 8.1831
50.424116246675766 8.17079
50.44872587605249 8.179789999999999
50.47333799543065 8.15448
50.49795260670191 8.15504
50.52276204271512 8.12398
50.54738166295838 8.09682
50.57200378079314 8.0886
50.596628398116835 8.09281
50.62144792604559 8.05127
50.646077567609396 8.038860000000001
50.670709714377715 8.04125
50.69553683636198 8.00067
50.72017401885922 8.01224
50.7448137122895 8.01464
50.76945591856022 7.94578
50.79429318636823 7.93478
50.818940443716784 7.96828
50.84359021965163 7.92669
50.868242516085964 7.91575
50.893089960641895 7.90613
50.917747323549435 7.87753
50.94240721271973 7.84892
50.96706963007175 7.821969999999999
50.99192728239342 7.83207
51.01659478166073 7.83292
51.04126481489051 7.780889999999999
51.06593738400761 7.79402
51.090805275207074 7.752510000000001
51.11548294172845 7.770789999999999
51.14016314993547 7.73291
51.164845901758845 7.71489
51.18972406304274 7.6881699999999995
51.21441192780656 7.685560000000001
51.23910234200271 7.68352
51.2637953075678 7.6628300000000005
51.288683770237945 7.6551
51.31338186432707 7.64918
51.33808251561888 7.58056
51.362978729967345 7.60118
51.387684521509755 7.56913
51.41239287610203 7.57052
51.437103795691165 7.525189999999999
51.46201036644977 7.52928
51.486726441956634 7.54241
51.51144508832545 7.50178
51.536166307509156 7.50183
51.56108326624387 7.469810000000001
51.58580965706056 7.42125
51.61053862657523 7.43917
51.635270176746864 7.42122
51.66019755512065 7.4413800000000005
51.68493429268881 7.412030000000001
51.70967361681515 7.36539
51.73441552946465 7.35642
51.759353359237934 7.34762
51.7841004750961 7.34381
51.80885018539685 7.30392
51.833602492111254 7.293239999999999
51.8585508051424 7.27698
51.883308330926425 7.298439999999999
51.90806845906181 7.2593
51.932831191525715 7.223269999999999
51.95779001977161 7.22133
51.98255798721516 7.207330000000001
52.00732856494335 7.2148699999999995
52.03229530577543 7.1837100000000005
52.057071130455945 7.202260000000001
52.081849571391054 7.141139999999999
52.106630630568695 7.13912
52.13160794279417 7.12631
52.15639426492067 7.075760000000001
52.18118321127822 7.08585
52.205974783860896 7.06688
52.23096269971011 7.06537
52.255759551287994 7.06279
52.280559035098186 7.045319999999999
52.30536115314103 7.01628
52.33035970494467 7.01385
52.35516711807904 6.985860000000001
52.37997717147198 6.97578
52.40478986713005 6.941889999999999
52.42979908731974 6.928910000000001
52.454617094216 6.90842
52.47943774942214 6.94515
52.50426105495102 6.909269999999999
52.529280976059844 6.876939999999999
52.554109609024096 6.890339999999999
52.57894089837482 6.87334
52.60377484613117 6.86718
52.62880550079408 6.86693
52.65364479223379 6.805739999999999
52.67848674816189 6.81646
52.70352547971946 6.773619999999999
52.72837279155837 6.76346
52.753222773982785 6.734539999999999
52.778075429022984 6.74685
52.80312495150885 6.7267
52.827982978797436 6.748360000000001
52.85284368481815 6.69601
52.87770707160767 6.69615
52.90276741793998 6.6919699999999995
52.92763619336701 6.66942
52.952507655698504 6.63715
52.977381806977576 6.623639999999999
53.00245301017842 6.619280000000001
53.02733256653592 6.6265
53.052214817996074 6.6139
53.077099766608484 6.596760000000001
53.102181859804446 6.54649
53.127072229988265 6.59083
53.15196530349892 6.55356
53.17686108239249 6.5254199999999996
53.20195409881522 6.53538
53.22685531582556 6.50751
53.25175924441303 6.44575
53.27666588664027 6.41873
53.30176985962693 6.46896
53.3266819565689 6.45263
53.35159677336455 6.40974
53.376514312083096 6.42633
53.40162927507703 6.41303
53.42655228516116 6.4362
53.45147802340193 6.34716
53.47660125628886 6.3289800000000005
53.50153247842639 6.31406
53.52646643496923 6.30056
53.55140312799818 6.33591
53.576537409691696 6.28986
53.60147960336152 6.27631
53.626424539786164 6.26748
53.65137222105307 6.28566
53.67651758529126 6.270969999999999
53.70147078399681 6.22483
53.72642673383343 6.19321
53.75138543689533 6.17542
53.776541917524526 6.13544
53.801506154876755 6.16625
53.826473151763246 6.1784300000000005
53.851442910284916 6.11649
53.87661054126026 6.09826
53.9015858509782 6.0996
53.92656392866066 6.0936
53.95154477641532 6.10945
53.976723591801296 6.06698
54.00171000771266 6.07256
54.02669920004598 6.03215
54.051691170915745 6.0094199999999995
54.076881204886796 5.9648900000000005
54.101878760928514 6.0113900000000005
54.12687910187696 5.98104
54.152077577768296 5.9497599999999995
54.1770835166946 5.9653
54.20209224691339 5.90794
54.22710377055121 5.94029
54.25231352511594 5.92287
54.27733066384342 5.86998
54.30235060239643 5.863569999999999
54.32737334290836 5.8508
54.35259441062629 5.79539
54.377622783395324 5.83261
54.40265396455061 5.80586
54.42768795623251 5.75781
54.45292037169559 5.71973
54.477960012857906 5.6963099999999995
54.50300247099511 5.6836400000000005
54.52804774825457 5.68042
54.55329154616743 5.66125
54.57834249018678 5.6504900000000005
54.6033962597977 5.59374
54.6284528571545 5.5916
54.653708072335164 5.56271
54.67877035378786 5.54021
54.70383546947698 5.53803
54.72890342156389 5.54667
54.7541700889442 5.48055
54.77924374251975 5.45507
54.8043202390049 5.44005
54.82959552413022 5.43096
54.8546777351945 5.41665
54.87976279569621 5.35044
54.90485070780914 5.37927
54.930137506558005 5.35578
54.95523115074295 5.36604
54.98032765308844 5.31131
55.005427015775496 5.28713
55.03072536339621 5.30173
55.05583047570572 5.24943
55.080938454927676 5.24139
55.10604930325027 5.2306
55.131359235107396 5.21537
55.15647585066083 5.1386199999999995
55.181595341907496 5.14992
55.20671771104285 5.12244
55.232039262617704 5.0746
55.25716741665048 5.0298099999999994
55.28229845518636 5.0315199999999995
55.30743238042802 4.97898
55.33276558731939 4.97618
55.357905315183636 4.93371
55.383047936390035 4.89401
55.40819345314859 4.82857
55.433538351073295 4.83515
55.458689688238415 4.84344
55.483843927614096 4.812869999999999
55.509197623043605 4.79981
55.53435769621134 4.77965
55.55952067826466 4.79286
55.5846865714265 4.78923
55.61005202069737 4.7043
55.63522376553902 4.72157
55.66039842818645 4.68365
55.68557601087004 4.684740000000001
55.7109532500271 4.64391
55.73613670233794 4.70571
