TT I
1.2716486653135266 7.43412
1.2939594142134223 7.328939999999999
1.3162702121660406 6.6356
1.3385810600174564 5.971480000000001
1.3608919586137629 6.480630000000001
1.383202908801069 6.47176
1.405513911425503 6.2325099999999996
1.4278249673332093 6.2857
1.4501343378461518 5.94836
1.4724455028545926 5.76365
1.4947567236847858 5.73389
1.517068001182951 5.723730000000001
1.5393793361953272 6.07757
1.5616907295681737 5.80547
1.5840021821477681 5.90917
1.60631369478041 5.33225
1.6286252683124185 5.0075199999999995
1.6509369035901333 4.79122
1.6732468618895553 5.06139
1.695558623192809 4.89642
1.7178704487808514 4.97645
1.7401823395001077 4.69095
1.7625012545597203 4.883290000000001
1.7848028405262486 4.37426
1.8071218901122095 4.5991
1.8294236121921872 4.548080000000001
1.8517427996910911 4.78835
1.8740620574440425 4.732069999999999
1.8963639900671978 4.59595
1.9186833908139995 5.1237
1.9409854680117449 5.03714
1.9633050151394713 4.66134
1.9856246367570705 4.6530000000000005
2.0079269371922672 5.01208
2.03024671027244 4.80475
2.0525491637446027 4.86346
2.074869091674931 5.24799
2.097171701569106 4.4441
2.1194917877373847 4.2926
2.141811954326636 4.43125
2.164114805233074 4.16108
2.186435135143035 5.418740000000001
2.208738150935709 8.90737
2.231058647554722 15.8214
2.2533792288321184 11.9728
2.275682498336085 7.171760000000001
2.298003251406138 5.74648
2.3203066942619714 5.35164
2.3426276225136022 5.36437
2.3649486396617507 5.712680000000001
2.387252348930071 5.40611
2.4095735463442893 5.20916
2.4318774374315884 5.812869999999999
2.4541988185014043 6.49251
2.476502894794693 7.10958
2.498824462909887 6.67203
2.521146125856138 6.878189999999999
2.5434504863470337 7.32477
2.5657723414244717 7.51043
2.588076895590662 7.7164
2.610398946189713 8.29317
2.6327210958598384 8.469330000000001
2.6550259469304716 7.778580000000001
2.6773482972090137 8.4663
2.6996533504259 8.83891
2.7219759047039602 8.85688
2.744298562293959 8.3259
2.7666039251246595 7.7757
2.7889267918020164 8.399189999999999
2.8112323652516555 8.93565
2.833555444408179 8.542060000000001
2.8558786311183852 7.87438
2.8781845268938557 8.13177
2.9005079311721484 8.12097
2.9228140460410397 8.82773
2.9451376712799635 9.21411
2.967444008632326 9.74318
2.9897678582247247 9.73742
3.0120918213106695 10.0387
3.0343984987899373 11.1367
3.0567226913198637 10.925999999999998
3.079029599759726 11.3719
3.101354025127254 12.3244
3.123678568232338 13.1196
3.145985829517914 12.9025
3.16831061055229 13.7482
3.1906181112775593 14.4993
3.212943133635653 14.7779
3.2352682779763207 15.4752
3.2575761442691227 15.0784
3.2799015350264273 15.4197
3.302209649240067 15.909
3.3245352898092655 16.4938
3.3468436553365257 17.0366
3.369169549113219 17.8083
3.3914955708171384 18.3961
3.413804319727358 19.1168
3.4361305997334863 19.2434
3.4584396084414553 19.6667
3.4807661501462652 20.2407
3.503092824025881 20.6035
3.5254022288463154 21.1384
3.5477291695206588 21.676
3.5700388426251948 22.2169
3.5923660534916446 23.1856
3.6146934007816114 30.5001
3.637003482731501 53.6307
3.6593311053109985 56.9994
3.681641464033634 37.9823
3.7039693653009733 26.8331
3.726297407241705 25.3548
3.7486081875460804 25.2206
3.7709365132734978 25.5045
3.793247578841633 26.0884
3.8155761917550093 26.4548
3.8378875459837216 26.823
3.8602164494827234 27.5377
3.882545499606844 28.0297
3.9048572932539183 28.9074
3.9271866390645718 28.9005
3.9494987298666713 29.7062
3.971828374764527 29.8199
3.9941581705403255 30.3157
4.016470713506008 31.1928
4.038800813471445 32.1329
4.061113662089144 31.8691
4.0834440696459176 32.9548
4.105774632334751 33.6429
4.128087945865126 34.254
4.150418821249301 34.69
4.172732448931298 35.8272
4.195063640413578 37.0618
4.2173775856475215 39.8041
4.239709096631102 54.9947
4.262040768704612 128.351
4.284355196706267 161.8
4.306687193387355 110.804
4.329001947444346 57.9424
4.35133427213731 44.6762
4.373666762177566 43.27
4.395982011761091 43.7051
4.418314834921175 44.7942
4.44063041906622 49.2417
4.4629635787515625 54.1555
4.4852969080429785 55.239
4.5076130004776225 53.0586
4.529946671403969 55.763000000000005
4.552263106909177 58.2046
4.574597122877047 56.2094
4.596931312711224 54.1032
4.619248269273446 53.6845
4.6415828092605835 54.32
4.663900117405352 55.6488
4.686235010953232 56.8384
4.708552674085913 58.644
4.730887924602802 59.7487
4.753223354952695 61.7778
4.775541557023902 64.7993
4.797877349456786 67.9061
4.820195915032126 69.1612
4.842532072957498 68.4539
4.864868414979744 70.9155
4.88718753227192 74.493
4.909524244902505 76.4339
4.931843734218147 77.1515
4.954180820867835 78.5844
4.976518095879839 81.6708
4.998838149695359 83.6568
5.021175803844231 87.4199
5.043496238205739 91.2468
5.065834274903528 95.7027
5.088172504230693 100.455
5.1104935158799565 107.677
5.132832132875765 127.25
5.155153533596801 158.833
5.1774925416746225 205.796
5.199814334878411 435.871
5.2221537374521505 1122.92
5.244493338631803 3066.29
5.266815727034316 7885.92
5.289155727832427 12750.2
5.311478517248165 8578.08
5.333818921080011 2643.46
5.356159527788849 517.234
5.3784829252032536 194.43900000000002
5.400823940070432 152.123
5.423147747031976 130.641
5.445489173474152 120.613
5.467830807066149 119.066
5.490155234831516 117.62899999999999
5.512497285125229 111.62899999999999
5.534822130975162 106.085
5.557164601388673 103.12
5.579489868738879 100.074
5.601832762690846 98.6753
5.6241758697774475 96.9704
5.646501775867269 96.3954
5.668845311622074 95.5845
5.691171647754637 94.7198
5.713515615597765 93.7197
5.735859800852677 93.2611
5.758186788542988 94.3972
5.780531411018185 97.2019
5.802858837297399 97.2117
5.825203900414495 97.0371
5.8475491852224 100.035
5.869877275883075 99.2768
5.892223006467101 96.8949
5.914551544266608 95.821
5.936897724049891 98.9944
5.959244129804903 105.9
5.981573344815301 137.291
6.0039202049061 255.18099999999998
6.026249875609095 508.01800000000003
6.04859719346037 1036.96
6.070927323278297 2292.5
6.093275102315365 4644.67
6.115623113320588 5152.53
6.137953938319995 3104.46
6.160302415650845 933.6210000000001
6.182633708324452 221.071
6.2049826554078376 110.09899999999999
6.227331838745022 91.2056
6.249663839443684 84.3297
6.27201349767565 80.9216
6.294345974611799 82.0821
6.316696111167083 86.057
6.339046488263839 82.7626
6.361379686074702 75.3119
6.383730546639482 71.3713
6.406064229255215 70.0908
6.428415576718203 70.887
6.450749747566656 69.2889
6.47310158535871 67.1766
6.495453669698332 65.6281
6.517788579421056 64.7026
6.540141159237969 63.461000000000006
6.562476565766648 62.9317
6.5848296444934045 62.7239
6.607182974060425 62.8436
6.6295191323281015 62.7488
6.651872965955752 63.9286
6.6742096296068985 75.2029
6.6965639707294615 95.382
6.71891856698715 94.2701
6.741255995248479 74.4567
6.763611104154477 62.7556
6.785949046381137 59.3949
6.808304671371482 59.161
6.8306605557940046 60.2802
6.852999275508618 59.2934
6.875355681171544 57.714
6.897694923437771 56.6201
6.92005185377892 56.5662
6.9423916220322655 56.1629
6.964749080490181 55.6091
6.987106804399774 55.3854
7.009447368180821 56.1682
7.031805625367033 55.538999999999994
7.054146723727803 55.5818
7.076505517631004 55.1818
7.098864581288365 54.8808
7.121206488070854 54.7285
7.143566093607822 55.2581
7.165908543567245 55.56
7.188268694426048 55.8668
7.2106291193438095 55.0569
7.232972390625943 55.5421
7.255333366030969 61.4223
7.277677189091925 85.2022
7.300038718428332 105.62100000000001
7.322400526130865 92.6842
7.344745183422596 69.3137
7.367107550224791 56.9797
7.389452767901992 54.7294
7.411815697249891 54.4897
7.434161478756298 53.6838
7.456524974096713 53.5535
7.478888753837185 53.8817
7.501235387657368 54.5513
7.523599738562711 54.3487
7.545946944825532 54.8124
7.568311870344528 55.0656
7.5906770845765665 54.8671
7.613025156078678 55.5711
7.635390950099687 56.5286
7.657739602662809 56.5498
7.680105979923558 56.0114
7.702472650212829 56.7665
7.724822180948224 56.2043
7.747189439655568 56.3574
7.769539560075357 55.9705
7.791907410653562 56.5336
7.81425812420825 56.4056
7.836626570110925 56.8051
7.858995315087906 57.5341
7.881346924933401 57.5958
7.903716270417482 58.4616
7.926068482028405 58.5373
7.948438431475253 59.2406
7.9708086843180235 60.0158
7.993161805171116 60.4267
8.015532667162402 60.9328
8.037886398416653 61.9758
8.060257873014221 62.6243
8.082629655331942 63.3292
8.104984308787587 64.1355
8.127356708900503 66.9177
8.149711981398308 70.9228
8.172085002766314 72.998
8.194458336181368 70.7616
8.216814543847752 69.1926
8.23918850371002 69.693
8.26154533906492 70.3745
8.283919928836452 71.8486
8.306277395339652 72.7882
8.328652618483376 74.0271
8.351028159736202 76.4011
8.373386579575245 78.7887
8.395762759396959 80.6331
8.418121819038275 84.2035
8.440498640894003 92.6386
8.462875785192262 105.18299999999999
8.485235811156207 132.243
8.507613602688501 188.33700000000002
8.529974277114228 273.585
8.552352719347912 412.772
8.574731488360351 691.1619999999999
8.59709314210385 1248.5
8.619472567021075 1915.74
8.64183487789147 2202.03
8.664214962183097 1730.22
8.686577933647762 846.377
8.708958680784317 329.671
8.731339760774953 149.572
8.753703729764451 107.516
8.77608547780821 98.3437
8.798450116065078 95.1771
8.820832535634787 92.7712
8.843215292401656 92.3111
8.865580941199045 91.7035
8.887964374703538 91.5147
8.910330701447199 91.7337
8.932714815164482 91.8065
8.955099270424924 89.7955
8.977466620733543 86.9876
8.999851761421976 85.3899
9.022219798361645 84.17
9.04460562795561 84.0802
9.066991803441677 83.9898
9.089360876979615 84.1951
9.111747746589993 84.0463
9.13411751544971 82.6792
9.156505082664324 81.7695
9.178875550323522 82.2332
9.20126381862328 82.2468
9.223652438908596 82.5535
9.246023961427412 82.7715
9.26841328802173 82.8645
9.290785518039224 82.9406
9.313175554425882 84.5779
9.335565947154315 86.3607
9.357939245086508 86.2912
9.380330352834827 85.9655
9.40270436697103 85.6132
9.425096193225055 85.0299
9.447488380180165 85.3854
9.469863475295412 84.8234
9.492256385987508 85.2021
9.514632206018318 85.4738
9.537025843935714 86.2691
9.559402392368193 87.0649
9.581796761000229 89.6098
9.604191496441521 91.1358
9.626569144158516 94.2598
9.648964615551032 95.8109
9.671343000390081 95.723
9.693739211225699 94.0574
9.716135793237463 93.2256
9.738515290448102 93.3046
9.760912617143402 94.9109
9.783292860202891 97.229
9.805690935076182 99.3422
9.828089385495742 100.096
9.850470754023561 101.38
9.872869957865444 105.319
9.89525208097539 113.825
9.917652041736662 121.807
9.940052382417589 130.466
9.962435644102392 155.959
9.984836746950979 200.787
10.007220771957746 260.525
10.029622640473708 367.663
10.052007432299963 555.059
10.074410069984072 858.449
10.096813093716005 1303.48
10.119199042482517 1803.37
10.141602840636468 1967.55
10.163989564971628 1535.28
10.186394141051062 825.4730000000001
10.208799107559706 353.217
10.231187001965623 171.017
10.253592751657669 122.35700000000001
10.275981430388155 112.15700000000001
10.298387966769793 109.96
10.320794897965431 110.18700000000001
10.343184759907361 109.208
10.36559248305461 106.28299999999999
10.387983138083852 106.184
10.410391656691655 113.175
10.432800574501677 124.906
10.455192425893369 141.018
10.47760214443012 166.798
10.499994797678786 214.9
10.522405320453982 294.704
10.54479877906917 415.32800000000003
10.567210109595656 518.736
10.5896218454736 578.934
10.612016518879773 495.889
10.634429067781074 329.72
10.656824555333241 193.665
10.679237920773568 119.193
10.701651695961992 94.2403
10.724048411481384 88.9924
10.746463008485165 86.4149
10.768860546937125 84.7541
10.791275969274796 83.0362
10.81369180576079 82.3506
10.836090585366925 80.8988
10.858507252467449 79.5603
10.88090686379991 79.042
10.903324365036394 78.5888
10.925724811614439 77.9216
10.948143150509463 78.3275
10.970561909719066 77.7607
10.992963615930844 76.795
11.015383218085756 75.218
11.037785768347074 73.6059
11.06020621697282 72.8885
11.082627090322113 72.1273
11.105030913430326 71.5815
11.12745263854165 71.4708
11.149857314510728 72.5976
11.172279894912576 75.1571
11.194702904450653 74.9742
11.217108866490921 72.7195
11.239532736615194 70.7848
11.26193956033512 69.3621
11.284364294577085 68.7004
11.306789462371718 67.5806
11.329197585398376 66.8444
11.351623622610898 66.7502
11.37403261614354 65.9998
11.396459526308487 65.8336
11.418869393879497 65.6544
11.441297180532617 65.2243
11.463725406927658 64.9003
11.486136592353875 64.4586
11.508565700543707 64.913
11.530977768845315 65.5304
11.553407762368774 65.4017
11.575838200059769 65.3135
11.598251599479612 64.2942
11.620682927815501 63.571999999999996
11.64309721895548 63.7127
11.665529441478206 63.0501
11.687962112597958 62.836000000000006
11.710377748130886 63.0716
11.732811318753434 62.8783
11.755227854859067 62.6295
11.777662328529495 62.6611
11.800079768750786 62.5133
11.822515149015453 62.6524
11.844950984084935 62.9633
11.867369787303163 62.5429
11.889806534289491 61.9616
11.912226250487029 62.7703
11.934663912939751 62.7438
11.9571020346363 63.1343
11.979523127133968 63.3555
12.001962169624331 64.4234
12.024384183972964 66.3111
12.046824150809913 69.6339
12.069264581333726 73.7412
12.091687985297767 79.6605
12.11412934550045 89.6385
12.136553680195208 106.05799999999999
12.158995973632788 128.937
12.181438735204349 156.516
12.20386447284199 185.387
12.226308172985636 206.695
12.24873485024193 196.805
12.271179492516982 156.796
12.293607112949127 117.55
12.316052700916226 87.2707
12.338498763250042 72.9636
12.360927805303868 67.2022
12.383374818673879 64.9206
12.405804812803074 63.9468
12.428252780773262 63.9317
12.45070122756722 64.0493
12.473132656675375 64.3469
12.49558206341869 64.5315
12.518014453510101 64.8075
12.540464823770117 64.9678
12.562915677315177 64.90899999999999
12.58534951575545 65.2446
12.607801338171472 66.1034
12.630236146511358 68.5207
12.652688941369085 70.6297
12.675124723177234 70.9915
12.697578494048786 70.0309
12.720032754458185 68.2118
12.742470003354093 67.3297
12.764925245138771 67.652
12.787363476431278 67.9877
12.809819703166806 68.2558
12.83227642391173 68.91199999999999
12.854716135692716 69.8085
12.877173846755147 70.8936
12.899614549869717 71.3417
12.9220732548287 72.6397
12.94453245827299 73.127
12.966974655289818 74.0177
12.989434858002571 74.6093
13.011878055298721 75.4671
13.034339260862497 76.0977
13.056800969391883 77.6656
13.079245674017244 80.6107
13.101708390774869 84.8385
13.12415410463411 94.3001
13.146617833206086 104.18700000000001
13.169064559883248 114.36200000000001
13.191529303857127 129.42700000000002
13.213994557076367 153.89600000000002
13.236442809902437 193.935
13.258909083908291 250.697
13.28135835851934 317.782
13.30382565690295 381.564
13.326293469022952 426.347
13.348744283242008 415.163
13.371213125129904 334.961
13.39366497011003 247.003
13.416134845360597 163.226
13.438605238843131 120.133
13.46105863690397 108.057
13.483530069144786 108.40799999999999
13.505984506951902 113.41799999999999
13.528456981549432 123.51799999999999
13.550929978879088 139.197
13.573385983253365 165.551
13.595860028340867 205.929
13.618317081455832 259.233
13.64079217790333 314.675
13.663250283359057 357.44699999999995
13.685726434770173 371.38699999999994
13.708203115221277 327.143
13.730662806148091 248.798
13.75314054697177 172.015
13.775601299246777 119.884
13.798080104050406 93.9166
13.820559442405358 84.4973
13.843021793671388 81.2629
13.865502201420897 79.7878
13.887965623051947 79.7657
13.910447103807167 78.6656
13.932929122629764 77.3637
13.955394156785959 76.7756
13.977877254034569 75.8235
14.000343367582113 74.9874
14.022827546871707 74.0794
14.045294743423524 73.7326
14.06778000837062 73.0565
14.090265817715476 72.9757
14.112734645763819 72.5662
14.13522154619454 72.1815
14.157691466286913 72.1034
14.180179461423874 71.8327
14.202668005486178 71.2871
14.22513957064374 70.7748
14.247629214846473 70.0974
14.270101881097517 70.0459
14.29259262906496 69.9802
14.315083930490205 70.2744
14.337558255389705 70.2719
14.360050666019726 70.2641
14.382526101071944 69.872
14.405019624534942 69.1469
14.427513705993134 68.8048
14.449990813291825 68.9159
14.47248601302899 68.7086
14.49496423954951 68.7478
14.517460561197822 68.7228
14.539939910570322 68.6624
14.562437357763558 68.979
14.58493536931253 69.5873
14.607416409993311 69.9934
14.62991555254159 70.3836
14.652397725157423 70.6094
14.674898002342799 70.5704
14.697398848433282 70.5756
14.719882725991326 71.9871
14.74238471217934 74.2386
14.764869730765593 77.6444
14.787372860692983 80.5886
14.809876564079925 84.7037
14.83236330125751 90.7344
14.854868153850365 99.9741
14.877356041159485 114.294
14.899862046604186 133.877
14.922351087688757 159.744
14.944858249632887 188.24099999999999
14.967365991421232 212.403
14.989856770231246 225.595
15.012365673994204 215.045
15.03485761569738 180.11900000000003
15.05736768508665 138.814
15.07987833888692 107.736
15.102372032001655 86.455
15.124883856909658 75.536
15.14737872204565 71.7568
15.169891721717274 70.273
15.192405310371893 69.9619
15.214901940621196 70.3766
15.237416709527137 69.7951
15.259914520936249 69.6476
15.282430473753607 68.6689
15.304947020131227 68.0305
15.327446610371178 67.742
15.349964346154254 66.8408
15.372465126703139 66.7949
15.394984055556009 66.7676
15.417486030076159 66.5215
15.44000615566487 66.0242
15.462526881230803 65.9665
15.485030653812652 65.9736
15.507552581617434 65.5032
15.530057557334603 65.8304
15.55258069104857 65.9384
15.575104429329837 65.9524
15.597611216864632 65.9918
15.620136166564563 66.7661
15.6426441664095 68.6795
15.665170331202765 71.2362
15.687697105158826 73.847
15.710206930593545 77.1399
15.732734925158933 80.819
15.755245972089478 87.6007
15.77777519094324 97.2731
15.800287463046663 110.991
15.822817909869592 130.757
15.84534897229804 152.534
15.867863089299354 175.96099999999998
15.890395385222186 191.958
15.912910736597423 194.77900000000002
15.935444269699861 176.005
15.957978423016485 148.412
15.980495633101265 115.06200000000001
16.003031029129367 90.821
16.02554948280019 73.8905
16.048086125229432 66.3869
16.070623392487107 63.8281
16.09314371869582 63.1756
16.11568223789321 62.1891
16.13820381691126 61.5588
16.160743591742527 60.9914
16.183283996022084 60.2871
16.205807461423195 59.2615
16.228349126881973 58.7496
16.25087385432698 58.6453
16.27341678466365 57.9631
16.29594277784926 57.8987
16.31848697676433 57.9112
16.341031811604868 57.6775
16.36355971058487 57.6469
16.3861058195587 57.5617
16.40863499352978 56.7695
16.431182380342005 56.3311
16.453730407713202 55.8811
16.476261501364792 55.7066
16.498810812136167 55.4208
16.52134319004079 55.5381
16.54389378792203 55.3833
16.566445031001553 55.3485
16.588979342490088 55.1281
16.61153187824822 55.1313
16.634067483263312 54.9432
16.656621315414416 54.7232
16.679175797408888 54.3777
16.701713349928728 54.3785
16.72426913389191 54.5831
16.74680798922351 54.5565
16.76936507887444 54.5668
16.791905240734874 54.7133
16.814463639794468 54.7638
16.837022695210294 54.7869
16.859564824093756 55.0019
16.882125194503903 55.2693
16.904668639217885 55.5266
16.927230328348003 55.7355
16.949792678493612 55.9666
16.972338104193863 55.57899999999999
16.994901778652235 55.3922
17.017448529496576 55.3004
17.040013531998152 55.9251
17.06257920018044 56.657
17.0851279459922 57.4257
17.107694947817667 57.9365
17.130245028099072 58.825
17.15281336730298 60.1152
17.17536478578733 61.9134
17.19793446610687 64.3382
17.220504818648422 67.4509
17.243058251703697 70.8584
17.265629950971032 75.4409
17.288184731571736 79.8366
17.310757781306908 83.1493
17.33333150794385 84.5883
17.355888317140174 81.3055
17.37846339986244 75.6143
17.401021565958885 69.6801
17.42359800851343 64.5879
17.44617513265564 61.5105
17.468735341390783 59.9552
17.491261035594565 59.0208
17.51396340099364 59.0435
17.536490463869136 59.0576
17.559018209820174 59.135
17.58154663977963 59.3725
17.604251766089718 59.3269
17.626781572227713 59.5811
17.64931206518155 59.8926
17.671843245885103 60.3673
17.69455114821572 60.3615
17.717083712612634 60.766999999999996
17.739616967569667 60.9595
17.762150914021706 61.3745
17.78486160749854 61.6832
17.807396945166804 62.7038
17.829932977143503 63.9947
17.85246970436452 65.6159
17.875183204129467 67.1232
17.897721330097664 69.09100000000001
17.920260154126645 71.2527
17.942799677153296 74.6733
17.9655159983646 78.7467
17.988056927677544 84.3273
18.010598558807683 92.5167
18.033140892692916 102.876
18.05586005052525 114.037
18.07840379824407 125.906
18.10094825154059 135.648
18.12366954819864 141.51
18.146215420998306 139.264
18.16876200220057 130.094
18.191309292745153 114.175
18.214033452627167 100.508
18.236582170236648 89.775
18.259131600016456 85.876
18.281681742907335 86.9171
18.304408781233683 91.4203
18.32696035875955 96.3336
18.349512652227624 101.39399999999999
18.372065662579683 105.195
18.394795594587553 105.323
18.41735004715306 100.87100000000001
18.43990521943684 93.5341
18.46246111238171 83.7788
18.485193953325208 74.8031
18.507751296070428 68.4256
18.530309362314178 64.9091
18.552868153000343 63.1131
18.57560391815056 61.9249
18.59816416623245 61.5139
18.620725141597372 61.1757
18.643286845190268 60.7314
18.666025549835414 60.2668
18.688588718427933 59.6305
18.711152618092243 59.5166
18.73389353884365 59.1626
18.75645890921984 58.7903
18.77902501351406 58.5783
18.801591852673102 58.5699
18.824335739722738 58.0563
18.846904057212626 57.8475
18.8694731124168 57.7141
18.89204290628315 57.7075
18.914789774966803 57.5951
18.937361054791623 57.2374
18.959933076131318 57.0241
18.982505839934877 56.7625
19.00525570560582 57.1065
19.027829963004184 56.5304
19.05040496572238 57.0292
19.072980714710468 57.1756
19.095733592739563 57.2139
19.11831084296757 57.3988
19.140888842324735 57.6652
19.16346759176222 57.924
19.18622349753803 58.43
19.208803755869358 59.4795
19.231384767143577 60.8612
19.253966532312948 62.6591
19.276725481241822 64.6392
19.29930876296784 67.317
19.3218928014549 70.2673
19.34465404436217 73.0506
19.36723960516257 75.3641
19.389825925592426 76.07600000000001
19.412413006605938 74.4526
19.43517731967805 70.8398
19.457765930683355 66.446
19.48035530514408 61.8944
19.50294544401556 58.2062
19.525712842708348 56.0117
19.54830451925909 54.8737
19.570896963095727 53.8904
19.593490175174704 53.8546
19.616260674962184 53.9309
19.638855432416964 53.6004
19.661450960992624 53.7384
19.68404726164677 53.3393
19.706820878021247 53.1556
19.729418731756834 53.3141
19.752017360452857 53.3078
19.77461676506804 53.5979
19.797393513540218 53.714
19.819994478951667 53.9641
19.84259622316767 54.4092
19.8651987471481 54.6757
19.887978643247177 54.8083
19.91058273574792 55.5253
19.933187610901943 56.3618
19.955969879466828 57.5388
19.97857632894404 59.1081
20.00118356396599 60.9559
20.023791585494575 63.1676
20.046577028914875 65.8032
20.069186632506966 67.8541
20.091797025500632 69.2229
20.114408208858933 69.4668
20.137196842715273 68.8989
20.159809615886765 67.4828
20.18242318232135 65.1691
20.20503754298326 63.1147
20.227829382875154 62.1953
20.250445341109344 62.2561
20.27306209647285 63.0699
20.29567964993108 64.0844
20.31847471147704 65.1784
20.34109387027612 65.524
20.363713830075454 64.7441
20.386334591841646 63.2259
20.409132890679302 60.4921
20.431755265564437 57.3736
20.454378445325528 54.9602
20.477002430930366 52.9022
20.499803982716553 51.7539
20.522429589228004 51.0248
20.54505600449589 50.6251
20.567683229489194 50.5553
20.590488049900088 50.3249
20.61311690359731 50.2861
20.63574656993626 50.0565
20.658553853717297 49.4043
20.681185154618298 49.4871
20.703817271080066 49.4353
20.72645020407368 49.0645
20.749260783967177 48.9111
20.771895359337133 48.9288
20.794530754161617 48.9102
20.817166969412938 48.8115
20.83998086114876 48.8201
20.86261872660049 48.6688
20.885257415405402 48.8966
20.90789692853701 48.5638
20.930714147864748 48.5216
20.953355319030678 48.6095
20.97599731745334 48.6777
20.99864014410749 48.5923
21.021460706796564 48.6179
21.044105199328826 48.8645
21.06675052302631 48.9686
21.089396678865015 49.1438
21.112220600704806 49.363
21.134868430275347 49.7909
21.15751709492456 50.2462
21.180166595629693 50.4708
21.202993892429635 50.905
21.22564507473034 51.1408
21.24829709602816 51.2944
21.27112693608965 51.403999999999996
21.293780644891275 51.3616
21.316435195634053 50.6011
21.339090589297417 49.799
21.361923832041875 49.333
21.384580921090404 48.6765
21.407238856007325 48.2986
21.429897637773326 48.3251
21.45273429906592 48.3877
21.475394784108598 48.2898
21.498056118951983 48.2509
21.520718304578022 48.4085
21.543558400304388 48.692
21.566222297108816 48.9077
21.58888704765135 49.1904
21.61155265291521 49.455
21.63439619898156 49.9792
21.657063523335786 49.9803
21.67973170537063 50.4348
21.7024007460706 50.9932
21.72524775840385 51.7916
21.747918526116475 53.0388
21.770590155457388 54.3693
21.79326264741238 55.9422
21.816113141960237 57.593999999999994
21.838787368860547 59.5718
21.861462461341976 61.4658
21.884315579735777 63.20399999999999
21.90699241312273 64.0702
21.92967011506078 64.8616
21.95234868653799 64.111
21.9752053151131 62.5894
21.997885635446785 60.5899
22.020566828293532 58.8903
22.04324889464272 57.1056
22.066109049404666 56.1677
22.088792872571794 56.0015
22.111477572219204 55.9684
22.1341631493376 56.0579
22.157026846313123 55.6464
22.179714188221507 55.0241
22.202402410582668 53.7821
22.22509151438863 52.3231
22.24795876962584 51.1019
22.270649646204486 50.0885
22.293341407213727 49.5342
22.316034053646906 49.0064
22.338904883215342 48.7557
22.36159931041458 48.846000000000004
22.38429462602756 48.674
22.40699083104897 48.6782
22.429865251039757 48.5399
22.452563244831367 48.6234
22.47526213102522 48.6864
22.49813925616515 48.7903
22.520839937143307 48.6013
22.543541513520587 48.5784
22.56624398629403 48.3906
22.589124730075895 48.4885
22.611829005656723 48.7823
22.63453418063466 48.6365
22.657240256008077 48.8429
22.680124634582935 48.9997
22.70283252079775 49.2889
22.725541310413075 49.5339
22.74825100442868 49.8389
22.771139033969575 50.2705
22.79385054687155 50.5158
22.81656296718292 51.3384
22.83927629590484 52.1087
22.862167992606945 53.20399999999999
22.88488314827121 54.3933
22.907599215359284 55.3965
22.93031619487366 56.2612
22.953211574954405 57.3232
22.975930389478226 57.8545
22.998650119445763 58.0052
23.02137076586092 57.05
23.044269845560063 55.3794
23.06699233506288 53.9049
23.089715744034912 52.0519
23.112617610931565 50.7784
23.135342869061212 49.5708
23.158069049684816 48.8435
23.1807961538087 48.7393
23.20370174880544 48.7156
23.226430710184808 48.8279
23.249160598093425 48.9512
23.271891413539002 48.7932
23.294800752937697 48.7255
23.31753343374794 49.0162
23.340267045128353 49.2835
23.36300158808808 49.6275
23.38591468821339 49.8717
23.408651104658304 50.3047
23.431388455719986 50.9913
23.454126742409 51.9182
23.4770436196085 52.9126
23.499783787914662 54.2316
23.522524894889884 55.2674
23.54526694154616 56.2411
23.56818761219047 57.2527
23.59093154860734 57.7528
23.613676427751283 57.7738
23.636422250635754 56.6151
23.659346731118656 54.9839
23.68209445191868 52.8857
23.704843119509587 50.9034
23.72759273490623 49.2253
23.750521041644767 47.81100000000001
23.77327256312355 46.9879
23.796025035462787 46.4954
23.818956224555475 46.0178
23.841710609113413 45.9244
23.86446594758979 45.6654
23.887222241002014 45.4456
23.910157285144578 45.1157
23.932915498962537 45.2077
23.955674670778713 45.0042
23.978434801611975 44.8959
24.001373717286125 44.745
24.024135776723917 44.5112
24.046898798245582 44.376000000000005
24.06966278287146 44.3525
24.092605586582614 44.0304
24.115371508023642 44.1586
24.1381383956401 43.9464
24.16090625045381 43.8862
24.183852958731244 43.7471
24.206622758582608 43.6059
24.229393528706886 43.498000000000005
24.252165270127392 43.6572
24.27511589952438 43.5382
24.297889594216997 43.2227
24.32066426328598 43.1338
24.34343990775613 43.1946
24.36639447485003 43.1309
24.38917208083877 43.0784
24.41195066531332 43.0264
24.43490819850244 43.1006
24.457688750692377 42.9565
24.48047028445616 42.9074
24.503252800821233 42.9112
24.526214300784112 43.0054
24.548998793132213 43.083999999999996
24.57178427117417 42.9826
24.59457073593893 42.9443
24.617536219319863 42.8951
24.64032466834748 42.9905
24.663114107195035 42.7989
24.685904536893013 42.4155
24.708874020360852 42.5054
24.731666442613744 42.3469
24.754459858818787 42.2875
24.777254270007962 42.2336
24.80022777025625 42.1382
24.82302418230472 41.9993
24.845821592443674 42.1395
24.86862000170663 41.9452
24.891597535453727 42.0535
24.914397953892728 42.2975
24.93719937456671 42.2146
24.96000179851076 42.431999999999995
24.98298338249997 42.6594
25.00578782394922 42.8348
25.028593271784167 42.8545
25.05157790644186 43.2374
25.07438537804115 43.3536
25.097193859145293 43.6017
25.120003350792075 43.8891
25.142992065061257 44.0981
25.165803588823465 44.472
25.18861612625217 44.674
25.211429678386736 44.6531
25.234422489079968 44.7441
25.257238081693636 44.6894
25.280054692141732 44.772
25.3028723214652 44.8023
25.325869245420463 44.8434
25.348688923599397 44.8626
25.371509623787006 44.8914
25.394331347025812 44.4237
25.41733240110666 43.9249
25.440156181590016 43.1621
25.46298098826268 42.8337
25.48580682216873 42.2686
25.50881202326435 41.6889
25.53163992281684 41.36
25.55446885274561 41.0849
25.577298814096377 40.9755
25.600308179121807 40.7641
25.623140214533745 40.7306
25.64597328451537 40.811
25.66898578564376 40.5506
25.691820936010206 40.3493
25.714657124097695 40.5182
25.737494350954734 40.4938
25.760511045684957 40.3087
25.783350361364224 40.3699
25.806190718969255 40.3946
25.82903211955018 40.4782
25.852053024868923 40.5742
25.874896522722523 40.6561
25.897741066713106 40.5659
25.920586657892454 40.6406
25.943611790812668 40.7965
25.966459487728237 41.0302
25.989308234998564 41.0764
26.01215803367705 41.4967
26.03518741123814 41.453
26.05803932412957 41.7076
26.080892291600094 41.6407
26.10374631470478 41.4738
26.12677995397268 41.7785
26.14963609978026 41.4597
26.172493304397875 41.1573
26.19535156888223 41.0088
26.218389486949604 40.702
26.241249882640123 40.3345
26.26411134137826 40.1969
26.28715248187403 40.1577
26.31001607820869 40.0631
26.3328807407756 39.8656
26.35574647063438 40.0079
26.37879191991473 40.0861
26.401659795896734 40.1125
26.424528742360263 40.2524
26.447398760366614 40.3565
26.470448535598294 40.606
26.49332070826805 40.7889
26.516193955675355 41.0747
26.53906827888316 41.1808
26.562122397260108 41.3643
26.584998883685063 41.7717
26.607876449110325 41.908
26.63075509460056 42.0494
26.65381357334404 42.3321
26.67669439061878 42.2091
26.699576291163382 41.9162
26.722459276044212 41.8692
26.745522132402975 41.5252
26.768407297649354 41.3092
26.791293550442003 40.8834
26.814180891848974 40.6681
26.837248143099337 40.4942
26.860137673466657 40.304
26.88302829566349 40.1051
26.90592001075963 39.9765
26.92899167420566 39.7104
26.951885586870763 39.2635
26.974780595655517 39.1324
26.99785558178161 39.0878
27.020752794605112 39.007
27.043651106772522 38.7482
27.06655051935668 38.8163
27.089629948036183 38.6076
27.112531573292053 38.6537
27.135434302194138 38.766
27.158338135817015 38.4012
27.181422024430987 38.5865
27.204328079372566 38.4216
27.22723524226965 38.4363
27.250143514198573 38.5189
27.273231880156334 38.5086
27.296142382065014 38.3528
27.319053996245536 38.3561
27.341966723775965 38.4244
27.365059584515222 38.4013
27.38797455070062 38.5889
27.410890633481237 38.384
27.433807833936918 38.4139
27.456905206923906 38.5211
27.47982465472398 38.4802
27.502745223449743 38.519
27.525666914182825 38.6108
27.548768816912457 38.5069
27.571692763693633 38.4219
27.59461783573812 38.1874
27.617723149491244 38.0296
27.640650484125285 38.0634
27.66357894728264 38.0301
27.686508540048052 38.018
27.709618414237887 37.9277
27.732550278321757 37.7125
27.755483275279115 37.8253
27.778417406196485 37.8929
27.801531858397514 37.8655
27.824468269376716 37.8757
27.847405817586786 37.8548
27.870344504116094 37.9338
27.893463551932008 38.0174
27.916404527281053 38.321999999999996
27.93934664422563 38.5055
27.962289903855886 38.4178
27.98541356491974 38.6862
28.00835912214229 38.8421
28.03130582533231 38.9605
28.054253675581805 39.1225
28.077381967556104 38.9755
28.100332124185126 38.9488
28.123283431160893 38.7965
28.146235889577238 38.6759
28.169368830154156 38.4858
28.192323603752033 38.3502
28.215279532083304 38.0256
28.238415973016764 37.7994
28.261374223145094 37.7185
28.284333631303806 37.5402
28.307294198589954 37.2655
28.330435319167677 37.0587
28.353398217078915 36.912
28.376362277420153 36.6548
28.39932750129032 36.4931
28.422473319286713 36.3686
28.44544088262495 36.3407
28.468409612800283 36.2984
28.491379510913497 35.9999
28.51453004413313 35.9235
28.53750229057244 35.9355
28.56047570826344 35.8124
28.583450298308804 35.897
28.606605564586562 35.7867
28.629582511831156 35.7104
28.65256063474956 35.4039
28.675539934446338 35.5477
28.698699951647605 35.4986
28.72168161743193 35.5004
28.74466446331978 35.5325
28.767648490417624 35.4194
28.790813276438353 35.429
28.813799678527303 35.2968
28.836787265157085 35.3722
28.859955641890075 35.3482
28.882945610203045 35.3963
28.905936766392035 35.2382
28.928929111566863 35.274
28.952102288520145 35.2697
28.975097024308607 35.1728
28.998092952423807 34.8952
29.021090073977508 34.881
29.04426806913204 34.8266
29.067267590245258 34.6083
29.090268308143695 34.4931
29.11327022394099 34.4987
29.13645305530891 34.3408
29.159457379627167 34.3574
29.18246290519685 34.3018
29.20546963313352 34.2922
29.22865731875826 34.3161
29.25166646419296 34.3862
29.27467681535305 34.2316
29.29768837335608 34.242
29.320880931312562 34.2412
29.34389491580634 34.289
29.366910110507334 34.1929
29.38992651653503 34.2154
29.41312396492981 34.1871
29.436142806456754 34.0411
29.45916286268059 33.9182
29.48236399319994 33.7993
29.50538649169417 33.7463
29.528410208259935 33.6645
29.55143514402014 33.4627
29.574641196749695 33.4281
29.597668583816574 33.2767
29.6206971934585 33.0413
29.64372702680042 33.1362
29.666938019934474 33.0107
29.689970313635285 32.9449
29.713003834422636 32.8438
29.73603858342347 32.8599
29.759254535188578 32.8346
29.78229175361658 32.8219
29.80533020365064 32.8172
29.82836988641968 32.8244
29.85159081507472 32.7176
29.874632976355343 32.7327
29.89767637376955 32.7837
29.920721008448314 32.5264
29.9439469322847 32.6369
29.96699405457564 32.4986
29.9900424175358 32.5236
30.013092022298157 32.5315
30.03632295963995 32.5098
30.059375061131373 32.4049
30.08242840783577 32.4345
30.105483000888153 32.4928
30.128718970092244 32.2858
30.151776069006917 32.3448
30.17483441768648 32.3861
30.198074175317235 32.3078
30.221135036724256 32.3068
30.24419715131772 32.2338
30.267260520236203 32.2462
30.290505341942243 32.29
30.313571232750228 32.3397
30.336638381310948 32.2148
30.35970678876503 32.1421
30.38295669299435 32.1713
30.40602763151657 32.1656
30.429099832366074 32.1114
30.452173296685572 32.0642
30.47542830191959 32.1725
30.498504306502497 31.9782
30.521581577995562 32.09
30.544660117543582 32.1462
30.56792024229725 32.1628
30.59100133132069 32.0022
30.614083691845494 32.0201
30.637167325018545 32.1398
30.660432587840603 32.2612
30.683518779717886 32.1819
30.70660624769615 32.2014
30.729694992924372 32.1026
30.75296541239743 32.2007
30.77605672557558 32.0793
30.799149319462742 32.0166
30.8224236211637 31.9525
30.845518789950724 31.871
30.868615242910597 31.7324
30.891712981195973 31.5291
30.91499247215866 31.5389
30.938092794619365 31.4568
30.96119440587579 31.3792
30.984297307082752 31.3019
31.00758200598383 31.2694
31.030687500658694 31.1085
31.053794288760695 31.1839
31.076902371446767 31.02
31.100192296997445 31.1117
31.12330298246119 31.0471
31.14641496599209 30.9552
31.169528248749216 30.9873
31.19282341969534 30.7921
31.215939314557186 30.8659
31.239056512134788 30.9166
31.262175013589378 30.8364
31.28547544871168 30.7678
31.30859657161541 30.7398
31.331719001892175 30.73
31.35484274070538 30.9626
31.378148458819545 30.8054
31.401274828443725 30.8425
31.424402510106933 30.8825
31.447712205419993 30.8763
31.470842524931633 30.8049
31.493974159989783 30.7578
31.51710711176168 30.703000000000003
31.54042212308802 30.7913
31.563557722100917 30.7445
31.586694641341655 30.5501
31.609832881979628 30.3862
31.63315322823208 30.3553
31.656294125521327 30.3212
31.679436347728515 30.1867
31.70257989602529 30.1794
31.725905596152327 30.1267
31.74905181052835 30.0674
31.772199354521323 30.1783
31.79534822930507 30.134
31.818679302290967 30.1786
31.84183085259981 30.0301
31.864983737233473 30.1877
31.88813795736804 30.0859
31.911474422233013 30.0221
31.934631327356435 30.1445
31.9577895715215 29.9958
31.980949155906522 29.9921
32.004291031706956 29.9219
32.027453310562606 29.8444
32.05061693318573 29.7989
32.07396288236386 29.8123
32.09712920658542 29.7406
32.12029687812702 29.595
32.14346589817093 29.4639
32.166817291729984 29.4357
32.18998902288583 29.4352
32.21316210610336 29.3829
32.23633654256711 29.2489
32.259693399663725 29.1966
32.282870556771144 29.135
32.30604907069099 29.1285
32.329228942610065 28.9457
32.35259128243769 28.94
32.375773884550505 28.855999999999998
32.398957848235646 28.8462
32.422143174682176 28.8821
32.445511016471215 28.7203
32.468699082679954 28.6975
32.49188851523011 28.6089
32.51507931531304 28.535
32.538452678331 28.5858
32.56164622776311 28.5592
32.58484114831493 28.4341
32.60803744118015 28.441999999999997
32.631416344731896 28.4396
32.654615396551876 28.3873
32.67781582427913 28.4107
32.701198898634416 28.3609
32.72440209253756 28.2124
32.747606665947124 28.2931
32.77081262006088 28.1125
32.79420126883317 28.1615
32.81740999876112 28.1575
32.840620112999424 28.1078
32.86383161274818 27.954
32.88722585534586 27.9756
32.91044014056596 27.9935
32.933655814909734 27.9116
32.95687287957963 27.9073
32.98027273544904 27.796999999999997
33.00349259526636 27.8027
33.026713849030116 27.871
33.04993649794511 27.8479
33.073341986570746 27.715
33.09656744032826 27.755
33.11979429286444 27.7886
33.14302254538647 27.7368
33.166433686291185 27.6985
33.18966475336992 27.5702
33.212897224069096 27.5514
33.23613109959831 27.6277
33.259547912343415 27.4935
33.2827846121627 27.5532
33.306022720453775 27.4506
33.32926223842861 27.3153
33.352684742614166 27.2687
33.37592709463173 27.319000000000003
33.399170859982064 27.3102
33.422597648419426 27.1792
33.44584425514446 27.076
33.46909227885668 27.1301
33.4923417207723 26.9354
33.51577423505344 26.9867
33.539026528130385 26.8532
33.56228024307245 26.8362
33.585535381098246 26.6925
33.60897364093058 26.6808
33.63223163992385 26.7196
33.6554910656699 26.5776
33.678751919389796 26.5648
33.702195944520106 26.6163
33.72545966903325 26.546999999999997
33.74872482519663 26.4397
33.771991414233746 26.3408
33.79544122444841 26.4278
33.81871069412428 26.2161
33.84198160035767 26.254
33.86525394437455 26.4481
33.88870955949969 26.316
33.911984794020626 26.2849
33.93526147001624 26.2196
33.958539588715006 26.1628
33.98200102861669 26.1511
34.0052820477047 26.0169
34.02856451319451 26.0237
34.05203033759056 25.9158
34.07531571090147 25.9682
34.09860253431845 25.8607
34.121890809074316 25.8232
34.145362493118924 25.7844
34.16865368561615 25.7051
34.191946333164054 25.6794
34.21524043699793 25.7195
34.23871800066799 25.7192
34.26201503218366 25.5252
34.28531352370466 25.6221
34.30861347646881 25.5106
34.33209693978188 25.5104
34.3553998301885 25.4832
34.378704185565205 25.4512
34.402010007152356 25.3171
34.42549939016683 25.2366
34.44880815937748 25.2805
34.472118398533134 25.2688
34.49543010887669 25.2526
34.51892543169198 25.0618
34.54224009966052 25.0951
34.56555624255917 25.1263
34.58887386163339 24.9915
34.61237514439016 24.8931
34.6356957311114 24.9281
34.65901779775809 24.8851
34.68252356662995 24.8939
34.705848608458616 24.8731
34.72917513396849 24.7905
34.75250314440949 24.7883
34.77601490857862 24.7504
34.799345904259795 24.6258
34.82267838863559 24.6511
34.846012362958525 24.5742
34.869530142679984 24.5105
34.89286711232212 24.4917
34.91620557568269 24.5473
34.93954553401677 24.533
34.9630693495876 24.4124
34.986412313340814 24.3814
35.00975677584668 24.4174
35.033102738362956 24.3393
35.05663261012228 24.2477
35.0799815881786 24.3186
35.10333207003229 24.1788
35.12668405694369 24.1948
35.150220005273056 24.1912
35.17357501786656 24.1453
35.19693153931268 24.1242
35.220289570874385 24.1542
35.24383161619786 24.1487
35.267192683604904 24.1248
35.290555264930376 23.9564
35.314101899412165 24.0109
35.33746752422433 23.9932
35.36083466676374 24.0615
35.38420332829803 23.9478
35.407756095629054 23.9462
35.43112781085063 23.9368
35.45450104888391 23.9555
35.477875810999194 23.8997
35.50143473172161 23.7773
35.52481255774625 23.8028
35.54819191167777 23.7368
35.57157279478914 23.7801
35.595137889488406 23.6479
35.61852184675279 23.6003
35.641907337029984 23.5907
35.665294361595684 23.5475
35.68886565090076 23.5273
35.7122557598848 23.5089
35.73564740699838 23.4347
35.759040593519934 23.4394
35.78261809810353 23.4084
35.80601437933051 23.3692
35.829412203814705 23.2623
35.85281157283719 23.163
35.876395313415884 23.2818
35.8997977874528 23.214000000000002
35.92320180988546 23.1443
35.946790244133936 23.0444
35.97019737933222 23.0351
35.993606066789866 23.0297
36.01701630779276 23.0793
36.04061101440684 23.0592
36.06402437852291 22.9669
36.08743930005611 22.9718
36.1108557802951 22.8496
36.13445678011326 22.9289
36.15787639383515 22.8405
36.18129757014299 22.7607
36.20472031032821 22.6954
36.22832762423364 22.635
36.25175350829375 22.6823
36.275180960119776 22.5563
36.298609981005924 22.6045
36.32222362992669 22.6396
36.34565580510207 22.5447
36.36908955323448 22.4725
36.39252487562093 22.3778
36.416144880530226 22.3429
36.43958336764275 22.4078
36.463023432914625 22.3949
36.486465077645676 22.3109
36.51009145956204 22.3312
36.53353627947859 22.3337
36.55698268276811 22.3304
36.58043067073321 22.283
36.60406345072071 22.1092
36.62751462435344 22.164
36.65096738658405 22.1919
36.67460498210655 22.1302
36.69806093788647 22.0754
36.72151848619297 21.9962
36.744977628333636 22.0671
36.76862165890998 21.9997
36.79208400512205 21.9318
36.81554794910557 21.8951
36.83901349217101 21.8177
36.862663978991606 21.8211
36.88613273667352 21.79
36.90960309738324 21.7204
36.933075062434064 21.7189
36.95673202673572 21.6294
36.98020721697122 21.6408
37.003684015502365 21.6097
37.027162423645365 21.5847
37.050825886711465 21.5503
37.07430753063053 21.5131
37.09779078812467 21.4305
37.121275660513014 21.4572
37.144945643673694 21.4193
37.16843376245278 21.3936
37.19192350009803 21.377
37.215414857931435 21.2699
37.239091382563885 21.2026
37.262585997426164 21.1951
37.28608223645736 21.1712
37.309763684451696 21.1351
37.33326318851098 21.1363
37.356764320726555 21.0942
37.380267082425526 21.0988
37.40395510942588 21.0725
37.42746114683234 21.0267
37.45096881771841 20.9494
37.474478123414166 20.9447
37.49817275092816 20.8528
37.52168534303452 20.8764
37.54519957395567 20.7813
37.568715445024665 20.7538
37.592416694607714 20.7558
37.61593586281424 20.7705
37.63945667518264 20.7522
37.66297913304891 20.6237
37.68668702630454 20.6204
37.710212792059274 20.6006
37.733740207334854 20.5848
37.757269273470364 20.488000000000003
37.780983832050374 20.4638
37.80451621684926 20.5169
37.82805025654007 20.4381
37.851585952464795 20.3898
37.8753071980695 20.336
37.89884622345676 20.271
37.92238690911902 20.2821
37.94611318753442 20.238
37.969657210779765 20.2813
37.99320289834801 20.2254
38.016750251586465 20.1167
38.04048325513017 20.1423
38.06403395679343 20.1219
38.087586328183946 20.0915
38.11114037065203 20.0869
38.13488012115898 20.0374
38.1584375229181 19.9436
38.181996599821 19.9438
38.205557353221124 19.9199
38.229303872575656 19.8965
38.2528679961576 19.8707
38.27643380031219 19.8703
38.30000128639589 19.7962
38.32375459653193 19.7955
38.34732546371299 19.7554
38.37089801690786 19.6848
38.39447225747609 19.6691
38.418232380377425 19.548
38.441810012983396 19.6371
38.46538933705673 19.6475
38.488970353960084 19.6265
38.51273731166058 19.5128
38.536321731567014 19.4413
38.55990784840681 19.4232
38.58367995004091 19.3944
38.60726947812959 19.3816
38.63086070726198 19.4258
38.654453638806274 19.2786
38.678232613930824 19.2554
38.70182896773327 19.2299
38.72542702806741 19.156
38.7490267963045 19.159000000000002
38.77281266709232 19.1934
38.79641586862214 19.1772
38.8200207821842 19.0731
38.843627409152944 19.1245
38.86742019782782 19.0345
38.891030269149255 18.9609
38.914642058016156 18.9604
38.938255565806124 18.9527
38.96205529464307 18.8729
38.98567225787121 18.8589
39.00929094417078 18.8208
39.03291135492255 18.8407
39.05671804624804 18.8048
39.080341923549106 18.7894
39.103967529460334 18.7465
39.127594865365744 18.6756
39.15140854155791 18.6908
39.17503935514948 18.6339
39.19867190290282 18.6519
39.22249083587951 18.5799
39.24612686969409 18.6138
39.269764641845306 18.5735
39.293404153722804 18.4643
39.317230110864074 18.4634
39.34087311998506 18.4023
39.36451787301696 18.412
39.388164371352595 18.3096
39.41199737518003 18.3491
39.43564738196752 18.3766
39.45929913825317 18.3484
39.48295264543308 18.3224
39.506792718520884 18.3189
39.530449745387216 18.2555
39.55410852735203 18.1801
39.57776906581474 18.2158
39.60161623079 18.2107
39.625280300200025 18.1246
39.64894613032202 18.0719
39.67261372255866 18.0507
39.6964680021016 18.0429
39.72013913657293 18.0742
39.74381203738292 18.0127
39.76748670593756 17.9605
39.79134812278169 17.9363
39.81502634488497 17.8448
39.83870633896685 17.869
39.862388106436654 17.7779
39.88625668336918 17.8016
39.90994201572829 17.7844
39.933629125719285 17.7363
39.957503091207826 17.7279
39.9811937746168 17.686
40.00488623990914 17.6752
40.02858048850006 17.6294
40.05246165409549 17.6082
40.076159487492085 17.5416
40.099859108448875 17.5356
40.123560518384345 17.549
40.1474489070226 17.5144
40.171153913178564 17.4113
40.194860712584955 17.4202
40.2185693066637 17.3749
40.242464941335314 17.3328
40.26617714307655 17.2864
40.289891143772046 17.3104
40.3136069448471 17.3293
40.33750984859743 17.2875
40.3612292688043 17.2336
40.3849504936829 17.2457
40.40867352466194 17.2344
40.43258372059144 17.1088
40.45631038219906 17.1004
40.48003885420956 17.1062
40.503769138055105 17.1284
40.52768664931955 17.0627
40.55142057531802 17.0284
40.57515631746428 17.0013
40.599079334038514 16.9408
40.62281872700477 16.9063
40.64655994043941 16.9243
40.67030297578061 16.9306
40.69423334835778 16.8687
40.71798004609188 16.8284
40.74172857006355 16.7961
40.76547892171441 16.7389
40.7894166736039 16.7562
40.813170699248566 16.7153
40.83692655691388 16.6551
40.86068424804498 16.6837
40.884629402612525 16.6437
40.908390779366385 16.6402
40.932153993938 16.5915
40.95591904777605 16.548
40.979871628443995 16.5164
41.003640379561936 16.5507
41.02741097430883 16.5184
41.05118341413683 16.5209
41.075143444384416 16.4489
41.098919593177826 16.4066
41.1226975914255 16.3732
41.14647744058318 16.3306
41.170444943946755 16.2755
41.19422851378379 16.2893
41.218013938914645 16.2912
41.24198706625173 16.1823
41.26577622087193 16.2058
41.289567235177785 16.1736
41.31336011063129 16.1741
41.337340752422875 16.1725
41.361137369129835 16.1396
41.38493585138705 16.1087
41.40873620066004 16.0609
41.43272438060107 16.0244
41.45652848292052 15.9621
41.48033445666918 15.9437
41.50414230331616 15.9067
41.528138045159764 15.9164
41.551949656675205 15.8989
41.575763145513235 15.8705
41.59957851314666 15.8608
41.62358184070442 15.7628
41.64740098505737 15.7517
41.6712220126409 15.7847
41.69504492493139 15.6832
41.71905586207357 15.7287
41.74288256296395 15.6567
41.766711153007456 15.6388
41.79054163368412 15.603
41.814560204340054 15.6291
41.838394485526365 15.5838
41.86223066180303 15.5191
41.88625497706819 15.5241
41.910094962812 15.4975
41.93393684811168 15.5049
41.95778063445365 15.3872
41.981812625263366 15.39
42.00566023303407 15.3856
42.029509746323676 15.3631
42.05336116662236 15.3674
42.077400857069705 15.344000000000001
42.10125611078846 15.3004
42.12511327600405 15.2764
42.14897235421036 15.2663
42.173019768448455 15.2068
42.19688269209613 15.1705
42.22074753323349 15.1952
42.24461429335818 15.1583
42.268669455600495 15.1115
42.292540073217886 15.1398
42.31641261433284 15.0752
42.34028708044675 15.0337
42.36435001496739 15.015999999999998
42.38822835065557 15.0042
42.41210861586426 14.9485
42.4359908120986 14.992
42.46006154323262 14.9287
42.48394762115317 14.8436
42.507835634632315 14.8629
42.531912233047436 14.8469
42.55580413732265 14.7806
42.579697981698 14.7872
42.60359376768525 14.762
42.62767820545945 14.7193
42.65157789440821 14.731
42.67547952952185 14.6799
42.699383112316 14.6844
42.72347541395347 14.6476
42.74738291190531 14.6306
42.771292362102166 14.6009
42.795203766063516 14.5248
42.819303956130405 14.5249
42.843219287476536 14.5106
42.86713657716324 14.4205
42.89105582671383 14.4555
42.91516392983864 14.4199
42.939087119032166 14.4265
42.963012272677304 14.3657
42.98693939230129 14.3992
43.01105543317513 14.3438
43.034986504731386 14.329
43.05891954686589 14.3063
43.08285456110972 14.2842
43.10697856448665 14.2178
43.130917542983475 14.2017
43.15485849820081 14.1976
43.17880143167367 14.1855
43.20293342237094 14.1183
43.226880332449 14.1079
43.25082922540554 14.1449
43.27496722682525 14.0892
43.29892010567796 14.0537
43.32287497204102 14.0395
43.34683182745632 14.0181
43.370977859791836 13.9825
43.39493871351105 13.9286
43.41890156092628 13.9159
43.44286640358341 13.8808
43.46702049182749 13.8864
43.49098934522816 13.8685
43.51496019852649 13.8348
43.5389330532723 13.82
43.56309522248204 13.79
43.58707210044314 13.7524
43.61105098451946 13.7255
43.63503187626491 13.7003
43.659202151562134 13.6686
43.68318707902681 13.6833
43.70717401884041 13.610999999999999
43.731162972560874 13.6013
43.75534137913236 13.5836
43.779334381108384 13.5427
43.803329401683186 13.5537
43.82732644241872 13.5097
43.8515130055166 13.5453
43.87551410707659 13.4691
43.89951723350145 13.4622
43.923709934595614 13.3892
43.94771713129917 13.3888
43.97172635758096 13.3992
43.99573761501002 13.3796
44.0199385169922 13.3247
44.04395385732619 13.2817
44.067971233533086 13.2826
44.09199064718605 13.2972
44.11619977548961 13.263
44.14022328470671 13.2067
44.16424883610785 13.2393
44.18827643127035 13.2395
44.21249381139513 13.1508
44.236525514814076 13.0793
44.26055926674478 13.0594
44.28459506876863 13.1242
44.3088207262813 13.0505
44.33286064928722 13.0462
44.35690262714919 13.0043
44.38094666145278 12.9363
44.4051806219871 12.9935
44.42922879003185 12.9654
44.45327901929361 12.9352
44.477331311362136 12.9181
44.501573600619416 12.8073
44.525630039221795 12.7656
44.54968854541895 12.8277
44.573937102200176 12.8435
44.5979997645541 12.7812
44.622064499300315 12.7712
44.64613130803592 12.7615
44.67038823869318 12.7487
44.69445921643748 12.7313
44.718532272981385 12.6829
44.742607409926194 12.6565
44.76687274034801 12.6267
44.79095205918753 12.5757
44.81503346325094 12.5945
44.839116954143876 12.5837
44.86339071028742 12.5574
44.88747839599524 12.556
44.91156817336837 12.4941
44.93566004401666 12.472999999999999
44.959942251908146 12.4327
44.984038330325966 12.419
45.00813650686762 12.4201
45.03223678314731 12.3884
45.05652746888232 12.3538
45.08063196592069 12.3509
45.104738567558705 12.3502
45.128847275414856 12.3073
45.15314646515866 12.2585
45.17725940679741 12.2546
45.20137445952892 12.2222
45.22568004865265 12.203
45.24979934496396 12.184000000000001
45.27392075725247 12.1973
45.29804428714431 12.1414
45.322358426247604 12.1535
45.346486212804315 12.1058
45.370616121861914 12.1035
45.39474815505086 12.0424
45.41907087049246 12.0049
45.4432071734666 12.0237
45.46734560548283 12.0497
45.49148616817604 12.0001
45.51581748638564 11.9612
45.5399623320197 11.9533
45.56410931325473 11.8402
45.58825843173002 11.9043
45.61259837920865 11.873
45.636751793816 11.8458
45.66090735060093 11.8024
45.68506505120716 11.7785
45.7094136545275 11.7219
45.73357566449271 11.6959
45.75773982322992 11.7396
45.78190613238733 11.7537
45.806263418194064 11.6808
45.83043404997326 11.6923
45.85460683713677 11.6657
45.87897065658495 11.6458
45.90314777634752 11.6242
45.92732705646868 11.6261
45.9515084986045 11.5396
45.97588104735473 11.5587
46.00006683541565 11.5012
46.02425479047904 11.5393
46.04844491420549 11.5003
46.0728262191024 11.4917
46.09702070211635 11.4727
46.12121735879483 11.4417
46.14541619080294 11.4336
46.169806278764455 11.4613
46.194009483459034 11.3678
46.21821486849841 11.3408
46.24242243555223 11.3744
46.266821333570014 11.3194
46.29103328674601 11.2619
46.31524742696538 11.2627
46.33946375590237 11.2673
46.36387149104216 11.224
46.38809221957392 11.1411
46.41231514186606 11.186
46.436540259597464 11.1915
46.460956858999374 11.1462
46.48518638983522 11.1388
46.509418121166966 11.1188
46.533652054678114 11.0808
46.55807754555709 11.0491
46.58231590571962 11.0846
46.60655647313217 11.0125
46.630988654873654 10.9777
46.655233659129024 10.9751
46.67948087571551 10.9812
46.70373030632484 10.9316
46.72817142736393 10.9112
46.752425308428684 10.914000000000001
46.77668140861147 10.9356
46.80093972960865 10.84
46.82538981736788 10.8485
46.849652602470904 10.8259
46.87391761349769 10.7838
46.8981848521493 10.7675
46.9226439341274 10.7552
46.946915650573224 10.6975
46.97118959976749 10.6888
46.99546578341598 10.6724
47.019933887188216 10.6803
47.04421456235744 10.6954
47.06849747711879 10.6354
47.09278263318286 10.6021
47.11725978640143 10.5804
47.14154944775105 10.5817
47.165841355555656 10.6095
47.1901355115306 10.5934
47.214621741924994 10.5433
47.23892041698887 10.4919
47.26322134538975 10.4832
47.28771440635075 10.4531
47.31201986422527 10.4207
47.33632758061436 10.4364
47.360637557241866 10.3822
47.38513974410611 10.4029
47.40945426407847 10.3694
47.43377104948137 10.3373
47.45809010204344 10.3214
47.48260144275502 10.315
47.506925052572285 10.309000000000001
47.53125093475548 10.2572
47.55557909103813 10.2597
47.58009961361992 10.2145
47.60443234110732 10.2375
47.62876734791564 10.2117
47.65310463578333 10.1887
47.6776343683373 10.1845
47.7019762413987 10.147
47.72632040075572 10.1179
47.75066684815169 10.0922
47.77520581885936 10.089
47.799556865477655 10.0996
47.823910205386 10.045
47.84826584033272 10.0391
47.87281407745551 9.99112
47.89717432569297 10.0203
47.92153687423484 9.98248
47.94609208429692 9.9495
47.97045925671401 9.97654
47.99482873471275 9.919410000000001
48.01920052005013 9.907789999999999
48.04376504619224 9.87288
48.068141469543484 9.91756
48.09252020552573 9.8685
48.11690125590099 9.83279
48.1414751266064 9.80145
48.16586082917454 9.79933
48.19024885144316 9.775319999999999
48.2146391951793 9.78425
48.239222439012764 9.75785
48.26361744916137 9.73547
48.28801478610016 9.7041
48.31241445160131 9.70068
48.337007097209366 9.706719999999999
48.36141144338331 9.70684
48.38581812345755 9.63575
48.41022713920929 9.667689999999999
48.434829215320704 9.63998
48.45924292604658 9.61486
48.48365897780325 9.58495
48.50807737237308 9.5525
48.532688907799276 9.54632
48.55711201168574 9.52559
48.581537463754074 9.53689
48.60615611725119 9.49824
48.63058628942721 9.50415
48.65501881516546 9.46931
48.6794536962573 9.43951
48.70408185970339 9.4286
48.72852147531801 9.39857
48.75296345168211 9.36378
48.77740779059232 9.40355
48.80204549302823 9.376339999999999
48.82649458091802 9.3677
48.85094603676547 9.30464
48.87539986237231 9.28228
48.90004713292306 9.25204
48.92450572200832 9.25796
48.94896668628025 9.22378
48.97343002754588 9.2351
48.99808689542115 9.21375
49.02255501470614 9.17567
49.04702551642794 9.18709
49.0714984023988 9.14182
49.096164896893235 9.13255
49.120642575466796 9.09614
49.145122643748394 9.10437
49.16960510355558 9.11328
49.19428125404938 9.06974
49.2187685210852 9.061630000000001
49.243258185121555 9.07245
49.26794160167084 9.04203
49.2924360839405 9.00314
49.31693296869764 8.998330000000001
49.34143225776915 8.96001
49.36612538195438 8.97309
49.39062950396021 8.983369999999999
49.41513603578346 8.90444
49.4396449792564 8.87757
49.46434784069503 8.89808
49.488861631846454 8.8602
49.513377840166804 8.84397
49.537896467493745 8.83778
49.56260909589029 8.77806
49.587132585683285 8.791780000000001
49.611658500018365 8.79353
49.636186840738596 8.75277
49.66090926588511 8.767000000000001
49.685442483902584 8.70096
49.70997813385706 8.68402
49.734516217597076 8.66255
49.75924846937352 8.66024
49.7837914452858 8.645489999999999
49.80833686055187 8.60212
49.83288471702571 8.62871
49.85762682540054 8.57146
49.882179588965734 8.56298
49.9067347993235 8.545919999999999
49.93129245833333 8.60188
49.95604445336378 8.548919999999999
49.98060703442832 8.54122
50.005172069746266 8.49691
50.02993150438364 8.48826
50.05450147301533 8.477310000000001
50.07907390151433 8.4522
50.10364879174981 8.45377
50.12841816587289 8.39943
50.1529980044635 8.42118
50.17758031042124 8.39455
50.20216508562089 8.37582
50.22694442953363 8.37139
50.25153416817468 8.34233
50.27612638170508 8.30552
50.300721072005196 8.29631
50.325510416102105 8.2835
50.350110084975064 8.27033
50.37471223628208 8.2674
50.39931687190919 8.26397
50.424116246675766 8.23597
50.44872587605249 8.219610000000001
50.47333799543065 8.20236
50.49795260670191 8.16986
50.52276204271512 8.16643
50.54738166295838 8.146510000000001
50.57200378079314 8.1446
50.596628398116835 8.12533
50.62144792604559 8.11256
50.646077567609396 8.098980000000001
50.670709714377715 8.0878
50.69553683636198 8.08939
50.72017401885922 8.05193
50.7448137122895 8.03457
50.76945591856022 8.01633
50.79429318636823 8.01207
50.818940443716784 7.99919
50.84359021965163 7.97982
50.868242516085964 7.96545
50.893089960641895 7.95653
50.917747323549435 7.923660000000001
50.94240721271973 7.91436
50.96706963007175 7.89917
50.99192728239342 7.87355
51.01659478166073 7.880160000000001
51.04126481489051 7.8575800000000005
51.06593738400761 7.82873
51.090805275207074 7.83144
51.11548294172845 7.807180000000001
51.14016314993547 7.78401
51.164845901758845 7.781839999999999
51.18972406304274 7.73762
51.21441192780656 7.76623
51.23910234200271 7.73762
51.2637953075678 7.70949
51.288683770237945 7.68451
51.31338186432707 7.672339999999999
51.33808251561888 7.65769
51.362978729967345 7.67265
51.387684521509755 7.65875
51.41239287610203 7.6170800000000005
51.437103795691165 7.586710000000001
51.46201036644977 7.5749
51.486726441956634 7.58782
51.51144508832545 7.56729
51.536166307509156 7.5285899999999994
51.56108326624387 7.52067
51.58580965706056 7.5227699999999995
51.61053862657523 7.51198
51.635270176746864 7.4639
51.66019755512065 7.42006
51.68493429268881 7.42212
51.70967361681515 7.424519999999999
51.73441552946465 7.39618
51.759353359237934 7.39884
51.7841004750961 7.39853
51.80885018539685 7.35257
51.833602492111254 7.3459699999999994
51.8585508051424 7.345510000000001
51.883308330926425 7.33265
51.90806845906181 7.278169999999999
51.932831191525715 7.285769999999999
51.95779001977161 7.22527
51.98255798721516 7.19552
52.00732856494335 7.20355
52.03229530577543 7.227180000000001
52.057071130455945 7.215510000000001
52.081849571391054 7.19667
52.106630630568695 7.155810000000001
52.13160794279417 7.1459600000000005
52.15639426492067 7.1741
52.18118321127822 7.16816
52.205974783860896 7.12546
52.23096269971011 7.1519
52.255759551287994 7.10434
52.280559035098186 7.05835
52.30536115314103 7.052339999999999
52.33035970494467 7.0712399999999995
52.35516711807904 7.0437199999999995
52.37997717147198 7.01595
52.40478986713005 7.0453
52.42979908731974 6.986089999999999
52.454617094216 6.966139999999999
52.47943774942214 6.948110000000001
52.50426105495102 6.95343
52.529280976059844 6.9434
52.554109609024096 6.89911
52.57894089837482 6.91697
52.60377484613117 6.89825
52.62880550079408 6.890460000000001
52.65364479223379 6.825810000000001
52.67848674816189 6.83058
52.70352547971946 6.8369800000000005
52.72837279155837 6.814019999999999
52.753222773982785 6.8064800000000005
52.778075429022984 6.7868
52.80312495150885 6.80105
52.827982978797436 6.75108
52.85284368481815 6.733439999999999
52.87770707160767 6.72319
52.90276741793998 6.724880000000001
52.92763619336701 6.68727
52.952507655698504 6.6587
52.977381806977576 6.6821399999999995
53.00245301017842 6.69412
53.02733256653592 6.6993100000000005
53.052214817996074 6.6524399999999995
53.077099766608484 6.630319999999999
53.102181859804446 6.62242
53.127072229988265 6.6333899999999995
53.15196530349892 6.57735
53.17686108239249 6.556989999999999
53.20195409881522 6.550590000000001
53.22685531582556 6.5307
53.25175924441303 6.5292900000000005
53.27666588664027 6.55007
53.30176985962693 6.48378
53.3266819565689 6.50019
53.35159677336455 6.4794599999999996
53.376514312083096 6.4646
53.40162927507703 6.42664
53.42655228516116 6.432259999999999
53.45147802340193 6.405819999999999
53.47660125628886 6.40204
53.50153247842639 6.397469999999999
53.52646643496923 6.3322
53.55140312799818 6.3609
53.576537409691696 6.37226
53.60147960336152 6.326969999999999
53.626424539786164 6.353219999999999
53.65137222105307 6.31543
53.67651758529126 6.30186
53.70147078399681 6.27869
53.72642673383343 6.28264
53.75138543689533 6.27526
53.776541917524526 6.25967
53.801506154876755 6.2470099999999995
53.826473151763246 6.2458
53.851442910284916 6.16364
53.87661054126026 6.21148
53.9015858509782 6.19126
53.92656392866066 6.15996
53.95154477641532 6.0975
53.976723591801296 6.10535
54.00171000771266 6.124709999999999
54.02669920004598 6.14532
54.051691170915745 6.10301
54.076881204886796 6.076169999999999
54.101878760928514 6.10099
54.12687910187696 6.055280000000001
54.152077577768296 6.03775
54.1770835166946 6.0125
54.20209224691339 5.99294
54.22710377055121 5.9274
54.25231352511594 5.91833
54.27733066384342 5.95865
54.30235060239643 5.9722800000000005
54.32737334290836 5.90131
54.35259441062629 5.8754
54.377622783395324 5.896059999999999
54.40265396455061 5.90254
54.42768795623251 5.8771
54.45292037169559 5.81005
54.477960012857906 5.8146
54.50300247099511 5.81046
54.52804774825457 5.796880000000001
54.55329154616743 5.770519999999999
54.57834249018678 5.77436
54.6033962597977 5.68971
54.6284528571545 5.69477
54.653708072335164 5.68732
54.67877035378786 5.6772800000000005
54.70383546947698 5.62341
54.72890342156389 5.634119999999999
54.7541700889442 5.587330000000001
54.77924374251975 5.56926
54.8043202390049 5.54723
54.82959552413022 5.53843
54.8546777351945 5.47545
54.87976279569621 5.50379
54.90485070780914 5.51037
54.930137506558005 5.4859800000000005
54.95523115074295 5.45179
54.98032765308844 5.45444
55.005427015775496 5.4313199999999995
55.03072536339621 5.39993
55.05583047570572 5.35921
55.080938454927676 5.37355
55.10604930325027 5.372240000000001
55.131359235107396 5.35736
55.15647585066083 5.285909999999999
55.181595341907496 5.28523
55.20671771104285 5.26064
55.232039262617704 5.24469
55.25716741665048 5.18655
55.28229845518636 5.25239
55.30743238042802 5.16249
55.33276558731939 5.16834
55.357905315183636 5.1206
55.383047936390035 5.08279
55.40819345314859 5.03926
55.433538351073295 5.081180000000001
55.458689688238415 5.0562
55.483843927614096 4.967890000000001
55.509197623043605 4.99706
55.53435769621134 4.97748
55.55952067826466 4.9326
55.5846865714265 4.92438
55.61005202069737 4.9111
55.63522376553902 4.89846
55.66039842818645 4.85939
55.68557601087004 4.88373
55.7109532500271 4.81009
55.73613670233794 4.79732
