TT I
1.2716486653135266 7.37816
1.2939594142134223 6.876930000000001
1.3162702121660406 6.47534
1.3385810600174564 6.21269
1.3608919586137629 6.06918
1.383202908801069 5.7675
1.405513911425503 5.94612
1.4278249673332093 6.03504
1.4501343378461518 6.1143
1.4724455028545926 5.02543
1.4947567236847858 5.3693800000000005
1.517068001182951 5.53714
1.5393793361953272 5.5353900000000005
1.5616907295681737 5.03164
1.5840021821477681 4.54346
1.60631369478041 5.25331
1.6286252683124185 4.7784699999999996
1.6509369035901333 4.41935
1.6732468618895553 5.00264
1.695558623192809 4.66754
1.7178704487808514 4.9511199999999995
1.7401823395001077 4.9248
1.7625012545597203 4.32298
1.7848028405262486 4.386769999999999
1.8071218901122095 4.29689
1.8294236121921872 4.23388
1.8517427996910911 4.18166
1.8740620574440425 4.5216199999999995
1.8963639900671978 4.50293
1.9186833908139995 4.30356
1.9409854680117449 4.4869
1.9633050151394713 4.48853
1.9856246367570705 4.23716
2.0079269371922672 4.52413
2.03024671027244 4.13858
2.0525491637446027 3.54929
2.074869091674931 3.62905
2.097171701569106 4.01799
2.1194917877373847 4.26843
2.141811954326636 4.4074
2.164114805233074 4.1207400000000005
2.186435135143035 4.46552
2.208738150935709 5.14043
2.231058647554722 6.5354
2.2533792288321184 6.20078
2.275682498336085 5.34114
2.298003251406138 5.157019999999999
2.3203066942619714 5.18503
2.3426276225136022 5.0277199999999995
2.3649486396617507 5.16234
2.387252348930071 6.37398
2.4095735463442893 6.19744
2.4318774374315884 5.231319999999999
2.4541988185014043 5.59205
2.476502894794693 6.7568600000000005
2.498824462909887 7.212689999999999
2.521146125856138 7.62246
2.5434504863470337 7.74898
2.5657723414244717 8.79798
2.588076895590662 8.15617
2.610398946189713 7.9215
2.6327210958598384 8.41424
2.6550259469304716 8.25117
2.6773482972090137 8.35455
2.6996533504259 8.64807
2.7219759047039602 8.227839999999999
2.744298562293959 7.708080000000001
2.7666039251246595 8.197280000000001
2.7889267918020164 7.889139999999999
2.8112323652516555 8.08436
2.833555444408179 8.85678
2.8558786311183852 8.83775
2.8781845268938557 8.81596
2.9005079311721484 9.00568
2.9228140460410397 9.42195
2.9451376712799635 8.98675
2.967444008632326 9.03559
2.9897678582247247 9.177489999999999
3.0120918213106695 10.0289
3.0343984987899373 10.4632
3.0567226913198637 11.029000000000002
3.079029599759726 11.3178
3.101354025127254 12.0898
3.123678568232338 12.0151
3.145985829517914 12.5373
3.16831061055229 13.2217
3.1906181112775593 14.1372
3.212943133635653 14.8565
3.2352682779763207 14.8939
3.2575761442691227 15.6531
3.2799015350264273 15.3282
3.302209649240067 15.675999999999998
3.3245352898092655 16.3493
3.3468436553365257 16.7121
3.369169549113219 17.2856
3.3914955708171384 17.8899
3.413804319727358 18.1476
3.4361305997334863 18.563
3.4584396084414553 18.5924
3.4807661501462652 19.6136
3.503092824025881 19.7134
3.5254022288463154 19.9855
3.5477291695206588 20.6135
3.5700388426251948 20.6802
3.5923660534916446 21.1185
3.6146934007816114 22.9716
3.637003482731501 27.734
3.6593311053109985 30.1867
3.681641464033634 26.5824
3.7039693653009733 24.37
3.726297407241705 24.305999999999997
3.7486081875460804 23.9414
3.7709365132734978 24.4749
3.793247578841633 25.4876
3.8155761917550093 25.3276
3.8378875459837216 25.3828
3.8602164494827234 26.095
3.882545499606844 26.7584
3.9048572932539183 27.4594
3.9271866390645718 27.4835
3.9494987298666713 28.1142
3.971828374764527 28.9291
3.9941581705403255 29.2498
4.016470713506008 29.5856
4.038800813471445 30.0615
4.061113662089144 30.6951
4.0834440696459176 31.4636
4.105774632334751 31.4835
4.128087945865126 32.2601
4.150418821249301 32.8033
4.172732448931298 33.5288
4.195063640413578 34.5111
4.2173775856475215 35.5438
4.239709096631102 37.8799
4.262040768704612 52.2694
4.284355196706267 64.0892
4.306687193387355 56.4583
4.329001947444346 44.0793
4.35133427213731 40.4029
4.373666762177566 40.45
4.395982011761091 40.8395
4.418314834921175 41.705
4.44063041906622 43.1879
4.4629635787515625 45.5742
4.4852969080429785 46.5565
4.5076130004776225 46.5359
4.529946671403969 46.2705
4.552263106909177 47.4028
4.574597122877047 48.7267
4.596931312711224 50.136
4.619248269273446 51.0431
4.6415828092605835 51.3359
4.663900117405352 52.5098
4.686235010953232 54.1136
4.708552674085913 55.2173
4.730887924602802 56.7391
4.753223354952695 58.2693
4.775541557023902 59.3869
4.797877349456786 61.2263
4.820195915032126 63.2291
4.842532072957498 63.9449
4.864868414979744 66.1121
4.88718753227192 68.2803
4.909524244902505 69.9088
4.931843734218147 72.1046
4.954180820867835 74.6078
4.976518095879839 77.4501
4.998838149695359 80.0947
5.021175803844231 83.4009
5.043496238205739 85.7009
5.065834274903528 89.6072
5.088172504230693 93.8475
5.1104935158799565 98.3083
5.132832132875765 105.25299999999999
5.155153533596801 118.426
5.1774925416746225 138.304
5.199814334878411 233.354
5.2221537374521505 816.471
5.244493338631803 2547.54
5.266815727034316 7272.93
5.289155727832427 13661.7
5.311478517248165 9579.63
5.333818921080011 3299.56
5.356159527788849 665.9169999999999
5.3784829252032536 203.50400000000002
5.400823940070432 143.69799999999998
5.423147747031976 123.321
5.445489173474152 113.738
5.467830807066149 108.35700000000001
5.490155234831516 104.31700000000001
5.512497285125229 100.929
5.534822130975162 99.28299999999999
5.557164601388673 98.08
5.579489868738879 94.8913
5.601832762690846 93.205
5.6241758697774475 92.1385
5.646501775867269 91.4087
5.668845311622074 90.3948
5.691171647754637 89.825
5.713515615597765 88.4061
5.735859800852677 87.8173
5.758186788542988 87.3719
5.780531411018185 87.1657
5.802858837297399 86.7274
5.825203900414495 86.5095
5.8475491852224 86.9314
5.869877275883075 87.3007
5.892223006467101 88.1744
5.914551544266608 89.0515
5.936897724049891 90.8377
5.959244129804903 95.70700000000001
5.981573344815301 107.181
6.0039202049061 166.49599999999998
6.026249875609095 400.50300000000004
6.04859719346037 898.7819999999999
6.070927323278297 2071.4
6.093275102315365 4455.93
6.115623113320588 5516.78
6.137953938319995 3687.08
6.160302415650845 1087.69
6.182633708324452 238.52900000000002
6.2049826554078376 109.564
6.227331838745022 87.1554
6.249663839443684 80.0576
6.27201349767565 75.9253
6.294345974611799 73.9218
6.316696111167083 73.0498
6.339046488263839 71.7309
6.361379686074702 68.8861
6.383730546639482 66.9765
6.406064229255215 64.8165
6.428415576718203 64.6196
6.450749747566656 63.5448
6.47310158535871 62.4902
6.495453669698332 62.0059
6.517788579421056 61.1041
6.540141159237969 60.1215
6.562476565766648 59.4451
6.5848296444934045 58.9977
6.607182974060425 58.5263
6.6295191323281015 58.2566
6.651872965955752 57.7121
6.6742096296068985 58.8287
6.6965639707294615 63.0946
6.71891856698715 64.1042
6.741255995248479 60.123999999999995
6.763611104154477 56.7041
6.785949046381137 55.4697
6.808304671371482 54.7583
6.8306605557940046 54.7277
6.852999275508618 53.9138
6.875355681171544 53.9505
6.897694923437771 53.3505
6.92005185377892 53.2235
6.9423916220322655 53.1272
6.964749080490181 52.7404
6.987106804399774 52.6795
7.009447368180821 53.0367
7.031805625367033 52.4477
7.054146723727803 52.2627
7.076505517631004 52.1673
7.098864581288365 51.9953
7.121206488070854 52.146
7.143566093607822 51.3704
7.165908543567245 51.6727
7.188268694426048 51.3799
7.2106291193438095 51.0951
7.232972390625943 51.2858
7.255333366030969 51.718999999999994
7.277677189091925 55.5435
7.300038718428332 61.7935
7.322400526130865 61.1375
7.344745183422596 56.0156
7.367107550224791 52.5084
7.389452767901992 52.0183
7.411815697249891 51.3865
7.434161478756298 50.9365
7.456524974096713 51.2176
7.478888753837185 51.5849
7.501235387657368 52.945
7.523599738562711 57.9622
7.545946944825532 67.1832
7.568311870344528 70.8565
7.5906770845765665 63.94
7.613025156078678 56.2046
7.635390950099687 53.7209
7.657739602662809 52.8771
7.680105979923558 53.0007
7.702472650212829 53.1983
7.724822180948224 53.0135
7.747189439655568 53.2892
7.769539560075357 53.6183
7.791907410653562 53.5863
7.81425812420825 53.7912
7.836626570110925 53.9459
7.858995315087906 55.0502
7.881346924933401 55.2767
7.903716270417482 55.8719
7.926068482028405 55.8183
7.948438431475253 56.3549
7.9708086843180235 56.7858
7.993161805171116 57.3702
8.015532667162402 58.0391
8.037886398416653 58.8879
8.060257873014221 59.1099
8.082629655331942 59.8269
8.104984308787587 60.6455
8.127356708900503 60.9242
8.149711981398308 62.3552
8.172085002766314 63.4702
8.194458336181368 64.0276
8.216814543847752 64.6883
8.23918850371002 65.8224
8.26154533906492 66.8606
8.283919928836452 68.5536
8.306277395339652 69.5063
8.328652618483376 70.3707
8.351028159736202 72.1419
8.373386579575245 73.9889
8.395762759396959 75.4983
8.418121819038275 78.1327
8.440498640894003 81.9058
8.462875785192262 86.5821
8.485235811156207 94.6381
8.507613602688501 129.733
8.529974277114228 233.049
8.552352719347912 382.661
8.574731488360351 626.7130000000001
8.59709314210385 1119.93
8.619472567021075 1850.31
8.64183487789147 2278.58
8.664214962183097 1951.16
8.686577933647762 1086.31
8.708958680784317 415.86800000000005
8.731339760774953 173.38400000000001
8.753703729764451 108.83200000000001
8.77608547780821 95.0415
8.798450116065078 91.52799999999999
8.820832535634787 88.4844
8.843215292401656 87.3635
8.865580941199045 85.7601
8.887964374703538 85.1957
8.910330701447199 83.7593
8.932714815164482 83.3343
8.955099270424924 82.59100000000001
8.977466620733543 81.8044
8.999851761421976 81.1283
9.022219798361645 80.3223
9.04460562795561 80.2699
9.066991803441677 79.8191
9.089360876979615 79.6247
9.111747746589993 79.6577
9.13411751544971 79.1126
9.156505082664324 78.9828
9.178875550323522 79.5209
9.20126381862328 81.7536
9.223652438908596 90.7301
9.246023961427412 104.42399999999999
9.26841328802173 110.205
9.290785518039224 100.66
9.313175554425882 87.9118
9.335565947154315 81.4952
9.357939245086508 80.1037
9.380330352834827 79.7048
9.40270436697103 79.8319
9.425096193225055 79.7973
9.447488380180165 80.9229
9.469863475295412 80.9077
9.492256385987508 81.1192
9.514632206018318 81.4096
9.537025843935714 81.9591
9.559402392368193 82.5367
9.581796761000229 83.6114
9.604191496441521 83.9113
9.626569144158516 84.7018
9.648964615551032 85.6098
9.671343000390081 86.9382
9.693739211225699 87.7483
9.716135793237463 87.7436
9.738515290448102 88.4446
9.760912617143402 89.7497
9.783292860202891 90.6008
9.805690935076182 92.0473
9.828089385495742 92.5906
9.850470754023561 94.6007
9.872869957865444 96.1724
9.89525208097539 99.4242
9.917652041736662 102.895
9.940052382417589 106.479
9.962435644102392 115.686
9.984836746950979 148.63
10.007220771957746 230.321
10.029622640473708 355.296
10.052007432299963 524.7280000000001
10.074410069984072 784.337
10.096813093716005 1209.11
10.119199042482517 1772.91
10.141602840636468 2077.16
10.163989564971628 1696.96
10.186394141051062 1012.13
10.208799107559706 438.783
10.231187001965623 198.692
10.253592751657669 124.794
10.275981430388155 108.01799999999999
10.298387966769793 103.292
10.320794897965431 102.139
10.343184759907361 101.015
10.36559248305461 99.3062
10.387983138083852 98.1288
10.410391656691655 99.0908
10.432800574501677 108.491
10.455192425893369 130.67
10.47760214443012 163.356
10.499994797678786 205.658
10.522405320453982 276.067
10.54479877906917 389.26800000000003
10.567210109595656 515.672
10.5896218454736 595.76
10.612016518879773 574.455
10.634429067781074 398.087
10.656824555333241 228.408
10.679237920773568 139.55700000000002
10.701651695961992 103.064
10.724048411481384 91.8946
10.746463008485165 86.12200000000001
10.768860546937125 82.4246
10.791275969274796 79.7503
10.81369180576079 78.8679
10.836090585366925 78.0644
10.858507252467449 76.3878
10.88090686379991 75.6279
10.903324365036394 74.9167
10.925724811614439 73.6202
10.948143150509463 73.3152
10.970561909719066 72.709
10.992963615930844 71.8624
11.015383218085756 70.9535
11.037785768347074 70.0497
11.06020621697282 69.4411
11.082627090322113 69.1592
11.105030913430326 68.4447
11.12745263854165 67.9234
11.149857314510728 67.32300000000001
11.172279894912576 68.0427
11.194702904450653 67.5617
11.217108866490921 66.5579
11.239532736615194 65.8964
11.26193956033512 65.2824
11.284364294577085 65.0114
11.306789462371718 64.2003
11.329197585398376 63.8089
11.351623622610898 63.8969
11.37403261614354 63.2514
11.396459526308487 63.2211
11.418869393879497 62.7061
11.441297180532617 62.1689
11.463725406927658 61.9399
11.486136592353875 61.5289
11.508565700543707 61.4121
11.530977768845315 61.4455
11.553407762368774 61.1171
11.575838200059769 61.3012
11.598251599479612 60.9708
11.620682927815501 60.8015
11.64309721895548 60.6186
11.665529441478206 60.4496
11.687962112597958 60.3523
11.710377748130886 60.2565
11.732811318753434 60.2581
11.755227854859067 59.9649
11.777662328529495 59.8997
11.800079768750786 59.9322
11.822515149015453 59.9411
11.844950984084935 60.2821
11.867369787303163 60.0839
11.889806534289491 60.3049
11.912226250487029 61.9419
11.934663912939751 64.8545
11.9571020346363 67.5052
11.979523127133968 67.7994
12.001962169624331 65.9452
12.024384183972964 63.4375
12.046824150809913 64.1435
12.069264581333726 70.0532
12.091687985297767 77.3105
12.11412934550045 86.8334
12.136553680195208 99.9531
12.158995973632788 121.24700000000001
12.181438735204349 147.534
12.20386447284199 179.25400000000002
12.226308172985636 203.52599999999998
12.24873485024193 209.4
12.271179492516982 173.78400000000002
12.293607112949127 133.707
12.316052700916226 96.0331
12.338498763250042 73.6696
12.360927805303868 64.7077
12.383374818673879 62.1661
12.405804812803074 61.4374
12.428252780773262 61.4165
12.45070122756722 61.4681
12.473132656675375 61.3438
12.49558206341869 61.653
12.518014453510101 61.4559
12.540464823770117 61.5169
12.562915677315177 61.7374
12.58534951575545 61.8966
12.607801338171472 62.1412
12.630236146511358 62.768
12.652688941369085 63.81
12.675124723177234 64.274
12.697578494048786 64.54899999999999
12.720032754458185 64.1689
12.742470003354093 64.3347
12.764925245138771 64.8097
12.787363476431278 65.0624
12.809819703166806 65.4097
12.83227642391173 65.9725
12.854716135692716 66.4013
12.877173846755147 67.8171
12.899614549869717 68.1297
12.9220732548287 68.8668
12.94453245827299 69.2537
12.966974655289818 70.4306
12.989434858002571 71.2767
13.011878055298721 71.7723
13.034339260862497 72.9809
13.056800969391883 74.5808
13.079245674017244 76.6753
13.101708390774869 78.2588
13.12415410463411 82.4804
13.146617833206086 92.9943
13.169064559883248 108.698
13.191529303857127 127.152
13.213994557076367 149.394
13.236442809902437 182.812
13.258909083908291 231.912
13.28135835851934 293.863
13.30382565690295 370.852
13.326293469022952 439.591
13.348744283242008 451.13800000000003
13.371213125129904 375.351
13.39366497011003 276.185
13.416134845360597 182.25799999999998
13.438605238843131 125.277
13.46105863690397 101.90700000000001
13.483530069144786 99.2126
13.505984506951902 107.795
13.528456981549432 120.961
13.550929978879088 136.873
13.573385983253365 158.377
13.595860028340867 191.17
13.618317081455832 238.44099999999997
13.64079217790333 299.959
13.663250283359057 357.455
13.685726434770173 388.978
13.708203115221277 358.647
13.730662806148091 284.64599999999996
13.75314054697177 203.59400000000002
13.775601299246777 137.205
13.798080104050406 99.8707
13.820559442405358 84.5933
13.843021793671388 79.5932
13.865502201420897 77.8754
13.887965623051947 77.0514
13.910447103807167 75.99600000000001
13.932929122629764 74.7526
13.955394156785959 74.36
13.977877254034569 73.5362
14.000343367582113 72.6734
14.022827546871707 72.0854
14.045294743423524 71.6114
14.06778000837062 70.9961
14.090265817715476 71.1455
14.112734645763819 71.8596
14.13522154619454 73.3789
14.157691466286913 74.6463
14.180179461423874 74.8376
14.202668005486178 73.096
14.22513957064374 70.7245
14.247629214846473 68.8846
14.270101881097517 68.1233
14.29259262906496 67.663
14.315083930490205 67.3401
14.337558255389705 67.294
14.360050666019726 67.3205
14.382526101071944 66.9612
14.405019624534942 66.8582
14.427513705993134 66.3957
14.449990813291825 66.4503
14.47248601302899 66.4815
14.49496423954951 66.5397
14.517460561197822 66.5824
14.539939910570322 66.2188
14.562437357763558 66.4484
14.58493536931253 66.9194
14.607416409993311 67.0129
14.62991555254159 67.1386
14.652397725157423 67.3662
14.674898002342799 67.4158
14.697398848433282 67.4619
14.719882725991326 68.376
14.74238471217934 68.7594
14.764869730765593 70.7681
14.787372860692983 74.821
14.809876564079925 81.5775
14.83236330125751 89.4272
14.854868153850365 98.2654
14.877356041159485 111.238
14.899862046604186 127.01
14.922351087688757 149.974
14.944858249632887 180.80200000000002
14.967365991421232 209.618
14.989856770231246 227.98
15.012365673994204 226.092
15.03485761569738 199.046
15.05736768508665 157.42600000000002
15.07987833888692 120.03200000000001
15.102372032001655 93.2358
15.124883856909658 77.3902
15.14737872204565 71.0155
15.169891721717274 68.8442
15.192405310371893 67.8813
15.214901940621196 67.185
15.237416709527137 66.5717
15.259914520936249 66.7206
15.282430473753607 65.9018
15.304947020131227 65.4892
15.327446610371178 65.0607
15.349964346154254 64.8827
15.372465126703139 64.5236
15.394984055556009 64.4096
15.417486030076159 64.4027
15.44000615566487 64.2212
15.462526881230803 63.7743
15.485030653812652 63.6837
15.507552581617434 63.4287
15.530057557334603 63.3496
15.55258069104857 63.7569
15.575104429329837 63.8582
15.597611216864632 63.5369
15.620136166564563 63.7424
15.6426441664095 63.9813
15.665170331202765 65.4277
15.687697105158826 68.9677
15.710206930593545 74.2974
15.732734925158933 80.0966
15.755245972089478 87.3366
15.77777519094324 95.4258
15.800287463046663 106.67299999999999
15.822817909869592 123.661
15.84534897229804 144.447
15.867863089299354 169.9
15.890395385222186 190.862
15.912910736597423 203.28599999999997
15.935444269699861 193.10299999999998
15.957978423016485 168.24099999999999
15.980495633101265 133.775
16.003031029129367 103.773
16.02554948280019 81.2048
16.048086125229432 69.3606
16.070623392487107 64.8404
16.09314371869582 62.7647
16.11568223789321 60.8988
16.13820381691126 59.7928
16.160743591742527 59.0082
16.183283996022084 58.3354
16.205807461423195 57.4475
16.228349126881973 57.1523
16.25087385432698 56.9207
16.27341678466365 56.5045
16.29594277784926 56.357
16.31848697676433 55.7601
16.341031811604868 55.0843
16.36355971058487 55.0962
16.3861058195587 55.1713
16.40863499352978 54.7082
16.431182380342005 54.2375
16.453730407713202 54.0887
16.476261501364792 53.8552
16.498810812136167 53.6627
16.52134319004079 53.6
16.54389378792203 53.6004
16.566445031001553 53.5261
16.588979342490088 53.3782
16.61153187824822 53.4236
16.634067483263312 52.9913
16.656621315414416 52.9892
16.679175797408888 52.8661
16.701713349928728 52.799
16.72426913389191 52.9838
16.74680798922351 53.0024
16.76936507887444 52.6632
16.791905240734874 52.6316
16.814463639794468 52.7364
16.837022695210294 52.8212
16.859564824093756 52.9611
16.882125194503903 53.1155
16.904668639217885 53.6327
16.927230328348003 53.8109
16.949792678493612 54.4544
16.972338104193863 54.0631
16.994901778652235 53.9425
17.017448529496576 53.8942
17.040013531998152 53.8504
17.06257920018044 54.0925
17.0851279459922 54.924
17.107694947817667 56.0866
17.130245028099072 57.1454
17.15281336730298 58.7243
17.17536478578733 60.6115
17.19793446610687 62.5044
17.220504818648422 65.1519
17.243058251703697 68.0644
17.265629950971032 72.6993
17.288184731571736 77.2896
17.310757781306908 81.7802
17.33333150794385 83.2037
17.355888317140174 82.4763
17.37846339986244 78.506
17.401021565958885 71.8974
17.42359800851343 65.7969
17.44617513265564 61.5367
17.468735341390783 59.1309
17.491261035594565 57.5081
17.51396340099364 57.2839
17.536490463869136 57.1546
17.559018209820174 57.2648
17.58154663977963 57.5274
17.604251766089718 57.7059
17.626781572227713 57.894
17.64931206518155 57.9766
17.671843245885103 58.3867
17.69455114821572 58.423
17.717083712612634 58.7751
17.739616967569667 59.4706
17.762150914021706 59.9751
17.78486160749854 60.1335
17.807396945166804 60.708999999999996
17.829932977143503 61.2437
17.85246970436452 61.8655
17.875183204129467 63.6908
17.897721330097664 66.7674
17.920260154126645 70.2222
17.942799677153296 73.7047
17.9655159983646 77.582
17.988056927677544 82.7389
18.010598558807683 89.2531
18.033140892692916 98.2804
18.05586005052525 109.213
18.07840379824407 121.32700000000001
18.10094825154059 133.113
18.12366954819864 142.35
18.146215420998306 144.025
18.16876200220057 137.481
18.191309292745153 123.26899999999999
18.214033452627167 108.655
18.236582170236648 95.5468
18.259131600016456 87.9362
18.281681742907335 86.0501
18.304408781233683 88.9958
18.32696035875955 94.3922
18.349512652227624 99.5255
18.372065662579683 105.486
18.394795594587553 107.131
18.41735004715306 104.524
18.43990521943684 98.3449
18.46246111238171 88.758
18.485193953325208 78.6406
18.507751296070428 70.2264
18.530309362314178 65.6115
18.552868153000343 62.6716
18.57560391815056 61.2799
18.59816416623245 60.6765
18.620725141597372 60.1665
18.643286845190268 59.5953
18.666025549835414 59.0722
18.688588718427933 58.4405
18.711152618092243 58.0886
18.73389353884365 57.9328
18.75645890921984 57.5793
18.77902501351406 57.3678
18.801591852673102 57.012
18.824335739722738 56.6834
18.846904057212626 56.5302
18.8694731124168 56.2906
18.89204290628315 56.419
18.914789774966803 55.9748
18.937361054791623 55.8362
18.959933076131318 55.6716
18.982505839934877 55.4763
19.00525570560582 55.4968
19.027829963004184 55.3142
19.05040496572238 55.2687
19.072980714710468 55.0625
19.095733592739563 55.1069
19.11831084296757 55.2426
19.140888842324735 56.0184
19.16346759176222 56.4827
19.18622349753803 57.2831
19.208803755869358 58.3572
19.231384767143577 59.565
19.253966532312948 60.8975
19.276725481241822 62.805
19.29930876296784 65.5147
19.3218928014549 69.0487
19.34465404436217 72.1436
19.36723960516257 74.4913
19.389825925592426 75.957
19.412413006605938 75.0908
19.43517731967805 72.296
19.457765930683355 67.7845
19.48035530514408 63.181000000000004
19.50294544401556 59.3168
19.525712842708348 56.27
19.54830451925909 54.4279
19.570896963095727 53.1882
19.593490175174704 52.4723
19.616260674962184 52.3496
19.638855432416964 52.1637
19.661450960992624 52.298
19.68404726164677 52.3352
19.706820878021247 51.8811
19.729418731756834 52.1104
19.752017360452857 51.693999999999996
19.77461676506804 52.0086
19.797393513540218 51.9154
19.819994478951667 52.1085
19.84259622316767 52.7197
19.8651987471481 53.2255
19.887978643247177 53.7047
19.91058273574792 54.3428
19.933187610901943 55.3931
19.955969879466828 56.552
19.97857632894404 57.9129
20.00118356396599 59.2629
20.023791585494575 61.2125
20.046577028914875 64.0288
20.069186632506966 66.8169
20.091797025500632 69.0371
20.114408208858933 70.3554
20.137196842715273 70.7187
20.159809615886765 69.0296
20.18242318232135 66.6537
20.20503754298326 64.0467
20.227829382875154 62.5827
20.250445341109344 61.79600000000001
20.27306209647285 62.3618
20.29567964993108 63.7575
20.31847471147704 64.8777
20.34109387027612 65.492
20.363713830075454 65.2793
20.386334591841646 63.9465
20.409132890679302 61.3346
20.431755265564437 58.0823
20.454378445325528 55.1448
20.477002430930366 52.676
20.499803982716553 51.1295
20.522429589228004 49.9164
20.54505600449589 49.5042
20.567683229489194 49.41
20.590488049900088 49.1095
20.61311690359731 48.968
20.63574656993626 48.7821
20.658553853717297 48.4682
20.681185154618298 48.3919
20.703817271080066 48.4193
20.72645020407368 48.0726
20.749260783967177 48.0274
20.771895359337133 48.0301
20.794530754161617 48.0509
20.817166969412938 48.2558
20.83998086114876 47.998999999999995
20.86261872660049 47.7755
20.885257415405402 47.4802
20.90789692853701 47.4409
20.930714147864748 47.4119
20.953355319030678 47.3492
20.97599731745334 47.494
20.99864014410749 47.4262
21.021460706796564 47.4925
21.044105199328826 47.6927
21.06675052302631 47.876999999999995
21.089396678865015 48.0866
21.112220600704806 48.3136
21.134868430275347 48.6556
21.15751709492456 48.8648
21.180166595629693 49.1036
21.202993892429635 49.5822
21.22564507473034 50.0553
21.24829709602816 50.5671
21.27112693608965 50.7399
21.293780644891275 50.601000000000006
21.316435195634053 49.9725
21.339090589297417 49.1422
21.361923832041875 48.6588
21.384580921090404 47.9571
21.407238856007325 47.5401
21.429897637773326 47.376999999999995
21.45273429906592 47.3526
21.475394784108598 47.2438
21.498056118951983 47.3043
21.520718304578022 47.535
21.543558400304388 47.4803
21.566222297108816 47.6805
21.58888704765135 47.5988
21.61155265291521 47.867
21.63439619898156 48.4949
21.657063523335786 49.0026
21.67973170537063 49.7206
21.7024007460706 50.2383
21.72524775840385 50.9333
21.747918526116475 51.9775
21.770590155457388 53.0901
21.79326264741238 54.4759
21.816113141960237 56.097
21.838787368860547 58.1874
21.861462461341976 60.6419
21.884315579735777 62.9868
21.90699241312273 64.4441
21.92967011506078 65.3116
21.95234868653799 65.3709
21.9752053151131 63.8313
21.997885635446785 62.0085
22.020566828293532 59.8874
22.04324889464272 57.7791
22.066109049404666 56.4117
22.088792872571794 55.8192
22.111477572219204 55.8584
22.1341631493376 56.1383
22.157026846313123 56.1077
22.179714188221507 55.4195
22.202402410582668 54.2924
22.22509151438863 52.6408
22.24795876962584 51.345
22.270649646204486 50.1523
22.293341407213727 49.1603
22.316034053646906 48.4222
22.338904883215342 48.0262
22.36159931041458 47.9172
22.38429462602756 47.7882
22.40699083104897 47.5168
22.429865251039757 47.5298
22.452563244831367 47.5326
22.47526213102522 47.7254
22.49813925616515 47.7262
22.520839937143307 47.4475
22.543541513520587 47.581
22.56624398629403 47.6192
22.589124730075895 47.4866
22.611829005656723 47.716
22.63453418063466 47.611000000000004
22.657240256008077 47.6732
22.680124634582935 47.8717
22.70283252079775 48.3305
22.725541310413075 48.6964
22.74825100442868 48.9852
22.771139033969575 49.6859
22.79385054687155 49.9629
22.81656296718292 50.4796
22.83927629590484 51.4013
22.862167992606945 52.2771
22.88488314827121 53.3924
22.907599215359284 54.5459
22.93031619487366 55.9029
22.953211574954405 56.8958
22.975930389478226 57.793
22.998650119445763 57.9517
23.02137076586092 57.3497
23.044269845560063 56.2007
23.06699233506288 54.4664
23.089715744034912 52.6438
23.112617610931565 50.9652
23.135342869061212 49.5855
23.158069049684816 48.6219
23.1807961538087 47.9381
23.20370174880544 47.8756
23.226430710184808 47.7531
23.249160598093425 47.9056
23.271891413539002 47.8179
23.294800752937697 47.8137
23.31753343374794 48.2572
23.340267045128353 48.3953
23.36300158808808 48.9334
23.38591468821339 49.4698
23.408651104658304 50.0042
23.431388455719986 50.457
23.454126742409 51.3334
23.4770436196085 52.211000000000006
23.499783787914662 53.495
23.522524894889884 54.6729
23.54526694154616 55.8855
23.56818761219047 57.1426
23.59093154860734 58.0347
23.613676427751283 58.5762
23.636422250635754 57.8717
23.659346731118656 56.449
23.68209445191868 54.4283
23.704843119509587 51.9938
23.72759273490623 49.9481
23.750521041644767 48.1988
23.77327256312355 46.8971
23.796025035462787 46.0407
23.818956224555475 45.5583
23.841710609113413 45.2545
23.86446594758979 45.0177
23.887222241002014 44.6418
23.910157285144578 44.4497
23.932915498962537 44.4547
23.955674670778713 44.2924
23.978434801611975 44.1057
24.001373717286125 43.903999999999996
24.024135776723917 43.8606
24.046898798245582 43.8092
24.06966278287146 43.5215
24.092605586582614 43.3095
24.115371508023642 43.3178
24.1381383956401 43.1538
24.16090625045381 42.9296
24.183852958731244 42.995
24.206622758582608 42.7782
24.229393528706886 42.49
24.252165270127392 42.5926
24.27511589952438 42.6635
24.297889594216997 42.3727
24.32066426328598 42.2536
24.34343990775613 42.3211
24.36639447485003 42.2856
24.38917208083877 42.1045
24.41195066531332 42.148999999999994
24.43490819850244 42.144
24.457688750692377 41.8998
24.48047028445616 42.0707
24.503252800821233 42.1912
24.526214300784112 42.2608
24.548998793132213 42.1908
24.57178427117417 42.1254
24.59457073593893 42.1388
24.617536219319863 42.1503
24.64032466834748 42.2052
24.663114107195035 42.1175
24.685904536893013 41.8655
24.708874020360852 41.6904
24.731666442613744 41.5559
24.754459858818787 41.4144
24.777254270007962 41.516999999999996
24.80022777025625 41.3994
24.82302418230472 41.3348
24.845821592443674 41.2227
24.86862000170663 41.3309
24.891597535453727 41.1721
24.914397953892728 41.4685
24.93719937456671 41.4682
24.96000179851076 41.747
24.98298338249997 41.7516
25.00578782394922 41.9568
25.028593271784167 42.1474
25.05157790644186 42.5293
25.07438537804115 42.615
25.097193859145293 43.0209
25.120003350792075 43.2688
25.142992065061257 43.6721
25.165803588823465 43.898999999999994
25.18861612625217 44.1941
25.211429678386736 44.2402
25.234422489079968 44.437
25.257238081693636 44.4358
25.280054692141732 44.5948
25.3028723214652 44.5352
25.325869245420463 44.6625
25.348688923599397 44.6574
25.371509623787006 44.6133
25.394331347025812 44.3978
25.41733240110666 43.9655
25.440156181590016 43.1561
25.46298098826268 42.6362
25.48580682216873 42.0174
25.50881202326435 41.4497
25.53163992281684 40.8295
25.55446885274561 40.6272
25.577298814096377 40.2112
25.600308179121807 40.0939
25.623140214533745 40.1817
25.64597328451537 39.9992
25.66898578564376 39.9037
25.691820936010206 39.7735
25.714657124097695 39.7304
25.737494350954734 39.974000000000004
25.760511045684957 39.7516
25.783350361364224 39.882
25.806190718969255 39.8485
25.82903211955018 39.842
25.852053024868923 39.9413
25.874896522722523 39.9425
25.897741066713106 39.9797
25.920586657892454 40.0352
25.943611790812668 40.1153
25.966459487728237 40.2153
25.989308234998564 40.1569
26.01215803367705 40.6612
26.03518741123814 40.785
26.05803932412957 40.9469
26.080892291600094 41.1163
26.10374631470478 41.3183
26.12677995397268 41.3147
26.14963609978026 41.3575
26.172493304397875 40.9544
26.19535156888223 40.8579
26.218389486949604 40.3125
26.241249882640123 40.0401
26.26411134137826 39.7126
26.28715248187403 39.7027
26.31001607820869 39.4063
26.3328807407756 39.4441
26.35574647063438 39.6298
26.37879191991473 39.4105
26.401659795896734 39.4507
26.424528742360263 39.6617
26.447398760366614 39.8207
26.470448535598294 40.0795
26.49332070826805 40.0215
26.516193955675355 40.4815
26.53906827888316 40.7333
26.562122397260108 40.8726
26.584998883685063 41.2413
26.607876449110325 41.6191
26.63075509460056 41.7457
26.65381357334404 41.9545
26.67669439061878 41.948
26.699576291163382 41.9765
26.722459276044212 41.8549
26.745522132402975 41.5005
26.768407297649354 41.2123
26.791293550442003 40.9451
26.814180891848974 40.5613
26.837248143099337 40.2722
26.860137673466657 40.1354
26.88302829566349 39.91
26.90592001075963 39.6416
26.92899167420566 39.6007
26.951885586870763 39.1207
26.974780595655517 38.9243
26.99785558178161 38.7767
27.020752794605112 38.6005
27.043651106772522 38.4309
27.06655051935668 38.3115
27.089629948036183 38.2133
27.112531573292053 38.0944
27.135434302194138 38.2062
27.158338135817015 37.9402
27.181422024430987 38.0691
27.204328079372566 37.8073
27.22723524226965 37.9532
27.250143514198573 37.9204
27.273231880156334 37.9035
27.296142382065014 37.7917
27.319053996245536 37.8621
27.341966723775965 37.959
27.365059584515222 37.9358
27.38797455070062 37.9309
27.410890633481237 37.8539
27.433807833936918 37.9001
27.456905206923906 37.993
27.47982465472398 37.9662
27.502745223449743 38.0539
27.525666914182825 38.1673
27.548768816912457 38.1185
27.571692763693633 38.0312
27.59461783573812 38.0125
27.617723149491244 37.7612
27.640650484125285 37.6112
27.66357894728264 37.6946
27.686508540048052 37.6433
27.709618414237887 37.505
27.732550278321757 37.396
27.755483275279115 37.2583
27.778417406196485 37.2996
27.801531858397514 37.1878
27.824468269376716 37.3733
27.847405817586786 37.2878
27.870344504116094 37.5725
27.893463551932008 37.7188
27.916404527281053 37.814
27.93934664422563 37.9154
27.962289903855886 37.9561
27.98541356491974 38.2751
28.00835912214229 38.6107
28.03130582533231 38.8066
28.054253675581805 38.8891
28.077381967556104 38.8586
28.100332124185126 38.7986
28.123283431160893 38.6968
28.146235889577238 38.5942
28.169368830154156 38.5012
28.192323603752033 38.324
28.215279532083304 38.1259
28.238415973016764 37.6935
28.261374223145094 37.6722
28.284333631303806 37.3538
28.307294198589954 37.2186
28.330435319167677 36.8343
28.353398217078915 36.5509
28.376362277420153 36.2715
28.39932750129032 36.155
28.422473319286713 35.9369
28.44544088262495 35.7946
28.468409612800283 35.696999999999996
28.491379510913497 35.5012
28.51453004413313 35.4682
28.53750229057244 35.385999999999996
28.56047570826344 35.3035
28.583450298308804 35.286
28.606605564586562 35.2107
28.629582511831156 35.2168
28.65256063474956 35.0808
28.675539934446338 35.1735
28.698699951647605 35.0676
28.72168161743193 34.9154
28.74466446331978 35.0129
28.767648490417624 34.8798
28.790813276438353 34.9212
28.813799678527303 35.0346
28.836787265157085 34.8865
28.859955641890075 34.943000000000005
28.882945610203045 34.8118
28.905936766392035 34.8402
28.928929111566863 34.9181
28.952102288520145 34.7573
28.975097024308607 34.5394
28.998092952423807 34.4025
29.021090073977508 34.5057
29.04426806913204 34.2818
29.067267590245258 34.2456
29.090268308143695 34.1798
29.11327022394099 34.0606
29.13645305530891 33.7189
29.159457379627167 33.81
29.18246290519685 33.7795
29.20546963313352 33.8042
29.22865731875826 33.7772
29.25166646419296 33.8658
29.27467681535305 33.7189
29.29768837335608 33.7263
29.320880931312562 33.7308
29.34389491580634 33.7327
29.366910110507334 33.7976
29.38992651653503 33.7414
29.41312396492981 33.8179
29.436142806456754 33.6781
29.45916286268059 33.6359
29.48236399319994 33.4772
29.50538649169417 33.4789
29.528410208259935 33.3075
29.55143514402014 33.1723
29.574641196749695 32.9712
29.597668583816574 32.7977
29.6206971934585 32.62
29.64372702680042 32.7121
29.666938019934474 32.5283
29.689970313635285 32.4504
29.713003834422636 32.4927
29.73603858342347 32.4026
29.759254535188578 32.2199
29.78229175361658 32.2228
29.80533020365064 32.2438
29.82836988641968 32.2637
29.85159081507472 32.2244
29.874632976355343 32.1873
29.89767637376955 32.3615
29.920721008448314 32.0822
29.9439469322847 32.125
29.96699405457564 32.0792
29.9900424175358 32.1817
30.013092022298157 31.9445
30.03632295963995 31.9463
30.059375061131373 31.9174
30.08242840783577 32.0222
30.105483000888153 32.001999999999995
30.128718970092244 31.9352
30.151776069006917 31.8812
30.17483441768648 31.9351
30.198074175317235 31.933000000000003
30.221135036724256 31.9443
30.24419715131772 31.8662
30.267260520236203 31.730999999999998
30.290505341942243 31.9143
30.313571232750228 31.9831
30.336638381310948 31.8846
30.35970678876503 31.8494
30.38295669299435 31.7073
30.40602763151657 31.7543
30.429099832366074 31.5858
30.452173296685572 31.5298
30.47542830191959 31.5897
30.498504306502497 31.5834
30.521581577995562 31.6592
30.544660117543582 31.7336
30.56792024229725 31.6912
30.59100133132069 31.6808
30.614083691845494 31.7121
30.637167325018545 31.7326
30.660432587840603 31.8285
30.683518779717886 31.8474
30.70660624769615 31.8855
30.729694992924372 31.7943
30.75296541239743 31.805
30.77605672557558 31.9298
30.799149319462742 31.8298
30.8224236211637 31.739
30.845518789950724 31.5524
30.868615242910597 31.5153
30.891712981195973 31.3807
30.91499247215866 31.3797
30.938092794619365 31.1645
30.96119440587579 31.153000000000002
30.984297307082752 31.0389
31.00758200598383 30.9034
31.030687500658694 30.8817
31.053794288760695 30.7943
31.076902371446767 30.5494
31.100192296997445 30.7223
31.12330298246119 30.5331
31.14641496599209 30.5805
31.169528248749216 30.6438
31.19282341969534 30.5955
31.215939314557186 30.618000000000002
31.239056512134788 30.6509
31.262175013589378 30.5616
31.28547544871168 30.4786
31.30859657161541 30.4363
31.331719001892175 30.4199
31.35484274070538 30.5731
31.378148458819545 30.5497
31.401274828443725 30.6037
31.424402510106933 30.6084
31.447712205419993 30.5679
31.470842524931633 30.4267
31.493974159989783 30.4636
31.51710711176168 30.412
31.54042212308802 30.4563
31.563557722100917 30.4695
31.586694641341655 30.2855
31.609832881979628 30.1412
31.63315322823208 30.0959
31.656294125521327 30.0532
31.679436347728515 29.8877
31.70257989602529 29.8832
31.725905596152327 29.7667
31.74905181052835 29.7481
31.772199354521323 29.8142
31.79534822930507 29.871
31.818679302290967 29.8472
31.84183085259981 29.8564
31.864983737233473 29.8217
31.88813795736804 29.8203
31.911474422233013 29.7474
31.934631327356435 29.7918
31.9577895715215 29.7572
31.980949155906522 29.7237
32.004291031706956 29.8155
32.027453310562606 29.5887
32.05061693318573 29.4178
32.07396288236386 29.5664
32.09712920658542 29.5153
32.12029687812702 29.3274
32.14346589817093 29.1996
32.166817291729984 29.1094
32.18998902288583 29.0326
32.21316210610336 28.9678
32.23633654256711 28.8966
32.259693399663725 28.8432
32.282870556771144 28.7068
32.30604907069099 28.7707
32.329228942610065 28.6677
32.35259128243769 28.6251
32.375773884550505 28.5808
32.398957848235646 28.6141
32.422143174682176 28.4532
32.445511016471215 28.3554
32.468699082679954 28.3029
32.49188851523011 28.2907
32.51507931531304 28.3115
32.538452678331 28.2704
32.56164622776311 28.1444
32.58484114831493 28.1194
32.60803744118015 28.0621
32.631416344731896 28.0486
32.654615396551876 28.0586
32.67781582427913 28.115
32.701198898634416 27.8825
32.72440209253756 27.903000000000002
32.747606665947124 27.9805
32.77081262006088 27.7517
32.79420126883317 27.7731
32.81740999876112 27.7294
32.840620112999424 27.6223
32.86383161274818 27.554000000000002
32.88722585534586 27.579
32.91044014056596 27.669
32.933655814909734 27.6242
32.95687287957963 27.6646
32.98027273544904 27.4352
33.00349259526636 27.5626
33.026713849030116 27.6214
33.04993649794511 27.4861
33.073341986570746 27.4487
33.09656744032826 27.3874
33.11979429286444 27.4402
33.14302254538647 27.4655
33.166433686291185 27.3828
33.18966475336992 27.4364
33.212897224069096 27.3091
33.23613109959831 27.3101
33.259547912343415 27.2988
33.2827846121627 27.2893
33.306022720453775 27.2282
33.32926223842861 27.1599
33.352684742614166 27.0986
33.37592709463173 27.1051
33.399170859982064 27.0572
33.422597648419426 26.9754
33.44584425514446 26.8133
33.46909227885668 26.7339
33.4923417207723 26.5894
33.51577423505344 26.6017
33.539026528130385 26.5699
33.56228024307245 26.5235
33.585535381098246 26.3937
33.60897364093058 26.3579
33.63223163992385 26.4112
33.6554910656699 26.3315
33.678751919389796 26.2444
33.702195944520106 26.1631
33.72545966903325 26.2639
33.74872482519663 26.1903
33.771991414233746 26.0937
33.79544122444841 26.0487
33.81871069412428 25.9568
33.84198160035767 25.9655
33.86525394437455 25.9879
33.88870955949969 25.9628
33.911984794020626 25.9144
33.93526147001624 25.8617
33.958539588715006 25.8883
33.98200102861669 25.7669
34.0052820477047 25.6951
34.02856451319451 25.7222
34.05203033759056 25.6273
34.07531571090147 25.6939
34.09860253431845 25.6227
34.121890809074316 25.5408
34.145362493118924 25.5577
34.16865368561615 25.4501
34.191946333164054 25.3965
34.21524043699793 25.4417
34.23871800066799 25.4155
34.26201503218366 25.2525
34.28531352370466 25.247
34.30861347646881 25.1778
34.33209693978188 25.2193
34.3553998301885 25.1538
34.378704185565205 25.0893
34.402010007152356 25.041999999999998
34.42549939016683 24.9654
34.44880815937748 24.9327
34.472118398533134 24.9091
34.49543010887669 24.8858
34.51892543169198 24.7711
34.54224009966052 24.8044
34.56555624255917 24.8587
34.58887386163339 24.729
34.61237514439016 24.6702
34.6356957311114 24.605
34.65901779775809 24.6088
34.68252356662995 24.5444
34.705848608458616 24.5288
34.72917513396849 24.5481
34.75250314440949 24.3998
34.77601490857862 24.3499
34.799345904259795 24.2981
34.82267838863559 24.4231
34.846012362958525 24.3904
34.869530142679984 24.3905
34.89286711232212 24.3315
34.91620557568269 24.301
34.93954553401677 24.2001
34.9630693495876 24.1275
34.986412313340814 24.1901
35.00975677584668 24.2112
35.033102738362956 24.1689
35.05663261012228 24.0517
35.0799815881786 24.0512
35.10333207003229 23.9396
35.12668405694369 23.9497
35.150220005273056 23.9429
35.17357501786656 23.9038
35.19693153931268 23.8523
35.220289570874385 23.8389
35.24383161619786 23.8006
35.267192683604904 23.8073
35.290555264930376 23.8531
35.314101899412165 23.7307
35.33746752422433 23.7071
35.36083466676374 23.7142
35.38420332829803 23.6935
35.407756095629054 23.784000000000002
35.43112781085063 23.689
35.45450104888391 23.6368
35.477875810999194 23.6385
35.50143473172161 23.6153
35.52481255774625 23.5948
35.54819191167777 23.4964
35.57157279478914 23.5802
35.595137889488406 23.5228
35.61852184675279 23.4421
35.641907337029984 23.3076
35.665294361595684 23.3292
35.68886565090076 23.3065
35.7122557598848 23.2941
35.73564740699838 23.2471
35.759040593519934 23.1031
35.78261809810353 23.0855
35.80601437933051 22.9869
35.829412203814705 23.035
35.85281157283719 23.0191
35.876395313415884 23.0212
35.8997977874528 22.8915
35.92320180988546 22.8701
35.946790244133936 22.7796
35.97019737933222 22.8331
35.993606066789866 22.756999999999998
36.01701630779276 22.7973
36.04061101440684 22.7649
36.06402437852291 22.7071
36.08743930005611 22.6802
36.1108557802951 22.6036
36.13445678011326 22.5579
36.15787639383515 22.5136
36.18129757014299 22.5409
36.20472031032821 22.5452
36.22832762423364 22.4866
36.25175350829375 22.4636
36.275180960119776 22.3538
36.298609981005924 22.3423
36.32222362992669 22.2435
36.34565580510207 22.2858
36.36908955323448 22.2578
36.39252487562093 22.1606
36.416144880530226 22.1758
36.43958336764275 22.1271
36.463023432914625 22.1091
36.486465077645676 22.0516
36.51009145956204 22.1747
36.53353627947859 22.1922
36.55698268276811 22.136
36.58043067073321 22.0299
36.60406345072071 21.983
36.62751462435344 21.8812
36.65096738658405 21.9815
36.67460498210655 21.8978
36.69806093788647 21.8881
36.72151848619297 21.7512
36.744977628333636 21.7518
36.76862165890998 21.6562
36.79208400512205 21.6426
36.81554794910557 21.5794
36.83901349217101 21.4954
36.862663978991606 21.5251
36.88613273667352 21.5018
36.90960309738324 21.5367
36.933075062434064 21.4011
36.95673202673572 21.4365
36.98020721697122 21.4104
37.003684015502365 21.3742
37.027162423645365 21.3147
37.050825886711465 21.2583
37.07430753063053 21.2254
37.09779078812467 21.2011
37.121275660513014 21.1544
37.144945643673694 21.1862
37.16843376245278 21.138
37.19192350009803 21.1374
37.215414857931435 21.0551
37.239091382563885 20.9835
37.262585997426164 20.9884
37.28608223645736 21.0323
37.309763684451696 20.9705
37.33326318851098 20.9389
37.356764320726555 20.8896
37.380267082425526 20.8517
37.40395510942588 20.836
37.42746114683234 20.8002
37.45096881771841 20.6847
37.474478123414166 20.7034
37.49817275092816 20.6857
37.52168534303452 20.6003
37.54519957395567 20.5428
37.568715445024665 20.5774
37.592416694607714 20.4527
37.61593586281424 20.5422
37.63945667518264 20.6222
37.66297913304891 20.419
37.68668702630454 20.435
37.710212792059274 20.3299
37.733740207334854 20.3222
37.757269273470364 20.3072
37.780983832050374 20.2747
37.80451621684926 20.2547
37.82805025654007 20.2701
37.851585952464795 20.1427
37.8753071980695 20.1162
37.89884622345676 20.1198
37.92238690911902 20.035
37.94611318753442 20.0265
37.969657210779765 20.0327
37.99320289834801 19.9636
38.016750251586465 19.9179
38.04048325513017 19.8762
38.06403395679343 19.8599
38.087586328183946 19.839000000000002
38.11114037065203 19.8765
38.13488012115898 19.8006
38.1584375229181 19.7733
38.181996599821 19.6494
38.205557353221124 19.6614
38.229303872575656 19.6672
38.2528679961576 19.6469
38.27643380031219 19.6185
38.30000128639589 19.56
38.32375459653193 19.5396
38.34732546371299 19.5766
38.37089801690786 19.4285
38.39447225747609 19.4037
38.418232380377425 19.3202
38.441810012983396 19.3837
38.46538933705673 19.3324
38.488970353960084 19.2592
38.51273731166058 19.2455
38.536321731567014 19.2357
38.55990784840681 19.1453
38.58367995004091 19.1859
38.60726947812959 19.1715
38.63086070726198 19.1178
38.654453638806274 19.2252
38.678232613930824 19.1504
38.70182896773327 19.046
38.72542702806741 18.9715
38.7490267963045 18.9827
38.77281266709232 18.8855
38.79641586862214 18.9401
38.8200207821842 18.849
38.843627409152944 18.899
38.86742019782782 18.8554
38.891030269149255 18.796
38.914642058016156 18.7649
38.938255565806124 18.7521
38.96205529464307 18.7236
38.98567225787121 18.6735
39.00929094417078 18.6597
39.03291135492255 18.6113
39.05671804624804 18.6295
39.080341923549106 18.5182
39.103967529460334 18.487000000000002
39.127594865365744 18.4756
39.15140854155791 18.4332
39.17503935514948 18.3841
39.19867190290282 18.4484
39.22249083587951 18.4227
39.24612686969409 18.3364
39.269764641845306 18.4093
39.293404153722804 18.3367
39.317230110864074 18.1981
39.34087311998506 18.1458
39.36451787301696 18.2048
39.388164371352595 18.2037
39.41199737518003 18.1485
39.43564738196752 18.1526
39.45929913825317 18.1319
39.48295264543308 18.0766
39.506792718520884 18.0482
39.530449745387216 18.0295
39.55410852735203 18.0394
39.57776906581474 18.0048
39.60161623079 17.9395
39.625280300200025 17.8983
39.64894613032202 17.8464
39.67261372255866 17.7876
39.6964680021016 17.805
39.72013913657293 17.8374
39.74381203738292 17.7385
39.76748670593756 17.7131
39.79134812278169 17.7377
39.81502634488497 17.7268
39.83870633896685 17.6736
39.862388106436654 17.5931
39.88625668336918 17.6249
39.90994201572829 17.5905
39.933629125719285 17.5261
39.957503091207826 17.535
39.9811937746168 17.5118
40.00488623990914 17.4592
40.02858048850006 17.4307
40.05246165409549 17.3863
40.076159487492085 17.2859
40.099859108448875 17.3903
40.123560518384345 17.3413
40.1474489070226 17.2809
40.171153913178564 17.2427
40.194860712584955 17.262
40.2185693066637 17.2427
40.242464941335314 17.1625
40.26617714307655 17.1536
40.289891143772046 17.1353
40.3136069448471 17.0308
40.33750984859743 17.0644
40.3612292688043 17.0529
40.3849504936829 16.9929
40.40867352466194 16.9742
40.43258372059144 16.9571
40.45631038219906 16.9231
40.48003885420956 16.8697
40.503769138055105 16.8714
40.52768664931955 16.8744
40.55142057531802 16.8339
40.57515631746428 16.8487
40.599079334038514 16.7531
40.62281872700477 16.7471
40.64655994043941 16.7451
40.67030297578061 16.6927
40.69423334835778 16.6941
40.71798004609188 16.6477
40.74172857006355 16.5727
40.76547892171441 16.6126
40.7894166736039 16.5543
40.813170699248566 16.5262
40.83692655691388 16.423
40.86068424804498 16.5113
40.884629402612525 16.5215
40.908390779366385 16.479
40.932153993938 16.3766
40.95591904777605 16.4808
40.979871628443995 16.3928
41.003640379561936 16.3731
41.02741097430883 16.3585
41.05118341413683 16.3086
41.075143444384416 16.3172
41.098919593177826 16.2706
41.1226975914255 16.2136
41.14647744058318 16.1756
41.170444943946755 16.1288
41.19422851378379 16.1332
41.218013938914645 16.1121
41.24198706625173 16.041
41.26577622087193 16.003
41.289567235177785 15.9947
41.31336011063129 15.9
41.337340752422875 15.9496
41.361137369129835 15.9991
41.38493585138705 15.9227
41.40873620066004 15.874
41.43272438060107 15.8942
41.45652848292052 15.8583
41.48033445666918 15.790999999999999
41.50414230331616 15.7419
41.528138045159764 15.7827
41.551949656675205 15.6979
41.575763145513235 15.6862
41.59957851314666 15.6511
41.62358184070442 15.6114
41.64740098505737 15.6089
41.6712220126409 15.572000000000001
41.69504492493139 15.5338
41.71905586207357 15.4866
41.74288256296395 15.5237
41.766711153007456 15.4995
41.79054163368412 15.4157
41.814560204340054 15.4038
41.838394485526365 15.4324
41.86223066180303 15.3784
41.88625497706819 15.3701
41.910094962812 15.3257
41.93393684811168 15.2678
41.95778063445365 15.2085
41.981812625263366 15.2234
42.00566023303407 15.2141
42.029509746323676 15.1781
42.05336116662236 15.1466
42.077400857069705 15.1926
42.10125611078846 15.1115
42.12511327600405 15.0699
42.14897235421036 15.0315
42.173019768448455 14.9822
42.19688269209613 14.9963
42.22074753323349 15.0171
42.24461429335818 14.8996
42.268669455600495 14.956
42.292540073217886 14.9538
42.31641261433284 14.9533
42.34028708044675 14.8542
42.36435001496739 14.8679
42.38822835065557 14.7782
42.41210861586426 14.7393
42.4359908120986 14.8253
42.46006154323262 14.7492
42.48394762115317 14.6572
42.507835634632315 14.7173
42.531912233047436 14.6719
42.55580413732265 14.6631
42.579697981698 14.6156
42.60359376768525 14.5372
42.62767820545945 14.557
42.65157789440821 14.5616
42.67547952952185 14.4889
42.699383112316 14.4667
42.72347541395347 14.444
42.74738291190531 14.4523
42.771292362102166 14.4504
42.795203766063516 14.3779
42.819303956130405 14.3627
42.843219287476536 14.3399
42.86713657716324 14.283
42.89105582671383 14.3149
42.91516392983864 14.2813
42.939087119032166 14.2563
42.963012272677304 14.2405
42.98693939230129 14.219000000000001
43.01105543317513 14.1361
43.034986504731386 14.1524
43.05891954686589 14.1179
43.08285456110972 14.0992
43.10697856448665 14.0314
43.130917542983475 14.0235
43.15485849820081 14.017999999999999
43.17880143167367 13.9505
43.20293342237094 13.9272
43.226880332449 13.9671
43.25082922540554 13.9198
43.27496722682525 13.8783
43.29892010567796 13.8695
43.32287497204102 13.8678
43.34683182745632 13.8195
43.370977859791836 13.7975
43.39493871351105 13.815999999999999
43.41890156092628 13.7642
43.44286640358341 13.7911
43.46702049182749 13.7259
43.49098934522816 13.6997
43.51496019852649 13.7067
43.5389330532723 13.682
43.56309522248204 13.6055
43.58707210044314 13.5853
43.61105098451946 13.5343
43.63503187626491 13.5609
43.659202151562134 13.5859
43.68318707902681 13.5087
43.70717401884041 13.4789
43.731162972560874 13.4451
43.75534137913236 13.3907
43.779334381108384 13.4107
43.803329401683186 13.3654
43.82732644241872 13.3627
43.8515130055166 13.3532
43.87551410707659 13.300999999999998
43.89951723350145 13.3084
43.923709934595614 13.2537
43.94771713129917 13.2802
43.97172635758096 13.2635
43.99573761501002 13.2322
44.0199385169922 13.2015
44.04395385732619 13.1654
44.067971233533086 13.1589
44.09199064718605 13.1667
44.11619977548961 13.1227
44.14022328470671 13.0777
44.16424883610785 13.0387
44.18827643127035 13.0162
44.21249381139513 13.0256
44.236525514814076 13.0122
44.26055926674478 12.9747
44.28459506876863 12.9374
44.3088207262813 12.901
44.33286064928722 12.8995
44.35690262714919 12.8466
44.38094666145278 12.7675
44.4051806219871 12.8182
44.42922879003185 12.7801
44.45327901929361 12.8024
44.477331311362136 12.782
44.501573600619416 12.708
44.525630039221795 12.7151
44.54968854541895 12.6781
44.573937102200176 12.6669
44.5979997645541 12.6306
44.622064499300315 12.5798
44.64613130803592 12.5717
44.67038823869318 12.5905
44.69445921643748 12.575999999999999
44.718532272981385 12.5275
44.742607409926194 12.5094
44.76687274034801 12.5355
44.79095205918753 12.4584
44.81503346325094 12.4519
44.839116954143876 12.4281
44.86339071028742 12.3918
44.88747839599524 12.4253
44.91156817336837 12.3931
44.93566004401666 12.3205
44.959942251908146 12.3409
44.984038330325966 12.3505
45.00813650686762 12.2635
45.03223678314731 12.2215
45.05652746888232 12.2419
45.08063196592069 12.2058
45.104738567558705 12.2143
45.128847275414856 12.1972
45.15314646515866 12.1053
45.17725940679741 12.1326
45.20137445952892 12.1169
45.22568004865265 12.1212
45.24979934496396 12.0886
45.27392075725247 12.0787
45.29804428714431 12.0466
45.322358426247604 11.9721
45.346486212804315 11.9597
45.370616121861914 11.9873
45.39474815505086 11.9433
45.41907087049246 11.9469
45.4432071734666 11.8631
45.46734560548283 11.8855
45.49148616817604 11.8714
45.51581748638564 11.8205
45.5399623320197 11.7875
45.56410931325473 11.7468
45.58825843173002 11.7874
45.61259837920865 11.7331
45.636751793816 11.7321
45.66090735060093 11.6825
45.68506505120716 11.6638
45.7094136545275 11.6542
45.73357566449271 11.5736
45.75773982322992 11.5845
45.78190613238733 11.6469
45.806263418194064 11.5674
45.83043404997326 11.5442
45.85460683713677 11.5187
45.87897065658495 11.5422
45.90314777634752 11.5139
45.92732705646868 11.5074
45.9515084986045 11.4479
45.97588104735473 11.4176
46.00006683541565 11.3653
46.02425479047904 11.3801
46.04844491420549 11.3681
46.0728262191024 11.3184
46.09702070211635 11.3141
46.12121735879483 11.3471
46.14541619080294 11.3262
46.169806278764455 11.2749
46.194009483459034 11.2813
46.21821486849841 11.2332
46.24242243555223 11.2044
46.266821333570014 11.1783
46.29103328674601 11.1577
46.31524742696538 11.1352
46.33946375590237 11.1108
46.36387149104216 11.1063
46.38809221957392 11.065
46.41231514186606 11.0409
46.436540259597464 11.089
46.460956858999374 11.0106
46.48518638983522 10.9923
46.509418121166966 10.9734
46.533652054678114 10.9805
46.55807754555709 10.9477
46.58231590571962 10.9778
46.60655647313217 10.8946
46.630988654873654 10.8894
46.655233659129024 10.8689
46.67948087571551 10.8355
46.70373030632484 10.8485
46.72817142736393 10.7889
46.752425308428684 10.7905
46.77668140861147 10.7667
46.80093972960865 10.6865
46.82538981736788 10.7143
46.849652602470904 10.7039
46.87391761349769 10.698
46.8981848521493 10.6855
46.9226439341274 10.6103
46.946915650573224 10.6112
46.97118959976749 10.6222
46.99546578341598 10.6051
47.019933887188216 10.5858
47.04421456235744 10.5821
47.06849747711879 10.5294
47.09278263318286 10.442
47.11725978640143 10.4789
47.14154944775105 10.4699
47.165841355555656 10.4515
47.1901355115306 10.4198
47.214621741924994 10.4137
47.23892041698887 10.3696
47.26322134538975 10.36
47.28771440635075 10.33
47.31201986422527 10.3709
47.33632758061436 10.3554
47.360637557241866 10.2643
47.38513974410611 10.2605
47.40945426407847 10.2566
47.43377104948137 10.2241
47.45809010204344 10.1802
47.48260144275502 10.1706
47.506925052572285 10.1699
47.53125093475548 10.1557
47.55557909103813 10.1556
47.58009961361992 10.1414
47.60443234110732 10.1182
47.62876734791564 10.0958
47.65310463578333 10.068999999999999
47.6776343683373 10.056000000000001
47.7019762413987 10.0522
47.72632040075572 10.0221
47.75066684815169 9.962639999999999
47.77520581885936 9.94781
47.799556865477655 10.0126
47.823910205386 9.98132
47.84826584033272 9.93068
47.87281407745551 9.87658
47.89717432569297 9.90172
47.92153687423484 9.90263
47.94609208429692 9.91019
47.97045925671401 9.84713
47.99482873471275 9.78035
48.01920052005013 9.78453
48.04376504619224 9.73892
48.068141469543484 9.79883
48.09252020552573 9.796330000000001
48.11690125590099 9.74901
48.1414751266064 9.6972
48.16586082917454 9.689160000000001
48.19024885144316 9.65202
48.2146391951793 9.659239999999999
48.239222439012764 9.64429
48.26361744916137 9.622160000000001
48.28801478610016 9.648530000000001
48.31241445160131 9.59511
48.337007097209366 9.58037
48.36141144338331 9.563139999999999
48.38581812345755 9.53298
48.41022713920929 9.52721
48.434829215320704 9.50303
48.45924292604658 9.52438
48.48365897780325 9.50709
48.50807737237308 9.43625
48.532688907799276 9.43222
48.55711201168574 9.425360000000001
48.581537463754074 9.39439
48.60615611725119 9.381089999999999
48.63058628942721 9.37234
48.65501881516546 9.35754
48.6794536962573 9.31527
48.70408185970339 9.30592
48.72852147531801 9.2998
48.75296345168211 9.27908
48.77740779059232 9.24801
48.80204549302823 9.2494
48.82649458091802 9.23423
48.85094603676547 9.2411
48.87539986237231 9.19144
48.90004713292306 9.19133
48.92450572200832 9.12831
48.94896668628025 9.14465
48.97343002754588 9.0842
48.99808689542115 9.052589999999999
49.02255501470614 9.1007
49.04702551642794 9.07128
49.0714984023988 9.0715
49.096164896893235 9.05274
49.120642575466796 8.98247
49.145122643748394 9.002930000000001
49.16960510355558 8.996360000000001
49.19428125404938 8.97819
49.2187685210852 8.936639999999999
49.243258185121555 8.901060000000001
49.26794160167084 8.867569999999999
49.2924360839405 8.92859
49.31693296869764 8.935130000000001
49.34143225776915 8.90735
49.36612538195438 8.86484
49.39062950396021 8.84342
49.41513603578346 8.82288
49.4396449792564 8.77784
49.46434784069503 8.81542
49.488861631846454 8.77767
49.513377840166804 8.746
49.537896467493745 8.740269999999999
49.56260909589029 8.70815
49.587132585683285 8.66946
49.611658500018365 8.65773
49.636186840738596 8.68127
49.66090926588511 8.64371
49.685442483902584 8.62836
49.70997813385706 8.59073
49.734516217597076 8.580960000000001
49.75924846937352 8.5444
49.7837914452858 8.55429
49.80833686055187 8.52442
49.83288471702571 8.546380000000001
49.85762682540054 8.51784
49.882179588965734 8.4881
49.9067347993235 8.47462
49.93129245833333 8.47644
49.95604445336378 8.449160000000001
49.98060703442832 8.47066
50.005172069746266 8.42178
50.02993150438364 8.42707
50.05450147301533 8.429889999999999
50.07907390151433 8.37293
50.10364879174981 8.31836
50.12841816587289 8.34575
50.1529980044635 8.29845
50.17758031042124 8.267330000000001
50.20216508562089 8.30659
50.22694442953363 8.26272
50.25153416817468 8.29332
50.27612638170508 8.26808
50.300721072005196 8.19406
50.325510416102105 8.20145
50.350110084975064 8.19856
50.37471223628208 8.1838
50.39931687190919 8.15615
50.424116246675766 8.14366
50.44872587605249 8.15455
50.47333799543065 8.11273
50.49795260670191 8.10977
50.52276204271512 8.0532
50.54738166295838 8.03898
50.57200378079314 8.05317
50.596628398116835 8.04031
50.62144792604559 8.04434
50.646077567609396 8.02032
50.670709714377715 8.0064
50.69553683636198 7.96253
50.72017401885922 7.925910000000001
50.7448137122895 7.96064
50.76945591856022 7.921869999999999
50.79429318636823 7.90422
50.818940443716784 7.91173
50.84359021965163 7.86216
50.868242516085964 7.866619999999999
50.893089960641895 7.83701
50.917747323549435 7.80992
50.94240721271973 7.804880000000001
50.96706963007175 7.80657
50.99192728239342 7.8023
51.01659478166073 7.807939999999999
51.04126481489051 7.797460000000001
51.06593738400761 7.7489
51.090805275207074 7.72208
51.11548294172845 7.72398
51.14016314993547 7.68243
51.164845901758845 7.68122
51.18972406304274 7.66887
51.21441192780656 7.66603
51.23910234200271 7.65337
51.2637953075678 7.58471
51.288683770237945 7.60025
51.31338186432707 7.557060000000001
51.33808251561888 7.564439999999999
51.362978729967345 7.5601199999999995
51.387684521509755 7.55962
51.41239287610203 7.54793
51.437103795691165 7.464580000000001
51.46201036644977 7.511189999999999
51.486726441956634 7.47233
51.51144508832545 7.46512
51.536166307509156 7.4462600000000005
51.56108326624387 7.4332199999999995
51.58580965706056 7.41668
51.61053862657523 7.38852
51.635270176746864 7.358689999999999
51.66019755512065 7.396839999999999
51.68493429268881 7.3631
51.70967361681515 7.3497699999999995
51.73441552946465 7.344589999999999
51.759353359237934 7.357189999999999
51.7841004750961 7.3045800000000005
51.80885018539685 7.3047
51.833602492111254 7.26875
51.8585508051424 7.23592
51.883308330926425 7.24472
51.90806845906181 7.20293
51.932831191525715 7.219360000000001
51.95779001977161 7.179530000000001
51.98255798721516 7.16425
52.00732856494335 7.14162
52.03229530577543 7.1360600000000005
52.057071130455945 7.12724
52.081849571391054 7.101780000000001
52.106630630568695 7.1043
52.13160794279417 7.08478
52.15639426492067 7.09099
52.18118321127822 7.0399899999999995
52.205974783860896 7.01575
52.23096269971011 6.994460000000001
52.255759551287994 7.0134
52.280559035098186 7.00692
52.30536115314103 6.984610000000001
52.33035970494467 6.9698899999999995
52.35516711807904 6.95072
52.37997717147198 6.904389999999999
52.40478986713005 6.939780000000001
52.42979908731974 6.924119999999999
52.454617094216 6.906439999999999
52.47943774942214 6.885910000000001
52.50426105495102 6.8902
52.529280976059844 6.84497
52.554109609024096 6.86234
52.57894089837482 6.82048
52.60377484613117 6.796530000000001
52.62880550079408 6.77888
52.65364479223379 6.76167
52.67848674816189 6.75241
52.70352547971946 6.73716
52.72837279155837 6.706980000000001
52.753222773982785 6.71468
52.778075429022984 6.7629399999999995
52.80312495150885 6.7114199999999995
52.827982978797436 6.65068
52.85284368481815 6.657439999999999
52.87770707160767 6.65263
52.90276741793998 6.62937
52.92763619336701 6.59218
52.952507655698504 6.608169999999999
52.977381806977576 6.608689999999999
53.00245301017842 6.59691
53.02733256653592 6.5972800000000005
53.052214817996074 6.556889999999999
53.077099766608484 6.5041
53.102181859804446 6.52349
53.127072229988265 6.53325
53.15196530349892 6.5092099999999995
53.17686108239249 6.453119999999999
53.20195409881522 6.47634
53.22685531582556 6.45322
53.25175924441303 6.41704
53.27666588664027 6.4795300000000005
53.30176985962693 6.446280000000001
53.3266819565689 6.40977
53.35159677336455 6.400919999999999
53.376514312083096 6.35872
53.40162927507703 6.35583
53.42655228516116 6.33863
53.45147802340193 6.290369999999999
53.47660125628886 6.331519999999999
53.50153247842639 6.303
53.52646643496923 6.29368
53.55140312799818 6.2771
53.576537409691696 6.23765
53.60147960336152 6.2503
53.626424539786164 6.246569999999999
53.65137222105307 6.23396
53.67651758529126 6.24301
53.70147078399681 6.22769
53.72642673383343 6.19935
53.75138543689533 6.17724
53.776541917524526 6.15209
53.801506154876755 6.15517
53.826473151763246 6.1245
53.851442910284916 6.10911
53.87661054126026 6.13925
53.9015858509782 6.1178099999999995
53.92656392866066 6.1054900000000005
53.95154477641532 6.064690000000001
53.976723591801296 6.13126
54.00171000771266 6.07302
54.02669920004598 6.011080000000001
54.051691170915745 5.96643
54.076881204886796 5.99742
54.101878760928514 6.03683
54.12687910187696 5.97079
54.152077577768296 5.9907900000000005
54.1770835166946 5.94722
54.20209224691339 5.9326099999999995
54.22710377055121 5.92549
54.25231352511594 5.91223
54.27733066384342 5.877759999999999
54.30235060239643 5.9053
54.32737334290836 5.85955
54.35259441062629 5.80436
54.377622783395324 5.8195
54.40265396455061 5.8512699999999995
54.42768795623251 5.79379
54.45292037169559 5.76783
54.477960012857906 5.7549
54.50300247099511 5.751530000000001
54.52804774825457 5.74495
54.55329154616743 5.68447
54.57834249018678 5.66211
54.6033962597977 5.64844
54.6284528571545 5.627669999999999
54.653708072335164 5.64391
54.67877035378786 5.6372599999999995
54.70383546947698 5.59518
54.72890342156389 5.55938
54.7541700889442 5.51788
54.77924374251975 5.56314
54.8043202390049 5.5329
54.82959552413022 5.53585
54.8546777351945 5.496569999999999
54.87976279569621 5.490480000000001
54.90485070780914 5.45828
54.930137506558005 5.41996
54.95523115074295 5.3977900000000005
54.98032765308844 5.3968300000000005
55.005427015775496 5.38547
55.03072536339621 5.35773
55.05583047570572 5.31581
55.080938454927676 5.31493
55.10604930325027 5.29758
55.131359235107396 5.26889
55.15647585066083 5.28988
55.181595341907496 5.23031
55.20671771104285 5.20624
55.232039262617704 5.19951
55.25716741665048 5.14428
55.28229845518636 5.13404
55.30743238042802 5.1226199999999995
55.33276558731939 5.08204
55.357905315183636 5.09701
55.383047936390035 5.03518
55.40819345314859 5.01317
55.433538351073295 4.98939
55.458689688238415 4.98036
55.483843927614096 4.93653
55.509197623043605 4.9798800000000005
55.53435769621134 4.91746
55.55952067826466 4.916580000000001
55.5846865714265 4.8697099999999995
55.61005202069737 4.86154
55.63522376553902 4.83914
55.66039842818645 4.79548
55.68557601087004 4.830509999999999
55.7109532500271 4.73966
55.73613670233794 4.74627
