TT I
1.2716486653135266 8.04252
1.2939594142134223 7.18475
1.3162702121660406 6.77721
1.3385810600174564 6.96515
1.3608919586137629 6.7981300000000005
1.383202908801069 6.47029
1.405513911425503 6.568969999999999
1.4278249673332093 6.8887100000000006
1.4501343378461518 6.84868
1.4724455028545926 6.30786
1.4947567236847858 6.01795
1.517068001182951 5.8901
1.5393793361953272 6.04063
1.5616907295681737 6.19841
1.5840021821477681 5.49996
1.60631369478041 5.29106
1.6286252683124185 4.89388
1.6509369035901333 5.20651
1.6732468618895553 5.47438
1.695558623192809 5.21811
1.7178704487808514 5.20315
1.7401823395001077 5.62394
1.7625012545597203 5.47725
1.7848028405262486 4.99127
1.8071218901122095 5.33553
1.8294236121921872 5.04095
1.8517427996910911 4.86477
1.8740620574440425 4.9172
1.8963639900671978 5.0850599999999995
1.9186833908139995 4.64998
1.9409854680117449 5.32515
1.9633050151394713 5.04673
1.9856246367570705 5.00418
2.0079269371922672 4.94215
2.03024671027244 4.476719999999999
2.0525491637446027 4.15721
2.074869091674931 5.12319
2.097171701569106 4.61275
2.1194917877373847 4.872240000000001
2.141811954326636 5.01636
2.164114805233074 5.072019999999999
2.186435135143035 6.35469
2.208738150935709 15.5579
2.231058647554722 33.5931
2.2533792288321184 27.0155
2.275682498336085 11.7977
2.298003251406138 6.48271
2.3203066942619714 5.21203
2.3426276225136022 5.60655
2.3649486396617507 5.6784099999999995
2.387252348930071 5.48091
2.4095735463442893 5.4379800000000005
2.4318774374315884 5.608230000000001
2.4541988185014043 6.09588
2.476502894794693 6.85727
2.498824462909887 6.53934
2.521146125856138 6.80903
2.5434504863470337 7.17324
2.5657723414244717 7.84103
2.588076895590662 7.35045
2.610398946189713 7.8422600000000005
2.6327210958598384 7.1174100000000005
2.6550259469304716 7.181360000000001
2.6773482972090137 7.6332
2.6996533504259 7.68997
2.7219759047039602 7.51815
2.744298562293959 7.67807
2.7666039251246595 7.404310000000001
2.7889267918020164 7.99337
2.8112323652516555 7.947660000000001
2.833555444408179 8.55129
2.8558786311183852 8.22535
2.8781845268938557 8.98793
2.9005079311721484 9.40088
2.9228140460410397 9.154530000000001
2.9451376712799635 9.13476
2.967444008632326 9.175980000000001
2.9897678582247247 9.943610000000001
3.0120918213106695 10.4208
3.0343984987899373 10.902000000000001
3.0567226913198637 11.0806
3.079029599759726 12.3004
3.101354025127254 12.3448
3.123678568232338 12.797
3.145985829517914 12.571
3.16831061055229 13.2886
3.1906181112775593 14.4399
3.212943133635653 14.6952
3.2352682779763207 15.3965
3.2575761442691227 15.7615
3.2799015350264273 15.8871
3.302209649240067 16.5486
3.3245352898092655 16.9226
3.3468436553365257 17.254
3.369169549113219 17.741
3.3914955708171384 18.2499
3.413804319727358 19.0443
3.4361305997334863 20.0027
3.4584396084414553 20.1884
3.4807661501462652 20.71
3.503092824025881 21.3356
3.5254022288463154 21.5986
3.5477291695206588 22.5039
3.5700388426251948 22.73
3.5923660534916446 24.4793
3.6146934007816114 42.1909
3.637003482731501 105.09100000000001
3.6593311053109985 117.654
3.681641464033634 65.825
3.7039693653009733 32.7332
3.726297407241705 27.2695
3.7486081875460804 26.6639
3.7709365132734978 26.5109
3.793247578841633 26.9321
3.8155761917550093 27.5836
3.8378875459837216 27.3999
3.8602164494827234 28.0192
3.882545499606844 28.7554
3.9048572932539183 29.2308
3.9271866390645718 29.8924
3.9494987298666713 30.2093
3.971828374764527 30.3568
3.9941581705403255 31.3304
4.016470713506008 31.9661
4.038800813471445 32.6311
4.061113662089144 33.79
4.0834440696459176 34.1256
4.105774632334751 34.6898
4.128087945865126 35.4934
4.150418821249301 36.083
4.172732448931298 37.9373
4.195063640413578 40.147
4.2173775856475215 44.8109
4.239709096631102 82.3176
4.262040768704612 282.39799999999997
4.284355196706267 390.69300000000004
4.306687193387355 250.334
4.329001947444346 92.5935
4.35133427213731 50.4984
4.373666762177566 45.7329
4.395982011761091 45.3955
4.418314834921175 46.6041
4.44063041906622 55.6249
4.4629635787515625 69.2691
4.4852969080429785 69.2788
4.5076130004776225 56.3151
4.529946671403969 51.223
4.552263106909177 50.733999999999995
4.574597122877047 51.7608
4.596931312711224 53.3957
4.619248269273446 53.8446
4.6415828092605835 54.5766
4.663900117405352 55.8019
4.686235010953232 57.2106
4.708552674085913 58.941
4.730887924602802 60.0408
4.753223354952695 61.2271
4.775541557023902 62.8603
4.797877349456786 64.3568
4.820195915032126 66.3321
4.842532072957498 67.7027
4.864868414979744 69.881
4.88718753227192 71.8071
4.909524244902505 73.7606
4.931843734218147 75.9955
4.954180820867835 78.5236
4.976518095879839 81.3628
4.998838149695359 84.3135
5.021175803844231 88.2667
5.043496238205739 91.3061
5.065834274903528 95.5337
5.088172504230693 100.81299999999999
5.1104935158799565 107.387
5.132832132875765 133.251
5.155153533596801 185.567
5.1774925416746225 224.429
5.199814334878411 381.709
5.2221537374521505 1057.21
5.244493338631803 2843.26
5.266815727034316 7275.94
5.289155727832427 11821.1
5.311478517248165 9156.95
5.333818921080011 3301.63
5.356159527788849 674.32
5.3784829252032536 206.41099999999997
5.400823940070432 152.611
5.423147747031976 133.43200000000002
5.445489173474152 122.99
5.467830807066149 115.92200000000001
5.490155234831516 112.102
5.512497285125229 107.45200000000001
5.534822130975162 105.774
5.557164601388673 103.208
5.579489868738879 100.49600000000001
5.601832762690846 99.6365
5.6241758697774475 99.0896
5.646501775867269 98.4397
5.668845311622074 96.5176
5.691171647754637 95.4401
5.713515615597765 93.8788
5.735859800852677 92.7696
5.758186788542988 92.4978
5.780531411018185 92.7868
5.802858837297399 91.4177
5.825203900414495 91.8331
5.8475491852224 92.3682
5.869877275883075 93.0726
5.892223006467101 94.0798
5.914551544266608 95.6701
5.936897724049891 98.7199
5.959244129804903 104.175
5.981573344815301 122.305
6.0039202049061 211.141
6.026249875609095 462.31800000000004
6.04859719346037 977.433
6.070927323278297 2114.28
6.093275102315365 4119.01
6.115623113320588 5207.47
6.137953938319995 3479.64
6.160302415650845 1203.16
6.182633708324452 296.128
6.2049826554078376 125.772
6.227331838745022 97.0852
6.249663839443684 88.2925
6.27201349767565 85.4123
6.294345974611799 93.0244
6.316696111167083 108.54899999999999
6.339046488263839 101.634
6.361379686074702 83.1566
6.383730546639482 73.5925
6.406064229255215 70.4599
6.428415576718203 69.3395
6.450749747566656 68.3025
6.47310158535871 66.9853
6.495453669698332 66.3901
6.517788579421056 66.0807
6.540141159237969 64.7919
6.562476565766648 64.0084
6.5848296444934045 63.9485
6.607182974060425 63.7269
6.6295191323281015 64.0768
6.651872965955752 68.1196
6.6742096296068985 100.335
6.6965639707294615 159.49200000000002
6.71891856698715 160.209
6.741255995248479 104.303
6.763611104154477 71.383
6.785949046381137 61.8429
6.808304671371482 59.4245
6.8306605557940046 59.1682
6.852999275508618 58.1678
6.875355681171544 57.9751
6.897694923437771 57.7957
6.92005185377892 57.448
6.9423916220322655 57.1349
6.964749080490181 56.5335
6.987106804399774 56.8718
7.009447368180821 56.338
7.031805625367033 56.1504
7.054146723727803 56.4493
7.076505517631004 55.8183
7.098864581288365 56.1305
7.121206488070854 55.9152
7.143566093607822 56.3948
7.165908543567245 56.6474
7.188268694426048 56.4187
7.2106291193438095 56.7098
7.232972390625943 58.4109
7.255333366030969 73.3999
7.277677189091925 142.028
7.300038718428332 203.27700000000002
7.322400526130865 168.43099999999998
7.344745183422596 99.6483
7.367107550224791 65.1719
7.389452767901992 57.7917
7.411815697249891 56.4701
7.434161478756298 55.7801
7.456524974096713 55.5172
7.478888753837185 55.3511
7.501235387657368 55.7737
7.523599738562711 55.7335
7.545946944825532 55.8159
7.568311870344528 56.1891
7.5906770845765665 56.1807
7.613025156078678 58.1384
7.635390950099687 59.7431
7.657739602662809 58.4896
7.680105979923558 56.9923
7.702472650212829 56.9045
7.724822180948224 56.6109
7.747189439655568 56.677
7.769539560075357 56.6571
7.791907410653562 57.4382
7.81425812420825 57.302
7.836626570110925 57.6169
7.858995315087906 58.3661
7.881346924933401 58.2986
7.903716270417482 59.1254
7.926068482028405 59.2893
7.948438431475253 60.0175
7.9708086843180235 60.7024
7.993161805171116 61.1123
8.015532667162402 61.6405
8.037886398416653 62.7234
8.060257873014221 63.2727
8.082629655331942 63.6208
8.104984308787587 64.6281
8.127356708900503 68.8103
8.149711981398308 75.7058
8.172085002766314 78.5927
8.194458336181368 74.2357
8.216814543847752 70.5964
8.23918850371002 69.9161
8.26154533906492 70.682
8.283919928836452 72.628
8.306277395339652 73.5403
8.328652618483376 74.8968
8.351028159736202 76.8167
8.373386579575245 79.1997
8.395762759396959 80.8435
8.418121819038275 86.5391
8.440498640894003 102.544
8.462875785192262 119.499
8.485235811156207 130.496
8.507613602688501 166.107
8.529974277114228 254.549
8.552352719347912 387.902
8.574731488360351 645.066
8.59709314210385 1131.75
8.619472567021075 1763.98
8.64183487789147 2116.05
8.664214962183097 1900.75
8.686577933647762 1062.69
8.708958680784317 423.995
8.731339760774953 190.013
8.753703729764451 118.74600000000001
8.77608547780821 102.339
8.798450116065078 97.8104
8.820832535634787 94.2833
8.843215292401656 92.4694
8.865580941199045 90.6277
8.887964374703538 89.7764
8.910330701447199 91.2421
8.932714815164482 94.5744
8.955099270424924 93.7142
8.977466620733543 89.8438
8.999851761421976 86.3498
9.022219798361645 84.3437
9.04460562795561 84.1082
9.066991803441677 83.6474
9.089360876979615 83.6279
9.111747746589993 83.3245
9.13411751544971 82.6271
9.156505082664324 82.6304
9.178875550323522 82.9643
9.20126381862328 83.5128
9.223652438908596 83.9078
9.246023961427412 83.6015
9.26841328802173 83.0199
9.290785518039224 83.0159
9.313175554425882 83.6802
9.335565947154315 83.0618
9.357939245086508 83.1603
9.380330352834827 83.5591
9.40270436697103 83.8501
9.425096193225055 83.6928
9.447488380180165 84.5542
9.469863475295412 84.898
9.492256385987508 85.1056
9.514632206018318 85.684
9.537025843935714 86.0922
9.559402392368193 86.9582
9.581796761000229 88.1291
9.604191496441521 89.0921
9.626569144158516 93.3851
9.648964615551032 99.1424
9.671343000390081 101.334
9.693739211225699 98.3942
9.716135793237463 95.0651
9.738515290448102 94.1534
9.760912617143402 94.5112
9.783292860202891 95.8356
9.805690935076182 97.5528
9.828089385495742 98.2274
9.850470754023561 100.615
9.872869957865444 109.7
9.89525208097539 128.113
9.917652041736662 143.765
9.940052382417589 142.68
9.962435644102392 144.54
9.984836746950979 178.19
10.007220771957746 242.227
10.029622640473708 342.325
10.052007432299963 511.43800000000005
10.074410069984072 771.971
10.096813093716005 1185.28
10.119199042482517 1630.14
10.141602840636468 1905.9
10.163989564971628 1654.38
10.186394141051062 998.2710000000001
10.208799107559706 454.105
10.231187001965623 214.266
10.253592751657669 135.183
10.275981430388155 116.962
10.298387966769793 116.62700000000001
10.320794897965431 120.105
10.343184759907361 118.734
10.36559248305461 111.804
10.387983138083852 106.486
10.410391656691655 108.382
10.432800574501677 118.90799999999999
10.455192425893369 135.605
10.47760214443012 160.126
10.499994797678786 202.858
10.522405320453982 275.591
10.54479877906917 383.12
10.567210109595656 494.151
10.5896218454736 566.775
10.612016518879773 536.6619999999999
10.634429067781074 384.11400000000003
10.656824555333241 225.313
10.679237920773568 135.653
10.701651695961992 100.35799999999999
10.724048411481384 91.6763
10.746463008485165 87.8485
10.768860546937125 86.2863
10.791275969274796 84.4412
10.81369180576079 83.5264
10.836090585366925 82.2361
10.858507252467449 80.9104
10.88090686379991 79.8905
10.903324365036394 79.642
10.925724811614439 79.7791
10.948143150509463 81.3515
10.970561909719066 80.8959
10.992963615930844 78.4666
11.015383218085756 75.8656
11.037785768347074 74.20100000000001
11.06020621697282 73.6558
11.082627090322113 73.1811
11.105030913430326 72.9873
11.12745263854165 74.0105
11.149857314510728 78.3637
11.172279894912576 85.9524
11.194702904450653 86.9478
11.217108866490921 81.6358
11.239532736615194 76.5332
11.26193956033512 73.6627
11.284364294577085 71.4529
11.306789462371718 69.3377
11.329197585398376 68.2311
11.351623622610898 67.7148
11.37403261614354 66.9184
11.396459526308487 67.0378
11.418869393879497 66.1318
11.441297180532617 65.8994
11.463725406927658 65.5405
11.486136592353875 65.609
11.508565700543707 66.3543
11.530977768845315 68.7704
11.553407762368774 69.9722
11.575838200059769 69.0977
11.598251599479612 66.6158
11.620682927815501 65.1352
11.64309721895548 64.2371
11.665529441478206 63.6623
11.687962112597958 63.747
11.710377748130886 63.769
11.732811318753434 63.6507
11.755227854859067 63.8452
11.777662328529495 63.9326
11.800079768750786 63.3332
11.822515149015453 63.1291
11.844950984084935 63.1673
11.867369787303163 63.0051
11.889806534289491 63.1213
11.912226250487029 63.3295
11.934663912939751 63.4766
11.9571020346363 63.5082
11.979523127133968 63.3502
12.001962169624331 64.4173
12.024384183972964 65.4295
12.046824150809913 68.1173
12.069264581333726 73.70100000000001
12.091687985297767 80.2316
12.11412934550045 88.9574
12.136553680195208 103.72399999999999
12.158995973632788 123.60799999999999
12.181438735204349 150.18200000000002
12.20386447284199 179.077
12.226308172985636 203.52599999999998
12.24873485024193 206.393
12.271179492516982 175.718
12.293607112949127 137.726
12.316052700916226 103.277
12.338498763250042 83.4337
12.360927805303868 72.6046
12.383374818673879 67.9248
12.405804812803074 65.6987
12.428252780773262 65.5657
12.45070122756722 65.376
12.473132656675375 65.1371
12.49558206341869 65.2964
12.518014453510101 65.1174
12.540464823770117 65.0715
12.562915677315177 65.6399
12.58534951575545 66.4696
12.607801338171472 68.8455
12.630236146511358 75.5934
12.652688941369085 81.3539
12.675124723177234 82.1407
12.697578494048786 76.9522
12.720032754458185 71.5051
12.742470003354093 69.1404
12.764925245138771 68.77600000000001
12.787363476431278 68.8629
12.809819703166806 69.0743
12.83227642391173 69.8715
12.854716135692716 70.4255
12.877173846755147 71.8787
12.899614549869717 72.024
12.9220732548287 72.7143
12.94453245827299 73.0079
12.966974655289818 73.9279
12.989434858002571 74.6497
13.011878055298721 75.3219
13.034339260862497 76.2025
13.056800969391883 77.423
13.079245674017244 79.6794
13.101708390774869 81.8085
13.12415410463411 88.5161
13.146617833206086 100.382
13.169064559883248 112.806
13.191529303857127 127.619
13.213994557076367 148.991
13.236442809902437 182.47099999999998
13.258909083908291 230.477
13.28135835851934 289.342
13.30382565690295 353.785
13.326293469022952 412.094
13.348744283242008 432.995
13.371213125129904 384.289
13.39366497011003 287.598
13.416134845360597 192.75400000000002
13.438605238843131 132.19799999999998
13.46105863690397 109.23299999999999
13.483530069144786 106.965
13.505984506951902 111.86
13.528456981549432 121.28399999999999
13.550929978879088 135.675
13.573385983253365 157.0
13.595860028340867 192.01
13.618317081455832 238.18400000000003
13.64079217790333 287.01
13.663250283359057 334.88699999999994
13.685726434770173 364.26300000000003
13.708203115221277 345.504
13.730662806148091 281.89799999999997
13.75314054697177 202.668
13.775601299246777 140.175
13.798080104050406 103.34700000000001
13.820559442405358 87.7407
13.843021793671388 83.1329
13.865502201420897 81.1036
13.887965623051947 80.5131
13.910447103807167 79.0102
13.932929122629764 78.0257
13.955394156785959 77.7598
13.977877254034569 76.7182
14.000343367582113 75.8554
14.022827546871707 75.1315
14.045294743423524 74.5506
14.06778000837062 73.9203
14.090265817715476 73.7685
14.112734645763819 73.4817
14.13522154619454 73.4371
14.157691466286913 73.2311
14.180179461423874 73.2805
14.202668005486178 72.5141
14.22513957064374 71.7393
14.247629214846473 71.2597
14.270101881097517 71.0935
14.29259262906496 71.3679
14.315083930490205 72.5979
14.337558255389705 73.0591
14.360050666019726 72.6159
14.382526101071944 71.3672
14.405019624534942 70.2004
14.427513705993134 69.2912
14.449990813291825 69.5293
14.47248601302899 69.5158
14.49496423954951 69.3005
14.517460561197822 69.7973
14.539939910570322 69.643
14.562437357763558 69.6908
14.58493536931253 71.2676
14.607416409993311 72.2422
14.62991555254159 72.9826
14.652397725157423 72.5736
14.674898002342799 72.0158
14.697398848433282 71.5452
14.719882725991326 71.9042
14.74238471217934 72.6301
14.764869730765593 75.6161
14.787372860692983 79.0706
14.809876564079925 83.9344
14.83236330125751 89.5369
14.854868153850365 97.693
14.877356041159485 109.765
14.899862046604186 127.21600000000001
14.922351087688757 148.561
14.944858249632887 174.511
14.967365991421232 199.429
14.989856770231246 218.261
15.012365673994204 216.86900000000003
15.03485761569738 194.986
15.05736768508665 156.639
15.07987833888692 120.977
15.102372032001655 95.0032
15.124883856909658 79.3324
15.14737872204565 73.4903
15.169891721717274 71.8194
15.192405310371893 71.4739
15.214901940621196 72.1049
15.237416709527137 72.4541
15.259914520936249 72.4749
15.282430473753607 71.42
15.304947020131227 70.212
15.327446610371178 69.0509
15.349964346154254 68.2811
15.372465126703139 67.5167
15.394984055556009 67.3714
15.417486030076159 67.1395
15.44000615566487 66.6991
15.462526881230803 67.0144
15.485030653812652 67.1563
15.507552581617434 67.3602
15.530057557334603 67.319
15.55258069104857 67.2854
15.575104429329837 67.0781
15.597611216864632 66.4454
15.620136166564563 66.5646
15.6426441664095 67.5154
15.665170331202765 69.5728
15.687697105158826 72.693
15.710206930593545 76.043
15.732734925158933 80.446
15.755245972089478 86.4013
15.77777519094324 94.4538
15.800287463046663 106.374
15.822817909869592 123.115
15.84534897229804 142.249
15.867863089299354 165.21200000000002
15.890395385222186 181.22799999999998
15.912910736597423 193.37
15.935444269699861 186.207
15.957978423016485 163.231
15.980495633101265 131.84799999999998
16.003031029129367 103.91
16.02554948280019 81.5381
16.048086125229432 70.7139
16.070623392487107 67.3359
16.09314371869582 66.2051
16.11568223789321 65.1609
16.13820381691126 64.0087
16.160743591742527 62.8371
16.183283996022084 61.3549
16.205807461423195 60.3772
16.228349126881973 59.5675
16.25087385432698 59.5358
16.27341678466365 59.0555
16.29594277784926 59.3111
16.31848697676433 59.7777
16.341031811604868 60.1143
16.36355971058487 60.6124
16.3861058195587 60.2088
16.40863499352978 58.9178
16.431182380342005 57.7843
16.453730407713202 57.0875
16.476261501364792 56.6557
16.498810812136167 56.2402
16.52134319004079 56.3777
16.54389378792203 56.2887
16.566445031001553 55.9236
16.588979342490088 55.7244
16.61153187824822 55.7241
16.634067483263312 55.506
16.656621315414416 55.4446
16.679175797408888 55.2293
16.701713349928728 55.2772
16.72426913389191 55.5529
16.74680798922351 55.6237
16.76936507887444 55.6348
16.791905240734874 55.8086
16.814463639794468 55.5038
16.837022695210294 55.7312
16.859564824093756 56.2334
16.882125194503903 56.8106
16.904668639217885 57.81100000000001
16.927230328348003 58.032
16.949792678493612 58.2205
16.972338104193863 57.3763
16.994901778652235 56.7014
17.017448529496576 56.2481
17.040013531998152 56.3761
17.06257920018044 56.8625
17.0851279459922 57.6245
17.107694947817667 58.5722
17.130245028099072 59.3198
17.15281336730298 60.7572
17.17536478578733 62.1961
17.19793446610687 64.3345
17.220504818648422 67.0717
17.243058251703697 69.7995
17.265629950971032 73.92399999999999
17.288184731571736 78.1367
17.310757781306908 81.7468
17.33333150794385 83.2176
17.355888317140174 82.6496
17.37846339986244 79.0403
17.401021565958885 72.59899999999999
17.42359800851343 67.7595
17.44617513265564 63.8772
17.468735341390783 61.3683
17.491261035594565 59.9953
17.51396340099364 59.6604
17.536490463869136 59.9271
17.559018209820174 59.8918
17.58154663977963 59.9163
17.604251766089718 59.9163
17.626781572227713 60.1666
17.64931206518155 60.3992
17.671843245885103 61.13399999999999
17.69455114821572 61.3696
17.717083712612634 61.4913
17.739616967569667 61.7304
17.762150914021706 61.8264
17.78486160749854 61.7431
17.807396945166804 62.4175
17.829932977143503 63.2831
17.85246970436452 64.5212
17.875183204129467 66.5813
17.897721330097664 68.8201
17.920260154126645 71.1581
17.942799677153296 74.3233
17.9655159983646 77.8943
17.988056927677544 82.7303
18.010598558807683 89.3631
18.033140892692916 98.0236
18.05586005052525 107.76899999999999
18.07840379824407 118.398
18.10094825154059 129.18200000000002
18.12366954819864 137.857
18.146215420998306 140.796
18.16876200220057 135.171
18.191309292745153 122.51100000000001
18.214033452627167 108.149
18.236582170236648 95.14399999999999
18.259131600016456 88.4158
18.281681742907335 86.9566
18.304408781233683 90.0287
18.32696035875955 94.689
18.349512652227624 99.304
18.372065662579683 104.23899999999999
18.394795594587553 106.71
18.41735004715306 105.17
18.43990521943684 99.4364
18.46246111238171 90.7186
18.485193953325208 80.9012
18.507751296070428 73.0204
18.530309362314178 67.7299
18.552868153000343 64.7702
18.57560391815056 63.0426
18.59816416623245 62.5462
18.620725141597372 61.9746
18.643286845190268 61.742
18.666025549835414 61.2052
18.688588718427933 60.5088
18.711152618092243 60.3658
18.73389353884365 60.1496
18.75645890921984 59.8298
18.77902501351406 59.3416
18.801591852673102 59.3788
18.824335739722738 58.6624
18.846904057212626 58.6241
18.8694731124168 58.3853
18.89204290628315 58.5101
18.914789774966803 58.2139
18.937361054791623 57.9356
18.959933076131318 57.6374
18.982505839934877 57.849
19.00525570560582 58.0616
19.027829963004184 57.6398
19.05040496572238 57.718999999999994
19.072980714710468 57.6679
19.095733592739563 57.6812
19.11831084296757 58.1532
19.140888842324735 58.748999999999995
19.16346759176222 58.9994
19.18622349753803 59.3967
19.208803755869358 60.118
19.231384767143577 61.067
19.253966532312948 62.4306
19.276725481241822 64.3007
19.29930876296784 66.6733
19.3218928014549 69.2883
19.34465404436217 72.7913
19.36723960516257 75.4564
19.389825925592426 77.3825
19.412413006605938 77.0504
19.43517731967805 73.9464
19.457765930683355 69.7423
19.48035530514408 64.928
19.50294544401556 60.9906
19.525712842708348 58.0603
19.54830451925909 56.2975
19.570896963095727 54.9908
19.593490175174704 54.5441
19.616260674962184 54.5696
19.638855432416964 54.2363
19.661450960992624 54.4185
19.68404726164677 54.3
19.706820878021247 54.0785
19.729418731756834 54.2906
19.752017360452857 53.8258
19.77461676506804 54.0579
19.797393513540218 54.2256
19.819994478951667 54.5188
19.84259622316767 54.8594
19.8651987471481 55.5357
19.887978643247177 55.8133
19.91058273574792 56.1063
19.933187610901943 56.8812
19.955969879466828 57.9242
19.97857632894404 59.2609
20.00118356396599 60.5716
20.023791585494575 62.4441
20.046577028914875 64.983
20.069186632506966 66.9395
20.091797025500632 68.9047
20.114408208858933 70.3103
20.137196842715273 70.8315
20.159809615886765 69.8254
20.18242318232135 67.1571
20.20503754298326 64.9408
20.227829382875154 63.3878
20.250445341109344 62.7888
20.27306209647285 62.9593
20.29567964993108 64.3893
20.31847471147704 65.09100000000001
20.34109387027612 66.1291
20.363713830075454 65.9117
20.386334591841646 65.1167
20.409132890679302 63.0277
20.431755265564437 59.8338
20.454378445325528 56.8296
20.477002430930366 54.9001
20.499803982716553 53.4214
20.522429589228004 52.3612
20.54505600449589 51.7411
20.567683229489194 51.7093
20.590488049900088 51.3874
20.61311690359731 51.0215
20.63574656993626 50.5764
20.658553853717297 50.433
20.681185154618298 50.3537
20.703817271080066 50.2307
20.72645020407368 49.8843
20.749260783967177 49.6653
20.771895359337133 49.7017
20.794530754161617 49.6333
20.817166969412938 49.5106
20.83998086114876 49.3948
20.86261872660049 49.306000000000004
20.885257415405402 49.2101
20.90789692853701 49.1834
20.930714147864748 49.1968
20.953355319030678 49.2408
20.97599731745334 49.4163
20.99864014410749 49.0592
21.021460706796564 49.242
21.044105199328826 49.4267
21.06675052302631 49.5414
21.089396678865015 49.7541
21.112220600704806 49.9949
21.134868430275347 50.4681
21.15751709492456 50.5011
21.180166595629693 50.8822
21.202993892429635 51.1118
21.22564507473034 51.6087
21.24829709602816 51.8576
21.27112693608965 52.1229
21.293780644891275 52.1081
21.316435195634053 51.7059
21.339090589297417 50.9729
21.361923832041875 50.5349
21.384580921090404 49.678000000000004
21.407238856007325 49.187
21.429897637773326 49.0851
21.45273429906592 49.0007
21.475394784108598 49.0741
21.498056118951983 48.93899999999999
21.520718304578022 49.2006
21.543558400304388 49.2807
21.566222297108816 49.3692
21.58888704765135 49.3417
21.61155265291521 49.6919
21.63439619898156 50.2614
21.657063523335786 50.57
21.67973170537063 50.8908
21.7024007460706 51.5174
21.72524775840385 52.0756
21.747918526116475 53.0965
21.770590155457388 54.2964
21.79326264741238 55.6065
21.816113141960237 57.2314
21.838787368860547 59.0661
21.861462461341976 60.6741
21.884315579735777 62.6581
21.90699241312273 64.0251
21.92967011506078 64.7718
21.95234868653799 65.1383
21.9752053151131 64.346
21.997885635446785 62.6596
22.020566828293532 60.8668
22.04324889464272 58.9327
22.066109049404666 57.3991
22.088792872571794 56.5612
22.111477572219204 56.3533
22.1341631493376 56.5379
22.157026846313123 56.5866
22.179714188221507 56.1855
22.202402410582668 55.287
22.22509151438863 54.0163
22.24795876962584 52.5591
22.270649646204486 51.4589
22.293341407213727 50.5905
22.316034053646906 50.1516
22.338904883215342 49.8827
22.36159931041458 49.8018
22.38429462602756 49.5885
22.40699083104897 49.4688
22.429865251039757 49.6121
22.452563244831367 49.6733
22.47526213102522 49.4622
22.49813925616515 49.2989
22.520839937143307 49.2813
22.543541513520587 49.2085
22.56624398629403 49.0426
22.589124730075895 49.0615
22.611829005656723 49.2322
22.63453418063466 49.121
22.657240256008077 49.3435
22.680124634582935 49.576
22.70283252079775 49.9701
22.725541310413075 50.1039
22.74825100442868 50.4845
22.771139033969575 50.955
22.79385054687155 51.0236
22.81656296718292 51.5573
22.83927629590484 52.4058
22.862167992606945 53.1746
22.88488314827121 54.2736
22.907599215359284 55.1579
22.93031619487366 56.2525
22.953211574954405 57.0424
22.975930389478226 58.0355
22.998650119445763 58.6793
23.02137076586092 58.3335
23.044269845560063 57.292
23.06699233506288 55.7304
23.089715744034912 53.9125
23.112617610931565 52.1994
23.135342869061212 50.8508
23.158069049684816 49.9531
23.1807961538087 49.5382
23.20370174880544 49.4046
23.226430710184808 49.4505
23.249160598093425 49.4765
23.271891413539002 49.5593
23.294800752937697 49.5171
23.31753343374794 49.6263
23.340267045128353 49.5763
23.36300158808808 50.0045
23.38591468821339 50.4385
23.408651104658304 50.7212
23.431388455719986 51.2326
23.454126742409 51.8928
23.4770436196085 53.0398
23.499783787914662 54.0378
23.522524894889884 54.9499
23.54526694154616 55.7309
23.56818761219047 57.007
23.59093154860734 57.7656
23.613676427751283 58.5544
23.636422250635754 57.84
23.659346731118656 56.7001
23.68209445191868 54.8842
23.704843119509587 52.8524
23.72759273490623 50.9048
23.750521041644767 49.1845
23.77327256312355 47.9921
23.796025035462787 47.391999999999996
23.818956224555475 46.8445
23.841710609113413 46.5572
23.86446594758979 46.3545
23.887222241002014 46.0752
23.910157285144578 45.8023
23.932915498962537 45.9386
23.955674670778713 45.7002
23.978434801611975 45.5352
24.001373717286125 45.3532
24.024135776723917 45.3079
24.046898798245582 45.1695
24.06966278287146 44.9277
24.092605586582614 45.0483
24.115371508023642 44.8376
24.1381383956401 44.7354
24.16090625045381 44.5617
24.183852958731244 44.5247
24.206622758582608 44.532
24.229393528706886 44.3199
24.252165270127392 44.3705
24.27511589952438 44.3073
24.297889594216997 43.9665
24.32066426328598 43.8736
24.34343990775613 43.8879
24.36639447485003 43.8945
24.38917208083877 43.6845
24.41195066531332 43.4966
24.43490819850244 43.6522
24.457688750692377 43.611000000000004
24.48047028445616 43.39
24.503252800821233 43.4347
24.526214300784112 43.631
24.548998793132213 43.7019
24.57178427117417 43.5374
24.59457073593893 43.5691
24.617536219319863 43.5424
24.64032466834748 43.6748
24.663114107195035 43.2968
24.685904536893013 42.9994
24.708874020360852 43.0229
24.731666442613744 42.99
24.754459858818787 42.9051
24.777254270007962 42.9386
24.80022777025625 42.7954
24.82302418230472 42.7605
24.845821592443674 42.8013
24.86862000170663 42.6915
24.891597535453727 42.5211
24.914397953892728 42.7156
24.93719937456671 42.6528
24.96000179851076 42.8924
24.98298338249997 42.988
25.00578782394922 43.1351
25.028593271784167 43.3114
25.05157790644186 43.6097
25.07438537804115 43.7498
25.097193859145293 44.0184
25.120003350792075 44.2134
25.142992065061257 44.4979
25.165803588823465 44.8018
25.18861612625217 45.0952
25.211429678386736 45.2451
25.234422489079968 45.2076
25.257238081693636 45.2546
25.280054692141732 45.4835
25.3028723214652 45.3199
25.325869245420463 45.4964
25.348688923599397 45.613
25.371509623787006 45.464
25.394331347025812 45.309
25.41733240110666 44.8912
25.440156181590016 44.2857
25.46298098826268 43.7478
25.48580682216873 43.2258
25.50881202326435 42.633
25.53163992281684 42.1476
25.55446885274561 41.7125
25.577298814096377 41.5646
25.600308179121807 41.5337
25.623140214533745 41.4732
25.64597328451537 41.4129
25.66898578564376 41.126999999999995
25.691820936010206 41.2113
25.714657124097695 41.0479
25.737494350954734 41.1057
25.760511045684957 40.9393
25.783350361364224 41.1412
25.806190718969255 40.9866
25.82903211955018 41.1303
25.852053024868923 41.1983
25.874896522722523 41.1306
25.897741066713106 41.1301
25.920586657892454 41.1522
25.943611790812668 41.3949
25.966459487728237 41.3598
25.989308234998564 41.4493
26.01215803367705 41.8235
26.03518741123814 41.9474
26.05803932412957 41.9836
26.080892291600094 41.9452
26.10374631470478 41.9421
26.12677995397268 42.1982
26.14963609978026 42.2006
26.172493304397875 41.958999999999996
26.19535156888223 41.8133
26.218389486949604 41.425
26.241249882640123 41.1099
26.26411134137826 40.7955
26.28715248187403 40.7382
26.31001607820869 40.5637
26.3328807407756 40.4791
26.35574647063438 40.7138
26.37879191991473 40.576
26.401659795896734 40.6716
26.424528742360263 40.7589
26.447398760366614 40.8668
26.470448535598294 41.0075
26.49332070826805 41.2147
26.516193955675355 41.5426
26.53906827888316 41.7441
26.562122397260108 41.8777
26.584998883685063 42.0909
26.607876449110325 42.2456
26.63075509460056 42.4405
26.65381357334404 42.5159
26.67669439061878 42.6307
26.699576291163382 42.5457
26.722459276044212 42.4142
26.745522132402975 42.2465
26.768407297649354 41.9906
26.791293550442003 41.6934
26.814180891848974 41.4335
26.837248143099337 41.1845
26.860137673466657 41.1834
26.88302829566349 40.8097
26.90592001075963 40.6358
26.92899167420566 40.5295
26.951885586870763 40.0247
26.974780595655517 39.848
26.99785558178161 39.7921
27.020752794605112 39.5538
27.043651106772522 39.4999
27.06655051935668 39.4466
27.089629948036183 39.1944
27.112531573292053 39.3509
27.135434302194138 39.4628
27.158338135817015 39.0389
27.181422024430987 39.0407
27.204328079372566 38.9831
27.22723524226965 39.1004
27.250143514198573 38.9925
27.273231880156334 38.9999
27.296142382065014 38.8421
27.319053996245536 38.8025
27.341966723775965 38.8427
27.365059584515222 38.8819
27.38797455070062 39.0415
27.410890633481237 38.7854
27.433807833936918 38.8461
27.456905206923906 39.0064
27.47982465472398 38.9389
27.502745223449743 38.9689
27.525666914182825 39.0911
27.548768816912457 39.0494
27.571692763693633 39.0003
27.59461783573812 38.834
27.617723149491244 38.7387
27.640650484125285 38.7028
27.66357894728264 38.5339
27.686508540048052 38.6042
27.709618414237887 38.5839
27.732550278321757 38.2934
27.755483275279115 38.3627
27.778417406196485 38.3587
27.801531858397514 38.3859
27.824468269376716 38.2544
27.847405817586786 38.2919
27.870344504116094 38.3605
27.893463551932008 38.6128
27.916404527281053 38.727
27.93934664422563 38.7043
27.962289903855886 38.6881
27.98541356491974 39.0341
28.00835912214229 39.205999999999996
28.03130582533231 39.3888
28.054253675581805 39.5247
28.077381967556104 39.5096
28.100332124185126 39.4534
28.123283431160893 39.368
28.146235889577238 39.3748
28.169368830154156 39.1837
28.192323603752033 39.054
28.215279532083304 38.6669
28.238415973016764 38.4975
28.261374223145094 38.3336
28.284333631303806 38.1413
28.307294198589954 38.0056
28.330435319167677 37.6296
28.353398217078915 37.4586
28.376362277420153 37.2126
28.39932750129032 37.1478
28.422473319286713 37.0559
28.44544088262495 36.8685
28.468409612800283 36.7982
28.491379510913497 36.5387
28.51453004413313 36.5155
28.53750229057244 36.5706
28.56047570826344 36.402
28.583450298308804 36.3449
28.606605564586562 35.9857
28.629582511831156 36.2115
28.65256063474956 36.1034
28.675539934446338 36.1826
28.698699951647605 36.0174
28.72168161743193 35.8733
28.74466446331978 35.9676
28.767648490417624 35.8045
28.790813276438353 35.8168
28.813799678527303 35.8723
28.836787265157085 35.8431
28.859955641890075 35.8754
28.882945610203045 35.8467
28.905936766392035 35.8044
28.928929111566863 35.7239
28.952102288520145 35.7971
28.975097024308607 35.672
28.998092952423807 35.5443
29.021090073977508 35.4379
29.04426806913204 35.3777
29.067267590245258 35.1804
29.090268308143695 35.2092
29.11327022394099 35.055
29.13645305530891 34.9231
29.159457379627167 34.7983
29.18246290519685 34.7234
29.20546963313352 34.7749
29.22865731875826 34.884
29.25166646419296 34.7724
29.27467681535305 34.6373
29.29768837335608 34.7715
29.320880931312562 34.731
29.34389491580634 34.7487
29.366910110507334 34.7178
29.38992651653503 34.7069
29.41312396492981 34.6939
29.436142806456754 34.5623
29.45916286268059 34.5468
29.48236399319994 34.5122
29.50538649169417 34.2485
29.528410208259935 34.1886
29.55143514402014 33.8859
29.574641196749695 33.9036
29.597668583816574 33.72
29.6206971934585 33.5533
29.64372702680042 33.607
29.666938019934474 33.5113
29.689970313635285 33.4879
29.713003834422636 33.4995
29.73603858342347 33.4018
29.759254535188578 33.3428
29.78229175361658 33.2664
29.80533020365064 33.3161
29.82836988641968 33.3353
29.85159081507472 33.2868
29.874632976355343 33.0924
29.89767637376955 33.0766
29.920721008448314 33.0518
29.9439469322847 32.9536
29.96699405457564 33.0442
29.9900424175358 33.0154
30.013092022298157 32.8806
30.03632295963995 32.805
30.059375061131373 32.9171
30.08242840783577 32.9671
30.105483000888153 32.8413
30.128718970092244 32.7766
30.151776069006917 32.7756
30.17483441768648 32.8423
30.198074175317235 32.8695
30.221135036724256 32.907
30.24419715131772 32.7518
30.267260520236203 32.671
30.290505341942243 32.7595
30.313571232750228 32.836999999999996
30.336638381310948 32.8205
30.35970678876503 32.6476
30.38295669299435 32.596
30.40602763151657 32.61
30.429099832366074 32.5948
30.452173296685572 32.5128
30.47542830191959 32.4615
30.498504306502497 32.4783
30.521581577995562 32.5698
30.544660117543582 32.6887
30.56792024229725 32.5492
30.59100133132069 32.4753
30.614083691845494 32.5026
30.637167325018545 32.5925
30.660432587840603 32.7112
30.683518779717886 32.5507
30.70660624769615 32.664
30.729694992924372 32.5983
30.75296541239743 32.6091
30.77605672557558 32.5908
30.799149319462742 32.5284
30.8224236211637 32.403
30.845518789950724 32.3415
30.868615242910597 32.2662
30.891712981195973 32.0384
30.91499247215866 31.9605
30.938092794619365 32.0516
30.96119440587579 31.8528
30.984297307082752 31.7907
31.00758200598383 31.6776
31.030687500658694 31.6874
31.053794288760695 31.6343
31.076902371446767 31.4735
31.100192296997445 31.6264
31.12330298246119 31.5269
31.14641496599209 31.3634
31.169528248749216 31.4195
31.19282341969534 31.3639
31.215939314557186 31.3266
31.239056512134788 31.3492
31.262175013589378 31.361
31.28547544871168 31.2111
31.30859657161541 31.2198
31.331719001892175 31.1478
31.35484274070538 31.2517
31.378148458819545 31.3475
31.401274828443725 31.1883
31.424402510106933 31.2179
31.447712205419993 31.3348
31.470842524931633 31.1955
31.493974159989783 31.1036
31.51710711176168 31.1459
31.54042212308802 31.2597
31.563557722100917 31.178
31.586694641341655 31.0102
31.609832881979628 31.0292
31.63315322823208 30.9359
31.656294125521327 30.7205
31.679436347728515 30.7629
31.70257989602529 30.6651
31.725905596152327 30.5434
31.74905181052835 30.5383
31.772199354521323 30.6359
31.79534822930507 30.6155
31.818679302290967 30.603
31.84183085259981 30.5225
31.864983737233473 30.5173
31.88813795736804 30.5939
31.911474422233013 30.3771
31.934631327356435 30.2994
31.9577895715215 30.2649
31.980949155906522 30.3987
32.004291031706956 30.3898
32.027453310562606 30.272
32.05061693318573 30.2223
32.07396288236386 30.1585
32.09712920658542 30.1567
32.12029687812702 29.9592
32.14346589817093 29.9175
32.166817291729984 29.9507
32.18998902288583 29.875
32.21316210610336 29.8159
32.23633654256711 29.6348
32.259693399663725 29.6579
32.282870556771144 29.5448
32.30604907069099 29.5305
32.329228942610065 29.5201
32.35259128243769 29.3797
32.375773884550505 29.3492
32.398957848235646 29.3611
32.422143174682176 29.1987
32.445511016471215 29.0735
32.468699082679954 29.1385
32.49188851523011 29.1244
32.51507931531304 28.9768
32.538452678331 28.9433
32.56164622776311 28.9941
32.58484114831493 28.9024
32.60803744118015 28.9017
32.631416344731896 28.8486
32.654615396551876 28.7651
32.67781582427913 28.7834
32.701198898634416 28.7257
32.72440209253756 28.7221
32.747606665947124 28.656
32.77081262006088 28.5156
32.79420126883317 28.5513
32.81740999876112 28.5586
32.840620112999424 28.3748
32.86383161274818 28.3507
32.88722585534586 28.4954
32.91044014056596 28.4717
32.933655814909734 28.3631
32.95687287957963 28.355999999999998
32.98027273544904 28.2963
33.00349259526636 28.215999999999998
33.026713849030116 28.2699
33.04993649794511 28.2437
33.073341986570746 28.1426
33.09656744032826 28.1123
33.11979429286444 28.1388
33.14302254538647 28.1169
33.166433686291185 28.037
33.18966475336992 27.9434
33.212897224069096 27.9058
33.23613109959831 28.0184
33.259547912343415 27.9762
33.2827846121627 27.9163
33.306022720453775 27.8905
33.32926223842861 27.7197
33.352684742614166 27.7456
33.37592709463173 27.7847
33.399170859982064 27.651
33.422597648419426 27.5923
33.44584425514446 27.4645
33.46909227885668 27.4608
33.4923417207723 27.3468
33.51577423505344 27.3872
33.539026528130385 27.2695
33.56228024307245 27.291999999999998
33.585535381098246 27.1227
33.60897364093058 27.0975
33.63223163992385 27.0545
33.6554910656699 27.0677
33.678751919389796 27.0334
33.702195944520106 26.9243
33.72545966903325 26.9294
33.74872482519663 26.7995
33.771991414233746 26.9387
33.79544122444841 26.9127
33.81871069412428 26.7027
33.84198160035767 26.6899
33.86525394437455 26.7628
33.88870955949969 26.6975
33.911984794020626 26.6447
33.93526147001624 26.62
33.958539588715006 26.5075
33.98200102861669 26.5124
34.0052820477047 26.4384
34.02856451319451 26.4375
34.05203033759056 26.2858
34.07531571090147 26.3341
34.09860253431845 26.2914
34.121890809074316 26.1969
34.145362493118924 26.2019
34.16865368561615 26.1735
34.191946333164054 26.1352
34.21524043699793 26.1111
34.23871800066799 26.089000000000002
34.26201503218366 25.9195
34.28531352370466 25.913
34.30861347646881 25.8877
34.33209693978188 25.8674
34.3553998301885 25.8963
34.378704185565205 25.7476
34.402010007152356 25.7456
34.42549939016683 25.8118
34.44880815937748 25.6337
34.472118398533134 25.6045
34.49543010887669 25.529
34.51892543169198 25.4777
34.54224009966052 25.5408
34.56555624255917 25.5627
34.58887386163339 25.4404
34.61237514439016 25.342
34.6356957311114 25.2354
34.65901779775809 25.304000000000002
34.68252356662995 25.2603
34.705848608458616 25.1783
34.72917513396849 25.1236
34.75250314440949 25.1373
34.77601490857862 25.013
34.799345904259795 25.0294
34.82267838863559 25.0532
34.846012362958525 24.9785
34.869530142679984 24.9535
34.89286711232212 24.971
34.91620557568269 24.8818
34.93954553401677 24.8309
34.9630693495876 24.7958
34.986412313340814 24.7925
35.00975677584668 24.7856
35.033102738362956 24.7853
35.05663261012228 24.6346
35.0799815881786 24.6711
35.10333207003229 24.6006
35.12668405694369 24.6028
35.150220005273056 24.5221
35.17357501786656 24.4856
35.19693153931268 24.4316
35.220289570874385 24.4514
35.24383161619786 24.4968
35.267192683604904 24.3946
35.290555264930376 24.4123
35.314101899412165 24.3024
35.33746752422433 24.3106
35.36083466676374 24.3669
35.38420332829803 24.2554
35.407756095629054 24.3239
35.43112781085063 24.3303
35.45450104888391 24.1948
35.477875810999194 24.1667
35.50143473172161 24.1628
35.52481255774625 24.1631
35.54819191167777 24.1183
35.57157279478914 24.0776
35.595137889488406 24.0584
35.61852184675279 24.0282
35.641907337029984 23.8592
35.665294361595684 23.8645
35.68886565090076 23.7929
35.7122557598848 23.8551
35.73564740699838 23.8208
35.759040593519934 23.7825
35.78261809810353 23.738000000000003
35.80601437933051 23.6817
35.829412203814705 23.616
35.85281157283719 23.5514
35.876395313415884 23.5892
35.8997977874528 23.5494
35.92320180988546 23.463
35.946790244133936 23.3952
35.97019737933222 23.4182
35.993606066789866 23.2841
36.01701630779276 23.2408
36.04061101440684 23.2503
36.06402437852291 23.3138
36.08743930005611 23.2882
36.1108557802951 23.1194
36.13445678011326 23.2334
36.15787639383515 23.136
36.18129757014299 23.0467
36.20472031032821 23.0947
36.22832762423364 23.0693
36.25175350829375 23.0075
36.275180960119776 22.9241
36.298609981005924 22.9788
36.32222362992669 22.9664
36.34565580510207 22.9506
36.36908955323448 22.8487
36.39252487562093 22.6765
36.416144880530226 22.7573
36.43958336764275 22.7432
36.463023432914625 22.6927
36.486465077645676 22.6486
36.51009145956204 22.7169
36.53353627947859 22.6553
36.55698268276811 22.6622
36.58043067073321 22.5309
36.60406345072071 22.4051
36.62751462435344 22.5368
36.65096738658405 22.4937
36.67460498210655 22.4628
36.69806093788647 22.4181
36.72151848619297 22.3412
36.744977628333636 22.3011
36.76862165890998 22.1986
36.79208400512205 22.2747
36.81554794910557 22.2478
36.83901349217101 22.116999999999997
36.862663978991606 22.1968
36.88613273667352 22.1036
36.90960309738324 22.0233
36.933075062434064 22.0355
36.95673202673572 21.9702
36.98020721697122 21.9249
37.003684015502365 21.8992
37.027162423645365 21.8691
37.050825886711465 21.8561
37.07430753063053 21.7963
37.09779078812467 21.7772
37.121275660513014 21.7127
37.144945643673694 21.6845
37.16843376245278 21.6492
37.19192350009803 21.6755
37.215414857931435 21.5339
37.239091382563885 21.5176
37.262585997426164 21.5493
37.28608223645736 21.5926
37.309763684451696 21.4646
37.33326318851098 21.4699
37.356764320726555 21.436999999999998
37.380267082425526 21.3858
37.40395510942588 21.4251
37.42746114683234 21.3966
37.45096881771841 21.3004
37.474478123414166 21.2801
37.49817275092816 21.2253
37.52168534303452 21.2002
37.54519957395567 21.1387
37.568715445024665 21.1593
37.592416694607714 21.0988
37.61593586281424 21.0652
37.63945667518264 21.0245
37.66297913304891 21.041
37.68668702630454 21.0092
37.710212792059274 20.8293
37.733740207334854 20.8904
37.757269273470364 20.8864
37.780983832050374 20.8424
37.80451621684926 20.7968
37.82805025654007 20.7986
37.851585952464795 20.7905
37.8753071980695 20.6806
37.89884622345676 20.6384
37.92238690911902 20.6109
37.94611318753442 20.5537
37.969657210779765 20.5891
37.99320289834801 20.5966
38.016750251586465 20.5024
38.04048325513017 20.4397
38.06403395679343 20.3977
38.087586328183946 20.3838
38.11114037065203 20.3984
38.13488012115898 20.3615
38.1584375229181 20.2897
38.181996599821 20.277
38.205557353221124 20.2372
38.229303872575656 20.1977
38.2528679961576 20.1402
38.27643380031219 20.1469
38.30000128639589 20.1001
38.32375459653193 20.0889
38.34732546371299 20.1108
38.37089801690786 19.9682
38.39447225747609 19.9298
38.418232380377425 19.9592
38.441810012983396 19.8927
38.46538933705673 19.8478
38.488970353960084 19.8635
38.51273731166058 19.7545
38.536321731567014 19.7448
38.55990784840681 19.8011
38.58367995004091 19.7305
38.60726947812959 19.6288
38.63086070726198 19.7619
38.654453638806274 19.724
38.678232613930824 19.5882
38.70182896773327 19.6025
38.72542702806741 19.5206
38.7490267963045 19.3997
38.77281266709232 19.419
38.79641586862214 19.4134
38.8200207821842 19.3807
38.843627409152944 19.4468
38.86742019782782 19.3986
38.891030269149255 19.2866
38.914642058016156 19.3035
38.938255565806124 19.254
38.96205529464307 19.2248
38.98567225787121 19.1902
39.00929094417078 19.2634
39.03291135492255 19.2044
39.05671804624804 19.1349
39.080341923549106 19.0994
39.103967529460334 19.1273
39.127594865365744 19.0339
39.15140854155791 18.9489
39.17503935514948 18.9222
39.19867190290282 18.9533
39.22249083587951 18.899
39.24612686969409 18.862000000000002
39.269764641845306 18.8559
39.293404153722804 18.8149
39.317230110864074 18.7393
39.34087311998506 18.6978
39.36451787301696 18.6843
39.388164371352595 18.6745
39.41199737518003 18.6486
39.43564738196752 18.5903
39.45929913825317 18.5665
39.48295264543308 18.5752
39.506792718520884 18.5797
39.530449745387216 18.5409
39.55410852735203 18.423
39.57776906581474 18.5077
39.60161623079 18.4651
39.625280300200025 18.355
39.64894613032202 18.3274
39.67261372255866 18.3076
39.6964680021016 18.2993
39.72013913657293 18.2807
39.74381203738292 18.2124
39.76748670593756 18.2891
39.79134812278169 18.252
39.81502634488497 18.2075
39.83870633896685 18.0909
39.862388106436654 18.0645
39.88625668336918 18.05
39.90994201572829 18.1239
39.933629125719285 18.0878
39.957503091207826 17.9889
39.9811937746168 17.9701
40.00488623990914 17.8723
40.02858048850006 17.8751
40.05246165409549 17.8287
40.076159487492085 17.7833
40.099859108448875 17.8271
40.123560518384345 17.7206
40.1474489070226 17.7639
40.171153913178564 17.7049
40.194860712584955 17.6822
40.2185693066637 17.6558
40.242464941335314 17.6248
40.26617714307655 17.617
40.289891143772046 17.5626
40.3136069448471 17.5598
40.33750984859743 17.4996
40.3612292688043 17.4884
40.3849504936829 17.45
40.40867352466194 17.4917
40.43258372059144 17.4408
40.45631038219906 17.4848
40.48003885420956 17.3601
40.503769138055105 17.2853
40.52768664931955 17.3157
40.55142057531802 17.3157
40.57515631746428 17.3448
40.599079334038514 17.2868
40.62281872700477 17.1406
40.64655994043941 17.1126
40.67030297578061 17.1833
40.69423334835778 17.1208
40.71798004609188 17.0659
40.74172857006355 17.0716
40.76547892171441 17.0401
40.7894166736039 17.0408
40.813170699248566 17.0132
40.83692655691388 16.9988
40.86068424804498 17.0272
40.884629402612525 16.9854
40.908390779366385 16.9669
40.932153993938 16.8772
40.95591904777605 16.8273
40.979871628443995 16.8126
41.003640379561936 16.7632
41.02741097430883 16.8161
41.05118341413683 16.8076
41.075143444384416 16.7135
41.098919593177826 16.6858
41.1226975914255 16.652
41.14647744058318 16.5867
41.170444943946755 16.5285
41.19422851378379 16.5759
41.218013938914645 16.4881
41.24198706625173 16.4669
41.26577622087193 16.5035
41.289567235177785 16.4834
41.31336011063129 16.4433
41.337340752422875 16.3973
41.361137369129835 16.3481
41.38493585138705 16.3491
41.40873620066004 16.3171
41.43272438060107 16.276
41.45652848292052 16.2682
41.48033445666918 16.2017
41.50414230331616 16.137999999999998
41.528138045159764 16.1568
41.551949656675205 16.0686
41.575763145513235 16.1413
41.59957851314666 16.0925
41.62358184070442 16.0556
41.64740098505737 15.9977
41.6712220126409 16.033
41.69504492493139 16.0281
41.71905586207357 15.9423
41.74288256296395 15.9372
41.766711153007456 15.8316
41.79054163368412 15.8361
41.814560204340054 15.8749
41.838394485526365 15.8576
41.86223066180303 15.794
41.88625497706819 15.7901
41.910094962812 15.7399
41.93393684811168 15.7686
41.95778063445365 15.6914
41.981812625263366 15.6542
42.00566023303407 15.6298
42.029509746323676 15.6477
42.05336116662236 15.556
42.077400857069705 15.5986
42.10125611078846 15.517000000000001
42.12511327600405 15.4469
42.14897235421036 15.4707
42.173019768448455 15.4421
42.19688269209613 15.4809
42.22074753323349 15.4192
42.24461429335818 15.4134
42.268669455600495 15.3431
42.292540073217886 15.347000000000001
42.31641261433284 15.3056
42.34028708044675 15.2702
42.36435001496739 15.2366
42.38822835065557 15.2047
42.41210861586426 15.1392
42.4359908120986 15.152999999999999
42.46006154323262 15.1231
42.48394762115317 15.0721
42.507835634632315 15.0568
42.531912233047436 15.0817
42.55580413732265 15.0739
42.579697981698 15.024000000000001
42.60359376768525 14.9882
42.62767820545945 14.9526
42.65157789440821 14.9381
42.67547952952185 14.929
42.699383112316 14.8777
42.72347541395347 14.8174
42.74738291190531 14.8283
42.771292362102166 14.764000000000001
42.795203766063516 14.8038
42.819303956130405 14.7864
42.843219287476536 14.732000000000001
42.86713657716324 14.7133
42.89105582671383 14.6987
42.91516392983864 14.6264
42.939087119032166 14.595
42.963012272677304 14.5795
42.98693939230129 14.5974
43.01105543317513 14.504000000000001
43.034986504731386 14.501
43.05891954686589 14.49
43.08285456110972 14.4838
43.10697856448665 14.4445
43.130917542983475 14.3856
43.15485849820081 14.3994
43.17880143167367 14.3247
43.20293342237094 14.3477
43.226880332449 14.3482
43.25082922540554 14.3116
43.27496722682525 14.2516
43.29892010567796 14.2508
43.32287497204102 14.219000000000001
43.34683182745632 14.1528
43.370977859791836 14.1357
43.39493871351105 14.1532
43.41890156092628 14.1287
43.44286640358341 14.115
43.46702049182749 14.0963
43.49098934522816 14.0669
43.51496019852649 13.993
43.5389330532723 14.0235
43.56309522248204 13.9858
43.58707210044314 13.9829
43.61105098451946 13.9379
43.63503187626491 13.8718
43.659202151562134 13.8866
43.68318707902681 13.905999999999999
43.70717401884041 13.8664
43.731162972560874 13.822000000000001
43.75534137913236 13.808
43.779334381108384 13.7825
43.803329401683186 13.765999999999998
43.82732644241872 13.6995
43.8515130055166 13.7352
43.87551410707659 13.6828
43.89951723350145 13.7325
43.923709934595614 13.6615
43.94771713129917 13.6423
43.97172635758096 13.6082
43.99573761501002 13.5484
44.0199385169922 13.527999999999999
44.04395385732619 13.5171
44.067971233533086 13.4804
44.09199064718605 13.4646
44.11619977548961 13.384
44.14022328470671 13.4197
44.16424883610785 13.4321
44.18827643127035 13.4313
44.21249381139513 13.3619
44.236525514814076 13.3313
44.26055926674478 13.3174
44.28459506876863 13.2913
44.3088207262813 13.204
44.33286064928722 13.2191
44.35690262714919 13.2014
44.38094666145278 13.1729
44.4051806219871 13.1953
44.42922879003185 13.152000000000001
44.45327901929361 13.1029
44.477331311362136 13.1113
44.501573600619416 13.0625
44.525630039221795 13.057
44.54968854541895 13.0824
44.573937102200176 13.014000000000001
44.5979997645541 13.0016
44.622064499300315 12.984000000000002
44.64613130803592 12.9617
44.67038823869318 12.9101
44.69445921643748 12.8738
44.718532272981385 12.8444
44.742607409926194 12.8447
44.76687274034801 12.8458
44.79095205918753 12.7852
44.81503346325094 12.8089
44.839116954143876 12.7715
44.86339071028742 12.7355
44.88747839599524 12.7155
44.91156817336837 12.6605
44.93566004401666 12.6806
44.959942251908146 12.6749
44.984038330325966 12.6281
45.00813650686762 12.6065
45.03223678314731 12.5881
45.05652746888232 12.5063
45.08063196592069 12.5213
45.104738567558705 12.5307
45.128847275414856 12.5123
45.15314646515866 12.4336
45.17725940679741 12.4336
45.20137445952892 12.3876
45.22568004865265 12.4158
45.24979934496396 12.3824
45.27392075725247 12.365
45.29804428714431 12.3425
45.322358426247604 12.317
45.346486212804315 12.2548
45.370616121861914 12.3111
45.39474815505086 12.2724
45.41907087049246 12.2555
45.4432071734666 12.2151
45.46734560548283 12.2293
45.49148616817604 12.1689
45.51581748638564 12.1429
45.5399623320197 12.1392
45.56410931325473 12.1416
45.58825843173002 12.1084
45.61259837920865 12.0891
45.636751793816 12.0896
45.66090735060093 12.0174
45.68506505120716 11.9944
45.7094136545275 11.9865
45.73357566449271 11.9605
45.75773982322992 11.9143
45.78190613238733 11.950999999999999
45.806263418194064 11.9087
45.83043404997326 11.8161
45.85460683713677 11.8039
45.87897065658495 11.8603
45.90314777634752 11.8051
45.92732705646868 11.7917
45.9515084986045 11.7544
45.97588104735473 11.7556
46.00006683541565 11.7114
46.02425479047904 11.6661
46.04844491420549 11.6922
46.0728262191024 11.6872
46.09702070211635 11.6783
46.12121735879483 11.6378
46.14541619080294 11.6058
46.169806278764455 11.5526
46.194009483459034 11.5657
46.21821486849841 11.5463
46.24242243555223 11.5049
46.266821333570014 11.4952
46.29103328674601 11.4827
46.31524742696538 11.4503
46.33946375590237 11.4128
46.36387149104216 11.4224
46.38809221957392 11.3476
46.41231514186606 11.3551
46.436540259597464 11.3664
46.460956858999374 11.3527
46.48518638983522 11.2675
46.509418121166966 11.2917
46.533652054678114 11.2655
46.55807754555709 11.2436
46.58231590571962 11.2681
46.60655647313217 11.1777
46.630988654873654 11.1511
46.655233659129024 11.1546
46.67948087571551 11.1275
46.70373030632484 11.08
46.72817142736393 11.0881
46.752425308428684 11.0627
46.77668140861147 11.0663
46.80093972960865 11.0249
46.82538981736788 11.0286
46.849652602470904 10.9848
46.87391761349769 10.9616
46.8981848521493 10.9567
46.9226439341274 10.9051
46.946915650573224 10.8758
46.97118959976749 10.8698
46.99546578341598 10.9099
47.019933887188216 10.8666
47.04421456235744 10.8558
47.06849747711879 10.8318
47.09278263318286 10.787
47.11725978640143 10.7658
47.14154944775105 10.7503
47.165841355555656 10.7071
47.1901355115306 10.706
47.214621741924994 10.7121
47.23892041698887 10.6506
47.26322134538975 10.6041
47.28771440635075 10.620999999999999
47.31201986422527 10.5987
47.33632758061436 10.6039
47.360637557241866 10.5563
47.38513974410611 10.5596
47.40945426407847 10.5329
47.43377104948137 10.5112
47.45809010204344 10.5135
47.48260144275502 10.5001
47.506925052572285 10.4742
47.53125093475548 10.4419
47.55557909103813 10.4158
47.58009961361992 10.4283
47.60443234110732 10.3835
47.62876734791564 10.3624
47.65310463578333 10.3483
47.6776343683373 10.3241
47.7019762413987 10.2832
47.72632040075572 10.2634
47.75066684815169 10.2901
47.77520581885936 10.2594
47.799556865477655 10.2055
47.823910205386 10.1966
47.84826584033272 10.2189
47.87281407745551 10.1826
47.89717432569297 10.19
47.92153687423484 10.1501
47.94609208429692 10.1446
47.97045925671401 10.1133
47.99482873471275 10.075
48.01920052005013 10.0268
48.04376504619224 10.0434
48.068141469543484 10.0496
48.09252020552573 9.99216
48.11690125590099 9.9968
48.1414751266064 9.94566
48.16586082917454 9.956
48.19024885144316 9.91186
48.2146391951793 9.925469999999999
48.239222439012764 9.9053
48.26361744916137 9.901580000000001
48.28801478610016 9.89625
48.31241445160131 9.83871
48.337007097209366 9.83768
48.36141144338331 9.82435
48.38581812345755 9.77632
48.41022713920929 9.79958
48.434829215320704 9.8091
48.45924292604658 9.770669999999999
48.48365897780325 9.74792
48.50807737237308 9.73162
48.532688907799276 9.70326
48.55711201168574 9.669210000000001
48.581537463754074 9.69035
48.60615611725119 9.654539999999999
48.63058628942721 9.620389999999999
48.65501881516546 9.621369999999999
48.6794536962573 9.58597
48.70408185970339 9.55756
48.72852147531801 9.52685
48.75296345168211 9.53883
48.77740779059232 9.53802
48.80204549302823 9.5376
48.82649458091802 9.4634
48.85094603676547 9.50131
48.87539986237231 9.47592
48.90004713292306 9.40354
48.92450572200832 9.41334
48.94896668628025 9.40653
48.97343002754588 9.3707
48.99808689542115 9.32152
49.02255501470614 9.31868
49.04702551642794 9.314810000000001
49.0714984023988 9.296289999999999
49.096164896893235 9.27235
49.120642575466796 9.24836
49.145122643748394 9.24752
49.16960510355558 9.24658
49.19428125404938 9.20938
49.2187685210852 9.21599
49.243258185121555 9.172369999999999
49.26794160167084 9.186110000000001
49.2924360839405 9.17116
49.31693296869764 9.16682
49.34143225776915 9.107510000000001
49.36612538195438 9.08082
49.39062950396021 9.08966
49.41513603578346 9.07121
49.4396449792564 9.05459
49.46434784069503 9.05767
49.488861631846454 8.99928
49.513377840166804 8.970369999999999
49.537896467493745 8.94313
49.56260909589029 8.95452
49.587132585683285 8.94797
49.611658500018365 8.90643
49.636186840738596 8.86479
49.66090926588511 8.88232
49.685442483902584 8.845419999999999
49.70997813385706 8.82513
49.734516217597076 8.808589999999999
49.75924846937352 8.80563
49.7837914452858 8.79526
49.80833686055187 8.75257
49.83288471702571 8.751710000000001
49.85762682540054 8.74959
49.882179588965734 8.728439999999999
49.9067347993235 8.71247
49.93129245833333 8.72568
49.95604445336378 8.7044
49.98060703442832 8.68136
50.005172069746266 8.63835
50.02993150438364 8.65366
50.05450147301533 8.62193
50.07907390151433 8.59627
50.10364879174981 8.58533
50.12841816587289 8.55948
50.1529980044635 8.52985
50.17758031042124 8.51945
50.20216508562089 8.51784
50.22694442953363 8.48661
50.25153416817468 8.49423
50.27612638170508 8.4693
50.300721072005196 8.45503
50.325510416102105 8.4396
50.350110084975064 8.408760000000001
50.37471223628208 8.421330000000001
50.39931687190919 8.38759
50.424116246675766 8.35042
50.44872587605249 8.3523
50.47333799543065 8.34935
50.49795260670191 8.34736
50.52276204271512 8.332989999999999
50.54738166295838 8.29836
50.57200378079314 8.27586
50.596628398116835 8.264510000000001
50.62144792604559 8.2259
50.646077567609396 8.249
50.670709714377715 8.24019
50.69553683636198 8.22193
50.72017401885922 8.16715
50.7448137122895 8.18256
50.76945591856022 8.18794
50.79429318636823 8.14361
50.818940443716784 8.13263
50.84359021965163 8.07354
50.868242516085964 8.09421
50.893089960641895 8.07168
50.917747323549435 8.06531
50.94240721271973 8.05216
50.96706963007175 8.00821
50.99192728239342 8.0207
51.01659478166073 7.99632
51.04126481489051 7.971210000000001
51.06593738400761 7.98908
51.090805275207074 7.95366
51.11548294172845 7.93071
51.14016314993547 7.90304
51.164845901758845 7.89882
51.18972406304274 7.845330000000001
51.21441192780656 7.81907
51.23910234200271 7.85392
51.2637953075678 7.85151
51.288683770237945 7.7911600000000005
51.31338186432707 7.76967
51.33808251561888 7.77675
51.362978729967345 7.7665
51.387684521509755 7.727069999999999
51.41239287610203 7.73314
51.437103795691165 7.744489999999999
51.46201036644977 7.7216
51.486726441956634 7.68625
51.51144508832545 7.69272
51.536166307509156 7.67819
51.56108326624387 7.596019999999999
51.58580965706056 7.63589
51.61053862657523 7.607660000000001
51.635270176746864 7.54343
51.66019755512065 7.573580000000001
51.68493429268881 7.57178
51.70967361681515 7.5210300000000005
51.73441552946465 7.53441
51.759353359237934 7.495369999999999
51.7841004750961 7.47617
51.80885018539685 7.469589999999999
51.833602492111254 7.4391
51.8585508051424 7.42327
51.883308330926425 7.404310000000001
51.90806845906181 7.4402800000000004
51.932831191525715 7.397660000000001
51.95779001977161 7.381139999999999
51.98255798721516 7.3620600000000005
52.00732856494335 7.33357
52.03229530577543 7.3095300000000005
52.057071130455945 7.3026100000000005
52.081849571391054 7.32075
52.106630630568695 7.309819999999999
52.13160794279417 7.26463
52.15639426492067 7.244210000000001
52.18118321127822 7.27177
52.205974783860896 7.24105
52.23096269971011 7.2240899999999995
52.255759551287994 7.2085300000000005
52.280559035098186 7.181019999999999
52.30536115314103 7.176769999999999
52.33035970494467 7.202000000000001
52.35516711807904 7.1777
52.37997717147198 7.11733
52.40478986713005 7.142919999999999
52.42979908731974 7.0819
52.454617094216 7.08542
52.47943774942214 7.04537
52.50426105495102 7.047389999999999
52.529280976059844 7.042889999999999
52.554109609024096 6.99908
52.57894089837482 6.991289999999999
52.60377484613117 6.97491
52.62880550079408 7.00051
52.65364479223379 7.00703
52.67848674816189 6.96448
52.70352547971946 6.92466
52.72837279155837 6.944610000000001
52.753222773982785 6.913989999999999
52.778075429022984 6.91043
52.80312495150885 6.88965
52.827982978797436 6.8440199999999995
52.85284368481815 6.82238
52.87770707160767 6.80284
52.90276741793998 6.830239999999999
52.92763619336701 6.82043
52.952507655698504 6.80495
52.977381806977576 6.7713399999999995
53.00245301017842 6.798089999999999
53.02733256653592 6.78045
53.052214817996074 6.74518
53.077099766608484 6.72134
53.102181859804446 6.715889999999999
53.127072229988265 6.72054
53.15196530349892 6.67744
53.17686108239249 6.65597
53.20195409881522 6.63762
53.22685531582556 6.6422
53.25175924441303 6.58067
53.27666588664027 6.58995
53.30176985962693 6.61447
53.3266819565689 6.60009
53.35159677336455 6.5746
53.376514312083096 6.56831
53.40162927507703 6.53921
53.42655228516116 6.52377
53.45147802340193 6.519769999999999
53.47660125628886 6.5259
53.50153247842639 6.48105
53.52646643496923 6.48116
53.55140312799818 6.45878
53.576537409691696 6.43509
53.60147960336152 6.44475
53.626424539786164 6.431830000000001
53.65137222105307 6.37197
53.67651758529126 6.40117
53.70147078399681 6.3810400000000005
53.72642673383343 6.3572
53.75138543689533 6.3579300000000005
53.776541917524526 6.33366
53.801506154876755 6.30671
53.826473151763246 6.3038
53.851442910284916 6.3060599999999996
53.87661054126026 6.249219999999999
53.9015858509782 6.23209
53.92656392866066 6.24911
53.95154477641532 6.25817
53.976723591801296 6.22729
54.00171000771266 6.19337
54.02669920004598 6.2211
54.051691170915745 6.17882
54.076881204886796 6.14996
54.101878760928514 6.1895
54.12687910187696 6.1132599999999995
54.152077577768296 6.10233
54.1770835166946 6.0852900000000005
54.20209224691339 6.10544
54.22710377055121 6.092230000000001
54.25231352511594 6.03311
54.27733066384342 6.00703
54.30235060239643 6.04816
54.32737334290836 6.00818
54.35259441062629 5.98592
54.377622783395324 6.01781
54.40265396455061 6.05762
54.42768795623251 5.9159
54.45292037169559 5.92837
54.477960012857906 5.89113
54.50300247099511 5.93617
54.52804774825457 5.89941
54.55329154616743 5.84081
54.57834249018678 5.8276699999999995
54.6033962597977 5.80049
54.6284528571545 5.78677
54.653708072335164 5.74127
54.67877035378786 5.73301
54.70383546947698 5.71606
54.72890342156389 5.69648
54.7541700889442 5.66594
54.77924374251975 5.6553
54.8043202390049 5.65362
54.82959552413022 5.65231
54.8546777351945 5.64888
54.87976279569621 5.55989
54.90485070780914 5.6079300000000005
54.930137506558005 5.5736300000000005
54.95523115074295 5.568309999999999
54.98032765308844 5.51446
55.005427015775496 5.49057
55.03072536339621 5.52709
55.05583047570572 5.45987
55.080938454927676 5.45389
55.10604930325027 5.44265
55.131359235107396 5.42566
55.15647585066083 5.37446
55.181595341907496 5.33202
55.20671771104285 5.32921
55.232039262617704 5.2908
55.25716741665048 5.29646
55.28229845518636 5.29865
55.30743238042802 5.22671
55.33276558731939 5.21595
55.357905315183636 5.20571
55.383047936390035 5.14194
55.40819345314859 5.10975
55.433538351073295 5.1596
55.458689688238415 5.15795
55.483843927614096 5.0405
55.509197623043605 5.05774
55.53435769621134 5.01708
55.55952067826466 5.05586
55.5846865714265 4.98642
55.61005202069737 4.97147
55.63522376553902 4.99484
55.66039842818645 4.98694
55.68557601087004 4.92739
55.7109532500271 4.86224
55.73613670233794 4.89005
