TT I
1.2716486653135266 7.23233
1.2939594142134223 7.330439999999999
1.3162702121660406 6.665189999999999
1.3385810600174564 6.41723
1.3608919586137629 7.215489999999999
1.383202908801069 6.2005099999999995
1.405513911425503 6.975280000000001
1.4278249673332093 6.22854
1.4501343378461518 5.80163
1.4724455028545926 5.81186
1.4947567236847858 5.34051
1.517068001182951 6.25408
1.5393793361953272 6.4128099999999995
1.5616907295681737 6.111219999999999
1.5840021821477681 5.89772
1.60631369478041 5.41941
1.6286252683124185 5.40583
1.6509369035901333 5.65895
1.6732468618895553 4.6756
1.695558623192809 5.08358
1.7178704487808514 5.49961
1.7401823395001077 5.0717
1.7625012545597203 4.79796
1.7848028405262486 5.29171
1.8071218901122095 5.0469599999999994
1.8294236121921872 4.50943
1.8517427996910911 5.28092
1.8740620574440425 5.0499
1.8963639900671978 4.7373199999999995
1.9186833908139995 4.53153
1.9409854680117449 4.79286
1.9633050151394713 4.6822099999999995
1.9856246367570705 4.61194
2.0079269371922672 4.91277
2.03024671027244 4.28263
2.0525491637446027 4.7579400000000005
2.074869091674931 5.11485
2.097171701569106 5.21132
2.1194917877373847 5.17837
2.141811954326636 5.1054
2.164114805233074 5.06911
2.186435135143035 5.71154
2.208738150935709 9.086910000000001
2.231058647554722 17.7063
2.2533792288321184 13.5226
2.275682498336085 7.926
2.298003251406138 5.61498
2.3203066942619714 4.63002
2.3426276225136022 4.79685
2.3649486396617507 5.16246
2.387252348930071 5.628340000000001
2.4095735463442893 5.49929
2.4318774374315884 6.384530000000001
2.4541988185014043 6.14953
2.476502894794693 6.4574300000000004
2.498824462909887 6.26679
2.521146125856138 6.62632
2.5434504863470337 6.69043
2.5657723414244717 6.930060000000001
2.588076895590662 7.5212
2.610398946189713 7.699910000000001
2.6327210958598384 7.009760000000001
2.6550259469304716 7.6868
2.6773482972090137 7.78713
2.6996533504259 8.05402
2.7219759047039602 7.35772
2.744298562293959 7.976310000000001
2.7666039251246595 7.60815
2.7889267918020164 7.413819999999999
2.8112323652516555 7.96138
2.833555444408179 7.92736
2.8558786311183852 7.8142
2.8781845268938557 8.0091
2.9005079311721484 9.09315
2.9228140460410397 9.04418
2.9451376712799635 9.34653
2.967444008632326 9.5143
2.9897678582247247 10.1032
3.0120918213106695 10.5453
3.0343984987899373 11.1937
3.0567226913198637 11.4236
3.079029599759726 11.3064
3.101354025127254 12.163
3.123678568232338 12.4095
3.145985829517914 13.0664
3.16831061055229 13.4791
3.1906181112775593 13.735
3.212943133635653 14.4203
3.2352682779763207 14.8737
3.2575761442691227 15.2992
3.2799015350264273 15.8992
3.302209649240067 16.29
3.3245352898092655 16.8835
3.3468436553365257 17.3949
3.369169549113219 17.7416
3.3914955708171384 18.6006
3.413804319727358 18.9848
3.4361305997334863 19.2628
3.4584396084414553 19.4372
3.4807661501462652 20.0882
3.503092824025881 20.7467
3.5254022288463154 21.0272
3.5477291695206588 21.7692
3.5700388426251948 22.331
3.5923660534916446 23.1436
3.6146934007816114 32.2083
3.637003482731501 57.7614
3.6593311053109985 61.806999999999995
3.681641464033634 40.1703
3.7039693653009733 27.4571
3.726297407241705 26.0679
3.7486081875460804 25.6443
3.7709365132734978 26.0213
3.793247578841633 26.3987
3.8155761917550093 26.5281
3.8378875459837216 27.2441
3.8602164494827234 27.9796
3.882545499606844 28.2712
3.9048572932539183 28.837
3.9271866390645718 29.4603
3.9494987298666713 29.9746
3.971828374764527 30.6412
3.9941581705403255 31.3282
4.016470713506008 31.6081
4.038800813471445 32.3812
4.061113662089144 32.9549
4.0834440696459176 33.8158
4.105774632334751 34.5069
4.128087945865126 34.6974
4.150418821249301 35.6081
4.172732448931298 36.8358
4.195063640413578 38.006
4.2173775856475215 40.3147
4.239709096631102 59.4435
4.262040768704612 143.045
4.284355196706267 179.89
4.306687193387355 122.76
4.329001947444346 61.3028
4.35133427213731 45.4042
4.373666762177566 44.4963
4.395982011761091 44.553000000000004
4.418314834921175 45.4549
4.44063041906622 50.0138
4.4629635787515625 56.4898
4.4852969080429785 56.5511
4.5076130004776225 52.6033
4.529946671403969 53.3706
4.552263106909177 53.8483
4.574597122877047 54.0004
4.596931312711224 53.7458
4.619248269273446 54.3602
4.6415828092605835 55.1941
4.663900117405352 56.698
4.686235010953232 57.7881
4.708552674085913 58.8672
4.730887924602802 60.7287
4.753223354952695 62.7561
4.775541557023902 64.7385
4.797877349456786 66.8105
4.820195915032126 68.1892
4.842532072957498 69.3274
4.864868414979744 71.6624
4.88718753227192 74.5437
4.909524244902505 76.6698
4.931843734218147 77.5427
4.954180820867835 80.124
4.976518095879839 83.29
4.998838149695359 86.4891
5.021175803844231 91.0381
5.043496238205739 94.0065
5.065834274903528 98.87
5.088172504230693 104.795
5.1104935158799565 113.046
5.132832132875765 133.131
5.155153533596801 167.495
5.1774925416746225 228.049
5.199814334878411 534.215
5.2221537374521505 1424.22
5.244493338631803 3508.01
5.266815727034316 7790.8
5.289155727832427 11739.5
5.311478517248165 8495.18
5.333818921080011 2824.89
5.356159527788849 580.663
5.3784829252032536 205.329
5.400823940070432 155.798
5.423147747031976 134.942
5.445489173474152 123.79
5.467830807066149 119.795
5.490155234831516 116.27600000000001
5.512497285125229 111.4
5.534822130975162 108.02799999999999
5.557164601388673 105.376
5.579489868738879 102.28
5.601832762690846 101.523
5.6241758697774475 100.081
5.646501775867269 99.1683
5.668845311622074 98.1222
5.691171647754637 97.5013
5.713515615597765 96.0033
5.735859800852677 95.0045
5.758186788542988 95.365
5.780531411018185 96.7667
5.802858837297399 96.3475
5.825203900414495 96.7097
5.8475491852224 98.3568
5.869877275883075 97.7319
5.892223006467101 97.9484
5.914551544266608 99.7904
5.936897724049891 103.323
5.959244129804903 112.324
5.981573344815301 150.718
6.0039202049061 296.55
6.026249875609095 611.09
6.04859719346037 1204.82
6.070927323278297 2376.8
6.093275102315365 4263.82
6.115623113320588 5157.57
6.137953938319995 3244.92
6.160302415650845 1030.4
6.182633708324452 251.06900000000002
6.2049826554078376 118.835
6.227331838745022 96.0264
6.249663839443684 87.8879
6.27201349767565 83.6314
6.294345974611799 85.1547
6.316696111167083 89.79899999999999
6.339046488263839 86.0548
6.361379686074702 77.4029
6.383730546639482 72.9193
6.406064229255215 70.5035
6.428415576718203 70.5682
6.450749747566656 68.9439
6.47310158535871 67.538
6.495453669698332 66.2632
6.517788579421056 65.7295
6.540141159237969 64.8051
6.562476565766648 64.3673
6.5848296444934045 63.8305
6.607182974060425 63.5932
6.6295191323281015 63.3597
6.651872965955752 65.0938
6.6742096296068985 78.0534
6.6965639707294615 101.505
6.71891856698715 99.8419
6.741255995248479 77.642
6.763611104154477 64.1546
6.785949046381137 60.4527
6.808304671371482 59.3948
6.8306605557940046 59.5957
6.852999275508618 58.9154
6.875355681171544 57.9104
6.897694923437771 57.5173
6.92005185377892 57.5714
6.9423916220322655 56.9704
6.964749080490181 56.6245
6.987106804399774 56.4035
7.009447368180821 56.5793
7.031805625367033 55.9991
7.054146723727803 55.9414
7.076505517631004 55.7892
7.098864581288365 55.5736
7.121206488070854 55.4997
7.143566093607822 55.3353
7.165908543567245 56.3761
7.188268694426048 56.1638
7.2106291193438095 55.8497
7.232972390625943 56.2899
7.255333366030969 63.3167
7.277677189091925 90.3592
7.300038718428332 112.64200000000001
7.322400526130865 100.505
7.344745183422596 72.5016
7.367107550224791 58.5972
7.389452767901992 56.2136
7.411815697249891 55.5207
7.434161478756298 54.9941
7.456524974096713 55.1701
7.478888753837185 55.0002
7.501235387657368 55.3587
7.523599738562711 55.3644
7.545946944825532 55.4551
7.568311870344528 55.8527
7.5906770845765665 56.0998
7.613025156078678 57.1306
7.635390950099687 57.7369
7.657739602662809 56.9159
7.680105979923558 56.7257
7.702472650212829 57.0581
7.724822180948224 57.1875
7.747189439655568 57.3258
7.769539560075357 57.2282
7.791907410653562 57.8454
7.81425812420825 57.6054
7.836626570110925 57.9379
7.858995315087906 58.617
7.881346924933401 58.8657
7.903716270417482 59.4053
7.926068482028405 59.8816
7.948438431475253 60.567
7.9708086843180235 60.8713
7.993161805171116 61.7281
8.015532667162402 61.8538
8.037886398416653 63.0303
8.060257873014221 63.7998
8.082629655331942 64.2052
8.104984308787587 65.1299
8.127356708900503 67.2772
8.149711981398308 71.3332
8.172085002766314 72.9139
8.194458336181368 71.2269
8.216814543847752 70.3886
8.23918850371002 71.2751
8.26154533906492 71.7671
8.283919928836452 73.2425
8.306277395339652 74.2437
8.328652618483376 76.2528
8.351028159736202 78.2616
8.373386579575245 80.7022
8.395762759396959 82.4123
8.418121819038275 87.23700000000001
8.440498640894003 96.4619
8.462875785192262 110.35799999999999
8.485235811156207 141.504
8.507613602688501 211.25400000000002
8.529974277114228 317.513
8.552352719347912 468.708
8.574731488360351 749.0980000000001
8.59709314210385 1235.5
8.619472567021075 1842.91
8.64183487789147 2144.7
8.664214962183097 1800.38
8.686577933647762 971.529
8.708958680784317 372.819
8.731339760774953 166.78599999999997
8.753703729764451 113.897
8.77608547780821 101.771
8.798450116065078 97.9164
8.820832535634787 94.7884
8.843215292401656 93.7027
8.865580941199045 92.2809
8.887964374703538 91.6372
8.910330701447199 91.6725
8.932714815164482 92.5585
8.955099270424924 90.7373
8.977466620733543 88.1644
8.999851761421976 86.7558
9.022219798361645 85.9114
9.04460562795561 85.8063
9.066991803441677 85.3713
9.089360876979615 85.1757
9.111747746589993 84.6202
9.13411751544971 84.3393
9.156505082664324 83.7069
9.178875550323522 83.671
9.20126381862328 83.738
9.223652438908596 84.1884
9.246023961427412 84.353
9.26841328802173 83.8438
9.290785518039224 84.2483
9.313175554425882 85.37100000000001
9.335565947154315 85.4991
9.357939245086508 85.7134
9.380330352834827 85.9297
9.40270436697103 85.9221
9.425096193225055 85.4271
9.447488380180165 86.1287
9.469863475295412 86.1957
9.492256385987508 86.2708
9.514632206018318 87.0949
9.537025843935714 88.0159
9.559402392368193 88.6632
9.581796761000229 89.8359
9.604191496441521 91.2387
9.626569144158516 93.7809
9.648964615551032 95.7375
9.671343000390081 96.5546
9.693739211225699 95.9165
9.716135793237463 94.9654
9.738515290448102 95.4613
9.760912617143402 96.9025
9.783292860202891 98.4773
9.805690935076182 100.15700000000001
9.828089385495742 100.779
9.850470754023561 102.90299999999999
9.872869957865444 107.704
9.89525208097539 117.27600000000001
9.917652041736662 126.12299999999999
9.940052382417589 135.39600000000002
9.962435644102392 166.87400000000002
9.984836746950979 222.703
10.007220771957746 296.35200000000003
10.029622640473708 412.494
10.052007432299963 604.605
10.074410069984072 893.174
10.096813093716005 1291.08
10.119199042482517 1721.14
10.141602840636468 1925.28
10.163989564971628 1604.76
10.186394141051062 914.415
10.208799107559706 395.2
10.231187001965623 189.738
10.253592751657669 129.41299999999998
10.275981430388155 115.635
10.298387966769793 113.26100000000001
10.320794897965431 113.698
10.343184759907361 112.48899999999999
10.36559248305461 108.744
10.387983138083852 108.39299999999999
10.410391656691655 116.99799999999999
10.432800574501677 131.918
10.455192425893369 151.333
10.47760214443012 180.093
10.499994797678786 224.653
10.522405320453982 304.375
10.54479877906917 404.395
10.567210109595656 504.231
10.5896218454736 569.279
10.612016518879773 490.43199999999996
10.634429067781074 346.66
10.656824555333241 200.467
10.679237920773568 125.266
10.701651695961992 97.6719
10.724048411481384 90.8609
10.746463008485165 88.3476
10.768860546937125 86.4944
10.791275969274796 84.7242
10.81369180576079 83.4894
10.836090585366925 82.6329
10.858507252467449 81.3717
10.88090686379991 80.5186
10.903324365036394 79.9967
10.925724811614439 79.1382
10.948143150509463 79.8407
10.970561909719066 79.2267
10.992963615930844 77.6984
11.015383218085756 76.0162
11.037785768347074 74.7543
11.06020621697282 73.9427
11.082627090322113 73.3786
11.105030913430326 72.9402
11.12745263854165 72.8334
11.149857314510728 74.2116
11.172279894912576 77.4502
11.194702904450653 77.0707
11.217108866490921 74.6645
11.239532736615194 72.133
11.26193956033512 71.126
11.284364294577085 70.3351
11.306789462371718 69.0331
11.329197585398376 68.09100000000001
11.351623622610898 68.2441
11.37403261614354 67.3883
11.396459526308487 67.1062
11.418869393879497 66.848
11.441297180532617 66.5689
11.463725406927658 66.0355
11.486136592353875 65.7447
11.508565700543707 66.0839
11.530977768845315 66.9863
11.553407762368774 67.2291
11.575838200059769 66.7975
11.598251599479612 65.5618
11.620682927815501 64.7407
11.64309721895548 64.4167
11.665529441478206 64.1312
11.687962112597958 64.0882
11.710377748130886 64.1733
11.732811318753434 63.8868
11.755227854859067 63.93899999999999
11.777662328529495 64.0485
11.800079768750786 63.8747
11.822515149015453 63.8415
11.844950984084935 63.8768
11.867369787303163 63.2544
11.889806534289491 63.66
11.912226250487029 63.9166
11.934663912939751 64.0535
11.9571020346363 64.3896
11.979523127133968 64.4752
12.001962169624331 66.0161
12.024384183972964 68.3986
12.046824150809913 72.5981
12.069264581333726 77.9653
12.091687985297767 84.6432
12.11412934550045 94.5428
12.136553680195208 110.053
12.158995973632788 131.407
12.181438735204349 157.417
12.20386447284199 184.362
12.226308172985636 200.86
12.24873485024193 201.543
12.271179492516982 168.15
12.293607112949127 122.649
12.316052700916226 91.3178
12.338498763250042 75.827
12.360927805303868 68.7077
12.383374818673879 66.4214
12.405804812803074 65.2461
12.428252780773262 65.439
12.45070122756722 65.6347
12.473132656675375 65.5641
12.49558206341869 65.8518
12.518014453510101 65.5133
12.540464823770117 65.618
12.562915677315177 66.0364
12.58534951575545 66.5974
12.607801338171472 67.2857
12.630236146511358 70.2603
12.652688941369085 72.9709
12.675124723177234 73.4093
12.697578494048786 71.7919
12.720032754458185 69.6646
12.742470003354093 68.8366
12.764925245138771 68.9856
12.787363476431278 69.3485
12.809819703166806 69.9183
12.83227642391173 70.4536
12.854716135692716 71.0954
12.877173846755147 72.1578
12.899614549869717 72.5153
12.9220732548287 73.4825
12.94453245827299 74.0816
12.966974655289818 74.9783
12.989434858002571 75.9262
13.011878055298721 76.4975
13.034339260862497 77.7988
13.056800969391883 79.3725
13.079245674017244 82.4243
13.101708390774869 87.5878
13.12415410463411 98.3233
13.146617833206086 110.566
13.169064559883248 122.679
13.191529303857127 138.66
13.213994557076367 164.023
13.236442809902437 201.25099999999998
13.258909083908291 252.77900000000002
13.28135835851934 306.689
13.30382565690295 369.273
13.326293469022952 416.652
13.348744283242008 418.467
13.371213125129904 353.11300000000006
13.39366497011003 257.033
13.416134845360597 168.433
13.438605238843131 123.655
13.46105863690397 111.949
13.483530069144786 114.139
13.505984506951902 120.06299999999999
13.528456981549432 131.464
13.550929978879088 147.56799999999998
13.573385983253365 172.36599999999999
13.595860028340867 208.945
13.618317081455832 255.078
13.64079217790333 301.783
13.663250283359057 339.741
13.685726434770173 367.815
13.708203115221277 336.559
13.730662806148091 263.575
13.75314054697177 185.171
13.775601299246777 127.23299999999999
13.798080104050406 97.3801
13.820559442405358 86.5508
13.843021793671388 83.18700000000001
13.865502201420897 81.6567
13.887965623051947 81.2804
13.910447103807167 79.8696
13.932929122629764 78.6728
13.955394156785959 78.2028
13.977877254034569 77.4406
14.000343367582113 76.4323
14.022827546871707 75.7949
14.045294743423524 74.9144
14.06778000837062 74.3757
14.090265817715476 73.9757
14.112734645763819 73.9356
14.13522154619454 73.2583
14.157691466286913 73.3581
14.180179461423874 73.2933
14.202668005486178 72.7525
14.22513957064374 72.0309
14.247629214846473 71.8965
14.270101881097517 71.3131
14.29259262906496 71.3467
14.315083930490205 71.5604
14.337558255389705 71.8285
14.360050666019726 71.8573
14.382526101071944 71.1112
14.405019624534942 70.4922
14.427513705993134 70.0118
14.449990813291825 70.3676
14.47248601302899 70.021
14.49496423954951 70.2414
14.517460561197822 70.5263
14.539939910570322 70.0368
14.562437357763558 70.2922
14.58493536931253 71.1672
14.607416409993311 71.7994
14.62991555254159 71.8963
14.652397725157423 72.1617
14.674898002342799 72.1261
14.697398848433282 72.0347
14.719882725991326 73.4326
14.74238471217934 76.1601
14.764869730765593 80.5127
14.787372860692983 84.0476
14.809876564079925 89.0234
14.83236330125751 95.7482
14.854868153850365 104.851
14.877356041159485 118.95100000000001
14.899862046604186 137.34
14.922351087688757 158.724
14.944858249632887 183.196
14.967365991421232 203.614
14.989856770231246 216.12900000000002
15.012365673994204 213.75799999999998
15.03485761569738 185.43599999999998
15.05736768508665 145.692
15.07987833888692 113.26799999999999
15.102372032001655 89.9768
15.124883856909658 77.5294
15.14737872204565 73.5857
15.169891721717274 71.8625
15.192405310371893 71.4237
15.214901940621196 71.4574
15.237416709527137 70.9498
15.259914520936249 70.9108
15.282430473753607 70.186
15.304947020131227 69.2612
15.327446610371178 68.8406
15.349964346154254 68.3654
15.372465126703139 68.2042
15.394984055556009 68.0121
15.417486030076159 67.7466
15.44000615566487 67.3815
15.462526881230803 67.328
15.485030653812652 67.1308
15.507552581617434 67.28399999999999
15.530057557334603 67.2051
15.55258069104857 67.2813
15.575104429329837 67.4717
15.597611216864632 67.6905
15.620136166564563 68.4749
15.6426441664095 70.4383
15.665170331202765 73.8079
15.687697105158826 76.8976
15.710206930593545 80.5798
15.732734925158933 85.1474
15.755245972089478 91.8562
15.77777519094324 101.545
15.800287463046663 114.416
15.822817909869592 131.386
15.84534897229804 148.575
15.867863089299354 168.77599999999998
15.890395385222186 182.81099999999998
15.912910736597423 190.362
15.935444269699861 179.468
15.957978423016485 153.519
15.980495633101265 121.185
16.003031029129367 94.1608
16.02554948280019 76.3311
16.048086125229432 68.0469
16.070623392487107 65.5092
16.09314371869582 64.6744
16.11568223789321 63.5949
16.13820381691126 62.9024
16.160743591742527 62.0559
16.183283996022084 61.3515
16.205807461423195 60.4623
16.228349126881973 59.9496
16.25087385432698 59.92100000000001
16.27341678466365 59.458
16.29594277784926 59.193000000000005
16.31848697676433 59.0812
16.341031811604868 58.9277
16.36355971058487 59.0247
16.3861058195587 58.8992
16.40863499352978 57.8855
16.431182380342005 57.4099
16.453730407713202 57.1536
16.476261501364792 56.8149
16.498810812136167 56.592
16.52134319004079 56.5324
16.54389378792203 56.4637
16.566445031001553 56.2587
16.588979342490088 56.165
16.61153187824822 56.0705
16.634067483263312 55.9382
16.656621315414416 55.7178
16.679175797408888 55.3679
16.701713349928728 55.4494
16.72426913389191 55.7843
16.74680798922351 55.8341
16.76936507887444 55.858000000000004
16.791905240734874 55.9955
16.814463639794468 55.6374
16.837022695210294 55.7454
16.859564824093756 55.9587
16.882125194503903 56.2628
16.904668639217885 56.8547
16.927230328348003 56.9811
16.949792678493612 57.1646
16.972338104193863 56.574
16.994901778652235 56.393
17.017448529496576 56.6934
17.040013531998152 57.5256
17.06257920018044 57.9508
17.0851279459922 58.823
17.107694947817667 59.7035
17.130245028099072 60.4672
17.15281336730298 61.8685
17.17536478578733 63.5861
17.19793446610687 66.0083
17.220504818648422 68.8804
17.243058251703697 71.6681
17.265629950971032 75.5024
17.288184731571736 79.078
17.310757781306908 82.586
17.33333150794385 83.3463
17.355888317140174 82.3395
17.37846339986244 77.5546
17.401021565958885 71.557
17.42359800851343 66.4048
17.44617513265564 63.1332
17.468735341390783 61.1552
17.491261035594565 60.3759
17.51396340099364 59.8553
17.536490463869136 60.2228
17.559018209820174 60.2411
17.58154663977963 60.4933
17.604251766089718 60.6504
17.626781572227713 60.7669
17.64931206518155 61.0707
17.671843245885103 61.632
17.69455114821572 61.5928
17.717083712612634 61.8999
17.739616967569667 62.2223
17.762150914021706 62.8318
17.78486160749854 62.8145
17.807396945166804 63.7877
17.829932977143503 65.4658
17.85246970436452 67.3246
17.875183204129467 69.1926
17.897721330097664 71.431
17.920260154126645 73.9239
17.942799677153296 77.4144
17.9655159983646 81.3866
17.988056927677544 87.1347
18.010598558807683 94.5736
18.033140892692916 103.12
18.05586005052525 112.57
18.07840379824407 122.385
18.10094825154059 132.80200000000002
18.12366954819864 139.83100000000002
18.146215420998306 139.916
18.16876200220057 132.063
18.191309292745153 118.516
18.214033452627167 105.04299999999999
18.236582170236648 93.6018
18.259131600016456 88.7602
18.281681742907335 88.7221
18.304408781233683 92.1256
18.32696035875955 96.3
18.349512652227624 100.581
18.372065662579683 105.27600000000001
18.394795594587553 106.3
18.41735004715306 103.28
18.43990521943684 96.6614
18.46246111238171 87.2264
18.485193953325208 77.7457
18.507751296070428 70.8899
18.530309362314178 66.5332
18.552868153000343 64.5255
18.57560391815056 63.0016
18.59816416623245 63.0979
18.620725141597372 62.4207
18.643286845190268 61.9095
18.666025549835414 61.5914
18.688588718427933 60.8495
18.711152618092243 60.6464
18.73389353884365 60.3966
18.75645890921984 60.1246
18.77902501351406 59.7376
18.801591852673102 59.6828
18.824335739722738 59.2392
18.846904057212626 59.1134
18.8694731124168 58.7499
18.89204290628315 58.6265
18.914789774966803 58.6438
18.937361054791623 58.4897
18.959933076131318 58.1518
18.982505839934877 58.1376
19.00525570560582 57.9549
19.027829963004184 57.8875
19.05040496572238 58.2196
19.072980714710468 58.213
19.095733592739563 58.4361
19.11831084296757 58.7927
19.140888842324735 59.146
19.16346759176222 59.4527
19.18622349753803 60.0897
19.208803755869358 60.9601
19.231384767143577 62.1937
19.253966532312948 63.9022
19.276725481241822 65.6686
19.29930876296784 67.8802
19.3218928014549 70.2735
19.34465404436217 73.033
19.36723960516257 75.2683
19.389825925592426 76.5442
19.412413006605938 76.217
19.43517731967805 73.1259
19.457765930683355 68.3708
19.48035530514408 63.7294
19.50294544401556 59.8167
19.525712842708348 57.4152
19.54830451925909 55.9942
19.570896963095727 54.9836
19.593490175174704 54.92
19.616260674962184 54.7933
19.638855432416964 54.4641
19.661450960992624 54.8108
19.68404726164677 54.4077
19.706820878021247 54.3734
19.729418731756834 54.656000000000006
19.752017360452857 54.2274
19.77461676506804 54.6799
19.797393513540218 54.8455
19.819994478951667 55.2934
19.84259622316767 55.8426
19.8651987471481 56.1191
19.887978643247177 56.3974
19.91058273574792 56.8788
19.933187610901943 57.6685
19.955969879466828 58.8509
19.97857632894404 60.43
20.00118356396599 61.8355
20.023791585494575 63.9268
20.046577028914875 66.1739
20.069186632506966 68.1292
20.091797025500632 69.9033
20.114408208858933 70.6114
20.137196842715273 70.6352
20.159809615886765 68.9295
20.18242318232135 66.7245
20.20503754298326 64.637
20.227829382875154 63.4364
20.250445341109344 63.1864
20.27306209647285 63.403
20.29567964993108 64.6408
20.31847471147704 65.5959
20.34109387027612 66.2323
20.363713830075454 66.1253
20.386334591841646 64.5441
20.409132890679302 61.9853
20.431755265564437 58.8074
20.454378445325528 56.121
20.477002430930366 54.1299
20.499803982716553 52.9449
20.522429589228004 52.0437
20.54505600449589 51.623000000000005
20.567683229489194 51.5361
20.590488049900088 51.2754
20.61311690359731 51.1386
20.63574656993626 50.9186
20.658553853717297 50.5032
20.681185154618298 50.5136
20.703817271080066 50.3741
20.72645020407368 50.0315
20.749260783967177 49.9615
20.771895359337133 49.98
20.794530754161617 49.762
20.817166969412938 49.8449
20.83998086114876 49.7564
20.86261872660049 49.5057
20.885257415405402 49.5357
20.90789692853701 49.6424
20.930714147864748 49.4857
20.953355319030678 49.6919
20.97599731745334 49.6511
20.99864014410749 49.5902
21.021460706796564 49.3965
21.044105199328826 49.8177
21.06675052302631 49.9458
21.089396678865015 50.053000000000004
21.112220600704806 50.386
21.134868430275347 50.7459
21.15751709492456 50.9865
21.180166595629693 51.1865
21.202993892429635 51.6146
21.22564507473034 51.8783
21.24829709602816 52.1385
21.27112693608965 52.1751
21.293780644891275 52.3583
21.316435195634053 51.6012
21.339090589297417 50.771
21.361923832041875 50.4119
21.384580921090404 49.8831
21.407238856007325 49.3173
21.429897637773326 49.2956
21.45273429906592 49.5873
21.475394784108598 49.2634
21.498056118951983 49.1146
21.520718304578022 49.4263
21.543558400304388 49.6261
21.566222297108816 50.1195
21.58888704765135 50.3774
21.61155265291521 50.6166
21.63439619898156 50.9847
21.657063523335786 51.0675
21.67973170537063 51.6618
21.7024007460706 52.1895
21.72524775840385 52.9411
21.747918526116475 54.2112
21.770590155457388 55.4568
21.79326264741238 56.8721
21.816113141960237 58.413000000000004
21.838787368860547 59.9643
21.861462461341976 61.7252
21.884315579735777 63.4002
21.90699241312273 64.5535
21.92967011506078 65.4278
21.95234868653799 64.8674
21.9752053151131 63.8518
21.997885635446785 61.9757
22.020566828293532 60.1721
22.04324889464272 58.2094
22.066109049404666 57.0232
22.088792872571794 56.4593
22.111477572219204 56.5806
22.1341631493376 56.6447
22.157026846313123 56.6082
22.179714188221507 56.03
22.202402410582668 54.8845
22.22509151438863 53.3898
22.24795876962584 52.1423
22.270649646204486 51.2635
22.293341407213727 50.7177
22.316034053646906 50.1399
22.338904883215342 49.9432
22.36159931041458 49.8046
22.38429462602756 49.6926
22.40699083104897 49.5092
22.429865251039757 49.6234
22.452563244831367 49.5314
22.47526213102522 49.5605
22.49813925616515 49.6288
22.520839937143307 49.5268
22.543541513520587 49.6158
22.56624398629403 49.2893
22.589124730075895 49.4445
22.611829005656723 49.7044
22.63453418063466 49.6795
22.657240256008077 50.1234
22.680124634582935 50.0075
22.70283252079775 50.4205
22.725541310413075 50.7384
22.74825100442868 50.7678
22.771139033969575 51.2256
22.79385054687155 51.548
22.81656296718292 52.4508
22.83927629590484 53.1318
22.862167992606945 54.093999999999994
22.88488314827121 54.8262
22.907599215359284 55.7799
22.93031619487366 56.5619
22.953211574954405 57.3189
22.975930389478226 58.3049
22.998650119445763 58.523
23.02137076586092 57.7725
23.044269845560063 56.61600000000001
23.06699233506288 55.0768
23.089715744034912 53.1868
23.112617610931565 51.8446
23.135342869061212 50.54600000000001
23.158069049684816 49.9405
23.1807961538087 49.576
23.20370174880544 49.7804
23.226430710184808 49.7148
23.249160598093425 50.0439
23.271891413539002 49.8466
23.294800752937697 49.8684
23.31753343374794 50.1301
23.340267045128353 50.3125
23.36300158808808 50.7075
23.38591468821339 51.0205
23.408651104658304 51.4103
23.431388455719986 51.9784
23.454126742409 52.8983
23.4770436196085 53.6881
23.499783787914662 54.742
23.522524894889884 55.6284
23.54526694154616 56.4136
23.56818761219047 57.4119
23.59093154860734 57.7903
23.613676427751283 58.2397
23.636422250635754 57.5806
23.659346731118656 56.0606
23.68209445191868 54.1644
23.704843119509587 52.1974
23.72759273490623 50.1284
23.750521041644767 48.9162
23.77327256312355 47.9023
23.796025035462787 47.3469
23.818956224555475 46.7925
23.841710609113413 46.6486
23.86446594758979 46.452
23.887222241002014 46.2636
23.910157285144578 45.7696
23.932915498962537 45.9708
23.955674670778713 45.7359
23.978434801611975 45.5674
24.001373717286125 45.4898
24.024135776723917 45.397
24.046898798245582 45.3351
24.06966278287146 45.2423
24.092605586582614 45.0841
24.115371508023642 44.8321
24.1381383956401 44.823
24.16090625045381 44.7108
24.183852958731244 44.6128
24.206622758582608 44.4888
24.229393528706886 44.1932
24.252165270127392 44.478
24.27511589952438 44.3817
24.297889594216997 44.1676
24.32066426328598 43.8481
24.34343990775613 44.0448
24.36639447485003 43.9331
24.38917208083877 43.9167
24.41195066531332 43.8523
24.43490819850244 43.7675
24.457688750692377 43.5988
24.48047028445616 43.5167
24.503252800821233 43.6781
24.526214300784112 43.8288
24.548998793132213 43.7965
24.57178427117417 43.5913
24.59457073593893 43.7399
24.617536219319863 43.7223
24.64032466834748 43.6288
24.663114107195035 43.5713
24.685904536893013 43.3401
24.708874020360852 43.2386
24.731666442613744 43.1443
24.754459858818787 43.0326
24.777254270007962 43.1377
24.80022777025625 43.0459
24.82302418230472 42.8667
24.845821592443674 42.8448
24.86862000170663 42.8994
24.891597535453727 42.7536
24.914397953892728 43.108999999999995
24.93719937456671 43.0396
24.96000179851076 43.3034
24.98298338249997 43.3683
25.00578782394922 43.4915
25.028593271784167 43.7158
25.05157790644186 44.019
25.07438537804115 44.0469
25.097193859145293 44.3977
25.120003350792075 44.3965
25.142992065061257 44.6962
25.165803588823465 45.1093
25.18861612625217 45.4207
25.211429678386736 45.3739
25.234422489079968 45.3531
25.257238081693636 45.3828
25.280054692141732 45.4222
25.3028723214652 45.3377
25.325869245420463 45.4993
25.348688923599397 45.5685
25.371509623787006 45.4822
25.394331347025812 45.1745
25.41733240110666 44.6263
25.440156181590016 44.0667
25.46298098826268 43.5675
25.48580682216873 43.0429
25.50881202326435 42.5935
25.53163992281684 42.1031
25.55446885274561 41.9162
25.577298814096377 41.6656
25.600308179121807 41.4758
25.623140214533745 41.5473
25.64597328451537 41.3801
25.66898578564376 41.2274
25.691820936010206 41.2975
25.714657124097695 41.2282
25.737494350954734 41.2422
25.760511045684957 41.227
25.783350361364224 41.2577
25.806190718969255 41.1712
25.82903211955018 41.2231
25.852053024868923 41.3649
25.874896522722523 41.4001
25.897741066713106 41.2672
25.920586657892454 41.4705
25.943611790812668 41.6049
25.966459487728237 41.6596
25.989308234998564 41.5323
26.01215803367705 41.9931
26.03518741123814 41.9769
26.05803932412957 42.2203
26.080892291600094 42.2119
26.10374631470478 42.2463
26.12677995397268 42.3804
26.14963609978026 42.2943
26.172493304397875 42.0657
26.19535156888223 41.9287
26.218389486949604 41.4242
26.241249882640123 41.1323
26.26411134137826 41.0596
26.28715248187403 40.9812
26.31001607820869 40.7619
26.3328807407756 40.6563
26.35574647063438 40.7439
26.37879191991473 40.7134
26.401659795896734 40.799
26.424528742360263 41.0746
26.447398760366614 41.0976
26.470448535598294 41.2845
26.49332070826805 41.4589
26.516193955675355 41.7739
26.53906827888316 41.8459
26.562122397260108 42.0354
26.584998883685063 42.3012
26.607876449110325 42.4311
26.63075509460056 42.6278
26.65381357334404 42.9258
26.67669439061878 42.8773
26.699576291163382 42.7655
26.722459276044212 42.6099
26.745522132402975 42.2851
26.768407297649354 42.0422
26.791293550442003 41.6145
26.814180891848974 41.3927
26.837248143099337 41.1915
26.860137673466657 41.0013
26.88302829566349 40.803000000000004
26.90592001075963 40.7704
26.92899167420566 40.5242
26.951885586870763 40.1294
26.974780595655517 39.8985
26.99785558178161 39.8091
27.020752794605112 39.703
27.043651106772522 39.6358
27.06655051935668 39.4394
27.089629948036183 39.4352
27.112531573292053 39.4739
27.135434302194138 39.4784
27.158338135817015 39.217
27.181422024430987 39.3094
27.204328079372566 39.2551
27.22723524226965 39.1191
27.250143514198573 39.2369
27.273231880156334 39.1737
27.296142382065014 38.9875
27.319053996245536 39.0114
27.341966723775965 39.0651
27.365059584515222 39.1834
27.38797455070062 39.1895
27.410890633481237 38.9359
27.433807833936918 38.929
27.456905206923906 39.1597
27.47982465472398 39.2147
27.502745223449743 39.2381
27.525666914182825 39.2424
27.548768816912457 39.1238
27.571692763693633 39.1275
27.59461783573812 39.0051
27.617723149491244 38.8091
27.640650484125285 38.7645
27.66357894728264 38.6738
27.686508540048052 38.6685
27.709618414237887 38.5732
27.732550278321757 38.5354
27.755483275279115 38.5454
27.778417406196485 38.5968
27.801531858397514 38.5148
27.824468269376716 38.4902
27.847405817586786 38.5346
27.870344504116094 38.5846
27.893463551932008 38.6391
27.916404527281053 38.9613
27.93934664422563 38.9746
27.962289903855886 39.1281
27.98541356491974 39.1354
28.00835912214229 39.38
28.03130582533231 39.6633
28.054253675581805 39.6279
28.077381967556104 39.7809
28.100332124185126 39.6065
28.123283431160893 39.5709
28.146235889577238 39.3508
28.169368830154156 39.1647
28.192323603752033 38.9686
28.215279532083304 38.686
28.238415973016764 38.5182
28.261374223145094 38.4101
28.284333631303806 38.1279
28.307294198589954 37.974000000000004
28.330435319167677 37.6141
28.353398217078915 37.4367
28.376362277420153 37.2122
28.39932750129032 37.1271
28.422473319286713 36.9403
28.44544088262495 36.9205
28.468409612800283 36.8086
28.491379510913497 36.5711
28.51453004413313 36.6013
28.53750229057244 36.5281
28.56047570826344 36.4724
28.583450298308804 36.5419
28.606605564586562 36.228
28.629582511831156 36.3183
28.65256063474956 36.2608
28.675539934446338 36.1928
28.698699951647605 36.2774
28.72168161743193 36.1135
28.74466446331978 36.0012
28.767648490417624 36.0088
28.790813276438353 35.9405
28.813799678527303 36.0757
28.836787265157085 35.9524
28.859955641890075 36.0706
28.882945610203045 35.9504
28.905936766392035 35.7788
28.928929111566863 35.8886
28.952102288520145 35.8392
28.975097024308607 35.7421
28.998092952423807 35.5639
29.021090073977508 35.4758
29.04426806913204 35.4311
29.067267590245258 35.2656
29.090268308143695 35.1944
29.11327022394099 35.1383
29.13645305530891 35.0986
29.159457379627167 34.9515
29.18246290519685 34.9838
29.20546963313352 34.9859
29.22865731875826 34.9128
29.25166646419296 34.9142
29.27467681535305 34.8218
29.29768837335608 34.7847
29.320880931312562 34.8303
29.34389491580634 34.7764
29.366910110507334 34.6431
29.38992651653503 34.7144
29.41312396492981 34.8073
29.436142806456754 34.6726
29.45916286268059 34.5544
29.48236399319994 34.5272
29.50538649169417 34.3823
29.528410208259935 34.2469
29.55143514402014 33.9933
29.574641196749695 33.8763
29.597668583816574 33.7722
29.6206971934585 33.6689
29.64372702680042 33.7107
29.666938019934474 33.649
29.689970313635285 33.5171
29.713003834422636 33.6029
29.73603858342347 33.4667
29.759254535188578 33.4698
29.78229175361658 33.2385
29.80533020365064 33.3751
29.82836988641968 33.3201
29.85159081507472 33.2145
29.874632976355343 33.188
29.89767637376955 33.2782
29.920721008448314 33.166
29.9439469322847 33.0801
29.96699405457564 33.1614
29.9900424175358 33.1987
30.013092022298157 33.0179
30.03632295963995 32.9557
30.059375061131373 33.048
30.08242840783577 33.1915
30.105483000888153 33.1162
30.128718970092244 32.9259
30.151776069006917 32.9341
30.17483441768648 32.8458
30.198074175317235 32.9204
30.221135036724256 32.8742
30.24419715131772 32.884
30.267260520236203 32.7648
30.290505341942243 32.7761
30.313571232750228 32.9488
30.336638381310948 32.7937
30.35970678876503 32.7694
30.38295669299435 32.7539
30.40602763151657 32.7284
30.429099832366074 32.6494
30.452173296685572 32.5206
30.47542830191959 32.6422
30.498504306502497 32.6603
30.521581577995562 32.8243
30.544660117543582 32.6461
30.56792024229725 32.6579
30.59100133132069 32.5591
30.614083691845494 32.6777
30.637167325018545 32.6525
30.660432587840603 32.6606
30.683518779717886 32.5591
30.70660624769615 32.6426
30.729694992924372 32.8039
30.75296541239743 32.7658
30.77605672557558 32.5929
30.799149319462742 32.599000000000004
30.8224236211637 32.504
30.845518789950724 32.3901
30.868615242910597 32.3896
30.891712981195973 32.2274
30.91499247215866 32.1173
30.938092794619365 32.0739
30.96119440587579 31.9645
30.984297307082752 31.8276
31.00758200598383 31.8719
31.030687500658694 31.7081
31.053794288760695 31.6241
31.076902371446767 31.4846
31.100192296997445 31.5914
31.12330298246119 31.5965
31.14641496599209 31.4791
31.169528248749216 31.4838
31.19282341969534 31.3525
31.215939314557186 31.5448
31.239056512134788 31.403000000000002
31.262175013589378 31.3685
31.28547544871168 31.3961
31.30859657161541 31.3571
31.331719001892175 31.3842
31.35484274070538 31.4249
31.378148458819545 31.4824
31.401274828443725 31.3702
31.424402510106933 31.2794
31.447712205419993 31.3993
31.470842524931633 31.316999999999997
31.493974159989783 31.328000000000003
31.51710711176168 31.3266
31.54042212308802 31.3305
31.563557722100917 31.3011
31.586694641341655 30.965
31.609832881979628 30.8684
31.63315322823208 30.9153
31.656294125521327 30.8571
31.679436347728515 30.8034
31.70257989602529 30.7662
31.725905596152327 30.6771
31.74905181052835 30.5999
31.772199354521323 30.6766
31.79534822930507 30.6448
31.818679302290967 30.5372
31.84183085259981 30.6463
31.864983737233473 30.6346
31.88813795736804 30.611
31.911474422233013 30.4383
31.934631327356435 30.5735
31.9577895715215 30.4964
31.980949155906522 30.4794
32.004291031706956 30.4173
32.027453310562606 30.4053
32.05061693318573 30.2482
32.07396288236386 30.2433
32.09712920658542 30.1591
32.12029687812702 30.0589
32.14346589817093 29.9985
32.166817291729984 29.9871
32.18998902288583 29.8522
32.21316210610336 29.8702
32.23633654256711 29.7943
32.259693399663725 29.7413
32.282870556771144 29.7144
32.30604907069099 29.671
32.329228942610065 29.5947
32.35259128243769 29.4063
32.375773884550505 29.3997
32.398957848235646 29.3531
32.422143174682176 29.3352
32.445511016471215 29.2398
32.468699082679954 29.1592
32.49188851523011 29.0846
32.51507931531304 29.0569
32.538452678331 29.0762
32.56164622776311 29.0027
32.58484114831493 29.0619
32.60803744118015 29.0297
32.631416344731896 28.9585
32.654615396551876 28.9236
32.67781582427913 28.8528
32.701198898634416 28.7086
32.72440209253756 28.7026
32.747606665947124 28.701
32.77081262006088 28.6024
32.79420126883317 28.6622
32.81740999876112 28.6797
32.840620112999424 28.5161
32.86383161274818 28.5207
32.88722585534586 28.373
32.91044014056596 28.4608
32.933655814909734 28.5041
32.95687287957963 28.4861
32.98027273544904 28.3383
33.00349259526636 28.2729
33.026713849030116 28.32
33.04993649794511 28.3567
33.073341986570746 28.2864
33.09656744032826 28.2878
33.11979429286444 28.2601
33.14302254538647 28.1391
33.166433686291185 28.0636
33.18966475336992 28.1425
33.212897224069096 28.0165
33.23613109959831 28.0506
33.259547912343415 28.0582
33.2827846121627 28.0065
33.306022720453775 27.8817
33.32926223842861 27.833000000000002
33.352684742614166 27.9154
33.37592709463173 27.791
33.399170859982064 27.6874
33.422597648419426 27.6775
33.44584425514446 27.56
33.46909227885668 27.3902
33.4923417207723 27.4217
33.51577423505344 27.5095
33.539026528130385 27.3791
33.56228024307245 27.2946
33.585535381098246 27.295
33.60897364093058 27.2271
33.63223163992385 27.2354
33.6554910656699 27.0621
33.678751919389796 27.0466
33.702195944520106 26.9903
33.72545966903325 27.1292
33.74872482519663 26.9578
33.771991414233746 26.9385
33.79544122444841 26.9138
33.81871069412428 26.8238
33.84198160035767 26.8028
33.86525394437455 26.7765
33.88870955949969 26.7274
33.911984794020626 26.6652
33.93526147001624 26.6462
33.958539588715006 26.5399
33.98200102861669 26.5651
34.0052820477047 26.4295
34.02856451319451 26.5412
34.05203033759056 26.4662
34.07531571090147 26.4485
34.09860253431845 26.4172
34.121890809074316 26.2134
34.145362493118924 26.2908
34.16865368561615 26.2763
34.191946333164054 26.185
34.21524043699793 26.2356
34.23871800066799 26.2614
34.26201503218366 26.0993
34.28531352370466 26.111
34.30861347646881 25.994
34.33209693978188 25.9318
34.3553998301885 25.8543
34.378704185565205 25.8446
34.402010007152356 25.7987
34.42549939016683 25.7389
34.44880815937748 25.7187
34.472118398533134 25.7227
34.49543010887669 25.6311
34.51892543169198 25.4717
34.54224009966052 25.618000000000002
34.56555624255917 25.6241
34.58887386163339 25.4536
34.61237514439016 25.4322
34.6356957311114 25.3788
34.65901779775809 25.4058
34.68252356662995 25.2719
34.705848608458616 25.2872
34.72917513396849 25.2534
34.75250314440949 25.1671
34.77601490857862 25.0998
34.799345904259795 25.0736
34.82267838863559 25.1045
34.846012362958525 25.1318
34.869530142679984 25.0848
34.89286711232212 24.9776
34.91620557568269 24.9509
34.93954553401677 25.0099
34.9630693495876 24.9098
34.986412313340814 24.944000000000003
35.00975677584668 24.8769
35.033102738362956 24.8207
35.05663261012228 24.7579
35.0799815881786 24.755
35.10333207003229 24.7247
35.12668405694369 24.6852
35.150220005273056 24.7224
35.17357501786656 24.6705
35.19693153931268 24.6194
35.220289570874385 24.5462
35.24383161619786 24.5372
35.267192683604904 24.5569
35.290555264930376 24.5068
35.314101899412165 24.5274
35.33746752422433 24.4162
35.36083466676374 24.4181
35.38420332829803 24.379
35.407756095629054 24.3285
35.43112781085063 24.2852
35.45450104888391 24.3565
35.477875810999194 24.351999999999997
35.50143473172161 24.2603
35.52481255774625 24.2724
35.54819191167777 24.1554
35.57157279478914 24.0969
35.595137889488406 24.2092
35.61852184675279 24.1132
35.641907337029984 24.0585
35.665294361595684 23.9505
35.68886565090076 23.8976
35.7122557598848 23.8635
35.73564740699838 23.8478
35.759040593519934 23.8601
35.78261809810353 23.7948
35.80601437933051 23.7621
35.829412203814705 23.6727
35.85281157283719 23.5369
35.876395313415884 23.6412
35.8997977874528 23.6019
35.92320180988546 23.6614
35.946790244133936 23.4608
35.97019737933222 23.5256
35.993606066789866 23.4704
36.01701630779276 23.4308
36.04061101440684 23.4055
36.06402437852291 23.36
36.08743930005611 23.4095
36.1108557802951 23.2861
36.13445678011326 23.2544
36.15787639383515 23.2111
36.18129757014299 23.1622
36.20472031032821 23.1364
36.22832762423364 23.0726
36.25175350829375 23.0777
36.275180960119776 23.0305
36.298609981005924 22.9715
36.32222362992669 22.9659
36.34565580510207 22.8978
36.36908955323448 22.9319
36.39252487562093 22.8106
36.416144880530226 22.7793
36.43958336764275 22.7581
36.463023432914625 22.7788
36.486465077645676 22.6766
36.51009145956204 22.7591
36.53353627947859 22.7837
36.55698268276811 22.6196
36.58043067073321 22.6207
36.60406345072071 22.5519
36.62751462435344 22.4865
36.65096738658405 22.5332
36.67460498210655 22.5333
36.69806093788647 22.4548
36.72151848619297 22.357
36.744977628333636 22.4032
36.76862165890998 22.3256
36.79208400512205 22.3106
36.81554794910557 22.2168
36.83901349217101 22.2365
36.862663978991606 22.2039
36.88613273667352 22.1846
36.90960309738324 22.0876
36.933075062434064 22.1274
36.95673202673572 22.0447
36.98020721697122 21.9897
37.003684015502365 22.0008
37.027162423645365 21.934
37.050825886711465 21.8956
37.07430753063053 21.8382
37.09779078812467 21.8291
37.121275660513014 21.8393
37.144945643673694 21.7253
37.16843376245278 21.6896
37.19192350009803 21.7254
37.215414857931435 21.7211
37.239091382563885 21.6178
37.262585997426164 21.5632
37.28608223645736 21.5662
37.309763684451696 21.4917
37.33326318851098 21.4627
37.356764320726555 21.4628
37.380267082425526 21.4684
37.40395510942588 21.4251
37.42746114683234 21.346999999999998
37.45096881771841 21.3419
37.474478123414166 21.3351
37.49817275092816 21.2602
37.52168534303452 21.2717
37.54519957395567 21.2039
37.568715445024665 21.204
37.592416694607714 21.1588
37.61593586281424 21.1543
37.63945667518264 21.1361
37.66297913304891 21.0369
37.68668702630454 21.0194
37.710212792059274 21.0182
37.733740207334854 20.8862
37.757269273470364 20.8872
37.780983832050374 20.833000000000002
37.80451621684926 20.8122
37.82805025654007 20.8232
37.851585952464795 20.7511
37.8753071980695 20.6831
37.89884622345676 20.6679
37.92238690911902 20.6311
37.94611318753442 20.5907
37.969657210779765 20.5559
37.99320289834801 20.5867
38.016750251586465 20.4926
38.04048325513017 20.4845
38.06403395679343 20.4526
38.087586328183946 20.4547
38.11114037065203 20.3901
38.13488012115898 20.4211
38.1584375229181 20.2732
38.181996599821 20.2479
38.205557353221124 20.2215
38.229303872575656 20.19
38.2528679961576 20.146
38.27643380031219 20.1529
38.30000128639589 20.1907
38.32375459653193 20.2156
38.34732546371299 20.1244
38.37089801690786 20.0526
38.39447225747609 19.9711
38.418232380377425 19.9541
38.441810012983396 19.9913
38.46538933705673 19.9058
38.488970353960084 19.8933
38.51273731166058 19.9424
38.536321731567014 19.7956
38.55990784840681 19.7957
38.58367995004091 19.7589
38.60726947812959 19.7539
38.63086070726198 19.7301
38.654453638806274 19.7119
38.678232613930824 19.6061
38.70182896773327 19.5079
38.72542702806741 19.5293
38.7490267963045 19.4995
38.77281266709232 19.4389
38.79641586862214 19.4526
38.8200207821842 19.4007
38.843627409152944 19.4549
38.86742019782782 19.3638
38.891030269149255 19.3541
38.914642058016156 19.3024
38.938255565806124 19.2739
38.96205529464307 19.2574
38.98567225787121 19.2437
39.00929094417078 19.2034
39.03291135492255 19.1811
39.05671804624804 19.0973
39.080341923549106 19.1003
39.103967529460334 19.1448
39.127594865365744 19.0439
39.15140854155791 19.0227
39.17503935514948 18.9748
39.19867190290282 18.9983
39.22249083587951 18.9119
39.24612686969409 18.9188
39.269764641845306 18.9106
39.293404153722804 18.88
39.317230110864074 18.7561
39.34087311998506 18.7289
39.36451787301696 18.7941
39.388164371352595 18.7306
39.41199737518003 18.7161
39.43564738196752 18.6644
39.45929913825317 18.5831
39.48295264543308 18.5493
39.506792718520884 18.5192
39.530449745387216 18.5117
39.55410852735203 18.4689
39.57776906581474 18.493
39.60161623079 18.4657
39.625280300200025 18.4376
39.64894613032202 18.3509
39.67261372255866 18.4064
39.6964680021016 18.3133
39.72013913657293 18.3458
39.74381203738292 18.3934
39.76748670593756 18.2551
39.79134812278169 18.2747
39.81502634488497 18.2247
39.83870633896685 18.1851
39.862388106436654 18.0734
39.88625668336918 18.1066
39.90994201572829 18.1322
39.933629125719285 18.0181
39.957503091207826 18.0446
39.9811937746168 18.0052
40.00488623990914 17.9678
40.02858048850006 17.8944
40.05246165409549 17.9019
40.076159487492085 17.8332
40.099859108448875 17.813
40.123560518384345 17.8292
40.1474489070226 17.8105
40.171153913178564 17.7626
40.194860712584955 17.7385
40.2185693066637 17.7502
40.242464941335314 17.7023
40.26617714307655 17.6625
40.289891143772046 17.5942
40.3136069448471 17.5872
40.33750984859743 17.5711
40.3612292688043 17.5227
40.3849504936829 17.5138
40.40867352466194 17.4865
40.43258372059144 17.4352
40.45631038219906 17.4993
40.48003885420956 17.4352
40.503769138055105 17.3876
40.52768664931955 17.3746
40.55142057531802 17.3604
40.57515631746428 17.3061
40.599079334038514 17.303
40.62281872700477 17.2048
40.64655994043941 17.1812
40.67030297578061 17.1399
40.69423334835778 17.1543
40.71798004609188 17.1379
40.74172857006355 17.1182
40.76547892171441 17.093
40.7894166736039 17.0353
40.813170699248566 16.9984
40.83692655691388 16.9839
40.86068424804498 17.0168
40.884629402612525 16.9824
40.908390779366385 17.0063
40.932153993938 16.8789
40.95591904777605 16.8423
40.979871628443995 16.8192
41.003640379561936 16.7985
41.02741097430883 16.8065
41.05118341413683 16.7989
41.075143444384416 16.7376
41.098919593177826 16.7036
41.1226975914255 16.6458
41.14647744058318 16.6005
41.170444943946755 16.622
41.19422851378379 16.6114
41.218013938914645 16.5556
41.24198706625173 16.5036
41.26577622087193 16.4772
41.289567235177785 16.4816
41.31336011063129 16.4424
41.337340752422875 16.3765
41.361137369129835 16.3676
41.38493585138705 16.3292
41.40873620066004 16.2704
41.43272438060107 16.3407
41.45652848292052 16.329
41.48033445666918 16.2638
41.50414230331616 16.213
41.528138045159764 16.2109
41.551949656675205 16.1143
41.575763145513235 16.1429
41.59957851314666 16.1821
41.62358184070442 16.0315
41.64740098505737 16.07
41.6712220126409 16.0778
41.69504492493139 16.026
41.71905586207357 15.8726
41.74288256296395 15.915
41.766711153007456 15.9107
41.79054163368412 15.9201
41.814560204340054 15.8771
41.838394485526365 15.8717
41.86223066180303 15.8556
41.88625497706819 15.7788
41.910094962812 15.7208
41.93393684811168 15.7238
41.95778063445365 15.6591
41.981812625263366 15.7137
42.00566023303407 15.6419
42.029509746323676 15.6546
42.05336116662236 15.6358
42.077400857069705 15.6368
42.10125611078846 15.5625
42.12511327600405 15.5095
42.14897235421036 15.533
42.173019768448455 15.4441
42.19688269209613 15.4686
42.22074753323349 15.4121
42.24461429335818 15.4127
42.268669455600495 15.3384
42.292540073217886 15.3068
42.31641261433284 15.2991
42.34028708044675 15.3124
42.36435001496739 15.3119
42.38822835065557 15.2924
42.41210861586426 15.1861
42.4359908120986 15.1998
42.46006154323262 15.1718
42.48394762115317 15.1734
42.507835634632315 15.1149
42.531912233047436 15.0971
42.55580413732265 15.0164
42.579697981698 15.0645
42.60359376768525 15.0262
42.62767820545945 15.0033
42.65157789440821 14.9739
42.67547952952185 14.9575
42.699383112316 14.8896
42.72347541395347 14.8512
42.74738291190531 14.8405
42.771292362102166 14.8355
42.795203766063516 14.827
42.819303956130405 14.8094
42.843219287476536 14.8014
42.86713657716324 14.7323
42.89105582671383 14.7326
42.91516392983864 14.7169
42.939087119032166 14.6908
42.963012272677304 14.5871
42.98693939230129 14.587
43.01105543317513 14.6115
43.034986504731386 14.5879
43.05891954686589 14.5298
43.08285456110972 14.5147
43.10697856448665 14.4871
43.130917542983475 14.44
43.15485849820081 14.464
43.17880143167367 14.3839
43.20293342237094 14.3429
43.226880332449 14.3978
43.25082922540554 14.4063
43.27496722682525 14.3332
43.29892010567796 14.2951
43.32287497204102 14.2513
43.34683182745632 14.2297
43.370977859791836 14.208
43.39493871351105 14.1553
43.41890156092628 14.1797
43.44286640358341 14.1456
43.46702049182749 14.1131
43.49098934522816 14.0842
43.51496019852649 14.0861
43.5389330532723 14.0547
43.56309522248204 14.0369
43.58707210044314 14.0077
43.61105098451946 13.9175
43.63503187626491 13.9578
43.659202151562134 13.9441
43.68318707902681 13.8836
43.70717401884041 13.8461
43.731162972560874 13.7941
43.75534137913236 13.787
43.779334381108384 13.7869
43.803329401683186 13.8137
43.82732644241872 13.7788
43.8515130055166 13.7511
43.87551410707659 13.6907
43.89951723350145 13.6813
43.923709934595614 13.7191
43.94771713129917 13.6878
43.97172635758096 13.6244
43.99573761501002 13.5758
44.0199385169922 13.5759
44.04395385732619 13.5494
44.067971233533086 13.5239
44.09199064718605 13.5355
44.11619977548961 13.4692
44.14022328470671 13.4459
44.16424883610785 13.4167
44.18827643127035 13.4267
44.21249381139513 13.3962
44.236525514814076 13.3566
44.26055926674478 13.3212
44.28459506876863 13.3326
44.3088207262813 13.3053
44.33286064928722 13.2576
44.35690262714919 13.2562
44.38094666145278 13.225999999999999
44.4051806219871 13.2303
44.42922879003185 13.1791
44.45327901929361 13.1668
44.477331311362136 13.1574
44.501573600619416 13.104000000000001
44.525630039221795 13.0602
44.54968854541895 13.0997
44.573937102200176 13.068
44.5979997645541 13.0519
44.622064499300315 12.989
44.64613130803592 12.9778
44.67038823869318 12.9648
44.69445921643748 12.9516
44.718532272981385 12.8668
44.742607409926194 12.8233
44.76687274034801 12.8282
44.79095205918753 12.8296
44.81503346325094 12.7676
44.839116954143876 12.8036
44.86339071028742 12.7482
44.88747839599524 12.7948
44.91156817336837 12.6962
44.93566004401666 12.6629
44.959942251908146 12.6999
44.984038330325966 12.6528
45.00813650686762 12.5808
45.03223678314731 12.5928
45.05652746888232 12.5771
45.08063196592069 12.5608
45.104738567558705 12.5387
45.128847275414856 12.5352
45.15314646515866 12.4777
45.17725940679741 12.4405
45.20137445952892 12.4254
45.22568004865265 12.4275
45.24979934496396 12.4286
45.27392075725247 12.35
45.29804428714431 12.3669
45.322358426247604 12.3429
45.346486212804315 12.3017
45.370616121861914 12.3445
45.39474815505086 12.3187
45.41907087049246 12.2332
45.4432071734666 12.210999999999999
45.46734560548283 12.1918
45.49148616817604 12.163
45.51581748638564 12.1634
45.5399623320197 12.1653
45.56410931325473 12.1503
45.58825843173002 12.1266
45.61259837920865 12.1125
45.636751793816 12.081
45.66090735060093 12.0208
45.68506505120716 11.9705
45.7094136545275 11.9713
45.73357566449271 11.9101
45.75773982322992 11.929
45.78190613238733 11.9196
45.806263418194064 11.9046
45.83043404997326 11.9026
45.85460683713677 11.8728
45.87897065658495 11.8694
45.90314777634752 11.8005
45.92732705646868 11.8112
45.9515084986045 11.794
45.97588104735473 11.7602
46.00006683541565 11.7399
46.02425479047904 11.7077
46.04844491420549 11.6783
46.0728262191024 11.7436
46.09702070211635 11.6881
46.12121735879483 11.6593
46.14541619080294 11.6099
46.169806278764455 11.6312
46.194009483459034 11.591
46.21821486849841 11.5581
46.24242243555223 11.527999999999999
46.266821333570014 11.4805
46.29103328674601 11.4593
46.31524742696538 11.4808
46.33946375590237 11.4612
46.36387149104216 11.4419
46.38809221957392 11.4042
46.41231514186606 11.3522
46.436540259597464 11.3694
46.460956858999374 11.3407
46.48518638983522 11.3173
46.509418121166966 11.2862
46.533652054678114 11.2962
46.55807754555709 11.2685
46.58231590571962 11.2562
46.60655647313217 11.2097
46.630988654873654 11.216
46.655233659129024 11.1902
46.67948087571551 11.1783
46.70373030632484 11.1392
46.72817142736393 11.1496
46.752425308428684 11.0828
46.77668140861147 11.0657
46.80093972960865 11.0455
46.82538981736788 11.0164
46.849652602470904 10.9987
46.87391761349769 11.0162
46.8981848521493 10.9953
46.9226439341274 10.9483
46.946915650573224 10.9157
46.97118959976749 10.9271
46.99546578341598 10.8843
47.019933887188216 10.8777
47.04421456235744 10.8877
47.06849747711879 10.8204
47.09278263318286 10.8096
47.11725978640143 10.7882
47.14154944775105 10.7418
47.165841355555656 10.751
47.1901355115306 10.7112
47.214621741924994 10.7033
47.23892041698887 10.7377
47.26322134538975 10.6684
47.28771440635075 10.6236
47.31201986422527 10.6197
47.33632758061436 10.5972
47.360637557241866 10.5761
47.38513974410611 10.5896
47.40945426407847 10.5361
47.43377104948137 10.5347
47.45809010204344 10.5401
47.48260144275502 10.4866
47.506925052572285 10.4556
47.53125093475548 10.4379
47.55557909103813 10.4402
47.58009961361992 10.4194
47.60443234110732 10.3554
47.62876734791564 10.3883
47.65310463578333 10.3574
47.6776343683373 10.3186
47.7019762413987 10.2744
47.72632040075572 10.2505
47.75066684815169 10.305
47.77520581885936 10.2452
47.799556865477655 10.2195
47.823910205386 10.2345
47.84826584033272 10.1887
47.87281407745551 10.1636
47.89717432569297 10.1645
47.92153687423484 10.1628
47.94609208429692 10.1345
47.97045925671401 10.1336
47.99482873471275 10.0437
48.01920052005013 10.0271
48.04376504619224 10.0535
48.068141469543484 10.0929
48.09252020552573 10.044
48.11690125590099 10.0004
48.1414751266064 10.017000000000001
48.16586082917454 9.980080000000001
48.19024885144316 9.97579
48.2146391951793 9.94007
48.239222439012764 9.928469999999999
48.26361744916137 9.8988
48.28801478610016 9.882430000000001
48.31241445160131 9.8707
48.337007097209366 9.847999999999999
48.36141144338331 9.8105
48.38581812345755 9.81066
48.41022713920929 9.787519999999999
48.434829215320704 9.79786
48.45924292604658 9.785060000000001
48.48365897780325 9.77236
48.50807737237308 9.74651
48.532688907799276 9.7298
48.55711201168574 9.68308
48.581537463754074 9.65893
48.60615611725119 9.651819999999999
48.63058628942721 9.65628
48.65501881516546 9.64048
48.6794536962573 9.63486
48.70408185970339 9.61508
48.72852147531801 9.557139999999999
48.75296345168211 9.51684
48.77740779059232 9.49667
48.80204549302823 9.55414
48.82649458091802 9.532739999999999
48.85094603676547 9.50481
48.87539986237231 9.43186
48.90004713292306 9.4533
48.92450572200832 9.44781
48.94896668628025 9.38067
48.97343002754588 9.38609
48.99808689542115 9.3923
49.02255501470614 9.36645
49.04702551642794 9.34435
49.0714984023988 9.27864
49.096164896893235 9.278889999999999
49.120642575466796 9.29135
49.145122643748394 9.26408
49.16960510355558 9.24644
49.19428125404938 9.251610000000001
49.2187685210852 9.18623
49.243258185121555 9.203339999999999
49.26794160167084 9.206
49.2924360839405 9.15734
49.31693296869764 9.0888
49.34143225776915 9.14517
49.36612538195438 9.09464
49.39062950396021 9.083039999999999
49.41513603578346 9.09197
49.4396449792564 9.04857
49.46434784069503 9.00194
49.488861631846454 8.99025
49.513377840166804 9.003969999999999
49.537896467493745 9.00404
49.56260909589029 8.92981
49.587132585683285 8.95942
49.611658500018365 8.9405
49.636186840738596 8.92145
49.66090926588511 8.90617
49.685442483902584 8.88406
49.70997813385706 8.826989999999999
49.734516217597076 8.87712
49.75924846937352 8.84633
49.7837914452858 8.78143
49.80833686055187 8.79096
49.83288471702571 8.7581
49.85762682540054 8.7594
49.882179588965734 8.73553
49.9067347993235 8.7368
49.93129245833333 8.73965
49.95604445336378 8.742939999999999
49.98060703442832 8.66525
50.005172069746266 8.68613
50.02993150438364 8.662980000000001
50.05450147301533 8.63754
50.07907390151433 8.61988
50.10364879174981 8.59065
50.12841816587289 8.55444
50.1529980044635 8.5294
50.17758031042124 8.52099
50.20216508562089 8.54462
50.22694442953363 8.48879
50.25153416817468 8.49052
50.27612638170508 8.45969
50.300721072005196 8.44892
50.325510416102105 8.44543
50.350110084975064 8.43937
50.37471223628208 8.4421
50.39931687190919 8.39825
50.424116246675766 8.39226
50.44872587605249 8.38095
50.47333799543065 8.33699
50.49795260670191 8.33403
50.52276204271512 8.30076
50.54738166295838 8.30965
50.57200378079314 8.31095
50.596628398116835 8.284939999999999
50.62144792604559 8.2457
50.646077567609396 8.20017
50.670709714377715 8.23879
50.69553683636198 8.204089999999999
50.72017401885922 8.15172
50.7448137122895 8.197510000000001
50.76945591856022 8.164489999999999
50.79429318636823 8.16312
50.818940443716784 8.13035
50.84359021965163 8.120510000000001
50.868242516085964 8.07005
50.893089960641895 8.06537
50.917747323549435 8.052
50.94240721271973 8.050089999999999
50.96706963007175 8.02137
50.99192728239342 7.98371
51.01659478166073 8.0097
51.04126481489051 7.98902
51.06593738400761 7.972389999999999
51.090805275207074 7.94492
51.11548294172845 7.929810000000001
51.14016314993547 7.90565
51.164845901758845 7.92485
51.18972406304274 7.88029
51.21441192780656 7.8456399999999995
51.23910234200271 7.84687
51.2637953075678 7.8155399999999995
51.288683770237945 7.78825
51.31338186432707 7.77986
51.33808251561888 7.766260000000001
51.362978729967345 7.75973
51.387684521509755 7.80598
51.41239287610203 7.7673
51.437103795691165 7.72427
51.46201036644977 7.678710000000001
51.486726441956634 7.70109
51.51144508832545 7.68968
51.536166307509156 7.648810000000001
51.56108326624387 7.66061
51.58580965706056 7.66967
51.61053862657523 7.6531
51.635270176746864 7.62206
51.66019755512065 7.590910000000001
51.68493429268881 7.528410000000001
51.70967361681515 7.53741
51.73441552946465 7.5559899999999995
51.759353359237934 7.49708
51.7841004750961 7.5063
51.80885018539685 7.512760000000001
51.833602492111254 7.48297
51.8585508051424 7.438839999999999
51.883308330926425 7.4435199999999995
51.90806845906181 7.418410000000001
51.932831191525715 7.43432
51.95779001977161 7.367610000000001
51.98255798721516 7.347180000000001
52.00732856494335 7.32861
52.03229530577543 7.349480000000001
52.057071130455945 7.35376
52.081849571391054 7.321039999999999
52.106630630568695 7.317410000000001
52.13160794279417 7.250139999999999
52.15639426492067 7.28525
52.18118321127822 7.26018
52.205974783860896 7.24746
52.23096269971011 7.24328
52.255759551287994 7.19372
52.280559035098186 7.1968
52.30536115314103 7.2026
52.33035970494467 7.17455
52.35516711807904 7.14664
52.37997717147198 7.12907
52.40478986713005 7.1279
52.42979908731974 7.119160000000001
52.454617094216 7.08775
52.47943774942214 7.05121
52.50426105495102 7.03777
52.529280976059844 7.04033
52.554109609024096 7.047339999999999
52.57894089837482 7.03258
52.60377484613117 7.03942
52.62880550079408 6.99688
52.65364479223379 6.9790399999999995
52.67848674816189 6.922289999999999
52.70352547971946 6.91599
52.72837279155837 6.91938
52.753222773982785 6.915080000000001
52.778075429022984 6.9639
52.80312495150885 6.87632
52.827982978797436 6.85751
52.85284368481815 6.874860000000001
52.87770707160767 6.85985
52.90276741793998 6.80652
52.92763619336701 6.81774
52.952507655698504 6.837219999999999
52.977381806977576 6.78348
53.00245301017842 6.78878
53.02733256653592 6.7463
53.052214817996074 6.7484
53.077099766608484 6.70677
53.102181859804446 6.738160000000001
53.127072229988265 6.724889999999999
53.15196530349892 6.70603
53.17686108239249 6.674360000000001
53.20195409881522 6.6507
53.22685531582556 6.608619999999999
53.25175924441303 6.59846
53.27666588664027 6.5956600000000005
53.30176985962693 6.635260000000001
53.3266819565689 6.597760000000001
53.35159677336455 6.5746
53.376514312083096 6.58518
53.40162927507703 6.599710000000001
53.42655228516116 6.54175
53.45147802340193 6.49895
53.47660125628886 6.48107
53.50153247842639 6.50349
53.52646643496923 6.4612
53.55140312799818 6.45686
53.576537409691696 6.4139800000000005
53.60147960336152 6.43843
53.626424539786164 6.41899
53.65137222105307 6.34435
53.67651758529126 6.36346
53.70147078399681 6.34258
53.72642673383343 6.37352
53.75138543689533 6.33219
53.776541917524526 6.3594599999999994
53.801506154876755 6.32028
53.826473151763246 6.3152800000000004
53.851442910284916 6.27401
53.87661054126026 6.27931
53.9015858509782 6.22893
53.92656392866066 6.24477
53.95154477641532 6.278519999999999
53.976723591801296 6.25626
54.00171000771266 6.2132
54.02669920004598 6.199330000000001
54.051691170915745 6.16434
54.076881204886796 6.18015
54.101878760928514 6.16669
54.12687910187696 6.1479
54.152077577768296 6.13389
54.1770835166946 6.11526
54.20209224691339 6.1138900000000005
54.22710377055121 6.06944
54.25231352511594 6.09014
54.27733066384342 6.02648
54.30235060239643 6.01512
54.32737334290836 6.02468
54.35259441062629 5.9995
54.377622783395324 6.00378
54.40265396455061 5.98527
54.42768795623251 5.98752
54.45292037169559 5.9117
54.477960012857906 5.91184
54.50300247099511 5.91634
54.52804774825457 5.9023
54.55329154616743 5.8448199999999995
54.57834249018678 5.81016
54.6033962597977 5.81431
54.6284528571545 5.8331800000000005
54.653708072335164 5.73911
54.67877035378786 5.74245
54.70383546947698 5.70948
54.72890342156389 5.6987
54.7541700889442 5.66314
54.77924374251975 5.65123
54.8043202390049 5.6914
54.82959552413022 5.662719999999999
54.8546777351945 5.59818
54.87976279569621 5.607880000000001
54.90485070780914 5.63004
54.930137506558005 5.513809999999999
54.95523115074295 5.58631
54.98032765308844 5.57059
55.005427015775496 5.49059
55.03072536339621 5.5469800000000005
55.05583047570572 5.4479
55.080938454927676 5.4547300000000005
55.10604930325027 5.39947
55.131359235107396 5.4438
55.15647585066083 5.38437
55.181595341907496 5.40418
55.20671771104285 5.336530000000001
55.232039262617704 5.3240300000000005
55.25716741665048 5.27048
55.28229845518636 5.2636199999999995
55.30743238042802 5.26179
55.33276558731939 5.17938
55.357905315183636 5.1795800000000005
55.383047936390035 5.13486
55.40819345314859 5.11015
55.433538351073295 5.108709999999999
55.458689688238415 5.102130000000001
55.483843927614096 5.0631900000000005
55.509197623043605 5.08938
55.53435769621134 5.09505
55.55952067826466 5.00183
55.5846865714265 4.9676599999999995
55.61005202069737 4.98944
55.63522376553902 4.9741599999999995
55.66039842818645 4.95539
55.68557601087004 4.98159
55.7109532500271 4.86949
55.73613670233794 4.87911
