TT I
1.2716486653135266 7.2191600000000005
1.2939594142134223 6.51992
1.3162702121660406 6.79525
1.3385810600174564 6.02109
1.3608919586137629 6.8321
1.383202908801069 5.812
1.405513911425503 5.62416
1.4278249673332093 6.08854
1.4501343378461518 5.82943
1.4724455028545926 6.1262300000000005
1.4947567236847858 5.5785800000000005
1.517068001182951 5.857130000000001
1.5393793361953272 5.89156
1.5616907295681737 5.522
1.5840021821477681 5.00074
1.60631369478041 4.72863
1.6286252683124185 5.7506
1.6509369035901333 4.87975
1.6732468618895553 5.074319999999999
1.695558623192809 4.93745
1.7178704487808514 5.0137
1.7401823395001077 4.93525
1.7625012545597203 4.266290000000001
1.7848028405262486 4.99646
1.8071218901122095 4.6756
1.8294236121921872 4.94945
1.8517427996910911 4.58231
1.8740620574440425 4.80082
1.8963639900671978 4.47676
1.9186833908139995 4.56314
1.9409854680117449 4.72056
1.9633050151394713 4.2712699999999995
1.9856246367570705 4.3990599999999995
2.0079269371922672 4.43907
2.03024671027244 4.2875
2.0525491637446027 4.38168
2.074869091674931 4.07076
2.097171701569106 4.8356699999999995
2.1194917877373847 5.01213
2.141811954326636 5.0587800000000005
2.164114805233074 4.36541
2.186435135143035 5.10749
2.208738150935709 8.33855
2.231058647554722 11.5171
2.2533792288321184 9.77333
2.275682498336085 6.5149
2.298003251406138 5.597519999999999
2.3203066942619714 5.44284
2.3426276225136022 5.015219999999999
2.3649486396617507 5.27171
2.387252348930071 5.60583
2.4095735463442893 6.14931
2.4318774374315884 6.246580000000001
2.4541988185014043 6.75358
2.476502894794693 7.4264
2.498824462909887 7.3974899999999995
2.521146125856138 7.55552
2.5434504863470337 7.575880000000001
2.5657723414244717 7.75207
2.588076895590662 8.51586
2.610398946189713 8.33429
2.6327210958598384 8.13584
2.6550259469304716 7.66875
2.6773482972090137 8.1053
2.6996533504259 8.141580000000001
2.7219759047039602 8.86917
2.744298562293959 8.3482
2.7666039251246595 8.354569999999999
2.7889267918020164 7.99598
2.8112323652516555 8.33806
2.833555444408179 8.46563
2.8558786311183852 8.85791
2.8781845268938557 10.0299
2.9005079311721484 9.38101
2.9228140460410397 8.76516
2.9451376712799635 9.45554
2.967444008632326 10.0995
2.9897678582247247 9.814589999999999
3.0120918213106695 10.424000000000001
3.0343984987899373 10.6146
3.0567226913198637 10.788
3.079029599759726 11.7711
3.101354025127254 12.5683
3.123678568232338 13.0144
3.145985829517914 13.3668
3.16831061055229 13.2149
3.1906181112775593 14.9832
3.212943133635653 15.1147
3.2352682779763207 15.3588
3.2575761442691227 15.6113
3.2799015350264273 15.5746
3.302209649240067 16.0925
3.3245352898092655 16.3108
3.3468436553365257 17.2269
3.369169549113219 17.3629
3.3914955708171384 18.0243
3.413804319727358 18.5921
3.4361305997334863 18.5066
3.4584396084414553 19.1573
3.4807661501462652 19.9186
3.503092824025881 20.2337
3.5254022288463154 20.5688
3.5477291695206588 21.3202
3.5700388426251948 22.0718
3.5923660534916446 22.7772
3.6146934007816114 27.5974
3.637003482731501 41.983000000000004
3.6593311053109985 44.3577
3.681641464033634 33.272
3.7039693653009733 26.4637
3.726297407241705 25.0052
3.7486081875460804 24.943
3.7709365132734978 25.5312
3.793247578841633 26.0424
3.8155761917550093 25.7788
3.8378875459837216 26.7517
3.8602164494827234 26.6953
3.882545499606844 27.6364
3.9048572932539183 28.1155
3.9271866390645718 28.4832
3.9494987298666713 28.8431
3.971828374764527 29.9294
3.9941581705403255 29.889
4.016470713506008 30.6367
4.038800813471445 31.2158
4.061113662089144 31.6509
4.0834440696459176 32.4598
4.105774632334751 32.6014
4.128087945865126 33.524
4.150418821249301 34.2125
4.172732448931298 35.02
4.195063640413578 36.1736
4.2173775856475215 38.4932
4.239709096631102 49.3688
4.262040768704612 99.5578
4.284355196706267 121.821
4.306687193387355 88.3436
4.329001947444346 52.8671
4.35133427213731 43.6436
4.373666762177566 43.1468
4.395982011761091 42.7527
4.418314834921175 43.9444
4.44063041906622 47.5897
4.4629635787515625 50.8421
4.4852969080429785 51.695
4.5076130004776225 52.468999999999994
4.529946671403969 59.8187
4.552263106909177 64.5035
4.574597122877047 60.1757
4.596931312711224 54.6084
4.619248269273446 53.4858
4.6415828092605835 53.8463
4.663900117405352 54.7681
4.686235010953232 56.3225
4.708552674085913 57.909
4.730887924602802 59.2143
4.753223354952695 61.8148
4.775541557023902 65.9271
4.797877349456786 69.4913
4.820195915032126 69.2179
4.842532072957498 68.4705
4.864868414979744 71.3771
4.88718753227192 76.1822
4.909524244902505 77.3705
4.931843734218147 76.6344
4.954180820867835 77.5485
4.976518095879839 80.5497
4.998838149695359 82.7871
5.021175803844231 86.0515
5.043496238205739 89.2241
5.065834274903528 93.5993
5.088172504230693 98.4482
5.1104935158799565 105.195
5.132832132875765 124.12899999999999
5.155153533596801 153.319
5.1774925416746225 189.72799999999998
5.199814334878411 372.05400000000003
5.2221537374521505 953.9580000000001
5.244493338631803 2772.53
5.266815727034316 8069.32
5.289155727832427 13595.0
5.311478517248165 8918.53
5.333818921080011 2696.86
5.356159527788849 504.73199999999997
5.3784829252032536 197.888
5.400823940070432 156.487
5.423147747031976 130.385
5.445489173474152 118.993
5.467830807066149 120.89
5.490155234831516 122.16
5.512497285125229 114.301
5.534822130975162 105.28399999999999
5.557164601388673 101.212
5.579489868738879 97.7175
5.601832762690846 96.6723
5.6241758697774475 95.3989
5.646501775867269 95.6327
5.668845311622074 93.6995
5.691171647754637 93.0771
5.713515615597765 91.8843
5.735859800852677 92.0822
5.758186788542988 94.2419
5.780531411018185 99.6652
5.802858837297399 100.583
5.825203900414495 99.8557
5.8475491852224 103.921
5.869877275883075 102.816
5.892223006467101 97.3195
5.914551544266608 94.3442
5.936897724049891 95.7751
5.959244129804903 102.139
5.981573344815301 128.037
6.0039202049061 227.80599999999998
6.026249875609095 444.539
6.04859719346037 907.816
6.070927323278297 2229.25
6.093275102315365 4689.62
6.115623113320588 5211.01
6.137953938319995 2998.42
6.160302415650845 816.528
6.182633708324452 192.236
6.2049826554078376 104.60600000000001
6.227331838745022 87.4821
6.249663839443684 81.5421
6.27201349767565 78.4559
6.294345974611799 78.7187
6.316696111167083 80.3058
6.339046488263839 77.9307
6.361379686074702 72.55199999999999
6.383730546639482 69.5902
6.406064229255215 69.4031
6.428415576718203 71.1388
6.450749747566656 69.8357
6.47310158535871 66.765
6.495453669698332 64.5425
6.517788579421056 63.4212
6.540141159237969 62.5037
6.562476565766648 62.1267
6.5848296444934045 61.9956
6.607182974060425 62.3111
6.6295191323281015 62.3381
6.651872965955752 62.0371
6.6742096296068985 68.9693
6.6965639707294615 81.8558
6.71891856698715 80.8407
6.741255995248479 68.4914
6.763611104154477 60.6217
6.785949046381137 58.4732
6.808304671371482 59.0041
6.8306605557940046 61.5166
6.852999275508618 60.151
6.875355681171544 57.5747
6.897694923437771 55.8624
6.92005185377892 55.283
6.9423916220322655 55.2979
6.964749080490181 54.5242
6.987106804399774 54.8823
7.009447368180821 55.6697
7.031805625367033 55.2835
7.054146723727803 54.5576
7.076505517631004 54.1486
7.098864581288365 54.191
7.121206488070854 53.8389
7.143566093607822 54.2836
7.165908543567245 55.7503
7.188268694426048 56.2818
7.2106291193438095 55.2229
7.232972390625943 54.3838
7.255333366030969 58.4162
7.277677189091925 74.6639
7.300038718428332 87.0701
7.322400526130865 79.5314
7.344745183422596 63.7733
7.367107550224791 55.7905
7.389452767901992 54.2884
7.411815697249891 53.2322
7.434161478756298 52.9235
7.456524974096713 52.9874
7.478888753837185 52.8304
7.501235387657368 53.1692
7.523599738562711 53.3653
7.545946944825532 53.4613
7.568311870344528 54.0548
7.5906770845765665 54.1291
7.613025156078678 54.6955
7.635390950099687 55.2469
7.657739602662809 55.3084
7.680105979923558 55.7728
7.702472650212829 56.3315
7.724822180948224 56.4264
7.747189439655568 55.8878
7.769539560075357 55.5228
7.791907410653562 55.233000000000004
7.81425812420825 55.7005
7.836626570110925 55.818000000000005
7.858995315087906 56.63399999999999
7.881346924933401 57.1482
7.903716270417482 57.2754
7.926068482028405 57.4799
7.948438431475253 58.3253
7.9708086843180235 58.8896
7.993161805171116 59.5567
8.015532667162402 60.0992
8.037886398416653 61.397
8.060257873014221 61.9276
8.082629655331942 62.5005
8.104984308787587 63.6011
8.127356708900503 66.1765
8.149711981398308 70.7582
8.172085002766314 72.8339
8.194458336181368 70.4299
8.216814543847752 68.6018
8.23918850371002 68.4451
8.26154533906492 69.3629
8.283919928836452 70.6275
8.306277395339652 71.3631
8.328652618483376 72.5718
8.351028159736202 74.8773
8.373386579575245 77.2699
8.395762759396959 79.4741
8.418121819038275 82.3294
8.440498640894003 88.4844
8.462875785192262 99.0186
8.485235811156207 122.976
8.507613602688501 170.95
8.529974277114228 245.662
8.552352719347912 365.119
8.574731488360351 624.077
8.59709314210385 1200.62
8.619472567021075 1954.25
8.64183487789147 2240.28
8.664214962183097 1701.84
8.686577933647762 833.685
8.708958680784317 298.768
8.731339760774953 140.614
8.753703729764451 104.306
8.77608547780821 95.5056
8.798450116065078 92.8933
8.820832535634787 90.9375
8.843215292401656 91.41799999999999
8.865580941199045 92.7171
8.887964374703538 92.2805
8.910330701447199 92.4306
8.932714815164482 91.7294
8.955099270424924 89.2481
8.977466620733543 85.8785
8.999851761421976 84.4017
9.022219798361645 83.1812
9.04460562795561 82.9519
9.066991803441677 83.2952
9.089360876979615 83.925
9.111747746589993 83.5673
9.13411751544971 82.3337
9.156505082664324 81.2921
9.178875550323522 80.8875
9.20126381862328 81.1118
9.223652438908596 80.8438
9.246023961427412 81.0548
9.26841328802173 81.0319
9.290785518039224 81.7431
9.313175554425882 84.5545
9.335565947154315 86.7135
9.357939245086508 87.9556
9.380330352834827 86.3024
9.40270436697103 85.7891
9.425096193225055 84.9832
9.447488380180165 84.8442
9.469863475295412 83.9022
9.492256385987508 83.8426
9.514632206018318 84.1143
9.537025843935714 84.8592
9.559402392368193 85.9045
9.581796761000229 88.8727
9.604191496441521 91.8543
9.626569144158516 94.9239
9.648964615551032 96.0022
9.671343000390081 94.7361
9.693739211225699 92.4976
9.716135793237463 91.4139
9.738515290448102 92.3206
9.760912617143402 94.1249
9.783292860202891 96.6568
9.805690935076182 99.4584
9.828089385495742 99.8705
9.850470754023561 100.695
9.872869957865444 103.455
9.89525208097539 108.929
9.917652041736662 115.48299999999999
9.940052382417589 123.552
9.962435644102392 148.105
9.984836746950979 185.013
10.007220771957746 239.783
10.029622640473708 330.575
10.052007432299963 508.601
10.074410069984072 830.8389999999999
10.096813093716005 1301.1
10.119199042482517 1840.27
10.141602840636468 1987.32
10.163989564971628 1468.38
10.186394141051062 770.9580000000001
10.208799107559706 325.789
10.231187001965623 161.257
10.253592751657669 118.454
10.275981430388155 109.17399999999999
10.298387966769793 106.758
10.320794897965431 106.991
10.343184759907361 105.514
10.36559248305461 103.26899999999999
10.387983138083852 103.367
10.410391656691655 109.01299999999999
10.432800574501677 119.44
10.455192425893369 132.666
10.47760214443012 157.965
10.499994797678786 204.295
10.522405320453982 291.047
10.54479877906917 413.278
10.567210109595656 549.712
10.5896218454736 583.99
10.612016518879773 481.029
10.634429067781074 313.005
10.656824555333241 176.78
10.679237920773568 111.95700000000001
10.701651695961992 91.8398
10.724048411481384 86.956
10.746463008485165 84.3985
10.768860546937125 83.4918
10.791275969274796 81.8616
10.81369180576079 80.9621
10.836090585366925 79.868
10.858507252467449 78.4729
10.88090686379991 77.9189
10.903324365036394 77.5925
10.925724811614439 76.9943
10.948143150509463 77.5642
10.970561909719066 76.954
10.992963615930844 76.1867
11.015383218085756 74.6989
11.037785768347074 72.8457
11.06020621697282 71.8731
11.082627090322113 71.0321
11.105030913430326 70.4656
11.12745263854165 70.111
11.149857314510728 70.4914
11.172279894912576 72.2038
11.194702904450653 71.7928
11.217108866490921 69.8957
11.239532736615194 68.6742
11.26193956033512 67.6513
11.284364294577085 67.2612
11.306789462371718 66.2582
11.329197585398376 65.7681
11.351623622610898 65.5917
11.37403261614354 65.2023
11.396459526308487 64.8815
11.418869393879497 64.3495
11.441297180532617 64.1488
11.463725406927658 63.6263
11.486136592353875 63.5372
11.508565700543707 63.6049
11.530977768845315 64.1429
11.553407762368774 64.0075
11.575838200059769 63.7957
11.598251599479612 63.1618
11.620682927815501 62.5913
11.64309721895548 62.638999999999996
11.665529441478206 62.025
11.687962112597958 61.5104
11.710377748130886 61.8631
11.732811318753434 61.6766
11.755227854859067 61.6826
11.777662328529495 61.4013
11.800079768750786 61.7404
11.822515149015453 62.0516
11.844950984084935 62.1851
11.867369787303163 61.8472
11.889806534289491 61.4285
11.912226250487029 61.8764
11.934663912939751 61.9372
11.9571020346363 62.2707
11.979523127133968 62.2265
12.001962169624331 63.4712
12.024384183972964 64.8234
12.046824150809913 67.9049
12.069264581333726 71.5741
12.091687985297767 77.2645
12.11412934550045 86.0701
12.136553680195208 102.023
12.158995973632788 126.965
12.181438735204349 159.968
12.20386447284199 190.83
12.226308172985636 209.459
12.24873485024193 202.426
12.271179492516982 154.333
12.293607112949127 114.336
12.316052700916226 86.3139
12.338498763250042 70.6466
12.360927805303868 65.1363
12.383374818673879 63.622
12.405804812803074 62.7172
12.428252780773262 62.8812
12.45070122756722 63.291000000000004
12.473132656675375 63.4989
12.49558206341869 63.5748
12.518014453510101 63.8441
12.540464823770117 64.2746
12.562915677315177 64.1863
12.58534951575545 64.2238
12.607801338171472 64.5148
12.630236146511358 66.4544
12.652688941369085 68.1815
12.675124723177234 68.8522
12.697578494048786 67.8867
12.720032754458185 66.7386
12.742470003354093 66.53
12.764925245138771 66.4135
12.787363476431278 66.8489
12.809819703166806 67.3897
12.83227642391173 68.4283
12.854716135692716 68.8746
12.877173846755147 70.0508
12.899614549869717 70.38
12.9220732548287 71.7037
12.94453245827299 72.1494
12.966974655289818 73.0151
12.989434858002571 73.6859
13.011878055298721 74.0619
13.034339260862497 74.9223
13.056800969391883 76.3616
13.079245674017244 79.2628
13.101708390774869 83.7735
13.12415410463411 91.1242
13.146617833206086 100.059
13.169064559883248 109.255
13.191529303857127 123.147
13.213994557076367 146.085
13.236442809902437 185.3
13.258909083908291 246.919
13.28135835851934 317.98400000000004
13.30382565690295 393.066
13.326293469022952 445.816
13.348744283242008 418.99800000000005
13.371213125129904 332.292
13.39366497011003 227.299
13.416134845360597 150.745
13.438605238843131 114.08200000000001
13.46105863690397 103.305
13.483530069144786 104.221
13.505984506951902 108.55
13.528456981549432 118.29700000000001
13.550929978879088 132.8
13.573385983253365 158.371
13.595860028340867 201.417
13.618317081455832 260.192
13.64079217790333 324.053
13.663250283359057 371.603
13.685726434770173 381.85400000000004
13.708203115221277 323.111
13.730662806148091 240.9
13.75314054697177 165.83900000000003
13.775601299246777 115.359
13.798080104050406 91.6535
13.820559442405358 83.11399999999999
13.843021793671388 80.2809
13.865502201420897 79.0391
13.887965623051947 78.5572
13.910447103807167 77.6285
13.932929122629764 76.0367
13.955394156785959 75.2917
13.977877254034569 74.5222
14.000343367582113 73.7109
14.022827546871707 73.3229
14.045294743423524 72.459
14.06778000837062 71.9282
14.090265817715476 71.6593
14.112734645763819 71.2485
14.13522154619454 70.9549
14.157691466286913 70.6578
14.180179461423874 70.5498
14.202668005486178 70.0588
14.22513957064374 69.6686
14.247629214846473 69.3056
14.270101881097517 69.0539
14.29259262906496 68.7281
14.315083930490205 69.1421
14.337558255389705 68.8845
14.360050666019726 69.0795
14.382526101071944 68.3556
14.405019624534942 68.0064
14.427513705993134 67.5411
14.449990813291825 67.8285
14.47248601302899 67.7767
14.49496423954951 67.6578
14.517460561197822 67.5555
14.539939910570322 67.5157
14.562437357763558 67.6381
14.58493536931253 68.3942
14.607416409993311 68.5287
14.62991555254159 69.0571
14.652397725157423 69.1984
14.674898002342799 69.3321
14.697398848433282 69.6991
14.719882725991326 71.3078
14.74238471217934 72.8801
14.764869730765593 75.7686
14.787372860692983 78.3927
14.809876564079925 82.0524
14.83236330125751 87.3586
14.854868153850365 95.9513
14.877356041159485 110.553
14.899862046604186 130.954
14.922351087688757 159.935
14.944858249632887 192.00599999999997
14.967365991421232 219.357
14.989856770231246 228.61
15.012365673994204 212.44799999999998
15.03485761569738 176.47799999999998
15.05736768508665 136.384
15.07987833888692 103.11
15.102372032001655 83.9635
15.124883856909658 73.7919
15.14737872204565 70.6666
15.169891721717274 69.40899999999999
15.192405310371893 68.9733
15.214901940621196 68.8504
15.237416709527137 68.2492
15.259914520936249 68.3774
15.282430473753607 67.2431
15.304947020131227 66.7907
15.327446610371178 66.2156
15.349964346154254 65.7036
15.372465126703139 65.6665
15.394984055556009 65.3957
15.417486030076159 65.2263
15.44000615566487 64.85300000000001
15.462526881230803 64.7854
15.485030653812652 64.6654
15.507552581617434 64.5161
15.530057557334603 64.7427
15.55258069104857 64.7932
15.575104429329837 65.0822
15.597611216864632 64.8591
15.620136166564563 65.4626
15.6426441664095 66.9784
15.665170331202765 69.1819
15.687697105158826 71.6747
15.710206930593545 74.6603
15.732734925158933 78.6137
15.755245972089478 84.6748
15.77777519094324 93.8625
15.800287463046663 108.01799999999999
15.822817909869592 128.411
15.84534897229804 152.977
15.867863089299354 177.92700000000002
15.890395385222186 195.56099999999998
15.912910736597423 195.403
15.935444269699861 177.273
15.957978423016485 145.162
15.980495633101265 111.70200000000001
16.003031029129367 87.0242
16.02554948280019 71.4916
16.048086125229432 64.7125
16.070623392487107 62.5658
16.09314371869582 61.8119
16.11568223789321 61.0513
16.13820381691126 60.3067
16.160743591742527 59.6598
16.183283996022084 59.1074
16.205807461423195 58.2588
16.228349126881973 57.7452
16.25087385432698 57.6668
16.27341678466365 57.016000000000005
16.29594277784926 56.8361
16.31848697676433 56.8293
16.341031811604868 56.6535
16.36355971058487 56.5799
16.3861058195587 56.2291
16.40863499352978 55.6958
16.431182380342005 55.1968
16.453730407713202 54.8854
16.476261501364792 54.663000000000004
16.498810812136167 54.3984
16.52134319004079 54.4803
16.54389378792203 54.3088
16.566445031001553 54.1945
16.588979342490088 54.2585
16.61153187824822 54.0548
16.634067483263312 53.8981
16.656621315414416 53.6762
16.679175797408888 53.4908
16.701713349928728 53.6177
16.72426913389191 53.6907
16.74680798922351 53.6637
16.76936507887444 53.8205
16.791905240734874 53.8436
16.814463639794468 53.7081
16.837022695210294 53.5412
16.859564824093756 53.6666
16.882125194503903 53.9977
16.904668639217885 54.4577
16.927230328348003 54.4453
16.949792678493612 54.5562
16.972338104193863 54.6101
16.994901778652235 54.4247
17.017448529496576 54.666000000000004
17.040013531998152 55.1031
17.06257920018044 55.8554
17.0851279459922 56.2445
17.107694947817667 56.8813
17.130245028099072 57.7154
17.15281336730298 58.946000000000005
17.17536478578733 60.5515
17.19793446610687 62.9275
17.220504818648422 66.0449
17.243058251703697 70.0987
17.265629950971032 74.9128
17.288184731571736 80.4604
17.310757781306908 83.5463
17.33333150794385 83.1841
17.355888317140174 80.0218
17.37846339986244 74.2479
17.401021565958885 67.7614
17.42359800851343 63.0833
17.44617513265564 60.1985
17.468735341390783 59.0018
17.491261035594565 58.2403
17.51396340099364 57.8398
17.536490463869136 58.1081
17.559018209820174 58.2177
17.58154663977963 58.1949
17.604251766089718 58.424
17.626781572227713 58.7133
17.64931206518155 58.6931
17.671843245885103 59.2898
17.69455114821572 59.5385
17.717083712612634 59.5941
17.739616967569667 59.7775
17.762150914021706 60.215
17.78486160749854 60.3457
17.807396945166804 61.5784
17.829932977143503 62.5633
17.85246970436452 64.0661
17.875183204129467 65.5858
17.897721330097664 67.0713
17.920260154126645 69.5455
17.942799677153296 72.4692
17.9655159983646 76.3604
17.988056927677544 81.8554
18.010598558807683 90.2119
18.033140892692916 101.13600000000001
18.05586005052525 113.899
18.07840379824407 126.493
18.10094825154059 136.501
18.12366954819864 141.015
18.146215420998306 136.463
18.16876200220057 125.456
18.191309292745153 110.512
18.214033452627167 97.0052
18.236582170236648 87.2097
18.259131600016456 83.6761
18.281681742907335 85.4467
18.304408781233683 90.8042
18.32696035875955 96.7082
18.349512652227624 101.512
18.372065662579683 106.25
18.394795594587553 105.45299999999999
18.41735004715306 99.2215
18.43990521943684 90.5637
18.46246111238171 81.5452
18.485193953325208 73.0374
18.507751296070428 66.8958
18.530309362314178 63.8022
18.552868153000343 61.9048
18.57560391815056 60.9221
18.59816416623245 60.5588
18.620725141597372 59.9684
18.643286845190268 59.5815
18.666025549835414 59.2949
18.688588718427933 58.6023
18.711152618092243 58.53
18.73389353884365 58.3456
18.75645890921984 57.8142
18.77902501351406 57.7118
18.801591852673102 57.7031
18.824335739722738 57.1881
18.846904057212626 57.1084
18.8694731124168 56.6884
18.89204290628315 56.7386
18.914789774966803 56.5975
18.937361054791623 56.271
18.959933076131318 56.0413
18.982505839934877 56.0574
19.00525570560582 56.1158
19.027829963004184 55.6236
19.05040496572238 55.8043
19.072980714710468 55.9654
19.095733592739563 56.0622
19.11831084296757 56.2135
19.140888842324735 56.5998
19.16346759176222 56.7301
19.18622349753803 56.973
19.208803755869358 58.0373
19.231384767143577 59.4821
19.253966532312948 61.3874
19.276725481241822 63.7028
19.29930876296784 66.4428
19.3218928014549 69.3545
19.34465404436217 72.275
19.36723960516257 74.7215
19.389825925592426 74.9917
19.412413006605938 73.0157
19.43517731967805 69.2508
19.457765930683355 64.5152
19.48035530514408 60.2523
19.50294544401556 56.9964
19.525712842708348 54.821999999999996
19.54830451925909 53.9818
19.570896963095727 53.0826
19.593490175174704 52.8634
19.616260674962184 52.9497
19.638855432416964 52.6897
19.661450960992624 52.8317
19.68404726164677 52.5967
19.706820878021247 52.3515
19.729418731756834 52.5516
19.752017360452857 52.4693
19.77461676506804 52.7458
19.797393513540218 52.8147
19.819994478951667 52.9758
19.84259622316767 53.226000000000006
19.8651987471481 53.6062
19.887978643247177 53.9745
19.91058273574792 54.3802
19.933187610901943 55.446000000000005
19.955969879466828 56.4981
19.97857632894404 58.0589
20.00118356396599 59.9579
20.023791585494575 62.3659
20.046577028914875 65.331
20.069186632506966 67.6887
20.091797025500632 68.8444
20.114408208858933 69.211
20.137196842715273 68.1429
20.159809615886765 66.2358
20.18242318232135 63.7779
20.20503754298326 61.7538
20.227829382875154 61.0202
20.250445341109344 61.5219
20.27306209647285 62.6859
20.29567964993108 64.2436
20.31847471147704 65.4645
20.34109387027612 65.4427
20.363713830075454 64.3224
20.386334591841646 62.2373
20.409132890679302 59.3454
20.431755265564437 56.0202
20.454378445325528 53.4905
20.477002430930366 51.836000000000006
20.499803982716553 50.7272
20.522429589228004 50.2687
20.54505600449589 49.7773
20.567683229489194 49.5939
20.590488049900088 49.4239
20.61311690359731 49.23
20.63574656993626 49.2628
20.658553853717297 48.7705
20.681185154618298 48.7744
20.703817271080066 48.6613
20.72645020407368 48.1522
20.749260783967177 48.2164
20.771895359337133 48.23
20.794530754161617 48.1303
20.817166969412938 47.8267
20.83998086114876 47.9875
20.86261872660049 47.9383
20.885257415405402 47.8735
20.90789692853701 47.7973
20.930714147864748 47.9355
20.953355319030678 47.8003
20.97599731745334 47.8244
20.99864014410749 47.7215
21.021460706796564 47.6972
21.044105199328826 48.1565
21.06675052302631 48.2686
21.089396678865015 48.2248
21.112220600704806 48.6622
21.134868430275347 48.9787
21.15751709492456 49.3207
21.180166595629693 49.7571
21.202993892429635 50.27
21.22564507473034 50.452
21.24829709602816 50.6742
21.27112693608965 50.7565
21.293780644891275 50.438
21.316435195634053 49.6402
21.339090589297417 48.9639
21.361923832041875 48.5506
21.384580921090404 47.9691
21.407238856007325 47.615
21.429897637773326 47.6473
21.45273429906592 47.5933
21.475394784108598 47.5188
21.498056118951983 47.4004
21.520718304578022 47.8776
21.543558400304388 48.0959
21.566222297108816 48.3056
21.58888704765135 48.38
21.61155265291521 48.6561
21.63439619898156 49.0167
21.657063523335786 48.9389
21.67973170537063 49.5569
21.7024007460706 50.0723
21.72524775840385 50.8127
21.747918526116475 51.9296
21.770590155457388 53.2139
21.79326264741238 54.888999999999996
21.816113141960237 57.001000000000005
21.838787368860547 59.093999999999994
21.861462461341976 61.0139
21.884315579735777 63.0111
21.90699241312273 64.0874
21.92967011506078 64.0603
21.95234868653799 63.136
21.9752053151131 61.2585
21.997885635446785 59.1686
22.020566828293532 57.4961
22.04324889464272 56.083
22.066109049404666 55.4584
22.088792872571794 55.2291
22.111477572219204 55.531000000000006
22.1341631493376 55.64
22.157026846313123 54.9595
22.179714188221507 54.083999999999996
22.202402410582668 52.8378
22.22509151438863 51.2445
22.24795876962584 49.9953
22.270649646204486 49.1501
22.293341407213727 48.6681
22.316034053646906 48.3175
22.338904883215342 48.052
22.36159931041458 47.9795
22.38429462602756 47.8648
22.40699083104897 47.7027
22.429865251039757 47.6757
22.452563244831367 47.8422
22.47526213102522 47.903999999999996
22.49813925616515 47.8534
22.520839937143307 47.6869
22.543541513520587 47.7299
22.56624398629403 47.5555
22.589124730075895 47.762
22.611829005656723 48.0249
22.63453418063466 47.8982
22.657240256008077 48.0622
22.680124634582935 48.2043
22.70283252079775 48.354
22.725541310413075 48.6057
22.74825100442868 48.76
22.771139033969575 49.3504
22.79385054687155 49.7797
22.81656296718292 50.3874
22.83927629590484 51.2762
22.862167992606945 52.4254
22.88488314827121 53.7591
22.907599215359284 54.7254
22.93031619487366 55.9707
22.953211574954405 56.9095
22.975930389478226 57.3229
22.998650119445763 57.1786
23.02137076586092 56.1448
23.044269845560063 54.5547
23.06699233506288 52.806000000000004
23.089715744034912 51.04600000000001
23.112617610931565 49.6663
23.135342869061212 48.8
23.158069049684816 48.3203
23.1807961538087 47.955
23.20370174880544 47.9626
23.226430710184808 48.0805
23.249160598093425 47.9786
23.271891413539002 48.0128
23.294800752937697 47.9188
23.31753343374794 48.2457
23.340267045128353 48.2389
23.36300158808808 48.5273
23.38591468821339 48.7754
23.408651104658304 49.3224
23.431388455719986 50.168
23.454126742409 51.0338
23.4770436196085 52.2174
23.499783787914662 53.504
23.522524894889884 54.7517
23.54526694154616 55.9599
23.56818761219047 57.1237
23.59093154860734 57.1458
23.613676427751283 57.2542
23.636422250635754 55.9898
23.659346731118656 53.9563
23.68209445191868 51.8495
23.704843119509587 49.7918
23.72759273490623 47.9994
23.750521041644767 46.955
23.77327256312355 46.3692
23.796025035462787 45.5544
23.818956224555475 45.1354
23.841710609113413 45.1466
23.86446594758979 45.0119
23.887222241002014 44.8025
23.910157285144578 44.3212
23.932915498962537 44.5287
23.955674670778713 44.3434
23.978434801611975 44.2383
24.001373717286125 44.0964
24.024135776723917 43.7848
24.046898798245582 43.6611
24.06966278287146 43.6489
24.092605586582614 43.3003
24.115371508023642 43.3184
24.1381383956401 43.2517
24.16090625045381 43.2303
24.183852958731244 43.208999999999996
24.206622758582608 43.0162
24.229393528706886 42.8836
24.252165270127392 42.9307
24.27511589952438 42.8805
24.297889594216997 42.711000000000006
24.32066426328598 42.6084
24.34343990775613 42.5483
24.36639447485003 42.4875
24.38917208083877 42.3843
24.41195066531332 42.2934
24.43490819850244 42.4153
24.457688750692377 42.2043
24.48047028445616 42.2228
24.503252800821233 42.3943
24.526214300784112 42.3343
24.548998793132213 42.4596
24.57178427117417 42.4039
24.59457073593893 42.2321
24.617536219319863 42.1966
24.64032466834748 42.1912
24.663114107195035 42.1446
24.685904536893013 41.9058
24.708874020360852 41.7745
24.731666442613744 41.75899999999999
24.754459858818787 41.6581
24.777254270007962 41.6208
24.80022777025625 41.4158
24.82302418230472 41.6206
24.845821592443674 41.5243
24.86862000170663 41.4142
24.891597535453727 41.3074
24.914397953892728 41.5256
24.93719937456671 41.7117
24.96000179851076 41.7534
24.98298338249997 41.8974
25.00578782394922 42.1878
25.028593271784167 42.0973
25.05157790644186 42.5658
25.07438537804115 42.6635
25.097193859145293 42.9345
25.120003350792075 43.2327
25.142992065061257 43.4258
25.165803588823465 43.6085
25.18861612625217 43.9218
25.211429678386736 43.9273
25.234422489079968 44.0446
25.257238081693636 44.059
25.280054692141732 44.2181
25.3028723214652 44.2432
25.325869245420463 44.3992
25.348688923599397 44.4623
25.371509623787006 44.148
25.394331347025812 43.7766
25.41733240110666 43.2116
25.440156181590016 42.4517
25.46298098826268 42.0216
25.48580682216873 41.4444
25.50881202326435 41.0373
25.53163992281684 40.5711
25.55446885274561 40.383
25.577298814096377 40.255
25.600308179121807 40.0788
25.623140214533745 40.1929
25.64597328451537 40.0619
25.66898578564376 39.8373
25.691820936010206 39.8038
25.714657124097695 39.6683
25.737494350954734 39.7815
25.760511045684957 39.7193
25.783350361364224 39.8858
25.806190718969255 39.7069
25.82903211955018 39.8436
25.852053024868923 39.8393
25.874896522722523 39.8424
25.897741066713106 39.8073
25.920586657892454 39.9263
25.943611790812668 40.2249
25.966459487728237 40.3234
25.989308234998564 40.3731
26.01215803367705 40.7832
26.03518741123814 40.8623
26.05803932412957 41.0179
26.080892291600094 40.9328
26.10374631470478 40.9292
26.12677995397268 41.1292
26.14963609978026 40.9863
26.172493304397875 40.602
26.19535156888223 40.3165
26.218389486949604 39.8987
26.241249882640123 39.8159
26.26411134137826 39.5555
26.28715248187403 39.4692
26.31001607820869 39.3025
26.3328807407756 39.2963
26.35574647063438 39.4276
26.37879191991473 39.2866
26.401659795896734 39.5359
26.424528742360263 39.6792
26.447398760366614 39.7942
26.470448535598294 39.8492
26.49332070826805 40.166
26.516193955675355 40.5599
26.53906827888316 40.6879
26.562122397260108 40.8876
26.584998883685063 41.2578
26.607876449110325 41.5214
26.63075509460056 41.6131
26.65381357334404 41.6776
26.67669439061878 41.6079
26.699576291163382 41.4153
26.722459276044212 41.1527
26.745522132402975 40.8768
26.768407297649354 40.6378
26.791293550442003 40.1847
26.814180891848974 40.0129
26.837248143099337 39.8421
26.860137673466657 39.8296
26.88302829566349 39.5087
26.90592001075963 39.3267
26.92899167420566 39.1821
26.951885586870763 38.7425
26.974780595655517 38.6949
26.99785558178161 38.4765
27.020752794605112 38.3794
27.043651106772522 38.1977
27.06655051935668 38.143
27.089629948036183 38.0856
27.112531573292053 38.0491
27.135434302194138 38.0891
27.158338135817015 38.0806
27.181422024430987 37.9933
27.204328079372566 37.8849
27.22723524226965 37.8432
27.250143514198573 37.9677
27.273231880156334 38.0045
27.296142382065014 37.7327
27.319053996245536 37.7214
27.341966723775965 37.8232
27.365059584515222 37.8626
27.38797455070062 37.7897
27.410890633481237 37.6666
27.433807833936918 37.8245
27.456905206923906 38.0232
27.47982465472398 38.0636
27.502745223449743 38.0387
27.525666914182825 38.1131
27.548768816912457 37.931
27.571692763693633 37.8986
27.59461783573812 37.7568
27.617723149491244 37.6604
27.640650484125285 37.5792
27.66357894728264 37.5302
27.686508540048052 37.3702
27.709618414237887 37.3567
27.732550278321757 37.2672
27.755483275279115 37.2533
27.778417406196485 37.1399
27.801531858397514 37.0358
27.824468269376716 37.2143
27.847405817586786 37.1028
27.870344504116094 37.4557
27.893463551932008 37.6211
27.916404527281053 37.7153
27.93934664422563 37.8592
27.962289903855886 37.9176
27.98541356491974 38.0805
28.00835912214229 38.1324
28.03130582533231 38.5445
28.054253675581805 38.5548
28.077381967556104 38.5214
28.100332124185126 38.4725
28.123283431160893 38.3892
28.146235889577238 38.0615
28.169368830154156 37.8579
28.192323603752033 37.783
28.215279532083304 37.5222
28.238415973016764 37.2323
28.261374223145094 37.2062
28.284333631303806 36.9446
28.307294198589954 36.7672
28.330435319167677 36.5213
28.353398217078915 36.1198
28.376362277420153 36.0707
28.39932750129032 35.9497
28.422473319286713 35.8815
28.44544088262495 35.7404
28.468409612800283 35.5791
28.491379510913497 35.4993
28.51453004413313 35.3065
28.53750229057244 35.2584
28.56047570826344 35.194
28.583450298308804 35.3194
28.606605564586562 35.1149
28.629582511831156 35.1251
28.65256063474956 34.928000000000004
28.675539934446338 35.0941
28.698699951647605 34.9168
28.72168161743193 34.9378
28.74466446331978 34.9417
28.767648490417624 34.8219
28.790813276438353 34.81
28.813799678527303 34.7891
28.836787265157085 34.869
28.859955641890075 34.836
28.882945610203045 34.8371
28.905936766392035 34.6809
28.928929111566863 34.6478
28.952102288520145 34.582
28.975097024308607 34.5821
28.998092952423807 34.369
29.021090073977508 34.3436
29.04426806913204 34.2676
29.067267590245258 34.0982
29.090268308143695 33.9287
29.11327022394099 33.8999
29.13645305530891 33.8049
29.159457379627167 33.7243
29.18246290519685 33.6617
29.20546963313352 33.733000000000004
29.22865731875826 33.8078
29.25166646419296 33.8362
29.27467681535305 33.7023
29.29768837335608 33.6942
29.320880931312562 33.7837
29.34389491580634 33.8156
29.366910110507334 33.7257
29.38992651653503 33.6736
29.41312396492981 33.6934
29.436142806456754 33.5568
29.45916286268059 33.4274
29.48236399319994 33.3195
29.50538649169417 33.0997
29.528410208259935 33.0806
29.55143514402014 32.8597
29.574641196749695 32.7524
29.597668583816574 32.6706
29.6206971934585 32.5695
29.64372702680042 32.5868
29.666938019934474 32.4166
29.689970313635285 32.466
29.713003834422636 32.5117
29.73603858342347 32.3166
29.759254535188578 32.3639
29.78229175361658 32.2447
29.80533020365064 32.3192
29.82836988641968 32.3265
29.85159081507472 32.2168
29.874632976355343 32.167
29.89767637376955 32.2412
29.920721008448314 32.1215
29.9439469322847 32.0204
29.96699405457564 31.9754
29.9900424175358 31.9731
30.013092022298157 31.9778
30.03632295963995 31.9769
30.059375061131373 31.941999999999997
30.08242840783577 32.0686
30.105483000888153 31.98
30.128718970092244 31.9445
30.151776069006917 31.8638
30.17483441768648 32.0014
30.198074175317235 31.9313
30.221135036724256 31.9266
30.24419715131772 31.7598
30.267260520236203 31.6115
30.290505341942243 31.8106
30.313571232750228 31.7834
30.336638381310948 31.7612
30.35970678876503 31.7194
30.38295669299435 31.6395
30.40602763151657 31.5656
30.429099832366074 31.6311
30.452173296685572 31.5055
30.47542830191959 31.569000000000003
30.498504306502497 31.5126
30.521581577995562 31.611
30.544660117543582 31.6414
30.56792024229725 31.6697
30.59100133132069 31.6444
30.614083691845494 31.7229
30.637167325018545 31.6967
30.660432587840603 31.7059
30.683518779717886 31.6748
30.70660624769615 31.7339
30.729694992924372 31.7212
30.75296541239743 31.6977
30.77605672557558 31.6181
30.799149319462742 31.5529
30.8224236211637 31.4298
30.845518789950724 31.2808
30.868615242910597 31.2373
30.891712981195973 31.1407
30.91499247215866 31.1375
30.938092794619365 31.0303
30.96119440587579 31.0319
30.984297307082752 30.879
31.00758200598383 30.7462
31.030687500658694 30.6695
31.053794288760695 30.6585
31.076902371446767 30.4894
31.100192296997445 30.5595
31.12330298246119 30.5363
31.14641496599209 30.4979
31.169528248749216 30.5256
31.19282341969534 30.5144
31.215939314557186 30.3476
31.239056512134788 30.4224
31.262175013589378 30.4241
31.28547544871168 30.3664
31.30859657161541 30.375999999999998
31.331719001892175 30.3279
31.35484274070538 30.4273
31.378148458819545 30.371
31.401274828443725 30.3467
31.424402510106933 30.3993
31.447712205419993 30.4953
31.470842524931633 30.3613
31.493974159989783 30.3342
31.51710711176168 30.3521
31.54042212308802 30.320999999999998
31.563557722100917 30.2946
31.586694641341655 30.0904
31.609832881979628 29.9709
31.63315322823208 29.9853
31.656294125521327 29.816
31.679436347728515 29.7479
31.70257989602529 29.7169
31.725905596152327 29.7052
31.74905181052835 29.5992
31.772199354521323 29.6527
31.79534822930507 29.6707
31.818679302290967 29.6892
31.84183085259981 29.6651
31.864983737233473 29.6851
31.88813795736804 29.6837
31.911474422233013 29.5862
31.934631327356435 29.5822
31.9577895715215 29.471999999999998
31.980949155906522 29.5538
32.004291031706956 29.526
32.027453310562606 29.4634
32.05061693318573 29.3735
32.07396288236386 29.3268
32.09712920658542 29.1901
32.12029687812702 29.0399
32.14346589817093 29.0024
32.166817291729984 28.9755
32.18998902288583 28.9969
32.21316210610336 28.8231
32.23633654256711 28.7987
32.259693399663725 28.7014
32.282870556771144 28.7003
32.30604907069099 28.7756
32.329228942610065 28.6623
32.35259128243769 28.5359
32.375773884550505 28.4566
32.398957848235646 28.4057
32.422143174682176 28.3281
32.445511016471215 28.2708
32.468699082679954 28.2589
32.49188851523011 28.2342
32.51507931531304 28.0305
32.538452678331 28.2062
32.56164622776311 28.1018
32.58484114831493 27.9677
32.60803744118015 27.935
32.631416344731896 28.0013
32.654615396551876 27.9911
32.67781582427913 27.8579
32.701198898634416 27.919
32.72440209253756 27.7596
32.747606665947124 27.7811
32.77081262006088 27.609
32.79420126883317 27.5929
32.81740999876112 27.6913
32.840620112999424 27.6434
32.86383161274818 27.5408
32.88722585534586 27.6023
32.91044014056596 27.6532
32.933655814909734 27.6112
32.95687287957963 27.5245
32.98027273544904 27.3462
33.00349259526636 27.3074
33.026713849030116 27.3632
33.04993649794511 27.3413
33.073341986570746 27.2286
33.09656744032826 27.3162
33.11979429286444 27.293000000000003
33.14302254538647 27.3281
33.166433686291185 27.2805
33.18966475336992 27.2585
33.212897224069096 27.1464
33.23613109959831 27.1607
33.259547912343415 27.0715
33.2827846121627 27.1063
33.306022720453775 26.9892
33.32926223842861 26.9032
33.352684742614166 26.9298
33.37592709463173 26.9239
33.399170859982064 26.8341
33.422597648419426 26.7714
33.44584425514446 26.6398
33.46909227885668 26.5981
33.4923417207723 26.5076
33.51577423505344 26.5452
33.539026528130385 26.4205
33.56228024307245 26.3726
33.585535381098246 26.326
33.60897364093058 26.3452
33.63223163992385 26.2996
33.6554910656699 26.1313
33.678751919389796 26.195999999999998
33.702195944520106 26.12
33.72545966903325 26.0687
33.74872482519663 26.0654
33.771991414233746 26.1106
33.79544122444841 25.9835
33.81871069412428 25.8943
33.84198160035767 25.8536
33.86525394437455 25.9267
33.88870955949969 25.8455
33.911984794020626 25.8368
33.93526147001624 25.8533
33.958539588715006 25.8144
33.98200102861669 25.6163
34.0052820477047 25.5536
34.02856451319451 25.4998
34.05203033759056 25.4847
34.07531571090147 25.5434
34.09860253431845 25.6001
34.121890809074316 25.456999999999997
34.145362493118924 25.5089
34.16865368561615 25.3988
34.191946333164054 25.3629
34.21524043699793 25.4065
34.23871800066799 25.3525
34.26201503218366 25.1631
34.28531352370466 25.184
34.30861347646881 25.1406
34.33209693978188 25.2057
34.3553998301885 25.2019
34.378704185565205 25.1042
34.402010007152356 24.9499
34.42549939016683 24.9157
34.44880815937748 24.7841
34.472118398533134 24.7822
34.49543010887669 24.8316
34.51892543169198 24.7143
34.54224009966052 24.7269
34.56555624255917 24.7333
34.58887386163339 24.6594
34.61237514439016 24.5659
34.6356957311114 24.566
34.65901779775809 24.5093
34.68252356662995 24.4773
34.705848608458616 24.4837
34.72917513396849 24.3858
34.75250314440949 24.3922
34.77601490857862 24.3356
34.799345904259795 24.2419
34.82267838863559 24.2741
34.846012362958525 24.2957
34.869530142679984 24.1988
34.89286711232212 24.1172
34.91620557568269 24.1981
34.93954553401677 24.0966
34.9630693495876 24.1301
34.986412313340814 24.1298
35.00975677584668 24.0647
35.033102738362956 24.038
35.05663261012228 23.9109
35.0799815881786 24.0078
35.10333207003229 23.8569
35.12668405694369 23.8833
35.150220005273056 23.9011
35.17357501786656 23.8156
35.19693153931268 23.7947
35.220289570874385 23.7326
35.24383161619786 23.8343
35.267192683604904 23.7155
35.290555264930376 23.7813
35.314101899412165 23.703000000000003
35.33746752422433 23.6046
35.36083466676374 23.695999999999998
35.38420332829803 23.6149
35.407756095629054 23.6034
35.43112781085063 23.6003
35.45450104888391 23.5613
35.477875810999194 23.5775
35.50143473172161 23.5187
35.52481255774625 23.4638
35.54819191167777 23.3994
35.57157279478914 23.3935
35.595137889488406 23.4025
35.61852184675279 23.315
35.641907337029984 23.3219
35.665294361595684 23.2444
35.68886565090076 23.1156
35.7122557598848 23.1301
35.73564740699838 23.1068
35.759040593519934 23.1369
35.78261809810353 23.113000000000003
35.80601437933051 22.9655
35.829412203814705 22.9403
35.85281157283719 22.8532
35.876395313415884 22.9209
35.8997977874528 22.8608
35.92320180988546 22.7792
35.946790244133936 22.6997
35.97019737933222 22.6793
35.993606066789866 22.6942
36.01701630779276 22.5583
36.04061101440684 22.6557
36.06402437852291 22.6118
36.08743930005611 22.6425
36.1108557802951 22.5427
36.13445678011326 22.4922
36.15787639383515 22.4867
36.18129757014299 22.3916
36.20472031032821 22.3936
36.22832762423364 22.2795
36.25175350829375 22.3131
36.275180960119776 22.249000000000002
36.298609981005924 22.2244
36.32222362992669 22.3372
36.34565580510207 22.2551
36.36908955323448 22.1648
36.39252487562093 22.0323
36.416144880530226 22.0507
36.43958336764275 22.0485
36.463023432914625 22.0908
36.486465077645676 21.9679
36.51009145956204 22.0264
36.53353627947859 21.994
36.55698268276811 21.9236
36.58043067073321 21.9283
36.60406345072071 21.8171
36.62751462435344 21.8603
36.65096738658405 21.8215
36.67460498210655 21.8274
36.69806093788647 21.766
36.72151848619297 21.6255
36.744977628333636 21.6889
36.76862165890998 21.4971
36.79208400512205 21.6322
36.81554794910557 21.6604
36.83901349217101 21.521
36.862663978991606 21.4567
36.88613273667352 21.4021
36.90960309738324 21.4673
36.933075062434064 21.3303
36.95673202673572 21.289
36.98020721697122 21.3375
37.003684015502365 21.272
37.027162423645365 21.2283
37.050825886711465 21.2316
37.07430753063053 21.1148
37.09779078812467 21.1339
37.121275660513014 21.1201
37.144945643673694 21.0363
37.16843376245278 21.0319
37.19192350009803 21.0675
37.215414857931435 20.9424
37.239091382563885 20.8872
37.262585997426164 20.9336
37.28608223645736 20.9294
37.309763684451696 20.8603
37.33326318851098 20.7805
37.356764320726555 20.7206
37.380267082425526 20.7556
37.40395510942588 20.6709
37.42746114683234 20.6696
37.45096881771841 20.6379
37.474478123414166 20.6116
37.49817275092816 20.5332
37.52168534303452 20.5793
37.54519957395567 20.4996
37.568715445024665 20.445
37.592416694607714 20.4314
37.61593586281424 20.4475
37.63945667518264 20.4329
37.66297913304891 20.3176
37.68668702630454 20.3584
37.710212792059274 20.2818
37.733740207334854 20.2198
37.757269273470364 20.1779
37.780983832050374 20.1624
37.80451621684926 20.1435
37.82805025654007 20.0751
37.851585952464795 20.1145
37.8753071980695 20.0427
37.89884622345676 19.9804
37.92238690911902 20.0074
37.94611318753442 20.0428
37.969657210779765 19.9858
37.99320289834801 19.9192
38.016750251586465 19.9129
38.04048325513017 19.7955
38.06403395679343 19.8119
38.087586328183946 19.7678
38.11114037065203 19.7928
38.13488012115898 19.703
38.1584375229181 19.6925
38.181996599821 19.6707
38.205557353221124 19.5876
38.229303872575656 19.5701
38.2528679961576 19.5805
38.27643380031219 19.5677
38.30000128639589 19.5281
38.32375459653193 19.4466
38.34732546371299 19.4307
38.37089801690786 19.4269
38.39447225747609 19.371
38.418232380377425 19.3515
38.441810012983396 19.3402
38.46538933705673 19.2615
38.488970353960084 19.3033
38.51273731166058 19.2529
38.536321731567014 19.1365
38.55990784840681 19.1467
38.58367995004091 19.1416
38.60726947812959 19.078
38.63086070726198 19.0468
38.654453638806274 19.0495
38.678232613930824 19.0266
38.70182896773327 18.9499
38.72542702806741 18.9465
38.7490267963045 18.9453
38.77281266709232 18.840999999999998
38.79641586862214 18.8857
38.8200207821842 18.7933
38.843627409152944 18.7596
38.86742019782782 18.7863
38.891030269149255 18.6935
38.914642058016156 18.6858
38.938255565806124 18.6388
38.96205529464307 18.6334
38.98567225787121 18.6546
39.00929094417078 18.6056
39.03291135492255 18.6091
39.05671804624804 18.5463
39.080341923549106 18.5004
39.103967529460334 18.4326
39.127594865365744 18.3572
39.15140854155791 18.358
39.17503935514948 18.3898
39.19867190290282 18.3911
39.22249083587951 18.3154
39.24612686969409 18.3289
39.269764641845306 18.3629
39.293404153722804 18.3095
39.317230110864074 18.1263
39.34087311998506 18.1074
39.36451787301696 18.1395
39.388164371352595 18.0568
39.41199737518003 18.0036
39.43564738196752 18.1012
39.45929913825317 17.9784
39.48295264543308 17.9433
39.506792718520884 17.9791
39.530449745387216 17.933
39.55410852735203 17.8581
39.57776906581474 17.9181
39.60161623079 17.8538
39.625280300200025 17.858
39.64894613032202 17.7956
39.67261372255866 17.7787
39.6964680021016 17.6999
39.72013913657293 17.7892
39.74381203738292 17.6732
39.76748670593756 17.6931
39.79134812278169 17.6781
39.81502634488497 17.5592
39.83870633896685 17.5483
39.862388106436654 17.4549
39.88625668336918 17.4894
39.90994201572829 17.5629
39.933629125719285 17.4869
39.957503091207826 17.4722
39.9811937746168 17.4588
40.00488623990914 17.3926
40.02858048850006 17.3894
40.05246165409549 17.3095
40.076159487492085 17.3119
40.099859108448875 17.3198
40.123560518384345 17.3044
40.1474489070226 17.2851
40.171153913178564 17.1196
40.194860712584955 17.1398
40.2185693066637 17.1206
40.242464941335314 17.1289
40.26617714307655 17.0626
40.289891143772046 17.0778
40.3136069448471 17.0358
40.33750984859743 17.0327
40.3612292688043 16.9889
40.3849504936829 16.9152
40.40867352466194 16.937
40.43258372059144 16.8875
40.45631038219906 16.8879
40.48003885420956 16.7743
40.503769138055105 16.8029
40.52768664931955 16.7926
40.55142057531802 16.7909
40.57515631746428 16.7019
40.599079334038514 16.7032
40.62281872700477 16.6228
40.64655994043941 16.6279
40.67030297578061 16.5974
40.69423334835778 16.5986
40.71798004609188 16.6091
40.74172857006355 16.539
40.76547892171441 16.5301
40.7894166736039 16.5123
40.813170699248566 16.4247
40.83692655691388 16.4539
40.86068424804498 16.459
40.884629402612525 16.4061
40.908390779366385 16.3742
40.932153993938 16.3614
40.95591904777605 16.3663
40.979871628443995 16.3453
41.003640379561936 16.2745
41.02741097430883 16.2832
41.05118341413683 16.2787
41.075143444384416 16.1505
41.098919593177826 16.1907
41.1226975914255 16.1957
41.14647744058318 16.1107
41.170444943946755 16.0525
41.19422851378379 16.1058
41.218013938914645 16.0001
41.24198706625173 15.9606
41.26577622087193 15.9472
41.289567235177785 15.9035
41.31336011063129 15.9291
41.337340752422875 15.8926
41.361137369129835 15.8898
41.38493585138705 15.8353
41.40873620066004 15.8026
41.43272438060107 15.792
41.45652848292052 15.7486
41.48033445666918 15.7036
41.50414230331616 15.6871
41.528138045159764 15.6608
41.551949656675205 15.6102
41.575763145513235 15.5687
41.59957851314666 15.5729
41.62358184070442 15.5073
41.64740098505737 15.5481
41.6712220126409 15.5498
41.69504492493139 15.457
41.71905586207357 15.4045
41.74288256296395 15.4127
41.766711153007456 15.4409
41.79054163368412 15.3671
41.814560204340054 15.3336
41.838394485526365 15.3768
41.86223066180303 15.2984
41.88625497706819 15.3133
41.910094962812 15.2581
41.93393684811168 15.2961
41.95778063445365 15.1906
41.981812625263366 15.2097
42.00566023303407 15.1581
42.029509746323676 15.1663
42.05336116662236 15.1218
42.077400857069705 15.1338
42.10125611078846 15.1173
42.12511327600405 15.0667
42.14897235421036 14.9951
42.173019768448455 14.9932
42.19688269209613 14.9424
42.22074753323349 14.9218
42.24461429335818 14.8788
42.268669455600495 14.87
42.292540073217886 14.8861
42.31641261433284 14.8512
42.34028708044675 14.7977
42.36435001496739 14.7891
42.38822835065557 14.7796
42.41210861586426 14.7621
42.4359908120986 14.719000000000001
42.46006154323262 14.7175
42.48394762115317 14.6846
42.507835634632315 14.7147
42.531912233047436 14.6606
42.55580413732265 14.5926
42.579697981698 14.5874
42.60359376768525 14.5617
42.62767820545945 14.4932
42.65157789440821 14.5064
42.67547952952185 14.4755
42.699383112316 14.4779
42.72347541395347 14.3671
42.74738291190531 14.3952
42.771292362102166 14.3834
42.795203766063516 14.3491
42.819303956130405 14.347000000000001
42.843219287476536 14.2941
42.86713657716324 14.2644
42.89105582671383 14.2248
42.91516392983864 14.2098
42.939087119032166 14.1934
42.963012272677304 14.1505
42.98693939230129 14.1161
43.01105543317513 14.1246
43.034986504731386 14.1168
43.05891954686589 14.0781
43.08285456110972 14.0554
43.10697856448665 14.0122
43.130917542983475 13.9895
43.15485849820081 13.9774
43.17880143167367 13.9234
43.20293342237094 13.8983
43.226880332449 13.8798
43.25082922540554 13.9104
43.27496722682525 13.8444
43.29892010567796 13.8284
43.32287497204102 13.7887
43.34683182745632 13.8072
43.370977859791836 13.7272
43.39493871351105 13.7089
43.41890156092628 13.7734
43.44286640358341 13.6971
43.46702049182749 13.68
43.49098934522816 13.6074
43.51496019852649 13.6246
43.5389330532723 13.6153
43.56309522248204 13.5889
43.58707210044314 13.5479
43.61105098451946 13.4912
43.63503187626491 13.5104
43.659202151562134 13.4551
43.68318707902681 13.4276
43.70717401884041 13.4703
43.731162972560874 13.4158
43.75534137913236 13.4134
43.779334381108384 13.3829
43.803329401683186 13.3957
43.82732644241872 13.3698
43.8515130055166 13.314
43.87551410707659 13.3023
43.89951723350145 13.280999999999999
43.923709934595614 13.2793
43.94771713129917 13.2107
43.97172635758096 13.2028
43.99573761501002 13.2009
44.0199385169922 13.1261
44.04395385732619 13.1435
44.067971233533086 13.1132
44.09199064718605 13.0951
44.11619977548961 13.0482
44.14022328470671 13.0193
44.16424883610785 12.9911
44.18827643127035 13.0133
44.21249381139513 12.9396
44.236525514814076 12.8945
44.26055926674478 12.9229
44.28459506876863 12.9198
44.3088207262813 12.8507
44.33286064928722 12.8293
44.35690262714919 12.8363
44.38094666145278 12.8228
44.4051806219871 12.7714
44.42922879003185 12.734000000000002
44.45327901929361 12.7065
44.477331311362136 12.7056
44.501573600619416 12.6347
44.525630039221795 12.6125
44.54968854541895 12.6149
44.573937102200176 12.630999999999998
44.5979997645541 12.6269
44.622064499300315 12.5772
44.64613130803592 12.5055
44.67038823869318 12.588
44.69445921643748 12.548
44.718532272981385 12.4722
44.742607409926194 12.4658
44.76687274034801 12.4381
44.79095205918753 12.4158
44.81503346325094 12.3789
44.839116954143876 12.3939
44.86339071028742 12.4016
44.88747839599524 12.3752
44.91156817336837 12.3145
44.93566004401666 12.3124
44.959942251908146 12.2849
44.984038330325966 12.2342
45.00813650686762 12.1925
45.03223678314731 12.1801
45.05652746888232 12.1701
45.08063196592069 12.1772
45.104738567558705 12.1368
45.128847275414856 12.11
45.15314646515866 12.0655
45.17725940679741 12.0962
45.20137445952892 12.0745
45.22568004865265 12.106
45.24979934496396 12.0365
45.27392075725247 12.0321
45.29804428714431 11.9902
45.322358426247604 11.9328
45.346486212804315 11.9133
45.370616121861914 11.9459
45.39474815505086 11.9122
45.41907087049246 11.8608
45.4432071734666 11.8353
45.46734560548283 11.8496
45.49148616817604 11.8288
45.51581748638564 11.7844
45.5399623320197 11.7842
45.56410931325473 11.7189
45.58825843173002 11.7714
45.61259837920865 11.7218
45.636751793816 11.6984
45.66090735060093 11.6257
45.68506505120716 11.6229
45.7094136545275 11.6058
45.73357566449271 11.5816
45.75773982322992 11.5517
45.78190613238733 11.5424
45.806263418194064 11.5429
45.83043404997326 11.5178
45.85460683713677 11.493
45.87897065658495 11.4536
45.90314777634752 11.4184
45.92732705646868 11.4343
45.9515084986045 11.3886
45.97588104735473 11.3798
46.00006683541565 11.3476
46.02425479047904 11.3165
46.04844491420549 11.3231
46.0728262191024 11.353
46.09702070211635 11.3346
46.12121735879483 11.2954
46.14541619080294 11.2415
46.169806278764455 11.2449
46.194009483459034 11.227
46.21821486849841 11.1651
46.24242243555223 11.193
46.266821333570014 11.1448
46.29103328674601 11.1081
46.31524742696538 11.132
46.33946375590237 11.0849
46.36387149104216 11.0957
46.38809221957392 11.0121
46.41231514186606 11.0497
46.436540259597464 11.0029
46.460956858999374 11.0296
46.48518638983522 10.9899
46.509418121166966 10.9113
46.533652054678114 10.917
46.55807754555709 10.8941
46.58231590571962 10.8861
46.60655647313217 10.8839
46.630988654873654 10.8631
46.655233659129024 10.8233
46.67948087571551 10.8046
46.70373030632484 10.8025
46.72817142736393 10.7787
46.752425308428684 10.7536
46.77668140861147 10.8001
46.80093972960865 10.6685
46.82538981736788 10.6733
46.849652602470904 10.6718
46.87391761349769 10.6461
46.8981848521493 10.6519
46.9226439341274 10.5973
46.946915650573224 10.5915
46.97118959976749 10.5429
46.99546578341598 10.5408
47.019933887188216 10.5294
47.04421456235744 10.5076
47.06849747711879 10.4869
47.09278263318286 10.4541
47.11725978640143 10.4647
47.14154944775105 10.4299
47.165841355555656 10.4204
47.1901355115306 10.3827
47.214621741924994 10.4054
47.23892041698887 10.3245
47.26322134538975 10.309000000000001
47.28771440635075 10.3084
47.31201986422527 10.2685
47.33632758061436 10.312999999999999
47.360637557241866 10.2858
47.38513974410611 10.2384
47.40945426407847 10.1899
47.43377104948137 10.1913
47.45809010204344 10.1788
47.48260144275502 10.1753
47.506925052572285 10.1873
47.53125093475548 10.0938
47.55557909103813 10.1175
47.58009961361992 10.0638
47.60443234110732 10.044
47.62876734791564 10.0649
47.65310463578333 10.0237
47.6776343683373 9.989469999999999
47.7019762413987 9.996369999999999
47.72632040075572 9.94562
47.75066684815169 9.92067
47.77520581885936 9.93713
47.799556865477655 9.92407
47.823910205386 9.887960000000001
47.84826584033272 9.88955
47.87281407745551 9.8565
47.89717432569297 9.85312
47.92153687423484 9.85443
47.94609208429692 9.80286
47.97045925671401 9.77621
47.99482873471275 9.78483
48.01920052005013 9.71565
48.04376504619224 9.72686
48.068141469543484 9.7314
48.09252020552573 9.71928
48.11690125590099 9.69609
48.1414751266064 9.66797
48.16586082917454 9.65965
48.19024885144316 9.65665
48.2146391951793 9.61937
48.239222439012764 9.61969
48.26361744916137 9.593119999999999
48.28801478610016 9.60149
48.31241445160131 9.55589
48.337007097209366 9.53013
48.36141144338331 9.548119999999999
48.38581812345755 9.482280000000001
48.41022713920929 9.47056
48.434829215320704 9.4522
48.45924292604658 9.43859
48.48365897780325 9.45314
48.50807737237308 9.40296
48.532688907799276 9.42961
48.55711201168574 9.38931
48.581537463754074 9.35331
48.60615611725119 9.37469
48.63058628942721 9.35205
48.65501881516546 9.363339999999999
48.6794536962573 9.31429
48.70408185970339 9.31541
48.72852147531801 9.26641
48.75296345168211 9.23403
48.77740779059232 9.22579
48.80204549302823 9.20658
48.82649458091802 9.18679
48.85094603676547 9.17046
48.87539986237231 9.15348
48.90004713292306 9.14738
48.92450572200832 9.11252
48.94896668628025 9.1116
48.97343002754588 9.0831
48.99808689542115 9.07221
49.02255501470614 9.07581
49.04702551642794 9.03421
49.0714984023988 9.012880000000001
49.096164896893235 9.0173
49.120642575466796 8.99434
49.145122643748394 8.992569999999999
49.16960510355558 8.96901
49.19428125404938 8.943539999999999
49.2187685210852 8.89218
49.243258185121555 8.890089999999999
49.26794160167084 8.91622
49.2924360839405 8.860489999999999
49.31693296869764 8.861989999999999
49.34143225776915 8.81917
49.36612538195438 8.80285
49.39062950396021 8.83434
49.41513603578346 8.78658
49.4396449792564 8.75646
49.46434784069503 8.73283
49.488861631846454 8.72284
49.513377840166804 8.727139999999999
49.537896467493745 8.68287
49.56260909589029 8.658560000000001
49.587132585683285 8.68021
49.611658500018365 8.6677
49.636186840738596 8.59832
49.66090926588511 8.603589999999999
49.685442483902584 8.560319999999999
49.70997813385706 8.534510000000001
49.734516217597076 8.51727
49.75924846937352 8.5644
49.7837914452858 8.53527
49.80833686055187 8.48596
49.83288471702571 8.4784
49.85762682540054 8.49588
49.882179588965734 8.48161
49.9067347993235 8.447389999999999
49.93129245833333 8.4723
49.95604445336378 8.423210000000001
49.98060703442832 8.39445
50.005172069746266 8.39403
50.02993150438364 8.39064
50.05450147301533 8.3944
50.07907390151433 8.30224
50.10364879174981 8.31231
50.12841816587289 8.28925
50.1529980044635 8.26043
50.17758031042124 8.26328
50.20216508562089 8.252360000000001
50.22694442953363 8.227089999999999
50.25153416817468 8.22229
50.27612638170508 8.18262
50.300721072005196 8.185130000000001
50.325510416102105 8.1446
50.350110084975064 8.14537
50.37471223628208 8.16905
50.39931687190919 8.121260000000001
50.424116246675766 8.09582
50.44872587605249 8.10637
50.47333799543065 8.10731
50.49795260670191 8.06765
50.52276204271512 8.047939999999999
50.54738166295838 7.9987699999999995
50.57200378079314 8.01682
50.596628398116835 8.02
50.62144792604559 7.993710000000001
50.646077567609396 7.97169
50.670709714377715 7.95328
50.69553683636198 7.9406300000000005
50.72017401885922 7.92
50.7448137122895 7.92477
50.76945591856022 7.93336
50.79429318636823 7.87702
50.818940443716784 7.85999
50.84359021965163 7.8409699999999996
50.868242516085964 7.842060000000001
50.893089960641895 7.82167
50.917747323549435 7.81745
50.94240721271973 7.80352
50.96706963007175 7.79327
50.99192728239342 7.744730000000001
51.01659478166073 7.77844
51.04126481489051 7.712219999999999
51.06593738400761 7.71583
51.090805275207074 7.706339999999999
51.11548294172845 7.68425
51.14016314993547 7.65866
51.164845901758845 7.654910000000001
51.18972406304274 7.66875
51.21441192780656 7.62553
51.23910234200271 7.624439999999999
51.2637953075678 7.59369
51.288683770237945 7.5712
51.31338186432707 7.58034
51.33808251561888 7.57371
51.362978729967345 7.551010000000001
51.387684521509755 7.50965
51.41239287610203 7.49644
51.437103795691165 7.44889
51.46201036644977 7.464119999999999
51.486726441956634 7.43226
51.51144508832545 7.46093
51.536166307509156 7.424860000000001
51.56108326624387 7.38352
51.58580965706056 7.37675
51.61053862657523 7.34974
51.635270176746864 7.341589999999999
51.66019755512065 7.34713
51.68493429268881 7.330839999999999
51.70967361681515 7.329339999999999
51.73441552946465 7.32332
51.759353359237934 7.3268699999999995
51.7841004750961 7.270239999999999
51.80885018539685 7.26347
51.833602492111254 7.24987
51.8585508051424 7.2405100000000004
51.883308330926425 7.2175199999999995
51.90806845906181 7.1781
51.932831191525715 7.20511
51.95779001977161 7.16617
51.98255798721516 7.137289999999999
52.00732856494335 7.1241699999999994
52.03229530577543 7.09115
52.057071130455945 7.10365
52.081849571391054 7.08628
52.106630630568695 7.06082
52.13160794279417 7.00432
52.15639426492067 7.08484
52.18118321127822 7.01191
52.205974783860896 6.966189999999999
52.23096269971011 6.99498
52.255759551287994 6.978280000000001
52.280559035098186 6.97615
52.30536115314103 7.0064
52.33035970494467 6.951810000000001
52.35516711807904 6.95475
52.37997717147198 6.96223
52.40478986713005 6.9271199999999995
52.42979908731974 6.898739999999999
52.454617094216 6.854189999999999
52.47943774942214 6.8609800000000005
52.50426105495102 6.854839999999999
52.529280976059844 6.83767
52.554109609024096 6.807060000000001
52.57894089837482 6.80669
52.60377484613117 6.815230000000001
52.62880550079408 6.78322
52.65364479223379 6.7933699999999995
52.67848674816189 6.73897
52.70352547971946 6.757860000000001
52.72837279155837 6.740060000000001
52.753222773982785 6.697939999999999
52.778075429022984 6.71742
52.80312495150885 6.69453
52.827982978797436 6.65188
52.85284368481815 6.63363
52.87770707160767 6.643610000000001
52.90276741793998 6.6331
52.92763619336701 6.612
52.952507655698504 6.60847
52.977381806977576 6.568060000000001
53.00245301017842 6.59998
53.02733256653592 6.56853
53.052214817996074 6.53569
53.077099766608484 6.51196
53.102181859804446 6.47349
53.127072229988265 6.48435
53.15196530349892 6.487830000000001
53.17686108239249 6.48457
53.20195409881522 6.48665
53.22685531582556 6.45432
53.25175924441303 6.395569999999999
53.27666588664027 6.44022
53.30176985962693 6.39733
53.3266819565689 6.39499
53.35159677336455 6.37867
53.376514312083096 6.37292
53.40162927507703 6.37856
53.42655228516116 6.33442
53.45147802340193 6.32233
53.47660125628886 6.32977
53.50153247842639 6.31116
53.52646643496923 6.28213
53.55140312799818 6.31959
53.576537409691696 6.22675
53.60147960336152 6.185980000000001
53.626424539786164 6.19768
53.65137222105307 6.21761
53.67651758529126 6.24236
53.70147078399681 6.190980000000001
53.72642673383343 6.21363
53.75138543689533 6.17296
53.776541917524526 6.19342
53.801506154876755 6.165030000000001
53.826473151763246 6.11031
53.851442910284916 6.126519999999999
53.87661054126026 6.09335
53.9015858509782 6.097519999999999
53.92656392866066 6.04283
53.95154477641532 6.07292
53.976723591801296 6.0332
54.00171000771266 6.01302
54.02669920004598 5.99699
54.051691170915745 6.00969
54.076881204886796 6.01536
54.101878760928514 5.96529
54.12687910187696 5.98075
54.152077577768296 5.94272
54.1770835166946 5.92411
54.20209224691339 5.90781
54.22710377055121 5.87251
54.25231352511594 5.89419
54.27733066384342 5.88238
54.30235060239643 5.82843
54.32737334290836 5.86219
54.35259441062629 5.80815
54.377622783395324 5.7829
54.40265396455061 5.79663
54.42768795623251 5.80689
54.45292037169559 5.75861
54.477960012857906 5.71807
54.50300247099511 5.75317
54.52804774825457 5.751580000000001
54.55329154616743 5.651590000000001
54.57834249018678 5.661969999999999
54.6033962597977 5.65344
54.6284528571545 5.65469
54.653708072335164 5.57733
54.67877035378786 5.60354
54.70383546947698 5.60291
54.72890342156389 5.58964
54.7541700889442 5.52578
54.77924374251975 5.53124
54.8043202390049 5.47916
54.82959552413022 5.442080000000001
54.8546777351945 5.431719999999999
54.87976279569621 5.39789
54.90485070780914 5.45055
54.930137506558005 5.41878
54.95523115074295 5.40829
54.98032765308844 5.3379
55.005427015775496 5.3423
55.03072536339621 5.3119
55.05583047570572 5.2854
55.080938454927676 5.28418
55.10604930325027 5.27725
55.131359235107396 5.28294
55.15647585066083 5.25853
55.181595341907496 5.20642
55.20671771104285 5.14229
55.232039262617704 5.17933
55.25716741665048 5.16333
55.28229845518636 5.166519999999999
55.30743238042802 5.08769
55.33276558731939 5.048769999999999
55.357905315183636 5.05975
55.383047936390035 4.99544
55.40819345314859 4.9722599999999995
55.433538351073295 4.97762
55.458689688238415 4.9568900000000005
55.483843927614096 4.8907099999999994
55.509197623043605 4.8863
55.53435769621134 4.86716
55.55952067826466 4.856990000000001
55.5846865714265 4.87855
55.61005202069737 4.7982
55.63522376553902 4.80642
55.66039842818645 4.7573300000000005
55.68557601087004 4.7613900000000005
55.7109532500271 4.715409999999999
55.73613670233794 4.7691
