TT I
1.2716486653135266 7.19097
1.2939594142134223 6.75196
1.3162702121660406 7.00657
1.3385810600174564 6.7272
1.3608919586137629 6.892239999999999
1.383202908801069 6.28431
1.405513911425503 6.0650900000000005
1.4278249673332093 6.07215
1.4501343378461518 6.569389999999999
1.4724455028545926 6.11825
1.4947567236847858 6.43919
1.517068001182951 5.87073
1.5393793361953272 5.91574
1.5616907295681737 5.74141
1.5840021821477681 5.40468
1.60631369478041 5.15607
1.6286252683124185 5.62999
1.6509369035901333 4.67981
1.6732468618895553 5.08069
1.695558623192809 5.03084
1.7178704487808514 4.49486
1.7401823395001077 5.086040000000001
1.7625012545597203 4.6157900000000005
1.7848028405262486 5.02243
1.8071218901122095 4.722519999999999
1.8294236121921872 4.63044
1.8517427996910911 5.29455
1.8740620574440425 4.75933
1.8963639900671978 4.52767
1.9186833908139995 4.48916
1.9409854680117449 5.10838
1.9633050151394713 4.4981800000000005
1.9856246367570705 4.46889
2.0079269371922672 4.28317
2.03024671027244 5.01016
2.0525491637446027 4.95673
2.074869091674931 4.48373
2.097171701569106 4.98268
2.1194917877373847 5.04013
2.141811954326636 4.83173
2.164114805233074 4.94426
2.186435135143035 5.67331
2.208738150935709 14.2861
2.231058647554722 30.6073
2.2533792288321184 23.7451
2.275682498336085 10.6797
2.298003251406138 5.46558
2.3203066942619714 5.70573
2.3426276225136022 5.4141699999999995
2.3649486396617507 5.760269999999999
2.387252348930071 6.0243
2.4095735463442893 5.7358199999999995
2.4318774374315884 6.27388
2.4541988185014043 6.09384
2.476502894794693 6.741289999999999
2.498824462909887 6.73952
2.521146125856138 6.688
2.5434504863470337 7.10266
2.5657723414244717 7.1395
2.588076895590662 7.78556
2.610398946189713 7.57552
2.6327210958598384 8.08361
2.6550259469304716 8.18187
2.6773482972090137 8.4431
2.6996533504259 8.117389999999999
2.7219759047039602 7.891360000000001
2.744298562293959 8.486989999999999
2.7666039251246595 8.31578
2.7889267918020164 7.9519
2.8112323652516555 8.16852
2.833555444408179 8.2576
2.8558786311183852 8.24447
2.8781845268938557 9.14886
2.9005079311721484 9.04531
2.9228140460410397 8.71095
2.9451376712799635 8.75404
2.967444008632326 10.032
2.9897678582247247 10.3461
3.0120918213106695 10.4287
3.0343984987899373 10.4527
3.0567226913198637 11.0273
3.079029599759726 11.7167
3.101354025127254 12.3992
3.123678568232338 13.2612
3.145985829517914 13.3598
3.16831061055229 13.6265
3.1906181112775593 14.0848
3.212943133635653 14.5243
3.2352682779763207 15.0382
3.2575761442691227 15.1857
3.2799015350264273 16.1363
3.302209649240067 16.5145
3.3245352898092655 16.7555
3.3468436553365257 17.2966
3.369169549113219 17.9736
3.3914955708171384 18.4893
3.413804319727358 18.8571
3.4361305997334863 19.1551
3.4584396084414553 19.9484
3.4807661501462652 20.203
3.503092824025881 21.1533
3.5254022288463154 21.0698
3.5477291695206588 22.2292
3.5700388426251948 22.3568
3.5923660534916446 23.8507
3.6146934007816114 40.0969
3.637003482731501 96.4356
3.6593311053109985 108.671
3.681641464033634 61.5748
3.7039693653009733 31.7263
3.726297407241705 26.179000000000002
3.7486081875460804 25.7421
3.7709365132734978 26.0047
3.793247578841633 26.9342
3.8155761917550093 26.9683
3.8378875459837216 26.9363
3.8602164494827234 27.2787
3.882545499606844 28.2517
3.9048572932539183 28.6044
3.9271866390645718 29.193
3.9494987298666713 30.12
3.971828374764527 30.9043
3.9941581705403255 30.729
4.016470713506008 31.3663
4.038800813471445 32.0874
4.061113662089144 32.8246
4.0834440696459176 33.6655
4.105774632334751 33.9168
4.128087945865126 34.7996
4.150418821249301 35.4852
4.172732448931298 37.047
4.195063640413578 39.1078
4.2173775856475215 42.67100000000001
4.239709096631102 76.3155
4.262040768704612 260.32099999999997
4.284355196706267 355.462
4.306687193387355 229.0
4.329001947444346 86.3528
4.35133427213731 49.0151
4.373666762177566 45.0878
4.395982011761091 44.2536
4.418314834921175 45.852
4.44063041906622 54.2944
4.4629635787515625 66.4769
4.4852969080429785 66.5892
4.5076130004776225 55.0832
4.529946671403969 50.4262
4.552263106909177 49.8507
4.574597122877047 50.9319
4.596931312711224 52.0297
4.619248269273446 52.687
4.6415828092605835 54.1878
4.663900117405352 55.2585
4.686235010953232 56.2746
4.708552674085913 57.8422
4.730887924602802 59.4171
4.753223354952695 61.0368
4.775541557023902 61.8871
4.797877349456786 63.6807
4.820195915032126 65.7045
4.842532072957498 66.8514
4.864868414979744 68.7634
4.88718753227192 71.0736
4.909524244902505 73.1868
4.931843734218147 74.7929
4.954180820867835 77.0776
4.976518095879839 80.4506
4.998838149695359 83.5013
5.021175803844231 86.8705
5.043496238205739 90.2022
5.065834274903528 94.2548
5.088172504230693 99.2027
5.1104935158799565 105.796
5.132832132875765 128.369
5.155153533596801 177.013
5.1774925416746225 207.771
5.199814334878411 326.885
5.2221537374521505 932.54
5.244493338631803 2709.93
5.266815727034316 7517.44
5.289155727832427 12710.5
5.311478517248165 9112.52
5.333818921080011 2887.2
5.356159527788849 553.207
5.3784829252032536 186.44299999999998
5.400823940070432 143.977
5.423147747031976 128.28
5.445489173474152 118.53200000000001
5.467830807066149 112.79799999999999
5.490155234831516 108.53399999999999
5.512497285125229 105.11200000000001
5.534822130975162 103.186
5.557164601388673 101.126
5.579489868738879 99.0265
5.601832762690846 98.1081
5.6241758697774475 97.3486
5.646501775867269 96.0023
5.668845311622074 94.071
5.691171647754637 93.9667
5.713515615597765 92.6791
5.735859800852677 91.3411
5.758186788542988 90.7127
5.780531411018185 91.1299
5.802858837297399 90.3972
5.825203900414495 90.4678
5.8475491852224 90.7466
5.869877275883075 91.6197
5.892223006467101 92.7006
5.914551544266608 94.0032
5.936897724049891 96.0367
5.959244129804903 101.62899999999999
5.981573344815301 117.03200000000001
6.0039202049061 191.546
6.026249875609095 423.538
6.04859719346037 918.125
6.070927323278297 2144.08
6.093275102315365 4579.59
6.115623113320588 5282.94
6.137953938319995 3294.39
6.160302415650845 989.105
6.182633708324452 230.69799999999998
6.2049826554078376 113.34899999999999
6.227331838745022 92.5474
6.249663839443684 85.0115
6.27201349767565 82.4289
6.294345974611799 90.1744
6.316696111167083 103.67
6.339046488263839 97.5275
6.361379686074702 81.3483
6.383730546639482 72.331
6.406064229255215 69.176
6.428415576718203 68.8557
6.450749747566656 67.0303
6.47310158535871 66.0512
6.495453669698332 65.0821
6.517788579421056 64.8047
6.540141159237969 64.0139
6.562476565766648 63.5654
6.5848296444934045 63.1065
6.607182974060425 62.6527
6.6295191323281015 62.701
6.651872965955752 66.2324
6.6742096296068985 95.5291
6.6965639707294615 148.34799999999998
6.71891856698715 150.371
6.741255995248479 100.189
6.763611104154477 69.704
6.785949046381137 60.766000000000005
6.808304671371482 58.54600000000001
6.8306605557940046 58.0492
6.852999275508618 57.5716
6.875355681171544 57.1768
6.897694923437771 56.8558
6.92005185377892 56.8846
6.9423916220322655 56.942
6.964749080490181 56.1801
6.987106804399774 55.8551
7.009447368180821 56.2262
7.031805625367033 55.5814
7.054146723727803 55.6778
7.076505517631004 55.5414
7.098864581288365 55.3166
7.121206488070854 55.1248
7.143566093607822 55.4675
7.165908543567245 55.6951
7.188268694426048 55.4867
7.2106291193438095 55.7799
7.232972390625943 57.1009
7.255333366030969 70.3122
7.277677189091925 130.586
7.300038718428332 186.535
7.322400526130865 158.843
7.344745183422596 94.3956
7.367107550224791 63.2309
7.389452767901992 56.4793
7.411815697249891 55.4142
7.434161478756298 54.6508
7.456524974096713 54.8645
7.478888753837185 54.4127
7.501235387657368 54.7897
7.523599738562711 54.5873
7.545946944825532 55.0573
7.568311870344528 55.2048
7.5906770845765665 55.6043
7.613025156078678 56.9623
7.635390950099687 58.5364
7.657739602662809 57.4621
7.680105979923558 56.1765
7.702472650212829 56.1093
7.724822180948224 55.861999999999995
7.747189439655568 56.1934
7.769539560075357 56.1872
7.791907410653562 56.6879
7.81425812420825 56.5928
7.836626570110925 56.743
7.858995315087906 57.5505
7.881346924933401 57.5948
7.903716270417482 58.2699
7.926068482028405 58.5049
7.948438431475253 58.878
7.9708086843180235 60.0728
7.993161805171116 60.538999999999994
8.015532667162402 60.591
8.037886398416653 61.6972
8.060257873014221 61.9047
8.082629655331942 62.4549
8.104984308787587 63.5886
8.127356708900503 67.2892
8.149711981398308 73.7164
8.172085002766314 76.3503
8.194458336181368 72.6864
8.216814543847752 69.618
8.23918850371002 69.3386
8.26154533906492 70.1018
8.283919928836452 71.6549
8.306277395339652 72.2134
8.328652618483376 73.9211
8.351028159736202 76.0644
8.373386579575245 77.7922
8.395762759396959 80.0316
8.418121819038275 84.8886
8.440498640894003 99.5142
8.462875785192262 114.706
8.485235811156207 124.118
8.507613602688501 157.224
8.529974277114228 239.245
8.552352719347912 373.346
8.574731488360351 626.837
8.59709314210385 1168.46
8.619472567021075 1878.46
8.64183487789147 2254.09
8.664214962183097 1835.44
8.686577933647762 936.123
8.708958680784317 358.231
8.731339760774953 157.71
8.753703729764451 109.789
8.77608547780821 99.0608
8.798450116065078 95.2194
8.820832535634787 91.8236
8.843215292401656 90.7142
8.865580941199045 89.1713
8.887964374703538 88.3678
8.910330701447199 89.6238
8.932714815164482 92.4429
8.955099270424924 91.7579
8.977466620733543 88.1653
8.999851761421976 84.8073
9.022219798361645 83.4115
9.04460562795561 82.9522
9.066991803441677 82.7961
9.089360876979615 82.57
9.111747746589993 81.8551
9.13411751544971 81.4059
9.156505082664324 81.6706
9.178875550323522 81.8089
9.20126381862328 81.99799999999999
9.223652438908596 82.9178
9.246023961427412 82.4868
9.26841328802173 81.6265
9.290785518039224 81.7074
9.313175554425882 82.4204
9.335565947154315 82.0721
9.357939245086508 82.2548
9.380330352834827 82.0661
9.40270436697103 82.6427
9.425096193225055 82.4686
9.447488380180165 83.5265
9.469863475295412 83.8362
9.492256385987508 84.0932
9.514632206018318 84.8094
9.537025843935714 85.0844
9.559402392368193 86.1237
9.581796761000229 87.066
9.604191496441521 88.3449
9.626569144158516 92.1389
9.648964615551032 97.1899
9.671343000390081 98.8614
9.693739211225699 96.5284
9.716135793237463 93.5633
9.738515290448102 92.4445
9.760912617143402 93.2785
9.783292860202891 94.7957
9.805690935076182 96.1138
9.828089385495742 96.7941
9.850470754023561 99.3137
9.872869957865444 107.52
9.89525208097539 124.851
9.917652041736662 138.292
9.940052382417589 137.269
9.962435644102392 139.049
9.984836746950979 168.158
10.007220771957746 230.863
10.029622640473708 330.105
10.052007432299963 504.213
10.074410069984072 788.903
10.096813093716005 1253.41
10.119199042482517 1766.08
10.141602840636468 1991.8
10.163989564971628 1624.63
10.186394141051062 902.873
10.208799107559706 404.48
10.231187001965623 188.47400000000002
10.253592751657669 125.67399999999999
10.275981430388155 113.412
10.298387966769793 113.111
10.320794897965431 116.066
10.343184759907361 115.26700000000001
10.36559248305461 109.008
10.387983138083852 103.854
10.410391656691655 105.198
10.432800574501677 115.365
10.455192425893369 130.753
10.47760214443012 155.238
10.499994797678786 196.34400000000002
10.522405320453982 271.892
10.54479877906917 387.491
10.567210109595656 514.133
10.5896218454736 586.679
10.612016518879773 510.426
10.634429067781074 352.10699999999997
10.656824555333241 201.428
10.679237920773568 123.40299999999999
10.701651695961992 95.6014
10.724048411481384 89.0864
10.746463008485165 86.5531
10.768860546937125 84.5692
10.791275969274796 82.8782
10.81369180576079 82.0165
10.836090585366925 80.8536
10.858507252467449 79.5688
10.88090686379991 78.6151
10.903324365036394 78.1158
10.925724811614439 78.2428
10.948143150509463 79.5901
10.970561909719066 79.0904
10.992963615930844 76.9988
11.015383218085756 74.6329
11.037785768347074 73.0123
11.06020621697282 72.3506
11.082627090322113 72.1331
11.105030913430326 71.6797
11.12745263854165 72.3958
11.149857314510728 76.459
11.172279894912576 83.1337
11.194702904450653 84.3544
11.217108866490921 79.921
11.239532736615194 74.6882
11.26193956033512 71.9275
11.284364294577085 70.3294
11.306789462371718 68.2794
11.329197585398376 67.2566
11.351623622610898 66.7747
11.37403261614354 65.965
11.396459526308487 65.8698
11.418869393879497 65.5717
11.441297180532617 65.1809
11.463725406927658 64.6808
11.486136592353875 64.7175
11.508565700543707 65.345
11.530977768845315 67.5283
11.553407762368774 68.4941
11.575838200059769 67.95100000000001
11.598251599479612 65.8307
11.620682927815501 64.1176
11.64309721895548 63.607
11.665529441478206 63.2171
11.687962112597958 62.9354
11.710377748130886 62.8656
11.732811318753434 62.7705
11.755227854859067 62.82899999999999
11.777662328529495 62.6877
11.800079768750786 62.4754
11.822515149015453 62.1404
11.844950984084935 62.8846
11.867369787303163 62.2802
11.889806534289491 62.3595
11.912226250487029 62.7511
11.934663912939751 62.8953
11.9571020346363 62.8068
11.979523127133968 62.9524
12.001962169624331 63.5057
12.024384183972964 64.1646
12.046824150809913 66.8547
12.069264581333726 72.0384
12.091687985297767 78.07
12.11412934550045 87.0581
12.136553680195208 101.865
12.158995973632788 124.54299999999999
12.181438735204349 152.734
12.20386447284199 187.97099999999998
12.226308172985636 209.188
12.24873485024193 202.183
12.271179492516982 166.86599999999999
12.293607112949127 126.024
12.316052700916226 93.9235
12.338498763250042 78.7435
12.360927805303868 70.5543
12.383374818673879 66.4868
12.405804812803074 64.544
12.428252780773262 64.3923
12.45070122756722 64.0408
12.473132656675375 64.0823
12.49558206341869 64.1902
12.518014453510101 64.3623
12.540464823770117 64.7102
12.562915677315177 64.5317
12.58534951575545 65.4134
12.607801338171472 67.5675
12.630236146511358 73.4406
12.652688941369085 79.237
12.675124723177234 79.6899
12.697578494048786 75.434
12.720032754458185 70.1502
12.742470003354093 68.0855
12.764925245138771 67.6255
12.787363476431278 67.9073
12.809819703166806 68.3403
12.83227642391173 69.0075
12.854716135692716 69.2941
12.877173846755147 70.5769
12.899614549869717 70.8236
12.9220732548287 71.7201
12.94453245827299 71.9805
12.966974655289818 72.9293
12.989434858002571 73.9771
13.011878055298721 74.3179
13.034339260862497 75.5814
13.056800969391883 76.7454
13.079245674017244 78.8023
13.101708390774869 80.5585
13.12415410463411 86.2521
13.146617833206086 97.9539
13.169064559883248 109.805
13.191529303857127 124.15100000000001
13.213994557076367 146.08700000000002
13.236442809902437 181.497
13.258909083908291 236.21400000000003
13.28135835851934 304.005
13.30382565690295 380.684
13.326293469022952 438.39599999999996
13.348744283242008 434.152
13.371213125129904 361.069
13.39366497011003 261.425
13.416134845360597 170.322
13.438605238843131 121.236
13.46105863690397 103.59100000000001
13.483530069144786 103.439
13.505984506951902 108.59899999999999
13.528456981549432 118.429
13.550929978879088 133.049
13.573385983253365 155.41299999999998
13.595860028340867 192.50799999999998
13.618317081455832 245.979
13.64079217790333 304.04
13.663250283359057 355.73199999999997
13.685726434770173 380.73699999999997
13.708203115221277 339.77
13.730662806148091 262.486
13.75314054697177 180.678
13.775601299246777 125.056
13.798080104050406 95.3468
13.820559442405358 84.6176
13.843021793671388 81.5411
13.865502201420897 79.9246
13.887965623051947 79.2321
13.910447103807167 78.1938
13.932929122629764 76.8115
13.955394156785959 76.3506
13.977877254034569 75.4
14.000343367582113 74.8028
14.022827546871707 74.1708
14.045294743423524 73.1491
14.06778000837062 72.6684
14.090265817715476 72.7886
14.112734645763819 72.5576
14.13522154619454 72.0229
14.157691466286913 72.3611
14.180179461423874 72.0883
14.202668005486178 71.5365
14.22513957064374 70.6531
14.247629214846473 70.1534
14.270101881097517 69.9928
14.29259262906496 70.5057
14.315083930490205 71.2962
14.337558255389705 71.7093
14.360050666019726 71.305
14.382526101071944 70.0
14.405019624534942 69.1007
14.427513705993134 68.7185
14.449990813291825 68.6231
14.47248601302899 68.3973
14.49496423954951 68.6413
14.517460561197822 68.7507
14.539939910570322 68.3686
14.562437357763558 68.8918
14.58493536931253 70.0955
14.607416409993311 70.956
14.62991555254159 71.8612
14.652397725157423 71.843
14.674898002342799 70.9393
14.697398848433282 70.2494
14.719882725991326 70.5568
14.74238471217934 71.1568
14.764869730765593 73.8871
14.787372860692983 77.5902
14.809876564079925 82.0027
14.83236330125751 87.3833
14.854868153850365 95.9304
14.877356041159485 108.71799999999999
14.899862046604186 126.598
14.922351087688757 152.909
14.944858249632887 183.655
14.967365991421232 210.808
14.989856770231246 227.097
15.012365673994204 220.80599999999998
15.03485761569738 189.06099999999998
15.05736768508665 146.724
15.07987833888692 112.34200000000001
15.102372032001655 88.7182
15.124883856909658 76.2831
15.14737872204565 72.1148
15.169891721717274 70.2177
15.192405310371893 70.4122
15.214901940621196 70.90899999999999
15.237416709527137 71.1788
15.259914520936249 71.24
15.282430473753607 70.2358
15.304947020131227 69.0251
15.327446610371178 68.0843
15.349964346154254 67.1954
15.372465126703139 66.9806
15.394984055556009 66.4332
15.417486030076159 66.1314
15.44000615566487 65.6945
15.462526881230803 65.5903
15.485030653812652 65.9807
15.507552581617434 66.0178
15.530057557334603 66.1537
15.55258069104857 66.1929
15.575104429329837 66.2467
15.597611216864632 65.6937
15.620136166564563 65.6766
15.6426441664095 66.2031
15.665170331202765 68.2776
15.687697105158826 71.2207
15.710206930593545 74.5263
15.732734925158933 78.6263
15.755245972089478 84.6833
15.77777519094324 93.2374
15.800287463046663 106.477
15.822817909869592 124.979
15.84534897229804 146.709
15.867863089299354 172.995
15.890395385222186 192.49400000000003
15.912910736597423 198.38299999999998
15.935444269699861 184.03099999999998
15.957978423016485 157.034
15.980495633101265 124.814
16.003031029129367 96.1202
16.02554948280019 75.943
16.048086125229432 67.4259
16.070623392487107 65.2782
16.09314371869582 64.70100000000001
16.11568223789321 63.8202
16.13820381691126 62.6107
16.160743591742527 61.4308
16.183283996022084 60.8588
16.205807461423195 59.4879
16.228349126881973 58.8337
16.25087385432698 58.7684
16.27341678466365 58.4622
16.29594277784926 58.3043
16.31848697676433 58.6513
16.341031811604868 59.1481
16.36355971058487 59.4547
16.3861058195587 59.2034
16.40863499352978 57.7317
16.431182380342005 56.9427
16.453730407713202 56.3192
16.476261501364792 55.6367
16.498810812136167 55.3569
16.52134319004079 55.6098
16.54389378792203 55.4854
16.566445031001553 55.3934
16.588979342490088 55.0635
16.61153187824822 54.9506
16.634067483263312 54.6107
16.656621315414416 54.8068
16.679175797408888 54.4956
16.701713349928728 54.6226
16.72426913389191 54.7808
16.74680798922351 54.9503
16.76936507887444 54.9578
16.791905240734874 54.8356
16.814463639794468 54.7475
16.837022695210294 54.8339
16.859564824093756 55.2001
16.882125194503903 56.0887
16.904668639217885 56.7629
16.927230328348003 56.9372
16.949792678493612 57.0213
16.972338104193863 56.2653
16.994901778652235 55.7427
17.017448529496576 55.5609
17.040013531998152 55.5852
17.06257920018044 55.9338
17.0851279459922 56.7164
17.107694947817667 57.6348
17.130245028099072 58.5062
17.15281336730298 59.6995
17.17536478578733 61.5644
17.19793446610687 63.637
17.220504818648422 66.2752
17.243058251703697 69.3685
17.265629950971032 74.4792
17.288184731571736 79.1793
17.310757781306908 83.772
17.33333150794385 85.1073
17.355888317140174 82.6281
17.37846339986244 77.7875
17.401021565958885 71.0504
17.42359800851343 65.4956
17.44617513265564 61.6925
17.468735341390783 59.6668
17.491261035594565 58.9138
17.51396340099364 58.8312
17.536490463869136 59.1599
17.559018209820174 59.0101
17.58154663977963 59.1293
17.604251766089718 59.1907
17.626781572227713 59.2958
17.64931206518155 59.7929
17.671843245885103 60.1067
17.69455114821572 60.5665
17.717083712612634 60.8958
17.739616967569667 60.9064
17.762150914021706 61.2014
17.78486160749854 61.3111
17.807396945166804 61.6007
17.829932977143503 62.1211
17.85246970436452 63.3616
17.875183204129467 65.2868
17.897721330097664 67.6433
17.920260154126645 70.0799
17.942799677153296 73.2784
17.9655159983646 76.6715
17.988056927677544 81.64399999999999
18.010598558807683 89.1378
18.033140892692916 99.0938
18.05586005052525 110.699
18.07840379824407 123.542
18.10094825154059 135.605
18.12366954819864 143.292
18.146215420998306 143.156
18.16876200220057 132.197
18.191309292745153 116.98
18.214033452627167 102.76100000000001
18.236582170236648 91.0733
18.259131600016456 85.8587
18.281681742907335 86.0086
18.304408781233683 90.2417
18.32696035875955 95.8474
18.349512652227624 101.302
18.372065662579683 106.12100000000001
18.394795594587553 107.225
18.41735004715306 104.228
18.43990521943684 96.9865
18.46246111238171 86.9586
18.485193953325208 77.0487
18.507751296070428 69.8917
18.530309362314178 65.7613
18.552868153000343 63.3701
18.57560391815056 62.0279
18.59816416623245 61.702
18.620725141597372 61.1954
18.643286845190268 60.7302
18.666025549835414 60.4641
18.688588718427933 59.6898
18.711152618092243 59.5055
18.73389353884365 59.1883
18.75645890921984 58.9225
18.77902501351406 58.4346
18.801591852673102 58.6223
18.824335739722738 58.1793
18.846904057212626 58.0208
18.8694731124168 57.6902
18.89204290628315 57.676
18.914789774966803 57.3802
18.937361054791623 57.1335
18.959933076131318 56.967
18.982505839934877 56.9402
19.00525570560582 56.8518
19.027829963004184 56.7372
19.05040496572238 56.9993
19.072980714710468 56.8609
19.095733592739563 56.9287
19.11831084296757 57.266999999999996
19.140888842324735 57.6724
19.16346759176222 58.07899999999999
19.18622349753803 58.6391
19.208803755869358 59.2607
19.231384767143577 60.4537
19.253966532312948 62.0456
19.276725481241822 64.0729
19.29930876296784 66.4663
19.3218928014549 69.9965
19.34465404436217 73.6287
19.36723960516257 76.34899999999999
19.389825925592426 77.4696
19.412413006605938 76.2143
19.43517731967805 72.4143
19.457765930683355 67.6161
19.48035530514408 62.7692
19.50294544401556 59.0297
19.525712842708348 56.3069
19.54830451925909 55.1915
19.570896963095727 54.2958
19.593490175174704 53.7564
19.616260674962184 53.8411
19.638855432416964 53.4422
19.661450960992624 53.6997
19.68404726164677 53.3736
19.706820878021247 53.2531
19.729418731756834 53.5533
19.752017360452857 53.1982
19.77461676506804 53.2835
19.797393513540218 53.4237
19.819994478951667 53.6688
19.84259622316767 54.2956
19.8651987471481 54.8124
19.887978643247177 54.9884
19.91058273574792 55.3958
19.933187610901943 56.1294
19.955969879466828 57.238
19.97857632894404 58.5616
20.00118356396599 60.0993
20.023791585494575 62.2225
20.046577028914875 65.0363
20.069186632506966 67.3481
20.091797025500632 69.4083
20.114408208858933 70.257
20.137196842715273 69.8068
20.159809615886765 68.0033
20.18242318232135 65.2617
20.20503754298326 62.8777
20.227829382875154 61.8203
20.250445341109344 61.7684
20.27306209647285 62.6562
20.29567964993108 63.9966
20.31847471147704 65.1919
20.34109387027612 65.8387
20.363713830075454 65.633
20.386334591841646 63.7154
20.409132890679302 61.0915
20.431755265564437 58.0869
20.454378445325528 55.4069
20.477002430930366 53.4366
20.499803982716553 52.4003
20.522429589228004 51.5669
20.54505600449589 51.2631
20.567683229489194 50.897
20.590488049900088 50.6628
20.61311690359731 50.2208
20.63574656993626 50.042
20.658553853717297 49.6038
20.681185154618298 49.5578
20.703817271080066 49.4976
20.72645020407368 49.2428
20.749260783967177 49.1465
20.771895359337133 49.0307
20.794530754161617 48.8031
20.817166969412938 48.6855
20.83998086114876 48.9682
20.86261872660049 48.7556
20.885257415405402 48.8645
20.90789692853701 48.7212
20.930714147864748 48.3556
20.953355319030678 48.5049
20.97599731745334 48.6584
20.99864014410749 48.6443
21.021460706796564 48.6284
21.044105199328826 48.9595
21.06675052302631 49.042
21.089396678865015 49.1502
21.112220600704806 49.3012
21.134868430275347 49.6813
21.15751709492456 50.0175
21.180166595629693 50.2684
21.202993892429635 50.7038
21.22564507473034 51.138999999999996
21.24829709602816 51.4579
21.27112693608965 51.5425
21.293780644891275 51.3207
21.316435195634053 50.574
21.339090589297417 49.7722
21.361923832041875 49.5871
21.384580921090404 48.9868
21.407238856007325 48.5627
21.429897637773326 48.4031
21.45273429906592 48.431000000000004
21.475394784108598 48.328
21.498056118951983 48.3247
21.520718304578022 48.5748
21.543558400304388 48.5617
21.566222297108816 48.757
21.58888704765135 48.7917
21.61155265291521 49.0569
21.63439619898156 49.5572
21.657063523335786 49.8154
21.67973170537063 50.1509
21.7024007460706 50.707
21.72524775840385 51.5529
21.747918526116475 52.3931
21.770590155457388 53.4111
21.79326264741238 55.1229
21.816113141960237 56.9191
21.838787368860547 59.0698
21.861462461341976 60.8867
21.884315579735777 62.9323
21.90699241312273 64.3437
21.92967011506078 65.1774
21.95234868653799 64.9501
21.9752053151131 63.3057
21.997885635446785 61.2686
22.020566828293532 59.3018
22.04324889464272 57.6733
22.066109049404666 56.4267
22.088792872571794 56.1454
22.111477572219204 56.181000000000004
22.1341631493376 56.3757
22.157026846313123 56.193000000000005
22.179714188221507 55.4031
22.202402410582668 54.2602
22.22509151438863 52.6514
22.24795876962584 51.2499
22.270649646204486 50.3404
22.293341407213727 49.738
22.316034053646906 49.3343
22.338904883215342 49.0533
22.36159931041458 48.9812
22.38429462602756 49.0783
22.40699083104897 48.8135
22.429865251039757 48.821000000000005
22.452563244831367 48.9929
22.47526213102522 48.8982
22.49813925616515 48.7705
22.520839937143307 48.6683
22.543541513520587 48.7384
22.56624398629403 48.3292
22.589124730075895 48.4458
22.611829005656723 48.6344
22.63453418063466 48.5812
22.657240256008077 48.7311
22.680124634582935 48.8501
22.70283252079775 49.1404
22.725541310413075 49.4426
22.74825100442868 49.494
22.771139033969575 50.162
22.79385054687155 50.4118
22.81656296718292 51.0448
22.83927629590484 51.8951
22.862167992606945 52.8353
22.88488314827121 54.0757
22.907599215359284 55.1779
22.93031619487366 56.4353
22.953211574954405 57.4968
22.975930389478226 58.2943
22.998650119445763 58.3538
23.02137076586092 57.5995
23.044269845560063 56.2232
23.06699233506288 54.5474
23.089715744034912 52.7813
23.112617610931565 51.15
23.135342869061212 49.8343
23.158069049684816 49.126000000000005
23.1807961538087 48.7828
23.20370174880544 48.6838
23.226430710184808 48.8308
23.249160598093425 48.7756
23.271891413539002 48.745
23.294800752937697 48.7663
23.31753343374794 48.8813
23.340267045128353 48.9678
23.36300158808808 49.353
23.38591468821339 49.6666
23.408651104658304 50.2275
23.431388455719986 50.6873
23.454126742409 51.3991
23.4770436196085 52.4842
23.499783787914662 53.8913
23.522524894889884 54.9227
23.54526694154616 56.0456
23.56818761219047 57.4017
23.59093154860734 58.0744
23.613676427751283 58.2522
23.636422250635754 57.3585
23.659346731118656 55.6713
23.68209445191868 53.6735
23.704843119509587 51.5378
23.72759273490623 49.5115
23.750521041644767 47.9964
23.77327256312355 47.126000000000005
23.796025035462787 46.5664
23.818956224555475 46.0566
23.841710609113413 46.0165
23.86446594758979 45.7908
23.887222241002014 45.4819
23.910157285144578 45.2022
23.932915498962537 45.2734
23.955674670778713 45.0736
23.978434801611975 44.9101
24.001373717286125 44.8958
24.024135776723917 44.615
24.046898798245582 44.5107
24.06966278287146 44.4574
24.092605586582614 44.2326
24.115371508023642 44.1081
24.1381383956401 44.0271
24.16090625045381 44.0135
24.183852958731244 43.9481
24.206622758582608 43.8214
24.229393528706886 43.5996
24.252165270127392 43.7166
24.27511589952438 43.6154
24.297889594216997 43.57
24.32066426328598 43.3568
24.34343990775613 43.4135
24.36639447485003 43.1953
24.38917208083877 43.083
24.41195066531332 43.0139
24.43490819850244 43.1156
24.457688750692377 42.8567
24.48047028445616 42.8979
24.503252800821233 42.9333
24.526214300784112 43.0596
24.548998793132213 42.8885
24.57178427117417 42.9238
24.59457073593893 42.9396
24.617536219319863 42.9292
24.64032466834748 42.9049
24.663114107195035 42.6781
24.685904536893013 42.3771
24.708874020360852 42.4649
24.731666442613744 42.4915
24.754459858818787 42.3961
24.777254270007962 42.3123
24.80022777025625 42.2178
24.82302418230472 42.2467
24.845821592443674 42.2527
24.86862000170663 42.1451
24.891597535453727 42.1499
24.914397953892728 42.266999999999996
24.93719937456671 42.1586
24.96000179851076 42.2321
24.98298338249997 42.4973
25.00578782394922 42.5587
25.028593271784167 42.7041
25.05157790644186 43.056999999999995
25.07438537804115 43.3023
25.097193859145293 43.4684
25.120003350792075 43.7531
25.142992065061257 44.1921
25.165803588823465 44.3683
25.18861612625217 44.6871
25.211429678386736 44.7426
25.234422489079968 44.7782
25.257238081693636 44.7471
25.280054692141732 44.8924
25.3028723214652 44.9416
25.325869245420463 45.1577
25.348688923599397 45.1764
25.371509623787006 44.958
25.394331347025812 44.6057
25.41733240110666 44.1382
25.440156181590016 43.5236
25.46298098826268 42.961999999999996
25.48580682216873 42.4136
25.50881202326435 41.9379
25.53163992281684 41.438
25.55446885274561 41.2079
25.577298814096377 40.9854
25.600308179121807 40.9133
25.623140214533745 40.9081
25.64597328451537 40.6811
25.66898578564376 40.4542
25.691820936010206 40.61
25.714657124097695 40.5235
25.737494350954734 40.5367
25.760511045684957 40.3847
25.783350361364224 40.5285
25.806190718969255 40.5318
25.82903211955018 40.5778
25.852053024868923 40.786
25.874896522722523 40.6861
25.897741066713106 40.5848
25.920586657892454 40.5827
25.943611790812668 40.787
25.966459487728237 40.9667
25.989308234998564 40.9718
26.01215803367705 41.3704
26.03518741123814 41.6218
26.05803932412957 41.68
26.080892291600094 41.7045
26.10374631470478 41.6567
26.12677995397268 41.8606
26.14963609978026 41.6899
26.172493304397875 41.3512
26.19535156888223 41.2358
26.218389486949604 40.7129
26.241249882640123 40.5875
26.26411134137826 40.3946
26.28715248187403 40.2228
26.31001607820869 40.0643
26.3328807407756 39.9243
26.35574647063438 40.0508
26.37879191991473 40.1352
26.401659795896734 40.08
26.424528742360263 40.1684
26.447398760366614 40.2602
26.470448535598294 40.5209
26.49332070826805 40.8635
26.516193955675355 41.1545
26.53906827888316 41.1986
26.562122397260108 41.4992
26.584998883685063 41.7739
26.607876449110325 41.9138
26.63075509460056 42.2289
26.65381357334404 42.4006
26.67669439061878 42.2379
26.699576291163382 42.1606
26.722459276044212 41.9836
26.745522132402975 41.6707
26.768407297649354 41.3239
26.791293550442003 41.0304
26.814180891848974 40.9233
26.837248143099337 40.7168
26.860137673466657 40.473
26.88302829566349 40.2528
26.90592001075963 40.0574
26.92899167420566 39.8542
26.951885586870763 39.3993
26.974780595655517 39.2747
26.99785558178161 39.1784
27.020752794605112 39.0828
27.043651106772522 38.8438
27.06655051935668 38.7092
27.089629948036183 38.6309
27.112531573292053 38.5723
27.135434302194138 38.7366
27.158338135817015 38.6073
27.181422024430987 38.5265
27.204328079372566 38.3428
27.22723524226965 38.6254
27.250143514198573 38.5956
27.273231880156334 38.5491
27.296142382065014 38.3299
27.319053996245536 38.2967
27.341966723775965 38.3799
27.365059584515222 38.4336
27.38797455070062 38.4994
27.410890633481237 38.4608
27.433807833936918 38.4121
27.456905206923906 38.4485
27.47982465472398 38.4138
27.502745223449743 38.4842
27.525666914182825 38.6133
27.548768816912457 38.556999999999995
27.571692763693633 38.4432
27.59461783573812 38.2901
27.617723149491244 38.1063
27.640650484125285 38.0729
27.66357894728264 38.0909
27.686508540048052 38.2356
27.709618414237887 38.080999999999996
27.732550278321757 37.8142
27.755483275279115 37.8469
27.778417406196485 37.9597
27.801531858397514 37.9154
27.824468269376716 37.7763
27.847405817586786 37.8328
27.870344504116094 38.016999999999996
27.893463551932008 38.0642
27.916404527281053 38.3391
27.93934664422563 38.4459
27.962289903855886 38.4669
27.98541356491974 38.645
28.00835912214229 38.8131
28.03130582533231 39.0544
28.054253675581805 39.2629
28.077381967556104 39.1921
28.100332124185126 39.1038
28.123283431160893 38.9494
28.146235889577238 38.8095
28.169368830154156 38.6813
28.192323603752033 38.5018
28.215279532083304 38.1656
28.238415973016764 37.9603
28.261374223145094 37.8906
28.284333631303806 37.6996
28.307294198589954 37.4684
28.330435319167677 37.1355
28.353398217078915 36.933
28.376362277420153 36.6311
28.39932750129032 36.576
28.422473319286713 36.4342
28.44544088262495 36.4305
28.468409612800283 36.2273
28.491379510913497 36.0827
28.51453004413313 35.9395
28.53750229057244 35.9755
28.56047570826344 35.8289
28.583450298308804 35.9136
28.606605564586562 35.6116
28.629582511831156 35.8252
28.65256063474956 35.5394
28.675539934446338 35.6891
28.698699951647605 35.6396
28.72168161743193 35.4628
28.74466446331978 35.4628
28.767648490417624 35.4212
28.790813276438353 35.4236
28.813799678527303 35.4325
28.836787265157085 35.4358
28.859955641890075 35.4855
28.882945610203045 35.4947
28.905936766392035 35.3906
28.928929111566863 35.3511
28.952102288520145 35.3664
28.975097024308607 35.1657
28.998092952423807 35.0414
29.021090073977508 34.9384
29.04426806913204 34.8034
29.067267590245258 34.6114
29.090268308143695 34.5975
29.11327022394099 34.5677
29.13645305530891 34.5044
29.159457379627167 34.4354
29.18246290519685 34.3843
29.20546963313352 34.3109
29.22865731875826 34.3235
29.25166646419296 34.266
29.27467681535305 34.2291
29.29768837335608 34.2901
29.320880931312562 34.3043
29.34389491580634 34.2709
29.366910110507334 34.2068
29.38992651653503 34.2084
29.41312396492981 34.2128
29.436142806456754 34.1377
29.45916286268059 34.0108
29.48236399319994 34.0338
29.50538649169417 33.8281
29.528410208259935 33.7414
29.55143514402014 33.4813
29.574641196749695 33.4482
29.597668583816574 33.3061
29.6206971934585 33.2863
29.64372702680042 33.1282
29.666938019934474 33.0815
29.689970313635285 33.0622
29.713003834422636 33.0337
29.73603858342347 33.0257
29.759254535188578 32.7928
29.78229175361658 32.7712
29.80533020365064 32.95
29.82836988641968 32.9302
29.85159081507472 32.8183
29.874632976355343 32.8267
29.89767637376955 32.8359
29.920721008448314 32.6434
29.9439469322847 32.6529
29.96699405457564 32.5949
29.9900424175358 32.7063
30.013092022298157 32.5774
30.03632295963995 32.5169
30.059375061131373 32.4926
30.08242840783577 32.4045
30.105483000888153 32.5463
30.128718970092244 32.4371
30.151776069006917 32.4914
30.17483441768648 32.4529
30.198074175317235 32.4451
30.221135036724256 32.4644
30.24419715131772 32.3517
30.267260520236203 32.3226
30.290505341942243 32.3439
30.313571232750228 32.4176
30.336638381310948 32.3721
30.35970678876503 32.3075
30.38295669299435 32.2369
30.40602763151657 32.2838
30.429099832366074 32.2831
30.452173296685572 32.0964
30.47542830191959 32.1269
30.498504306502497 32.0767
30.521581577995562 32.2139
30.544660117543582 32.1768
30.56792024229725 32.2408
30.59100133132069 32.1005
30.614083691845494 32.1442
30.637167325018545 32.1762
30.660432587840603 32.1714
30.683518779717886 32.1763
30.70660624769615 32.2853
30.729694992924372 32.2411
30.75296541239743 32.1367
30.77605672557558 32.1947
30.799149319462742 32.1174
30.8224236211637 31.9753
30.845518789950724 31.8356
30.868615242910597 31.8585
30.891712981195973 31.7418
30.91499247215866 31.6984
30.938092794619365 31.5599
30.96119440587579 31.5077
30.984297307082752 31.4191
31.00758200598383 31.3017
31.030687500658694 31.2569
31.053794288760695 31.2384
31.076902371446767 31.0181
31.100192296997445 31.2461
31.12330298246119 31.1221
31.14641496599209 30.9687
31.169528248749216 31.006
31.19282341969534 30.8978
31.215939314557186 30.9456
31.239056512134788 30.9392
31.262175013589378 30.9293
31.28547544871168 30.8807
31.30859657161541 30.7666
31.331719001892175 30.8244
31.35484274070538 31.0828
31.378148458819545 30.9399
31.401274828443725 30.805
31.424402510106933 30.8879
31.447712205419993 31.0233
31.470842524931633 30.9329
31.493974159989783 30.8922
31.51710711176168 30.8307
31.54042212308802 30.7953
31.563557722100917 30.7667
31.586694641341655 30.6044
31.609832881979628 30.5165
31.63315322823208 30.4628
31.656294125521327 30.3614
31.679436347728515 30.2982
31.70257989602529 30.1677
31.725905596152327 30.2472
31.74905181052835 30.1679
31.772199354521323 30.2313
31.79534822930507 30.233
31.818679302290967 30.1944
31.84183085259981 30.1993
31.864983737233473 30.2196
31.88813795736804 30.2767
31.911474422233013 30.0219
31.934631327356435 30.1598
31.9577895715215 30.0932
31.980949155906522 30.136
32.004291031706956 30.1262
32.027453310562606 29.9874
32.05061693318573 29.8449
32.07396288236386 29.8956
32.09712920658542 29.7403
32.12029687812702 29.5931
32.14346589817093 29.554000000000002
32.166817291729984 29.4827
32.18998902288583 29.568
32.21316210610336 29.4
32.23633654256711 29.2628
32.259693399663725 29.3373
32.282870556771144 29.205
32.30604907069099 29.2501
32.329228942610065 29.0653
32.35259128243769 28.9796
32.375773884550505 29.0235
32.398957848235646 28.9158
32.422143174682176 28.8229
32.445511016471215 28.8196
32.468699082679954 28.8018
32.49188851523011 28.7968
32.51507931531304 28.7076
32.538452678331 28.6291
32.56164622776311 28.5915
32.58484114831493 28.5499
32.60803744118015 28.5246
32.631416344731896 28.4388
32.654615396551876 28.449
32.67781582427913 28.4536
32.701198898634416 28.3121
32.72440209253756 28.3048
32.747606665947124 28.1606
32.77081262006088 28.1303
32.79420126883317 28.2225
32.81740999876112 28.2153
32.840620112999424 28.0605
32.86383161274818 28.0781
32.88722585534586 28.0624
32.91044014056596 28.0417
32.933655814909734 27.9912
32.95687287957963 28.0404
32.98027273544904 27.9131
33.00349259526636 27.9346
33.026713849030116 27.9519
33.04993649794511 27.9163
33.073341986570746 27.7793
33.09656744032826 27.8832
33.11979429286444 27.7558
33.14302254538647 27.8174
33.166433686291185 27.741999999999997
33.18966475336992 27.7864
33.212897224069096 27.6089
33.23613109959831 27.655
33.259547912343415 27.6116
33.2827846121627 27.6482
33.306022720453775 27.5098
33.32926223842861 27.3986
33.352684742614166 27.3748
33.37592709463173 27.4873
33.399170859982064 27.425
33.422597648419426 27.2967
33.44584425514446 27.2149
33.46909227885668 27.148000000000003
33.4923417207723 26.9953
33.51577423505344 27.0474
33.539026528130385 26.9095
33.56228024307245 26.874000000000002
33.585535381098246 26.7389
33.60897364093058 26.7693
33.63223163992385 26.7915
33.6554910656699 26.6767
33.678751919389796 26.6371
33.702195944520106 26.5189
33.72545966903325 26.5662
33.74872482519663 26.5497
33.771991414233746 26.5676
33.79544122444841 26.5346
33.81871069412428 26.3663
33.84198160035767 26.4426
33.86525394437455 26.4656
33.88870955949969 26.3311
33.911984794020626 26.3364
33.93526147001624 26.3
33.958539588715006 26.2157
33.98200102861669 26.1612
34.0052820477047 26.1317
34.02856451319451 26.1614
34.05203033759056 26.0502
34.07531571090147 26.0272
34.09860253431845 25.9628
34.121890809074316 25.9162
34.145362493118924 25.8861
34.16865368561615 25.8329
34.191946333164054 25.8536
34.21524043699793 25.8337
34.23871800066799 25.7767
34.26201503218366 25.6602
34.28531352370466 25.627
34.30861347646881 25.5636
34.33209693978188 25.5069
34.3553998301885 25.5082
34.378704185565205 25.435
34.402010007152356 25.3597
34.42549939016683 25.4457
34.44880815937748 25.2919
34.472118398533134 25.2985
34.49543010887669 25.28
34.51892543169198 25.0903
34.54224009966052 25.1313
34.56555624255917 25.1183
34.58887386163339 25.1063
34.61237514439016 25.0659
34.6356957311114 25.0274
34.65901779775809 25.0143
34.68252356662995 24.9287
34.705848608458616 24.9138
34.72917513396849 24.8505
34.75250314440949 24.8728
34.77601490857862 24.7271
34.799345904259795 24.7127
34.82267838863559 24.7234
34.846012362958525 24.7443
34.869530142679984 24.6413
34.89286711232212 24.6889
34.91620557568269 24.6096
34.93954553401677 24.5872
34.9630693495876 24.4908
34.986412313340814 24.561
35.00975677584668 24.5023
35.033102738362956 24.4873
35.05663261012228 24.3488
35.0799815881786 24.2988
35.10333207003229 24.3323
35.12668405694369 24.2705
35.150220005273056 24.307
35.17357501786656 24.2287
35.19693153931268 24.2055
35.220289570874385 24.1142
35.24383161619786 24.1969
35.267192683604904 24.218000000000004
35.290555264930376 24.2415
35.314101899412165 24.2333
35.33746752422433 24.1387
35.36083466676374 24.0751
35.38420332829803 24.0559
35.407756095629054 24.0793
35.43112781085063 24.0164
35.45450104888391 23.9498
35.477875810999194 24.025
35.50143473172161 23.8836
35.52481255774625 23.9101
35.54819191167777 23.8929
35.57157279478914 23.8728
35.595137889488406 23.8234
35.61852184675279 23.6748
35.641907337029984 23.6489
35.665294361595684 23.6526
35.68886565090076 23.5943
35.7122557598848 23.6028
35.73564740699838 23.5388
35.759040593519934 23.5179
35.78261809810353 23.4727
35.80601437933051 23.3584
35.829412203814705 23.3351
35.85281157283719 23.2415
35.876395313415884 23.2402
35.8997977874528 23.2447
35.92320180988546 23.226
35.946790244133936 23.1851
35.97019737933222 23.1536
35.993606066789866 23.1357
36.01701630779276 23.1422
36.04061101440684 23.0323
36.06402437852291 23.073
36.08743930005611 22.9326
36.1108557802951 22.9123
36.13445678011326 22.9093
36.15787639383515 22.8912
36.18129757014299 22.8312
36.20472031032821 22.8274
36.22832762423364 22.686
36.25175350829375 22.729
36.275180960119776 22.5915
36.298609981005924 22.6967
36.32222362992669 22.6031
36.34565580510207 22.5701
36.36908955323448 22.5332
36.39252487562093 22.4265
36.416144880530226 22.4811
36.43958336764275 22.4194
36.463023432914625 22.4795
36.486465077645676 22.3632
36.51009145956204 22.4766
36.53353627947859 22.3593
36.55698268276811 22.3407
36.58043067073321 22.3096
36.60406345072071 22.263
36.62751462435344 22.2301
36.65096738658405 22.2016
36.67460498210655 22.1396
36.69806093788647 22.1365
36.72151848619297 22.0792
36.744977628333636 22.1076
36.76862165890998 21.9943
36.79208400512205 21.9744
36.81554794910557 21.9512
36.83901349217101 21.8716
36.862663978991606 21.8137
36.88613273667352 21.889
36.90960309738324 21.7872
36.933075062434064 21.7138
36.95673202673572 21.773000000000003
36.98020721697122 21.7021
37.003684015502365 21.64
37.027162423645365 21.5981
37.050825886711465 21.697
37.07430753063053 21.5143
37.09779078812467 21.4891
37.121275660513014 21.5169
37.144945643673694 21.4725
37.16843376245278 21.506999999999998
37.19192350009803 21.3431
37.215414857931435 21.3119
37.239091382563885 21.2031
37.262585997426164 21.2945
37.28608223645736 21.3223
37.309763684451696 21.215
37.33326318851098 21.1657
37.356764320726555 21.1819
37.380267082425526 21.0888
37.40395510942588 21.1121
37.42746114683234 21.0689
37.45096881771841 21.0237
37.474478123414166 20.9224
37.49817275092816 20.959
37.52168534303452 20.9539
37.54519957395567 20.8303
37.568715445024665 20.7876
37.592416694607714 20.826999999999998
37.61593586281424 20.8332
37.63945667518264 20.8813
37.66297913304891 20.7853
37.68668702630454 20.7527
37.710212792059274 20.6919
37.733740207334854 20.6543
37.757269273470364 20.6002
37.780983832050374 20.5652
37.80451621684926 20.555
37.82805025654007 20.5262
37.851585952464795 20.4571
37.8753071980695 20.4039
37.89884622345676 20.3447
37.92238690911902 20.3682
37.94611318753442 20.3233
37.969657210779765 20.3411
37.99320289834801 20.2605
38.016750251586465 20.2471
38.04048325513017 20.1386
38.06403395679343 20.1725
38.087586328183946 20.0955
38.11114037065203 20.1125
38.13488012115898 20.0778
38.1584375229181 20.0214
38.181996599821 19.9773
38.205557353221124 19.9715
38.229303872575656 19.9844
38.2528679961576 19.9622
38.27643380031219 19.9014
38.30000128639589 19.8175
38.32375459653193 19.7694
38.34732546371299 19.8254
38.37089801690786 19.7767
38.39447225747609 19.7178
38.418232380377425 19.641
38.441810012983396 19.6483
38.46538933705673 19.6704
38.488970353960084 19.5642
38.51273731166058 19.5884
38.536321731567014 19.5514
38.55990784840681 19.5099
38.58367995004091 19.5172
38.60726947812959 19.3609
38.63086070726198 19.437
38.654453638806274 19.3531
38.678232613930824 19.3155
38.70182896773327 19.2504
38.72542702806741 19.2942
38.7490267963045 19.2683
38.77281266709232 19.2326
38.79641586862214 19.1964
38.8200207821842 19.1436
38.843627409152944 19.1836
38.86742019782782 19.0716
38.891030269149255 19.0546
38.914642058016156 19.0058
38.938255565806124 18.9696
38.96205529464307 19.004
38.98567225787121 19.007
39.00929094417078 18.9783
39.03291135492255 18.9588
39.05671804624804 18.9148
39.080341923549106 18.8701
39.103967529460334 18.8631
39.127594865365744 18.6802
39.15140854155791 18.7112
39.17503935514948 18.7145
39.19867190290282 18.6995
39.22249083587951 18.6592
39.24612686969409 18.6715
39.269764641845306 18.6333
39.293404153722804 18.5915
39.317230110864074 18.5558
39.34087311998506 18.4981
39.36451787301696 18.4345
39.388164371352595 18.4153
39.41199737518003 18.4016
39.43564738196752 18.3892
39.45929913825317 18.3416
39.48295264543308 18.2839
39.506792718520884 18.2511
39.530449745387216 18.247
39.55410852735203 18.1672
39.57776906581474 18.2564
39.60161623079 18.2326
39.625280300200025 18.1382
39.64894613032202 18.079
39.67261372255866 18.07
39.6964680021016 18.0811
39.72013913657293 18.0445
39.74381203738292 18.0619
39.76748670593756 17.9721
39.79134812278169 17.9961
39.81502634488497 17.9751
39.83870633896685 17.9023
39.862388106436654 17.8693
39.88625668336918 17.8676
39.90994201572829 17.8488
39.933629125719285 17.8196
39.957503091207826 17.7442
39.9811937746168 17.7743
40.00488623990914 17.7721
40.02858048850006 17.6658
40.05246165409549 17.5572
40.076159487492085 17.5985
40.099859108448875 17.5879
40.123560518384345 17.5199
40.1474489070226 17.5244
40.171153913178564 17.4776
40.194860712584955 17.4697
40.2185693066637 17.4867
40.242464941335314 17.4571
40.26617714307655 17.4031
40.289891143772046 17.3602
40.3136069448471 17.3182
40.33750984859743 17.3118
40.3612292688043 17.2844
40.3849504936829 17.2543
40.40867352466194 17.2476
40.43258372059144 17.2199
40.45631038219906 17.2063
40.48003885420956 17.2094
40.503769138055105 17.1537
40.52768664931955 17.1325
40.55142057531802 17.1439
40.57515631746428 17.0942
40.599079334038514 17.0261
40.62281872700477 16.9613
40.64655994043941 16.9807
40.67030297578061 16.9322
40.69423334835778 16.9442
40.71798004609188 16.8439
40.74172857006355 16.8502
40.76547892171441 16.8748
40.7894166736039 16.8166
40.813170699248566 16.7988
40.83692655691388 16.7625
40.86068424804498 16.7492
40.884629402612525 16.7479
40.908390779366385 16.7779
40.932153993938 16.6635
40.95591904777605 16.643
40.979871628443995 16.5912
41.003640379561936 16.6147
41.02741097430883 16.5556
41.05118341413683 16.5067
41.075143444384416 16.5313
41.098919593177826 16.4846
41.1226975914255 16.4596
41.14647744058318 16.4099
41.170444943946755 16.3763
41.19422851378379 16.3748
41.218013938914645 16.3233
41.24198706625173 16.2739
41.26577622087193 16.2111
41.289567235177785 16.2576
41.31336011063129 16.2363
41.337340752422875 16.1514
41.361137369129835 16.1302
41.38493585138705 16.0952
41.40873620066004 16.0931
41.43272438060107 16.0616
41.45652848292052 15.9954
41.48033445666918 15.9912
41.50414230331616 16.0217
41.528138045159764 16.0157
41.551949656675205 15.9089
41.575763145513235 15.9504
41.59957851314666 15.9201
41.62358184070442 15.8791
41.64740098505737 15.8282
41.6712220126409 15.7701
41.69504492493139 15.7658
41.71905586207357 15.7584
41.74288256296395 15.6747
41.766711153007456 15.6856
41.79054163368412 15.6703
41.814560204340054 15.6489
41.838394485526365 15.6776
41.86223066180303 15.6289
41.88625497706819 15.5385
41.910094962812 15.5286
41.93393684811168 15.498
41.95778063445365 15.4007
41.981812625263366 15.4475
42.00566023303407 15.4464
42.029509746323676 15.3713
42.05336116662236 15.3356
42.077400857069705 15.3523
42.10125611078846 15.4133
42.12511327600405 15.3427
42.14897235421036 15.2993
42.173019768448455 15.3007
42.19688269209613 15.2618
42.22074753323349 15.2017
42.24461429335818 15.1341
42.268669455600495 15.1907
42.292540073217886 15.1113
42.31641261433284 15.0835
42.34028708044675 15.1042
42.36435001496739 15.1072
42.38822835065557 15.095
42.41210861586426 15.0328
42.4359908120986 14.9984
42.46006154323262 14.9533
42.48394762115317 14.8855
42.507835634632315 14.9447
42.531912233047436 14.878
42.55580413732265 14.8566
42.579697981698 14.8087
42.60359376768525 14.7886
42.62767820545945 14.7538
42.65157789440821 14.7176
42.67547952952185 14.7446
42.699383112316 14.7138
42.72347541395347 14.729000000000001
42.74738291190531 14.6332
42.771292362102166 14.6291
42.795203766063516 14.6198
42.819303956130405 14.5858
42.843219287476536 14.5192
42.86713657716324 14.5339
42.89105582671383 14.5301
42.91516392983864 14.5055
42.939087119032166 14.4457
42.963012272677304 14.4256
42.98693939230129 14.4109
43.01105543317513 14.3695
43.034986504731386 14.3605
43.05891954686589 14.280999999999999
43.08285456110972 14.3059
43.10697856448665 14.3253
43.130917542983475 14.2535
43.15485849820081 14.2967
43.17880143167367 14.1902
43.20293342237094 14.1908
43.226880332449 14.1168
43.25082922540554 14.1457
43.27496722682525 14.0982
43.29892010567796 14.0942
43.32287497204102 14.0588
43.34683182745632 14.0716
43.370977859791836 14.0108
43.39493871351105 14.0263
43.41890156092628 14.0056
43.44286640358341 13.9386
43.46702049182749 13.9056
43.49098934522816 13.8727
43.51496019852649 13.8636
43.5389330532723 13.8113
43.56309522248204 13.7838
43.58707210044314 13.8163
43.61105098451946 13.7902
43.63503187626491 13.745
43.659202151562134 13.7008
43.68318707902681 13.7078
43.70717401884041 13.6748
43.731162972560874 13.66
43.75534137913236 13.6761
43.779334381108384 13.6457
43.803329401683186 13.5575
43.82732644241872 13.5608
43.8515130055166 13.5494
43.87551410707659 13.4797
43.89951723350145 13.4932
43.923709934595614 13.4798
43.94771713129917 13.4726
43.97172635758096 13.4335
43.99573761501002 13.4171
44.0199385169922 13.38
44.04395385732619 13.3425
44.067971233533086 13.3376
44.09199064718605 13.3009
44.11619977548961 13.288
44.14022328470671 13.2692
44.16424883610785 13.3068
44.18827643127035 13.2229
44.21249381139513 13.2355
44.236525514814076 13.1576
44.26055926674478 13.1487
44.28459506876863 13.136
44.3088207262813 13.1389
44.33286064928722 13.1403
44.35690262714919 13.0617
44.38094666145278 13.038
44.4051806219871 13.0332
44.42922879003185 12.9998
44.45327901929361 12.9761
44.477331311362136 12.9777
44.501573600619416 12.8617
44.525630039221795 12.8589
44.54968854541895 12.8889
44.573937102200176 12.88
44.5979997645541 12.908
44.622064499300315 12.8807
44.64613130803592 12.7998
44.67038823869318 12.7586
44.69445921643748 12.7684
44.718532272981385 12.7229
44.742607409926194 12.7237
44.76687274034801 12.6625
44.79095205918753 12.6213
44.81503346325094 12.6826
44.839116954143876 12.6408
44.86339071028742 12.5737
44.88747839599524 12.5194
44.91156817336837 12.5145
44.93566004401666 12.4988
44.959942251908146 12.4832
44.984038330325966 12.4658
45.00813650686762 12.4484
45.03223678314731 12.4019
45.05652746888232 12.3874
45.08063196592069 12.4407
45.104738567558705 12.3772
45.128847275414856 12.3724
45.15314646515866 12.3138
45.17725940679741 12.2859
45.20137445952892 12.276
45.22568004865265 12.2563
45.24979934496396 12.2666
45.27392075725247 12.1852
45.29804428714431 12.2052
45.322358426247604 12.1765
45.346486212804315 12.181
45.370616121861914 12.1551
45.39474815505086 12.1119
45.41907087049246 12.0797
45.4432071734666 12.1048
45.46734560548283 12.0903
45.49148616817604 12.0415
45.51581748638564 12.0083
45.5399623320197 11.9844
45.56410931325473 11.9659
45.58825843173002 11.9752
45.61259837920865 11.9004
45.636751793816 11.9178
45.66090735060093 11.8656
45.68506505120716 11.8485
45.7094136545275 11.8307
45.73357566449271 11.8019
45.75773982322992 11.806
45.78190613238733 11.7748
45.806263418194064 11.7282
45.83043404997326 11.6946
45.85460683713677 11.7063
45.87897065658495 11.6665
45.90314777634752 11.6496
45.92732705646868 11.6372
45.9515084986045 11.6645
45.97588104735473 11.6159
46.00006683541565 11.6124
46.02425479047904 11.5835
46.04844491420549 11.5436
46.0728262191024 11.5365
46.09702070211635 11.5269
46.12121735879483 11.5107
46.14541619080294 11.5224
46.169806278764455 11.5164
46.194009483459034 11.4539
46.21821486849841 11.4381
46.24242243555223 11.3885
46.266821333570014 11.3778
46.29103328674601 11.3471
46.31524742696538 11.3435
46.33946375590237 11.3006
46.36387149104216 11.2605
46.38809221957392 11.2582
46.41231514186606 11.2602
46.436540259597464 11.2473
46.460956858999374 11.2086
46.48518638983522 11.1892
46.509418121166966 11.1795
46.533652054678114 11.1347
46.55807754555709 11.1038
46.58231590571962 11.1017
46.60655647313217 11.052
46.630988654873654 11.0586
46.655233659129024 11.0154
46.67948087571551 11.0513
46.70373030632484 11.0004
46.72817142736393 11.014000000000001
46.752425308428684 10.9915
46.77668140861147 10.9545
46.80093972960865 10.9164
46.82538981736788 10.8496
46.849652602470904 10.8434
46.87391761349769 10.8617
46.8981848521493 10.8455
46.9226439341274 10.8221
46.946915650573224 10.7884
46.97118959976749 10.7841
46.99546578341598 10.7212
47.019933887188216 10.7409
47.04421456235744 10.7043
47.06849747711879 10.6873
47.09278263318286 10.6924
47.11725978640143 10.6345
47.14154944775105 10.6098
47.165841355555656 10.6145
47.1901355115306 10.6279
47.214621741924994 10.5652
47.23892041698887 10.575
47.26322134538975 10.5356
47.28771440635075 10.5201
47.31201986422527 10.4848
47.33632758061436 10.4541
47.360637557241866 10.4471
47.38513974410611 10.4225
47.40945426407847 10.4067
47.43377104948137 10.3608
47.45809010204344 10.3577
47.48260144275502 10.3737
47.506925052572285 10.3214
47.53125093475548 10.2863
47.55557909103813 10.2963
47.58009961361992 10.28
47.60443234110732 10.2927
47.62876734791564 10.2466
47.65310463578333 10.1931
47.6776343683373 10.2035
47.7019762413987 10.165
47.72632040075572 10.147
47.75066684815169 10.1481
47.77520581885936 10.1246
47.799556865477655 10.0805
47.823910205386 10.0858
47.84826584033272 10.097999999999999
47.87281407745551 10.027000000000001
47.89717432569297 10.0617
47.92153687423484 10.0135
47.94609208429692 10.0033
47.97045925671401 9.996360000000001
47.99482873471275 9.977310000000001
48.01920052005013 9.91618
48.04376504619224 9.95191
48.068141469543484 9.93205
48.09252020552573 9.93677
48.11690125590099 9.89344
48.1414751266064 9.82548
48.16586082917454 9.83515
48.19024885144316 9.801169999999999
48.2146391951793 9.85914
48.239222439012764 9.81431
48.26361744916137 9.788860000000001
48.28801478610016 9.763860000000001
48.31241445160131 9.723339999999999
48.337007097209366 9.73485
48.36141144338331 9.71689
48.38581812345755 9.67977
48.41022713920929 9.66841
48.434829215320704 9.64195
48.45924292604658 9.63685
48.48365897780325 9.63555
48.50807737237308 9.56686
48.532688907799276 9.594710000000001
48.55711201168574 9.56542
48.581537463754074 9.53975
48.60615611725119 9.5389
48.63058628942721 9.51591
48.65501881516546 9.50597
48.6794536962573 9.488339999999999
48.70408185970339 9.48068
48.72852147531801 9.432269999999999
48.75296345168211 9.41469
48.77740779059232 9.41332
48.80204549302823 9.439010000000001
48.82649458091802 9.39803
48.85094603676547 9.34394
48.87539986237231 9.32756
48.90004713292306 9.31305
48.92450572200832 9.31143
48.94896668628025 9.27548
48.97343002754588 9.25393
48.99808689542115 9.24505
49.02255501470614 9.257480000000001
49.04702551642794 9.235510000000001
49.0714984023988 9.18891
49.096164896893235 9.17881
49.120642575466796 9.16182
49.145122643748394 9.171339999999999
49.16960510355558 9.14032
49.19428125404938 9.10933
49.2187685210852 9.12428
49.243258185121555 9.09014
49.26794160167084 9.08721
49.2924360839405 9.05482
49.31693296869764 9.02491
49.34143225776915 8.99286
49.36612538195438 8.97758
49.39062950396021 8.94505
49.41513603578346 8.964739999999999
49.4396449792564 8.92752
49.46434784069503 8.95064
49.488861631846454 8.882060000000001
49.513377840166804 8.88911
49.537896467493745 8.8521
49.56260909589029 8.81531
49.587132585683285 8.84649
49.611658500018365 8.82395
49.636186840738596 8.76517
49.66090926588511 8.76576
49.685442483902584 8.75884
49.70997813385706 8.73968
49.734516217597076 8.70526
49.75924846937352 8.69512
49.7837914452858 8.659089999999999
49.80833686055187 8.64188
49.83288471702571 8.65217
49.85762682540054 8.64782
49.882179588965734 8.60372
49.9067347993235 8.59262
49.93129245833333 8.57352
49.95604445336378 8.61393
49.98060703442832 8.55008
50.005172069746266 8.52929
50.02993150438364 8.54171
50.05450147301533 8.5275
50.07907390151433 8.50637
50.10364879174981 8.49055
50.12841816587289 8.452580000000001
50.1529980044635 8.433019999999999
50.17758031042124 8.432039999999999
50.20216508562089 8.42579
50.22694442953363 8.39765
50.25153416817468 8.36486
50.27612638170508 8.37401
50.300721072005196 8.34995
50.325510416102105 8.34037
50.350110084975064 8.3251
50.37471223628208 8.30114
50.39931687190919 8.27183
50.424116246675766 8.26569
50.44872587605249 8.27098
50.47333799543065 8.2511
50.49795260670191 8.23303
50.52276204271512 8.21306
50.54738166295838 8.19469
50.57200378079314 8.21585
50.596628398116835 8.141210000000001
50.62144792604559 8.1627
50.646077567609396 8.1087
50.670709714377715 8.117560000000001
50.69553683636198 8.09735
50.72017401885922 8.09725
50.7448137122895 8.07872
50.76945591856022 8.031930000000001
50.79429318636823 8.007480000000001
50.818940443716784 8.01328
50.84359021965163 8.00119
50.868242516085964 8.013580000000001
50.893089960641895 8.01178
50.917747323549435 7.94155
50.94240721271973 7.95487
50.96706963007175 7.922999999999999
50.99192728239342 7.89915
51.01659478166073 7.895160000000001
51.04126481489051 7.87488
51.06593738400761 7.8761399999999995
51.090805275207074 7.825260000000001
51.11548294172845 7.823180000000001
51.14016314993547 7.80727
51.164845901758845 7.81066
51.18972406304274 7.75842
51.21441192780656 7.75643
51.23910234200271 7.7763
51.2637953075678 7.75042
51.288683770237945 7.69525
51.31338186432707 7.67558
51.33808251561888 7.68382
51.362978729967345 7.68174
51.387684521509755 7.678319999999999
51.41239287610203 7.6875
51.437103795691165 7.646610000000001
51.46201036644977 7.6104899999999995
51.486726441956634 7.57609
51.51144508832545 7.5869100000000005
51.536166307509156 7.56412
51.56108326624387 7.53902
51.58580965706056 7.52882
51.61053862657523 7.51007
51.635270176746864 7.44373
51.66019755512065 7.45783
51.68493429268881 7.46427
51.70967361681515 7.4605
51.73441552946465 7.4767399999999995
51.759353359237934 7.416360000000001
51.7841004750961 7.42077
51.80885018539685 7.4133
51.833602492111254 7.38202
51.8585508051424 7.36534
51.883308330926425 7.35445
51.90806845906181 7.34095
51.932831191525715 7.274780000000001
51.95779001977161 7.3002199999999995
51.98255798721516 7.30276
52.00732856494335 7.27331
52.03229530577543 7.21701
52.057071130455945 7.20573
52.081849571391054 7.199889999999999
52.106630630568695 7.19175
52.13160794279417 7.1841800000000005
52.15639426492067 7.192489999999999
52.18118321127822 7.1641
52.205974783860896 7.1547
52.23096269971011 7.14677
52.255759551287994 7.120369999999999
52.280559035098186 7.080360000000001
52.30536115314103 7.040139999999999
52.33035970494467 7.0847
52.35516711807904 7.07931
52.37997717147198 7.060039999999999
52.40478986713005 7.04533
52.42979908731974 7.036460000000001
52.454617094216 6.97312
52.47943774942214 6.968539999999999
52.50426105495102 6.948239999999999
52.529280976059844 6.92846
52.554109609024096 6.90407
52.57894089837482 6.93577
52.60377484613117 6.89303
52.62880550079408 6.925269999999999
52.65364479223379 6.869389999999999
52.67848674816189 6.872319999999999
52.70352547971946 6.85513
52.72837279155837 6.91732
52.753222773982785 6.81883
52.778075429022984 6.83915
52.80312495150885 6.829160000000001
52.827982978797436 6.79218
52.85284368481815 6.783410000000001
52.87770707160767 6.70995
52.90276741793998 6.724060000000001
52.92763619336701 6.7263399999999995
52.952507655698504 6.73327
52.977381806977576 6.71985
53.00245301017842 6.68858
53.02733256653592 6.7130600000000005
53.052214817996074 6.678210000000001
53.077099766608484 6.617660000000001
53.102181859804446 6.67327
53.127072229988265 6.63886
53.15196530349892 6.57773
53.17686108239249 6.594130000000001
53.20195409881522 6.57437
53.22685531582556 6.60589
53.25175924441303 6.54779
53.27666588664027 6.53025
53.30176985962693 6.5309800000000005
53.3266819565689 6.5365
53.35159677336455 6.51262
53.376514312083096 6.5238
53.40162927507703 6.47996
53.42655228516116 6.46339
53.45147802340193 6.40757
53.47660125628886 6.39849
53.50153247842639 6.399290000000001
53.52646643496923 6.3949
53.55140312799818 6.4033
53.576537409691696 6.37887
53.60147960336152 6.34785
53.626424539786164 6.33104
53.65137222105307 6.32935
53.67651758529126 6.3282099999999994
53.70147078399681 6.28599
53.72642673383343 6.29013
53.75138543689533 6.266
53.776541917524526 6.25298
53.801506154876755 6.22032
53.826473151763246 6.2020800000000005
53.851442910284916 6.1685099999999995
53.87661054126026 6.1346300000000005
53.9015858509782 6.1898
53.92656392866066 6.20953
53.95154477641532 6.15676
53.976723591801296 6.14208
54.00171000771266 6.17096
54.02669920004598 6.12951
54.051691170915745 6.1044599999999996
54.076881204886796 6.0747800000000005
54.101878760928514 6.08467
54.12687910187696 6.05744
54.152077577768296 6.04967
54.1770835166946 6.01497
54.20209224691339 5.975169999999999
54.22710377055121 5.99836
54.25231352511594 5.97144
54.27733066384342 5.96858
54.30235060239643 5.962619999999999
54.32737334290836 5.91723
54.35259441062629 5.94455
54.377622783395324 5.91599
54.40265396455061 5.898
54.42768795623251 5.8867
54.45292037169559 5.8285800000000005
54.477960012857906 5.83475
54.50300247099511 5.8261199999999995
54.52804774825457 5.78416
54.55329154616743 5.74494
54.57834249018678 5.78072
54.6033962597977 5.730519999999999
54.6284528571545 5.69894
54.653708072335164 5.6578599999999994
54.67877035378786 5.673019999999999
54.70383546947698 5.67647
54.72890342156389 5.6259
54.7541700889442 5.63713
54.77924374251975 5.68154
54.8043202390049 5.580430000000001
54.82959552413022 5.5538099999999995
54.8546777351945 5.565
54.87976279569621 5.5295
54.90485070780914 5.53833
54.930137506558005 5.49383
54.95523115074295 5.52148
54.98032765308844 5.461
55.005427015775496 5.46824
55.03072536339621 5.4632
55.05583047570572 5.41858
55.080938454927676 5.38957
55.10604930325027 5.36816
55.131359235107396 5.33045
55.15647585066083 5.31728
55.181595341907496 5.28718
55.20671771104285 5.27775
55.232039262617704 5.26806
55.25716741665048 5.18876
55.28229845518636 5.2160400000000005
55.30743238042802 5.13427
55.33276558731939 5.12939
55.357905315183636 5.1327
55.383047936390035 5.070790000000001
55.40819345314859 5.11897
55.433538351073295 5.09618
55.458689688238415 4.99984
55.483843927614096 4.99437
55.509197623043605 5.00051
55.53435769621134 4.95979
55.55952067826466 4.9351400000000005
55.5846865714265 4.96545
55.61005202069737 4.9561
55.63522376553902 4.90787
55.66039842818645 4.868519999999999
55.68557601087004 4.87177
55.7109532500271 4.77217
55.73613670233794 4.85441
