TT I
1.2716486653135266 7.52227
1.2939594142134223 6.88115
1.3162702121660406 6.46903
1.3385810600174564 6.34122
1.3608919586137629 6.677160000000001
1.383202908801069 5.96935
1.405513911425503 6.95689
1.4278249673332093 6.15793
1.4501343378461518 6.46433
1.4724455028545926 6.3159
1.4947567236847858 6.62838
1.517068001182951 7.01785
1.5393793361953272 6.1849300000000005
1.5616907295681737 6.147959999999999
1.5840021821477681 5.19345
1.60631369478041 5.672540000000001
1.6286252683124185 5.5412
1.6509369035901333 4.52174
1.6732468618895553 5.10774
1.695558623192809 5.26877
1.7178704487808514 5.27283
1.7401823395001077 4.99411
1.7625012545597203 4.84645
1.7848028405262486 4.97553
1.8071218901122095 5.06513
1.8294236121921872 4.56297
1.8517427996910911 4.8114300000000005
1.8740620574440425 5.353
1.8963639900671978 5.0228
1.9186833908139995 4.587269999999999
1.9409854680117449 4.6413199999999994
1.9633050151394713 4.63239
1.9856246367570705 4.511369999999999
2.0079269371922672 4.90382
2.03024671027244 4.5814699999999995
2.0525491637446027 4.07753
2.074869091674931 3.8932300000000004
2.097171701569106 4.14711
2.1194917877373847 4.75002
2.141811954326636 4.3372
2.164114805233074 4.12584
2.186435135143035 5.8276
2.208738150935709 10.9601
2.231058647554722 19.7947
2.2533792288321184 16.1038
2.275682498336085 8.0318
2.298003251406138 5.183730000000001
2.3203066942619714 4.27628
2.3426276225136022 4.80401
2.3649486396617507 5.32506
2.387252348930071 5.2087900000000005
2.4095735463442893 5.3074699999999995
2.4318774374315884 6.19791
2.4541988185014043 6.12611
2.476502894794693 6.28314
2.498824462909887 6.094930000000001
2.521146125856138 6.259580000000001
2.5434504863470337 6.593960000000001
2.5657723414244717 7.2724
2.588076895590662 7.7743
2.610398946189713 7.454510000000001
2.6327210958598384 6.9012
2.6550259469304716 6.97642
2.6773482972090137 7.24598
2.6996533504259 7.79435
2.7219759047039602 8.40888
2.744298562293959 8.40215
2.7666039251246595 7.1470199999999995
2.7889267918020164 7.590339999999999
2.8112323652516555 7.4170300000000005
2.833555444408179 8.14431
2.8558786311183852 7.77375
2.8781845268938557 8.474219999999999
2.9005079311721484 8.865210000000001
2.9228140460410397 8.62985
2.9451376712799635 8.953389999999999
2.967444008632326 9.4258
2.9897678582247247 9.85516
3.0120918213106695 10.0516
3.0343984987899373 10.7948
3.0567226913198637 10.5537
3.079029599759726 11.1717
3.101354025127254 12.115
3.123678568232338 12.8642
3.145985829517914 13.2036
3.16831061055229 13.4314
3.1906181112775593 14.084000000000001
3.212943133635653 14.5129
3.2352682779763207 14.7615
3.2575761442691227 15.200999999999999
3.2799015350264273 15.7647
3.302209649240067 16.2507
3.3245352898092655 16.8555
3.3468436553365257 17.1362
3.369169549113219 17.8527
3.3914955708171384 19.1591
3.413804319727358 19.5582
3.4361305997334863 19.0226
3.4584396084414553 19.7437
3.4807661501462652 20.7337
3.503092824025881 20.7447
3.5254022288463154 21.3321
3.5477291695206588 21.7061
3.5700388426251948 22.6263
3.5923660534916446 23.6063
3.6146934007816114 33.7344
3.637003482731501 67.3576
3.6593311053109985 72.154
3.681641464033634 44.7114
3.7039693653009733 28.4339
3.726297407241705 25.758000000000003
3.7486081875460804 25.6401
3.7709365132734978 26.2223
3.793247578841633 26.6118
3.8155761917550093 26.6492
3.8378875459837216 27.0017
3.8602164494827234 27.0875
3.882545499606844 28.4282
3.9048572932539183 28.8272
3.9271866390645718 29.5081
3.9494987298666713 30.3231
3.971828374764527 30.819000000000003
3.9941581705403255 30.8451
4.016470713506008 31.4695
4.038800813471445 32.3282
4.061113662089144 32.725
4.0834440696459176 34.1773
4.105774632334751 34.4517
4.128087945865126 35.0511
4.150418821249301 35.6709
4.172732448931298 36.5308
4.195063640413578 38.1024
4.2173775856475215 41.1996
4.239709096631102 63.4179
4.262040768704612 171.80200000000002
4.284355196706267 221.19400000000002
4.306687193387355 144.689
4.329001947444346 66.7474
4.35133427213731 46.7401
4.373666762177566 44.4928
4.395982011761091 44.3952
4.418314834921175 45.1966
4.44063041906622 50.7977
4.4629635787515625 59.0135
4.4852969080429785 58.6816
4.5076130004776225 52.7338
4.529946671403969 51.3204
4.552263106909177 51.4763
4.574597122877047 52.3783
4.596931312711224 53.4123
4.619248269273446 54.223
4.6415828092605835 55.0267
4.663900117405352 56.2293
4.686235010953232 58.005
4.708552674085913 59.2866
4.730887924602802 60.5856
4.753223354952695 62.3726
4.775541557023902 64.1138
4.797877349456786 65.6613
4.820195915032126 67.3176
4.842532072957498 68.6388
4.864868414979744 70.7576
4.88718753227192 73.3115
4.909524244902505 75.1277
4.931843734218147 77.1206
4.954180820867835 80.2221
4.976518095879839 83.1112
4.998838149695359 86.2656
5.021175803844231 89.8236
5.043496238205739 93.1272
5.065834274903528 98.227
5.088172504230693 103.656
5.1104935158799565 111.62700000000001
5.132832132875765 131.975
5.155153533596801 169.168
5.1774925416746225 224.245
5.199814334878411 504.75199999999995
5.2221537374521505 1390.79
5.244493338631803 3433.65
5.266815727034316 7607.72
5.289155727832427 11765.8
5.311478517248165 8782.38
5.333818921080011 3026.06
5.356159527788849 615.729
5.3784829252032536 202.139
5.400823940070432 153.512
5.423147747031976 133.995
5.445489173474152 123.23
5.467830807066149 117.666
5.490155234831516 113.355
5.512497285125229 109.325
5.534822130975162 106.835
5.557164601388673 104.523
5.579489868738879 101.71799999999999
5.601832762690846 100.49799999999999
5.6241758697774475 99.6279
5.646501775867269 98.9468
5.668845311622074 97.0993
5.691171647754637 96.7564
5.713515615597765 95.1882
5.735859800852677 94.7881
5.758186788542988 94.3682
5.780531411018185 94.6032
5.802858837297399 93.881
5.825203900414495 94.5793
5.8475491852224 95.365
5.869877275883075 95.5841
5.892223006467101 96.9895
5.914551544266608 98.8156
5.936897724049891 102.36
5.959244129804903 111.413
5.981573344815301 144.762
6.0039202049061 280.301
6.026249875609095 595.115
6.04859719346037 1178.49
6.070927323278297 2350.6
6.093275102315365 4244.96
6.115623113320588 5288.9
6.137953938319995 3374.0
6.160302415650845 1121.05
6.182633708324452 268.41900000000004
6.2049826554078376 120.71700000000001
6.227331838745022 96.5709
6.249663839443684 87.5888
6.27201349767565 84.3677
6.294345974611799 86.5565
6.316696111167083 93.0833
6.339046488263839 89.1642
6.361379686074702 78.1521
6.383730546639482 72.4928
6.406064229255215 70.3812
6.428415576718203 69.9329
6.450749747566656 68.6923
6.47310158535871 67.0546
6.495453669698332 66.2254
6.517788579421056 65.8168
6.540141159237969 64.5133
6.562476565766648 63.9827
6.5848296444934045 63.5298
6.607182974060425 63.236000000000004
6.6295191323281015 62.9839
6.651872965955752 65.1093
6.6742096296068985 81.7927
6.6965639707294615 112.506
6.71891856698715 111.53399999999999
6.741255995248479 83.1335
6.763611104154477 65.3177
6.785949046381137 60.31
6.808304671371482 58.961999999999996
6.8306605557940046 58.9984
6.852999275508618 58.3824
6.875355681171544 57.8242
6.897694923437771 57.1547
6.92005185377892 57.0806
6.9423916220322655 56.8459
6.964749080490181 56.1914
6.987106804399774 56.3544
7.009447368180821 56.4926
7.031805625367033 55.9511
7.054146723727803 55.9941
7.076505517631004 55.6671
7.098864581288365 55.6868
7.121206488070854 55.4924
7.143566093607822 55.4115
7.165908543567245 55.9469
7.188268694426048 55.7968
7.2106291193438095 55.5103
7.232972390625943 56.4654
7.255333366030969 65.1898
7.277677189091925 99.6443
7.300038718428332 129.082
7.322400526130865 113.333
7.344745183422596 77.6858
7.367107550224791 60.0147
7.389452767901992 56.1641
7.411815697249891 55.6591
7.434161478756298 54.99100000000001
7.456524974096713 54.8797
7.478888753837185 54.6987
7.501235387657368 55.2638
7.523599738562711 55.3914
7.545946944825532 55.3797
7.568311870344528 55.9499
7.5906770845765665 55.8938
7.613025156078678 57.3883
7.635390950099687 57.8691
7.657739602662809 57.3241
7.680105979923558 56.5995
7.702472650212829 57.0438
7.724822180948224 56.4964
7.747189439655568 56.9192
7.769539560075357 56.8942
7.791907410653562 57.2827
7.81425812420825 57.0266
7.836626570110925 57.4317
7.858995315087906 58.6352
7.881346924933401 58.5226
7.903716270417482 59.1401
7.926068482028405 59.8004
7.948438431475253 60.477
7.9708086843180235 60.63399999999999
7.993161805171116 61.2105
8.015532667162402 61.3765
8.037886398416653 62.8013
8.060257873014221 63.0861
8.082629655331942 63.8273
8.104984308787587 64.7223
8.127356708900503 67.6894
8.149711981398308 71.6489
8.172085002766314 73.6908
8.194458336181368 71.3874
8.216814543847752 70.1148
8.23918850371002 70.8073
8.26154533906492 71.461
8.283919928836452 73.1717
8.306277395339652 74.2519
8.328652618483376 75.4801
8.351028159736202 77.9236
8.373386579575245 80.5533
8.395762759396959 82.3069
8.418121819038275 86.8742
8.440498640894003 97.9136
8.462875785192262 111.65700000000001
8.485235811156207 137.22299999999998
8.507613602688501 203.965
8.529974277114228 313.478
8.552352719347912 462.23800000000006
8.574731488360351 742.57
8.59709314210385 1231.91
8.619472567021075 1822.5
8.64183487789147 2138.68
8.664214962183097 1842.13
8.686577933647762 1012.04
8.708958680784317 401.50699999999995
8.731339760774953 171.674
8.753703729764451 115.226
8.77608547780821 102.084
8.798450116065078 97.4375
8.820832535634787 94.2353
8.843215292401656 93.1044
8.865580941199045 91.5311
8.887964374703538 90.8776
8.910330701447199 90.9294
8.932714815164482 91.5813
8.955099270424924 90.3673
8.977466620733543 88.6535
8.999851761421976 86.3123
9.022219798361645 84.9631
9.04460562795561 85.1813
9.066991803441677 84.6336
9.089360876979615 84.3889
9.111747746589993 84.0485
9.13411751544971 83.1837
9.156505082664324 83.0785
9.178875550323522 83.363
9.20126381862328 83.6471
9.223652438908596 83.7356
9.246023961427412 83.9515
9.26841328802173 83.4441
9.290785518039224 83.286
9.313175554425882 84.5275
9.335565947154315 84.5309
9.357939245086508 84.5068
9.380330352834827 84.7748
9.40270436697103 84.9313
9.425096193225055 84.5867
9.447488380180165 85.7969
9.469863475295412 85.7117
9.492256385987508 86.0895
9.514632206018318 86.9859
9.537025843935714 87.0987
9.559402392368193 88.1847
9.581796761000229 89.0426
9.604191496441521 90.1724
9.626569144158516 92.5476
9.648964615551032 95.8085
9.671343000390081 97.1379
9.693739211225699 96.0658
9.716135793237463 94.5666
9.738515290448102 95.0076
9.760912617143402 95.8539
9.783292860202891 97.4562
9.805690935076182 99.0516
9.828089385495742 99.8082
9.850470754023561 101.95299999999999
9.872869957865444 107.994
9.89525208097539 118.749
9.917652041736662 129.441
9.940052382417589 135.846
9.962435644102392 160.82299999999998
9.984836746950979 214.81
10.007220771957746 291.449
10.029622640473708 406.806
10.052007432299963 593.276
10.074410069984072 872.4939999999999
10.096813093716005 1267.87
10.119199042482517 1695.89
10.141602840636468 1918.92
10.163989564971628 1629.86
10.186394141051062 934.945
10.208799107559706 410.066
10.231187001965623 195.53900000000002
10.253592751657669 129.542
10.275981430388155 115.34
10.298387966769793 113.194
10.320794897965431 114.834
10.343184759907361 112.906
10.36559248305461 109.029
10.387983138083852 107.71700000000001
10.410391656691655 114.889
10.432800574501677 130.374
10.455192425893369 149.719
10.47760214443012 177.856
10.499994797678786 222.208
10.522405320453982 297.60200000000003
10.54479877906917 396.527
10.567210109595656 493.223
10.5896218454736 564.582
10.612016518879773 496.49199999999996
10.634429067781074 354.663
10.656824555333241 202.951
10.679237920773568 125.529
10.701651695961992 97.6616
10.724048411481384 90.6999
10.746463008485165 87.9239
10.768860546937125 86.5798
10.791275969274796 84.74
10.81369180576079 83.3735
10.836090585366925 82.2085
10.858507252467449 81.33
10.88090686379991 80.0128
10.903324365036394 79.4594
10.925724811614439 78.9977
10.948143150509463 79.7001
10.970561909719066 78.6874
10.992963615930844 77.5346
11.015383218085756 75.5683
11.037785768347074 74.4402
11.06020621697282 73.3768
11.082627090322113 73.1363
11.105030913430326 72.4153
11.12745263854165 72.7832
11.149857314510728 74.9088
11.172279894912576 78.8675
11.194702904450653 78.9679
11.217108866490921 75.6952
11.239532736615194 73.0824
11.26193956033512 71.6047
11.284364294577085 70.3941
11.306789462371718 68.7191
11.329197585398376 68.0398
11.351623622610898 67.7776
11.37403261614354 67.1314
11.396459526308487 66.7282
11.418869393879497 66.1732
11.441297180532617 66.1365
11.463725406927658 65.8163
11.486136592353875 65.4042
11.508565700543707 65.9709
11.530977768845315 67.3167
11.553407762368774 67.6279
11.575838200059769 67.2222
11.598251599479612 65.7817
11.620682927815501 64.7371
11.64309721895548 64.2048
11.665529441478206 63.9752
11.687962112597958 63.5399
11.710377748130886 63.9289
11.732811318753434 63.7779
11.755227854859067 63.7567
11.777662328529495 63.4681
11.800079768750786 63.5778
11.822515149015453 63.3663
11.844950984084935 63.6052
11.867369787303163 63.2981
11.889806534289491 63.4307
11.912226250487029 63.8766
11.934663912939751 63.8903
11.9571020346363 63.9875
11.979523127133968 64.0341
12.001962169624331 65.2346
12.024384183972964 67.5434
12.046824150809913 71.5977
12.069264581333726 77.2392
12.091687985297767 84.0477
12.11412934550045 93.8115
12.136553680195208 108.945
12.158995973632788 130.265
12.181438735204349 155.455
12.20386447284199 183.128
12.226308172985636 204.762
12.24873485024193 202.435
12.271179492516982 172.516
12.293607112949127 126.564
12.316052700916226 93.4658
12.338498763250042 77.062
12.360927805303868 69.4052
12.383374818673879 66.8025
12.405804812803074 65.4256
12.428252780773262 65.25
12.45070122756722 65.3274
12.473132656675375 65.0108
12.49558206341869 65.2683
12.518014453510101 65.1939
12.540464823770117 65.6003
12.562915677315177 65.7987
12.58534951575545 66.3232
12.607801338171472 67.6458
12.630236146511358 71.2075
12.652688941369085 74.3665
12.675124723177234 75.0301
12.697578494048786 72.5006
12.720032754458185 69.5205
12.742470003354093 68.7605
12.764925245138771 68.7398
12.787363476431278 68.956
12.809819703166806 69.3253
12.83227642391173 70.0809
12.854716135692716 70.8284
12.877173846755147 72.1889
12.899614549869717 72.3645
12.9220732548287 73.2128
12.94453245827299 73.6004
12.966974655289818 74.7888
12.989434858002571 75.6223
13.011878055298721 76.5636
13.034339260862497 77.3702
13.056800969391883 78.9443
13.079245674017244 81.7556
13.101708390774869 85.5398
13.12415410463411 95.7806
13.146617833206086 109.14299999999999
13.169064559883248 121.499
13.191529303857127 137.564
13.213994557076367 162.033
13.236442809902437 198.676
13.258909083908291 249.49400000000003
13.28135835851934 302.634
13.30382565690295 363.274
13.326293469022952 413.959
13.348744283242008 421.204
13.371213125129904 357.62800000000004
13.39366497011003 264.754
13.416134845360597 174.227
13.438605238843131 125.695
13.46105863690397 111.296
13.483530069144786 113.405
13.505984506951902 119.446
13.528456981549432 130.203
13.550929978879088 146.134
13.573385983253365 169.953
13.595860028340867 206.52599999999998
13.618317081455832 251.542
13.64079217790333 298.488
13.663250283359057 338.767
13.685726434770173 370.412
13.708203115221277 340.034
13.730662806148091 269.58299999999997
13.75314054697177 189.19099999999997
13.775601299246777 128.566
13.798080104050406 97.9376
13.820559442405358 86.8492
13.843021793671388 82.9586
13.865502201420897 81.6603
13.887965623051947 80.9452
13.910447103807167 79.6852
13.932929122629764 78.3659
13.955394156785959 78.2361
13.977877254034569 77.0607
14.000343367582113 76.2178
14.022827546871707 75.7231
14.045294743423524 74.8511
14.06778000837062 74.2915
14.090265817715476 74.2791
14.112734645763819 73.6788
14.13522154619454 73.4304
14.157691466286913 73.4544
14.180179461423874 72.9254
14.202668005486178 72.5162
14.22513957064374 71.7725
14.247629214846473 71.459
14.270101881097517 71.3585
14.29259262906496 71.5369
14.315083930490205 72.1203
14.337558255389705 72.0631
14.360050666019726 72.1422
14.382526101071944 71.0656
14.405019624534942 70.4237
14.427513705993134 69.9285
14.449990813291825 69.9208
14.47248601302899 69.7064
14.49496423954951 70.0804
14.517460561197822 70.0712
14.539939910570322 69.7563
14.562437357763558 69.9687
14.58493536931253 70.8023
14.607416409993311 71.5509
14.62991555254159 72.1661
14.652397725157423 72.2269
14.674898002342799 72.0196
14.697398848433282 71.7262
14.719882725991326 72.9714
14.74238471217934 74.8415
14.764869730765593 79.3425
14.787372860692983 83.3082
14.809876564079925 88.4112
14.83236330125751 95.1228
14.854868153850365 104.10700000000001
14.877356041159485 117.499
14.899862046604186 134.731
14.922351087688757 156.993
14.944858249632887 180.865
14.967365991421232 201.96400000000003
14.989856770231246 218.169
15.012365673994204 216.209
15.03485761569738 188.093
15.05736768508665 149.255
15.07987833888692 115.681
15.102372032001655 91.5623
15.124883856909658 78.03699999999999
15.14737872204565 73.3174
15.169891721717274 71.7498
15.192405310371893 71.3974
15.214901940621196 71.3739
15.237416709527137 71.4303
15.259914520936249 71.4916
15.282430473753607 70.4811
15.304947020131227 69.4926
15.327446610371178 68.8863
15.349964346154254 68.1728
15.372465126703139 67.9146
15.394984055556009 67.5158
15.417486030076159 67.4241
15.44000615566487 66.9858
15.462526881230803 67.10300000000001
15.485030653812652 67.1027
15.507552581617434 67.464
15.530057557334603 67.3977
15.55258069104857 67.3065
15.575104429329837 67.4317
15.597611216864632 67.0334
15.620136166564563 67.8521
15.6426441664095 69.4653
15.665170331202765 72.737
15.687697105158826 76.3326
15.710206930593545 80.1946
15.732734925158933 84.7318
15.755245972089478 91.3912
15.77777519094324 100.78299999999999
15.800287463046663 113.301
15.822817909869592 130.435
15.84534897229804 147.946
15.867863089299354 168.43
15.890395385222186 182.503
15.912910736597423 191.893
15.935444269699861 182.709
15.957978423016485 156.768
15.980495633101265 125.322
16.003031029129367 96.7619
16.02554948280019 77.5519
16.048086125229432 68.6348
16.070623392487107 65.5822
16.09314371869582 64.6592
16.11568223789321 63.8173
16.13820381691126 63.0023
16.160743591742527 61.9541
16.183283996022084 61.3195
16.205807461423195 60.4982
16.228349126881973 59.8818
16.25087385432698 59.8099
16.27341678466365 59.106
16.29594277784926 59.0983
16.31848697676433 59.2495
16.341031811604868 59.3007
16.36355971058487 59.4385
16.3861058195587 59.1911
16.40863499352978 58.1822
16.431182380342005 57.6398
16.453730407713202 56.9851
16.476261501364792 56.7249
16.498810812136167 56.2448
16.52134319004079 56.3758
16.54389378792203 56.1944
16.566445031001553 56.1355
16.588979342490088 55.9318
16.61153187824822 55.8583
16.634067483263312 55.7421
16.656621315414416 55.6957
16.679175797408888 55.3364
16.701713349928728 55.6315
16.72426913389191 55.7723
16.74680798922351 55.7259
16.76936507887444 55.7793
16.791905240734874 55.8108
16.814463639794468 55.5399
16.837022695210294 55.6827
16.859564824093756 56.0137
16.882125194503903 56.3328
16.904668639217885 56.8736
16.927230328348003 57.2923
16.949792678493612 57.0734
16.972338104193863 56.8071
16.994901778652235 56.6614
17.017448529496576 56.555
17.040013531998152 57.0102
17.06257920018044 57.88399999999999
17.0851279459922 58.5757
17.107694947817667 59.4909
17.130245028099072 60.4635
17.15281336730298 61.683
17.17536478578733 63.4824
17.19793446610687 66.0128
17.220504818648422 68.4917
17.243058251703697 71.1647
17.265629950971032 75.3072
17.288184731571736 78.5607
17.310757781306908 82.2142
17.33333150794385 83.47
17.355888317140174 82.2584
17.37846339986244 77.3497
17.401021565958885 71.6819
17.42359800851343 66.4327
17.44617513265564 63.0062
17.468735341390783 60.9597
17.491261035594565 60.1603
17.51396340099364 59.8523
17.536490463869136 60.0282
17.559018209820174 60.1117
17.58154663977963 60.3185
17.604251766089718 60.4068
17.626781572227713 60.5753
17.64931206518155 60.8196
17.671843245885103 61.3152
17.69455114821572 61.4215
17.717083712612634 61.7535
17.739616967569667 62.1438
17.762150914021706 62.5939
17.78486160749854 62.791000000000004
17.807396945166804 63.4317
17.829932977143503 65.0024
17.85246970436452 66.9246
17.875183204129467 68.7646
17.897721330097664 71.1412
17.920260154126645 73.626
17.942799677153296 76.8735
17.9655159983646 81.0208
17.988056927677544 86.7534
18.010598558807683 93.738
18.033140892692916 102.39200000000001
18.05586005052525 111.335
18.07840379824407 121.212
18.10094825154059 131.665
18.12366954819864 139.783
18.146215420998306 140.743
18.16876200220057 133.382
18.191309292745153 119.96799999999999
18.214033452627167 105.79299999999999
18.236582170236648 94.3624
18.259131600016456 88.6984
18.281681742907335 88.3631
18.304408781233683 91.6781
18.32696035875955 96.022
18.349512652227624 100.416
18.372065662579683 105.25200000000001
18.394795594587553 107.137
18.41735004715306 104.27
18.43990521943684 97.4858
18.46246111238171 88.2271
18.485193953325208 78.2633
18.507751296070428 70.7053
18.530309362314178 66.7345
18.552868153000343 64.5057
18.57560391815056 63.0521
18.59816416623245 62.6133
18.620725141597372 62.3393
18.643286845190268 61.9465
18.666025549835414 61.3145
18.688588718427933 60.6729
18.711152618092243 60.5235
18.73389353884365 60.1127
18.75645890921984 59.931999999999995
18.77902501351406 59.7456
18.801591852673102 59.597
18.824335739722738 59.0101
18.846904057212626 59.0239
18.8694731124168 58.7454
18.89204290628315 58.6301
18.914789774966803 58.3016
18.937361054791623 58.1617
18.959933076131318 57.9666
18.982505839934877 57.803999999999995
19.00525570560582 58.0138
19.027829963004184 57.8104
19.05040496572238 58.0695
19.072980714710468 58.0644
19.095733592739563 58.2346
19.11831084296757 58.7272
19.140888842324735 59.1005
19.16346759176222 59.5161
19.18622349753803 59.9427
19.208803755869358 60.8994
19.231384767143577 62.1718
19.253966532312948 63.6572
19.276725481241822 65.6216
19.29930876296784 67.7681
19.3218928014549 70.3119
19.34465404436217 72.6876
19.36723960516257 75.4042
19.389825925592426 76.8101
19.412413006605938 76.3078
19.43517731967805 73.1486
19.457765930683355 68.8798
19.48035530514408 63.9979
19.50294544401556 60.0633
19.525712842708348 57.4019
19.54830451925909 55.8335
19.570896963095727 55.0091
19.593490175174704 54.7244
19.616260674962184 54.7704
19.638855432416964 54.3464
19.661450960992624 54.5233
19.68404726164677 54.5655
19.706820878021247 54.0415
19.729418731756834 54.5504
19.752017360452857 54.2875
19.77461676506804 54.5321
19.797393513540218 54.7474
19.819994478951667 55.0923
19.84259622316767 55.5403
19.8651987471481 55.9514
19.887978643247177 56.2575
19.91058273574792 56.7563
19.933187610901943 57.6888
19.955969879466828 58.8897
19.97857632894404 60.3217
20.00118356396599 61.863
20.023791585494575 63.8185
20.046577028914875 66.1729
20.069186632506966 67.8863
20.091797025500632 69.6755
20.114408208858933 70.8387
20.137196842715273 70.68
20.159809615886765 69.4604
20.18242318232135 66.9442
20.20503754298326 64.59899999999999
20.227829382875154 63.2904
20.250445341109344 62.9429
20.27306209647285 63.3773
20.29567964993108 64.2824
20.31847471147704 65.3983
20.34109387027612 66.2198
20.363713830075454 65.8114
20.386334591841646 64.5474
20.409132890679302 62.1338
20.431755265564437 59.1379
20.454378445325528 56.4154
20.477002430930366 54.4352
20.499803982716553 52.894
20.522429589228004 52.2213
20.54505600449589 51.7874
20.567683229489194 51.7619
20.590488049900088 51.4054
20.61311690359731 50.9727
20.63574656993626 50.7891
20.658553853717297 50.4883
20.681185154618298 50.5143
20.703817271080066 50.3016
20.72645020407368 49.9312
20.749260783967177 49.8803
20.771895359337133 49.7981
20.794530754161617 49.7834
20.817166969412938 49.6269
20.83998086114876 49.5703
20.86261872660049 49.5781
20.885257415405402 49.4479
20.90789692853701 49.4362
20.930714147864748 49.333
20.953355319030678 49.3951
20.97599731745334 49.5389
20.99864014410749 49.4184
21.021460706796564 49.3806
21.044105199328826 49.5801
21.06675052302631 50.0437
21.089396678865015 50.1226
21.112220600704806 50.2239
21.134868430275347 50.7212
21.15751709492456 50.9466
21.180166595629693 51.0514
21.202993892429635 51.5926
21.22564507473034 52.0088
21.24829709602816 52.1178
21.27112693608965 52.4588
21.293780644891275 52.4544
21.316435195634053 51.6557
21.339090589297417 50.9328
21.361923832041875 50.5292
21.384580921090404 49.9491
21.407238856007325 49.413000000000004
21.429897637773326 49.3047
21.45273429906592 49.2244
21.475394784108598 49.3828
21.498056118951983 49.1936
21.520718304578022 49.3345
21.543558400304388 49.4892
21.566222297108816 49.7625
21.58888704765135 49.9787
21.61155265291521 50.5046
21.63439619898156 50.9591
21.657063523335786 51.0466
21.67973170537063 51.4224
21.7024007460706 52.0735
21.72524775840385 52.9009
21.747918526116475 53.9607
21.770590155457388 55.1457
21.79326264741238 56.8344
21.816113141960237 58.2873
21.838787368860547 59.8619
21.861462461341976 61.5613
21.884315579735777 63.2707
21.90699241312273 64.5703
21.92967011506078 65.3747
21.95234868653799 65.4486
21.9752053151131 64.3398
21.997885635446785 62.4603
22.020566828293532 60.5747
22.04324889464272 58.7445
22.066109049404666 57.1915
22.088792872571794 56.4784
22.111477572219204 56.6111
22.1341631493376 56.8591
22.157026846313123 56.7393
22.179714188221507 56.2574
22.202402410582668 55.3666
22.22509151438863 53.7759
22.24795876962584 52.325
22.270649646204486 51.4256
22.293341407213727 50.6563
22.316034053646906 50.1143
22.338904883215342 49.7437
22.36159931041458 49.8672
22.38429462602756 49.643
22.40699083104897 49.5046
22.429865251039757 49.5933
22.452563244831367 49.5616
22.47526213102522 49.4959
22.49813925616515 49.3515
22.520839937143307 49.213
22.543541513520587 49.5407
22.56624398629403 49.4168
22.589124730075895 49.3863
22.611829005656723 49.648999999999994
22.63453418063466 49.666000000000004
22.657240256008077 49.8287
22.680124634582935 50.105
22.70283252079775 50.2462
22.725541310413075 50.583999999999996
22.74825100442868 50.935
22.771139033969575 51.3297
22.79385054687155 51.5125
22.81656296718292 52.4702
22.83927629590484 53.1706
22.862167992606945 53.9214
22.88488314827121 54.9323
22.907599215359284 55.8349
22.93031619487366 56.6288
22.953211574954405 57.4141
22.975930389478226 58.3879
22.998650119445763 58.8269
23.02137076586092 58.1657
23.044269845560063 57.1243
23.06699233506288 55.3827
23.089715744034912 53.4589
23.112617610931565 51.9884
23.135342869061212 50.8904
23.158069049684816 50.1051
23.1807961538087 49.5685
23.20370174880544 49.598
23.226430710184808 49.8695
23.249160598093425 49.802
23.271891413539002 49.7787
23.294800752937697 49.9479
23.31753343374794 50.1298
23.340267045128353 50.2873
23.36300158808808 50.6322
23.38591468821339 50.9284
23.408651104658304 51.3704
23.431388455719986 51.9055
23.454126742409 52.6554
23.4770436196085 53.5424
23.499783787914662 54.6862
23.522524894889884 55.6028
23.54526694154616 56.4419
23.56818761219047 57.4044
23.59093154860734 57.9149
23.613676427751283 58.4069
23.636422250635754 57.8666
23.659346731118656 56.2638
23.68209445191868 54.5658
23.704843119509587 52.4906
23.72759273490623 50.5541
23.750521041644767 48.9386
23.77327256312355 47.887
23.796025035462787 47.3438
23.818956224555475 46.7911
23.841710609113413 46.5617
23.86446594758979 46.4428
23.887222241002014 46.1832
23.910157285144578 45.8574
23.932915498962537 45.8939
23.955674670778713 45.8226
23.978434801611975 45.556000000000004
24.001373717286125 45.5765
24.024135776723917 45.3963
24.046898798245582 45.4072
24.06966278287146 45.2436
24.092605586582614 44.839
24.115371508023642 44.9251
24.1381383956401 44.7741
24.16090625045381 44.6751
24.183852958731244 44.6565
24.206622758582608 44.5793
24.229393528706886 44.2917
24.252165270127392 44.5004
24.27511589952438 44.4964
24.297889594216997 44.1053
24.32066426328598 43.9281
24.34343990775613 44.0368
24.36639447485003 43.887
24.38917208083877 43.8379
24.41195066531332 43.7672
24.43490819850244 43.7956
24.457688750692377 43.6789
24.48047028445616 43.6288
24.503252800821233 43.6924
24.526214300784112 43.7862
24.548998793132213 43.7493
24.57178427117417 43.5194
24.59457073593893 43.7572
24.617536219319863 43.633
24.64032466834748 43.6842
24.663114107195035 43.5856
24.685904536893013 43.2459
24.708874020360852 43.1607
24.731666442613744 43.2487
24.754459858818787 43.1595
24.777254270007962 43.038999999999994
24.80022777025625 42.9425
24.82302418230472 42.7967
24.845821592443674 42.8761
24.86862000170663 43.0194
24.891597535453727 42.8958
24.914397953892728 43.1103
24.93719937456671 42.9634
24.96000179851076 43.0877
24.98298338249997 43.4177
25.00578782394922 43.7479
25.028593271784167 43.8334
25.05157790644186 43.9654
25.07438537804115 44.0495
25.097193859145293 44.2533
25.120003350792075 44.361999999999995
25.142992065061257 44.8787
25.165803588823465 44.9185
25.18861612625217 45.3495
25.211429678386736 45.3925
25.234422489079968 45.6018
25.257238081693636 45.3577
25.280054692141732 45.3344
25.3028723214652 45.2869
25.325869245420463 45.5003
25.348688923599397 45.5538
25.371509623787006 45.3488
25.394331347025812 45.2111
25.41733240110666 44.7857
25.440156181590016 44.1725
25.46298098826268 43.7442
25.48580682216873 43.077
25.50881202326435 42.4087
25.53163992281684 42.06100000000001
25.55446885274561 41.9194
25.577298814096377 41.4778
25.600308179121807 41.4368
25.623140214533745 41.4853
25.64597328451537 41.3331
25.66898578564376 41.3549
25.691820936010206 41.2034
25.714657124097695 41.1942
25.737494350954734 41.2793
25.760511045684957 41.1123
25.783350361364224 41.2015
25.806190718969255 41.2229
25.82903211955018 41.2906
25.852053024868923 41.3178
25.874896522722523 41.2013
25.897741066713106 41.2662
25.920586657892454 41.4407
25.943611790812668 41.5732
25.966459487728237 41.7004
25.989308234998564 41.6085
26.01215803367705 41.9648
26.03518741123814 42.0557
26.05803932412957 42.148
26.080892291600094 42.2656
26.10374631470478 42.4337
26.12677995397268 42.452
26.14963609978026 42.5098
26.172493304397875 42.1225
26.19535156888223 41.8552
26.218389486949604 41.4449
26.241249882640123 41.1526
26.26411134137826 40.9742
26.28715248187403 41.0391
26.31001607820869 40.7634
26.3328807407756 40.6604
26.35574647063438 40.8018
26.37879191991473 40.7692
26.401659795896734 40.8102
26.424528742360263 40.9511
26.447398760366614 41.1335
26.470448535598294 41.2153
26.49332070826805 41.3992
26.516193955675355 41.8604
26.53906827888316 41.851000000000006
26.562122397260108 42.1043
26.584998883685063 42.3884
26.607876449110325 42.5415
26.63075509460056 42.6576
26.65381357334404 42.8855
26.67669439061878 42.8839
26.699576291163382 42.7127
26.722459276044212 42.6653
26.745522132402975 42.3096
26.768407297649354 41.9547
26.791293550442003 41.6449
26.814180891848974 41.4139
26.837248143099337 41.1246
26.860137673466657 41.1267
26.88302829566349 40.9302
26.90592001075963 40.7122
26.92899167420566 40.5794
26.951885586870763 40.1489
26.974780595655517 39.9708
26.99785558178161 39.8382
27.020752794605112 39.6653
27.043651106772522 39.5081
27.06655051935668 39.4444
27.089629948036183 39.4261
27.112531573292053 39.3092
27.135434302194138 39.3986
27.158338135817015 39.251
27.181422024430987 39.3521
27.204328079372566 39.1218
27.22723524226965 39.1187
27.250143514198573 39.123000000000005
27.273231880156334 39.1164
27.296142382065014 39.0402
27.319053996245536 39.0504
27.341966723775965 39.1016
27.365059584515222 39.1314
27.38797455070062 39.2416
27.410890633481237 39.1363
27.433807833936918 39.165
27.456905206923906 39.2264
27.47982465472398 39.0021
27.502745223449743 39.1833
27.525666914182825 39.2146
27.548768816912457 39.2542
27.571692763693633 39.1911
27.59461783573812 39.1014
27.617723149491244 38.8906
27.640650484125285 38.8353
27.66357894728264 38.7622
27.686508540048052 38.8283
27.709618414237887 38.7094
27.732550278321757 38.3862
27.755483275279115 38.4983
27.778417406196485 38.5252
27.801531858397514 38.4941
27.824468269376716 38.499
27.847405817586786 38.4483
27.870344504116094 38.7029
27.893463551932008 38.7815
27.916404527281053 38.9031
27.93934664422563 38.9741
27.962289903855886 39.1085
27.98541356491974 39.2938
28.00835912214229 39.3755
28.03130582533231 39.6603
28.054253675581805 39.6808
28.077381967556104 39.7301
28.100332124185126 39.6648
28.123283431160893 39.5956
28.146235889577238 39.5609
28.169368830154156 39.2566
28.192323603752033 39.0707
28.215279532083304 38.759
28.238415973016764 38.3935
28.261374223145094 38.4252
28.284333631303806 38.1344
28.307294198589954 38.1748
28.330435319167677 37.6318
28.353398217078915 37.4512
28.376362277420153 37.33
28.39932750129032 37.1079
28.422473319286713 36.9254
28.44544088262495 36.9414
28.468409612800283 36.8572
28.491379510913497 36.6688
28.51453004413313 36.5291
28.53750229057244 36.5091
28.56047570826344 36.4109
28.583450298308804 36.5111
28.606605564586562 36.3017
28.629582511831156 36.3608
28.65256063474956 36.1636
28.675539934446338 36.2383
28.698699951647605 36.0868
28.72168161743193 36.0678
28.74466446331978 36.0737
28.767648490417624 35.9427
28.790813276438353 35.9593
28.813799678527303 36.0262
28.836787265157085 36.0223
28.859955641890075 35.9479
28.882945610203045 35.8583
28.905936766392035 35.836
28.928929111566863 35.9595
28.952102288520145 35.9792
28.975097024308607 35.6637
28.998092952423807 35.5431
29.021090073977508 35.4223
29.04426806913204 35.4325
29.067267590245258 35.3127
29.090268308143695 35.1822
29.11327022394099 35.1869
29.13645305530891 34.9592
29.159457379627167 34.8806
29.18246290519685 34.9504
29.20546963313352 34.841
29.22865731875826 34.926
29.25166646419296 34.8678
29.27467681535305 34.7537
29.29768837335608 34.7372
29.320880931312562 34.9231
29.34389491580634 34.9005
29.366910110507334 34.7658
29.38992651653503 34.7307
29.41312396492981 34.7269
29.436142806456754 34.771
29.45916286268059 34.6111
29.48236399319994 34.5122
29.50538649169417 34.3861
29.528410208259935 34.3089
29.55143514402014 34.0354
29.574641196749695 33.9549
29.597668583816574 33.8656
29.6206971934585 33.701
29.64372702680042 33.6719
29.666938019934474 33.6338
29.689970313635285 33.554
29.713003834422636 33.4956
29.73603858342347 33.5027
29.759254535188578 33.4922
29.78229175361658 33.3593
29.80533020365064 33.4681
29.82836988641968 33.3978
29.85159081507472 33.3236
29.874632976355343 33.2056
29.89767637376955 33.2524
29.920721008448314 33.2038
29.9439469322847 33.1558
29.96699405457564 33.0904
29.9900424175358 33.1298
30.013092022298157 32.9729
30.03632295963995 33.0613
30.059375061131373 33.0079
30.08242840783577 33.0796
30.105483000888153 33.0327
30.128718970092244 32.9904
30.151776069006917 32.872
30.17483441768648 32.8818
30.198074175317235 32.9862
30.221135036724256 32.9516
30.24419715131772 32.8985
30.267260520236203 32.725
30.290505341942243 32.787
30.313571232750228 32.8755
30.336638381310948 32.8418
30.35970678876503 32.872
30.38295669299435 32.7907
30.40602763151657 32.8189
30.429099832366074 32.6816
30.452173296685572 32.5776
30.47542830191959 32.5897
30.498504306502497 32.5922
30.521581577995562 32.6319
30.544660117543582 32.5935
30.56792024229725 32.6771
30.59100133132069 32.611
30.614083691845494 32.6322
30.637167325018545 32.7047
30.660432587840603 32.7453
30.683518779717886 32.7265
30.70660624769615 32.7342
30.729694992924372 32.732
30.75296541239743 32.6657
30.77605672557558 32.5974
30.799149319462742 32.5924
30.8224236211637 32.5549
30.845518789950724 32.4415
30.868615242910597 32.3954
30.891712981195973 32.2511
30.91499247215866 32.0552
30.938092794619365 32.1577
30.96119440587579 32.0885
30.984297307082752 31.9316
31.00758200598383 31.8183
31.030687500658694 31.684
31.053794288760695 31.5454
31.076902371446767 31.4607
31.100192296997445 31.6609
31.12330298246119 31.5921
31.14641496599209 31.355
31.169528248749216 31.4105
31.19282341969534 31.3203
31.215939314557186 31.4229
31.239056512134788 31.5588
31.262175013589378 31.3624
31.28547544871168 31.2512
31.30859657161541 31.3305
31.331719001892175 31.3606
31.35484274070538 31.4541
31.378148458819545 31.3859
31.401274828443725 31.3354
31.424402510106933 31.3972
31.447712205419993 31.3774
31.470842524931633 31.3256
31.493974159989783 31.3791
31.51710711176168 31.3888
31.54042212308802 31.3361
31.563557722100917 31.3104
31.586694641341655 31.1461
31.609832881979628 31.0402
31.63315322823208 30.9431
31.656294125521327 30.9115
31.679436347728515 30.7512
31.70257989602529 30.7379
31.725905596152327 30.6799
31.74905181052835 30.627
31.772199354521323 30.6562
31.79534822930507 30.6174
31.818679302290967 30.7087
31.84183085259981 30.6943
31.864983737233473 30.642
31.88813795736804 30.6808
31.911474422233013 30.5308
31.934631327356435 30.6
31.9577895715215 30.5275
31.980949155906522 30.4979
32.004291031706956 30.4094
32.027453310562606 30.3832
32.05061693318573 30.3585
32.07396288236386 30.305
32.09712920658542 30.1447
32.12029687812702 30.0255
32.14346589817093 30.0322
32.166817291729984 29.9594
32.18998902288583 29.891
32.21316210610336 29.9167
32.23633654256711 29.7872
32.259693399663725 29.7001
32.282870556771144 29.6928
32.30604907069099 29.5915
32.329228942610065 29.5095
32.35259128243769 29.4519
32.375773884550505 29.3502
32.398957848235646 29.4361
32.422143174682176 29.3424
32.445511016471215 29.1832
32.468699082679954 29.1798
32.49188851523011 29.1037
32.51507931531304 29.0975
32.538452678331 29.1722
32.56164622776311 28.9899
32.58484114831493 28.899
32.60803744118015 28.9009
32.631416344731896 28.9418
32.654615396551876 28.9221
32.67781582427913 28.8686
32.701198898634416 28.7592
32.72440209253756 28.7201
32.747606665947124 28.7566
32.77081262006088 28.7254
32.79420126883317 28.6132
32.81740999876112 28.5612
32.840620112999424 28.6071
32.86383161274818 28.5164
32.88722585534586 28.4516
32.91044014056596 28.5362
32.933655814909734 28.4435
32.95687287957963 28.5231
32.98027273544904 28.3853
33.00349259526636 28.3773
33.026713849030116 28.302
33.04993649794511 28.3084
33.073341986570746 28.2694
33.09656744032826 28.2033
33.11979429286444 28.269000000000002
33.14302254538647 28.2324
33.166433686291185 28.1943
33.18966475336992 28.2293
33.212897224069096 28.0811
33.23613109959831 28.1052
33.259547912343415 28.0155
33.2827846121627 28.0458
33.306022720453775 28.0271
33.32926223842861 27.8231
33.352684742614166 27.8299
33.37592709463173 27.7959
33.399170859982064 27.6751
33.422597648419426 27.6775
33.44584425514446 27.6004
33.46909227885668 27.5459
33.4923417207723 27.4636
33.51577423505344 27.5144
33.539026528130385 27.3726
33.56228024307245 27.3864
33.585535381098246 27.1521
33.60897364093058 27.1695
33.63223163992385 27.1667
33.6554910656699 27.046
33.678751919389796 27.1125
33.702195944520106 27.0237
33.72545966903325 27.0937
33.74872482519663 26.8467
33.771991414233746 26.9731
33.79544122444841 26.9234
33.81871069412428 26.8116
33.84198160035767 26.8223
33.86525394437455 26.7321
33.88870955949969 26.7438
33.911984794020626 26.7831
33.93526147001624 26.6349
33.958539588715006 26.6063
33.98200102861669 26.4858
34.0052820477047 26.516
34.02856451319451 26.4768
34.05203033759056 26.421999999999997
34.07531571090147 26.4195
34.09860253431845 26.3262
34.121890809074316 26.3084
34.145362493118924 26.2973
34.16865368561615 26.285
34.191946333164054 26.2323
34.21524043699793 26.1435
34.23871800066799 26.1162
34.26201503218366 26.0218
34.28531352370466 26.0418
34.30861347646881 25.9744
34.33209693978188 25.9805
34.3553998301885 25.9681
34.378704185565205 25.8927
34.402010007152356 25.8001
34.42549939016683 25.6929
34.44880815937748 25.6615
34.472118398533134 25.5991
34.49543010887669 25.5469
34.51892543169198 25.5234
34.54224009966052 25.5176
34.56555624255917 25.566999999999997
34.58887386163339 25.4991
34.61237514439016 25.4141
34.6356957311114 25.2808
34.65901779775809 25.3357
34.68252356662995 25.2796
34.705848608458616 25.3446
34.72917513396849 25.2787
34.75250314440949 25.163
34.77601490857862 25.2163
34.799345904259795 25.0098
34.82267838863559 25.0394
34.846012362958525 25.0231
34.869530142679984 25.0155
34.89286711232212 24.9964
34.91620557568269 25.0486
34.93954553401677 25.0107
34.9630693495876 24.8962
34.986412313340814 24.8267
35.00975677584668 24.9198
35.033102738362956 24.8247
35.05663261012228 24.7069
35.0799815881786 24.7845
35.10333207003229 24.709
35.12668405694369 24.7075
35.150220005273056 24.5909
35.17357501786656 24.6142
35.19693153931268 24.5574
35.220289570874385 24.5592
35.24383161619786 24.5976
35.267192683604904 24.4517
35.290555264930376 24.4157
35.314101899412165 24.4757
35.33746752422433 24.4448
35.36083466676374 24.4263
35.38420332829803 24.2887
35.407756095629054 24.4006
35.43112781085063 24.4278
35.45450104888391 24.3333
35.477875810999194 24.362
35.50143473172161 24.194000000000003
35.52481255774625 24.2548
35.54819191167777 24.1488
35.57157279478914 24.0985
35.595137889488406 24.1118
35.61852184675279 24.0207
35.641907337029984 23.9329
35.665294361595684 23.8911
35.68886565090076 23.9461
35.7122557598848 24.0211
35.73564740699838 23.9396
35.759040593519934 23.8239
35.78261809810353 23.7562
35.80601437933051 23.717
35.829412203814705 23.6908
35.85281157283719 23.548000000000002
35.876395313415884 23.6076
35.8997977874528 23.5649
35.92320180988546 23.5019
35.946790244133936 23.4111
35.97019737933222 23.5364
35.993606066789866 23.4231
36.01701630779276 23.413
36.04061101440684 23.3538
36.06402437852291 23.3765
36.08743930005611 23.3996
36.1108557802951 23.2733
36.13445678011326 23.2251
36.15787639383515 23.2037
36.18129757014299 23.212
36.20472031032821 23.1227
36.22832762423364 23.0953
36.25175350829375 23.0551
36.275180960119776 23.0184
36.298609981005924 23.0615
36.32222362992669 23.0201
36.34565580510207 22.9511
36.36908955323448 22.9605
36.39252487562093 22.7974
36.416144880530226 22.7755
36.43958336764275 22.8351
36.463023432914625 22.9043
36.486465077645676 22.6686
36.51009145956204 22.7358
36.53353627947859 22.7478
36.55698268276811 22.7092
36.58043067073321 22.6048
36.60406345072071 22.5569
36.62751462435344 22.4309
36.65096738658405 22.5701
36.67460498210655 22.4969
36.69806093788647 22.533
36.72151848619297 22.4461
36.744977628333636 22.4856
36.76862165890998 22.2895
36.79208400512205 22.3056
36.81554794910557 22.3045
36.83901349217101 22.1629
36.862663978991606 22.2562
36.88613273667352 22.1679
36.90960309738324 22.1063
36.933075062434064 22.0718
36.95673202673572 22.0095
36.98020721697122 21.9997
37.003684015502365 21.9397
37.027162423645365 21.906999999999996
37.050825886711465 21.9035
37.07430753063053 21.8499
37.09779078812467 21.8042
37.121275660513014 21.8249
37.144945643673694 21.7501
37.16843376245278 21.7834
37.19192350009803 21.7668
37.215414857931435 21.6982
37.239091382563885 21.5849
37.262585997426164 21.5464
37.28608223645736 21.5609
37.309763684451696 21.5099
37.33326318851098 21.4684
37.356764320726555 21.406
37.380267082425526 21.4253
37.40395510942588 21.4587
37.42746114683234 21.3497
37.45096881771841 21.3356
37.474478123414166 21.3069
37.49817275092816 21.2721
37.52168534303452 21.2463
37.54519957395567 21.1236
37.568715445024665 21.2088
37.592416694607714 21.2166
37.61593586281424 21.171
37.63945667518264 21.1859
37.66297913304891 21.0323
37.68668702630454 21.0363
37.710212792059274 20.9153
37.733740207334854 20.9405
37.757269273470364 20.84
37.780983832050374 20.7847
37.80451621684926 20.8127
37.82805025654007 20.7688
37.851585952464795 20.7808
37.8753071980695 20.6954
37.89884622345676 20.6816
37.92238690911902 20.6813
37.94611318753442 20.6046
37.969657210779765 20.5737
37.99320289834801 20.5455
38.016750251586465 20.4604
38.04048325513017 20.449
38.06403395679343 20.4158
38.087586328183946 20.4115
38.11114037065203 20.4475
38.13488012115898 20.3424
38.1584375229181 20.2898
38.181996599821 20.2517
38.205557353221124 20.265
38.229303872575656 20.2901
38.2528679961576 20.2309
38.27643380031219 20.2072
38.30000128639589 20.0916
38.32375459653193 20.1256
38.34732546371299 20.1459
38.37089801690786 20.0374
38.39447225747609 19.9476
38.418232380377425 19.8841
38.441810012983396 19.9815
38.46538933705673 19.8966
38.488970353960084 19.8514
38.51273731166058 19.7736
38.536321731567014 19.7138
38.55990784840681 19.7073
38.58367995004091 19.7466
38.60726947812959 19.7178
38.63086070726198 19.7101
38.654453638806274 19.7323
38.678232613930824 19.5912
38.70182896773327 19.544
38.72542702806741 19.5359
38.7490267963045 19.6256
38.77281266709232 19.529
38.79641586862214 19.5033
38.8200207821842 19.4505
38.843627409152944 19.4489
38.86742019782782 19.4665
38.891030269149255 19.3262
38.914642058016156 19.2927
38.938255565806124 19.369
38.96205529464307 19.2786
38.98567225787121 19.2198
39.00929094417078 19.1536
39.03291135492255 19.2148
39.05671804624804 19.1515
39.080341923549106 19.0821
39.103967529460334 19.0733
39.127594865365744 19.0409
39.15140854155791 18.969
39.17503935514948 19.028
39.19867190290282 19.0196
39.22249083587951 18.9719
39.24612686969409 18.9565
39.269764641845306 18.9032
39.293404153722804 18.8463
39.317230110864074 18.7385
39.34087311998506 18.7229
39.36451787301696 18.6947
39.388164371352595 18.6824
39.41199737518003 18.6492
39.43564738196752 18.6115
39.45929913825317 18.5928
39.48295264543308 18.6065
39.506792718520884 18.5788
39.530449745387216 18.5587
39.55410852735203 18.5068
39.57776906581474 18.5528
39.60161623079 18.4752
39.625280300200025 18.4165
39.64894613032202 18.3464
39.67261372255866 18.3324
39.6964680021016 18.3909
39.72013913657293 18.3637
39.74381203738292 18.285999999999998
39.76748670593756 18.2075
39.79134812278169 18.2966
39.81502634488497 18.2733
39.83870633896685 18.1867
39.862388106436654 18.0846
39.88625668336918 18.0528
39.90994201572829 18.0668
39.933629125719285 18.0541
39.957503091207826 18.0038
39.9811937746168 17.9692
40.00488623990914 17.9612
40.02858048850006 17.9406
40.05246165409549 17.8767
40.076159487492085 17.7726
40.099859108448875 17.8387
40.123560518384345 17.7987
40.1474489070226 17.8154
40.171153913178564 17.7523
40.194860712584955 17.7388
40.2185693066637 17.7738
40.242464941335314 17.6698
40.26617714307655 17.6986
40.289891143772046 17.6446
40.3136069448471 17.6265
40.33750984859743 17.6237
40.3612292688043 17.5686
40.3849504936829 17.5358
40.40867352466194 17.5037
40.43258372059144 17.4722
40.45631038219906 17.4397
40.48003885420956 17.403
40.503769138055105 17.3853
40.52768664931955 17.4137
40.55142057531802 17.3402
40.57515631746428 17.255
40.599079334038514 17.2473
40.62281872700477 17.2065
40.64655994043941 17.2674
40.67030297578061 17.2223
40.69423334835778 17.1882
40.71798004609188 17.1549
40.74172857006355 17.099
40.76547892171441 17.0891
40.7894166736039 17.0611
40.813170699248566 16.9813
40.83692655691388 16.910999999999998
40.86068424804498 16.9897
40.884629402612525 16.9538
40.908390779366385 16.9067
40.932153993938 16.9031
40.95591904777605 16.8641
40.979871628443995 16.8853
41.003640379561936 16.8176
41.02741097430883 16.7676
41.05118341413683 16.7859
41.075143444384416 16.7238
41.098919593177826 16.7266
41.1226975914255 16.7079
41.14647744058318 16.6624
41.170444943946755 16.609
41.19422851378379 16.5867
41.218013938914645 16.5624
41.24198706625173 16.5781
41.26577622087193 16.5364
41.289567235177785 16.4589
41.31336011063129 16.498
41.337340752422875 16.4532
41.361137369129835 16.4474
41.38493585138705 16.3698
41.40873620066004 16.3438
41.43272438060107 16.2848
41.45652848292052 16.2629
41.48033445666918 16.2607
41.50414230331616 16.2304
41.528138045159764 16.2044
41.551949656675205 16.1727
41.575763145513235 16.0927
41.59957851314666 16.0969
41.62358184070442 16.1418
41.64740098505737 16.0788
41.6712220126409 16.022000000000002
41.69504492493139 16.0442
41.71905586207357 15.9358
41.74288256296395 15.9316
41.766711153007456 15.9674
41.79054163368412 15.907
41.814560204340054 15.9228
41.838394485526365 15.9392
41.86223066180303 15.8152
41.88625497706819 15.7818
41.910094962812 15.7702
41.93393684811168 15.683
41.95778063445365 15.6676
41.981812625263366 15.6778
42.00566023303407 15.6515
42.029509746323676 15.6106
42.05336116662236 15.597999999999999
42.077400857069705 15.613
42.10125611078846 15.5738
42.12511327600405 15.5603
42.14897235421036 15.5074
42.173019768448455 15.4609
42.19688269209613 15.4299
42.22074753323349 15.4232
42.24461429335818 15.4347
42.268669455600495 15.4127
42.292540073217886 15.3435
42.31641261433284 15.3521
42.34028708044675 15.2861
42.36435001496739 15.3253
42.38822835065557 15.2964
42.41210861586426 15.19
42.4359908120986 15.2133
42.46006154323262 15.1552
42.48394762115317 15.1369
42.507835634632315 15.1208
42.531912233047436 15.1189
42.55580413732265 15.1044
42.579697981698 15.0774
42.60359376768525 15.0541
42.62767820545945 15.0337
42.65157789440821 14.9815
42.67547952952185 14.9845
42.699383112316 14.9131
42.72347541395347 14.8745
42.74738291190531 14.8453
42.771292362102166 14.8191
42.795203766063516 14.7522
42.819303956130405 14.7923
42.843219287476536 14.7803
42.86713657716324 14.7233
42.89105582671383 14.6965
42.91516392983864 14.6793
42.939087119032166 14.6747
42.963012272677304 14.694
42.98693939230129 14.6729
43.01105543317513 14.6137
43.034986504731386 14.5854
43.05891954686589 14.5674
43.08285456110972 14.5593
43.10697856448665 14.5017
43.130917542983475 14.4654
43.15485849820081 14.4116
43.17880143167367 14.4393
43.20293342237094 14.3587
43.226880332449 14.3201
43.25082922540554 14.3555
43.27496722682525 14.3165
43.29892010567796 14.2625
43.32287497204102 14.2835
43.34683182745632 14.2686
43.370977859791836 14.2335
43.39493871351105 14.1735
43.41890156092628 14.1433
43.44286640358341 14.11
43.46702049182749 14.1316
43.49098934522816 14.1054
43.51496019852649 14.0865
43.5389330532723 14.0298
43.56309522248204 14.017999999999999
43.58707210044314 14.0162
43.61105098451946 13.9585
43.63503187626491 13.9336
43.659202151562134 13.9224
43.68318707902681 13.8482
43.70717401884041 13.8601
43.731162972560874 13.8495
43.75534137913236 13.7901
43.779334381108384 13.7675
43.803329401683186 13.7745
43.82732644241872 13.7477
43.8515130055166 13.7438
43.87551410707659 13.6879
43.89951723350145 13.7229
43.923709934595614 13.6912
43.94771713129917 13.6549
43.97172635758096 13.6233
43.99573761501002 13.6291
44.0199385169922 13.6093
44.04395385732619 13.529000000000002
44.067971233533086 13.5136
44.09199064718605 13.4903
44.11619977548961 13.4397
44.14022328470671 13.4548
44.16424883610785 13.4361
44.18827643127035 13.3863
44.21249381139513 13.4043
44.236525514814076 13.3026
44.26055926674478 13.2813
44.28459506876863 13.3253
44.3088207262813 13.267999999999999
44.33286064928722 13.251
44.35690262714919 13.2347
44.38094666145278 13.2102
44.4051806219871 13.2276
44.42922879003185 13.1704
44.45327901929361 13.125
44.477331311362136 13.1272
44.501573600619416 13.0569
44.525630039221795 13.0216
44.54968854541895 13.0584
44.573937102200176 13.0233
44.5979997645541 13.0187
44.622064499300315 12.9694
44.64613130803592 12.9275
44.67038823869318 12.9145
44.69445921643748 12.9029
44.718532272981385 12.8454
44.742607409926194 12.8545
44.76687274034801 12.8359
44.79095205918753 12.8003
44.81503346325094 12.8093
44.839116954143876 12.7687
44.86339071028742 12.729000000000001
44.88747839599524 12.7385
44.91156817336837 12.6789
44.93566004401666 12.6997
44.959942251908146 12.6933
44.984038330325966 12.659
45.00813650686762 12.5931
45.03223678314731 12.5905
45.05652746888232 12.5284
45.08063196592069 12.5479
45.104738567558705 12.5659
45.128847275414856 12.5017
45.15314646515866 12.4727
45.17725940679741 12.4248
45.20137445952892 12.4003
45.22568004865265 12.4235
45.24979934496396 12.3718
45.27392075725247 12.3389
45.29804428714431 12.3543
45.322358426247604 12.3651
45.346486212804315 12.3259
45.370616121861914 12.2978
45.39474815505086 12.2902
45.41907087049246 12.2183
45.4432071734666 12.1962
45.46734560548283 12.2151
45.49148616817604 12.1715
45.51581748638564 12.1275
45.5399623320197 12.1376
45.56410931325473 12.145999999999999
45.58825843173002 12.147
45.61259837920865 12.0773
45.636751793816 12.0675
45.66090735060093 12.0594
45.68506505120716 11.9986
45.7094136545275 11.9566
45.73357566449271 11.9558
45.75773982322992 11.9635
45.78190613238733 11.9132
45.806263418194064 11.8805
45.83043404997326 11.8713
45.85460683713677 11.8706
45.87897065658495 11.8614
45.90314777634752 11.8165
45.92732705646868 11.8245
45.9515084986045 11.7642
45.97588104735473 11.7667
46.00006683541565 11.7297
46.02425479047904 11.7182
46.04844491420549 11.714
46.0728262191024 11.6788
46.09702070211635 11.6422
46.12121735879483 11.642999999999999
46.14541619080294 11.6191
46.169806278764455 11.6103
46.194009483459034 11.5937
46.21821486849841 11.5323
46.24242243555223 11.4944
46.266821333570014 11.4906
46.29103328674601 11.4551
46.31524742696538 11.4606
46.33946375590237 11.442
46.36387149104216 11.4522
46.38809221957392 11.408
46.41231514186606 11.3394
46.436540259597464 11.3457
46.460956858999374 11.3594
46.48518638983522 11.3601
46.509418121166966 11.3003
46.533652054678114 11.2816
46.55807754555709 11.2835
46.58231590571962 11.2818
46.60655647313217 11.2305
46.630988654873654 11.182
46.655233659129024 11.1178
46.67948087571551 11.1533
46.70373030632484 11.1275
46.72817142736393 11.1006
46.752425308428684 11.1041
46.77668140861147 11.1151
46.80093972960865 11.0552
46.82538981736788 11.0136
46.849652602470904 10.9669
46.87391761349769 10.9857
46.8981848521493 10.9634
46.9226439341274 10.9354
46.946915650573224 10.9192
46.97118959976749 10.9426
46.99546578341598 10.9048
47.019933887188216 10.8596
47.04421456235744 10.834000000000001
47.06849747711879 10.8263
47.09278263318286 10.8061
47.11725978640143 10.8201
47.14154944775105 10.7314
47.165841355555656 10.7238
47.1901355115306 10.7405
47.214621741924994 10.7314
47.23892041698887 10.7047
47.26322134538975 10.6811
47.28771440635075 10.6485
47.31201986422527 10.645999999999999
47.33632758061436 10.571
47.360637557241866 10.607000000000001
47.38513974410611 10.5764
47.40945426407847 10.5059
47.43377104948137 10.5238
47.45809010204344 10.5305
47.48260144275502 10.4742
47.506925052572285 10.4612
47.53125093475548 10.4281
47.55557909103813 10.4385
47.58009961361992 10.4367
47.60443234110732 10.4
47.62876734791564 10.365
47.65310463578333 10.3808
47.6776343683373 10.3513
47.7019762413987 10.3141
47.72632040075572 10.2749
47.75066684815169 10.2872
47.77520581885936 10.2312
47.799556865477655 10.2149
47.823910205386 10.2181
47.84826584033272 10.2064
47.87281407745551 10.1682
47.89717432569297 10.1857
47.92153687423484 10.1325
47.94609208429692 10.1356
47.97045925671401 10.1232
47.99482873471275 10.0994
48.01920052005013 10.0529
48.04376504619224 10.0328
48.068141469543484 10.0366
48.09252020552573 10.0124
48.11690125590099 9.99214
48.1414751266064 10.0174
48.16586082917454 9.96602
48.19024885144316 9.93046
48.2146391951793 9.94495
48.239222439012764 9.908
48.26361744916137 9.91807
48.28801478610016 9.92351
48.31241445160131 9.85629
48.337007097209366 9.838460000000001
48.36141144338331 9.8761
48.38581812345755 9.82855
48.41022713920929 9.802430000000001
48.434829215320704 9.76206
48.45924292604658 9.74578
48.48365897780325 9.753919999999999
48.50807737237308 9.72504
48.532688907799276 9.74601
48.55711201168574 9.70899
48.581537463754074 9.65932
48.60615611725119 9.67693
48.63058628942721 9.62377
48.65501881516546 9.605780000000001
48.6794536962573 9.62118
48.70408185970339 9.58032
48.72852147531801 9.54706
48.75296345168211 9.52311
48.77740779059232 9.543
48.80204549302823 9.49863
48.82649458091802 9.50842
48.85094603676547 9.49871
48.87539986237231 9.47585
48.90004713292306 9.43233
48.92450572200832 9.41923
48.94896668628025 9.420860000000001
48.97343002754588 9.35237
48.99808689542115 9.35008
49.02255501470614 9.36664
49.04702551642794 9.336730000000001
49.0714984023988 9.291039999999999
49.096164896893235 9.29872
49.120642575466796 9.2995
49.145122643748394 9.287989999999999
49.16960510355558 9.271410000000001
49.19428125404938 9.20692
49.2187685210852 9.192789999999999
49.243258185121555 9.2069
49.26794160167084 9.20099
49.2924360839405 9.18488
49.31693296869764 9.13813
49.34143225776915 9.101280000000001
49.36612538195438 9.07889
49.39062950396021 9.108889999999999
49.41513603578346 9.07146
49.4396449792564 9.0767
49.46434784069503 9.04941
49.488861631846454 9.02155
49.513377840166804 8.99343
49.537896467493745 8.96257
49.56260909589029 8.92901
49.587132585683285 8.96829
49.611658500018365 8.92342
49.636186840738596 8.9249
49.66090926588511 8.916789999999999
49.685442483902584 8.86674
49.70997813385706 8.8296
49.734516217597076 8.85634
49.75924846937352 8.84445
49.7837914452858 8.79348
49.80833686055187 8.76642
49.83288471702571 8.75121
49.85762682540054 8.77662
49.882179588965734 8.76646
49.9067347993235 8.75483
49.93129245833333 8.73068
49.95604445336378 8.69833
49.98060703442832 8.68063
50.005172069746266 8.666960000000001
50.02993150438364 8.66285
50.05450147301533 8.62974
50.07907390151433 8.561910000000001
50.10364879174981 8.59062
50.12841816587289 8.567919999999999
50.1529980044635 8.5246
50.17758031042124 8.50885
50.20216508562089 8.53912
50.22694442953363 8.525360000000001
50.25153416817468 8.49588
50.27612638170508 8.486239999999999
50.300721072005196 8.463230000000001
50.325510416102105 8.44288
50.350110084975064 8.41207
50.37471223628208 8.41242
50.39931687190919 8.39208
50.424116246675766 8.378110000000001
50.44872587605249 8.34684
50.47333799543065 8.332510000000001
50.49795260670191 8.34217
50.52276204271512 8.29977
50.54738166295838 8.28594
50.57200378079314 8.277000000000001
50.596628398116835 8.24371
50.62144792604559 8.23823
50.646077567609396 8.253630000000001
50.670709714377715 8.2239
50.69553683636198 8.16993
50.72017401885922 8.20365
50.7448137122895 8.1666
50.76945591856022 8.13743
50.79429318636823 8.17232
50.818940443716784 8.140260000000001
50.84359021965163 8.0912
50.868242516085964 8.122119999999999
50.893089960641895 8.06095
50.917747323549435 8.04797
50.94240721271973 8.0654
50.96706963007175 8.015880000000001
50.99192728239342 8.01593
51.01659478166073 8.0192
51.04126481489051 7.986330000000001
51.06593738400761 7.992889999999999
51.090805275207074 7.952560000000001
51.11548294172845 7.920910000000001
51.14016314993547 7.95222
51.164845901758845 7.90145
51.18972406304274 7.88438
51.21441192780656 7.87931
51.23910234200271 7.823239999999999
51.2637953075678 7.8564300000000005
51.288683770237945 7.83213
51.31338186432707 7.80015
51.33808251561888 7.796810000000001
51.362978729967345 7.76155
51.387684521509755 7.75703
51.41239287610203 7.768160000000001
51.437103795691165 7.73343
51.46201036644977 7.68365
51.486726441956634 7.67784
51.51144508832545 7.661689999999999
51.536166307509156 7.64583
51.56108326624387 7.63887
51.58580965706056 7.64395
51.61053862657523 7.599589999999999
51.635270176746864 7.59785
51.66019755512065 7.5577
51.68493429268881 7.57993
51.70967361681515 7.5664
51.73441552946465 7.50335
51.759353359237934 7.525239999999999
51.7841004750961 7.5302
51.80885018539685 7.54065
51.833602492111254 7.48107
51.8585508051424 7.47647
51.883308330926425 7.4717
51.90806845906181 7.4426
51.932831191525715 7.394360000000001
51.95779001977161 7.39456
51.98255798721516 7.400339999999999
52.00732856494335 7.38077
52.03229530577543 7.394880000000001
52.057071130455945 7.31469
52.081849571391054 7.32189
52.106630630568695 7.33102
52.13160794279417 7.278160000000001
52.15639426492067 7.26342
52.18118321127822 7.29185
52.205974783860896 7.27045
52.23096269971011 7.25597
52.255759551287994 7.19158
52.280559035098186 7.206460000000001
52.30536115314103 7.21327
52.33035970494467 7.17358
52.35516711807904 7.1523
52.37997717147198 7.14087
52.40478986713005 7.153689999999999
52.42979908731974 7.125719999999999
52.454617094216 7.0654699999999995
52.47943774942214 7.0815399999999995
52.50426105495102 7.062760000000001
52.529280976059844 7.02877
52.554109609024096 7.01382
52.57894089837482 7.02957
52.60377484613117 7.02394
52.62880550079408 6.999739999999999
52.65364479223379 6.989139999999999
52.67848674816189 6.93641
52.70352547971946 6.94958
52.72837279155837 6.9457
52.753222773982785 6.911860000000001
52.778075429022984 6.91527
52.80312495150885 6.87392
52.827982978797436 6.87743
52.85284368481815 6.847689999999999
52.87770707160767 6.85832
52.90276741793998 6.84686
52.92763619336701 6.782960000000001
52.952507655698504 6.7933
52.977381806977576 6.79178
53.00245301017842 6.7949399999999995
53.02733256653592 6.77535
53.052214817996074 6.75508
53.077099766608484 6.742039999999999
53.102181859804446 6.72818
53.127072229988265 6.74507
53.15196530349892 6.67433
53.17686108239249 6.671130000000001
53.20195409881522 6.641539999999999
53.22685531582556 6.66202
53.25175924441303 6.58068
53.27666588664027 6.57645
53.30176985962693 6.60464
53.3266819565689 6.63121
53.35159677336455 6.6039699999999995
53.376514312083096 6.57043
53.40162927507703 6.54871
53.42655228516116 6.53531
53.45147802340193 6.48873
53.47660125628886 6.4749300000000005
53.50153247842639 6.49409
53.52646643496923 6.47878
53.55140312799818 6.50555
53.576537409691696 6.46168
53.60147960336152 6.4006300000000005
53.626424539786164 6.43541
53.65137222105307 6.41404
53.67651758529126 6.38224
53.70147078399681 6.368040000000001
53.72642673383343 6.3668
53.75138543689533 6.37683
53.776541917524526 6.35847
53.801506154876755 6.306369999999999
53.826473151763246 6.28062
53.851442910284916 6.26674
53.87661054126026 6.29255
53.9015858509782 6.27042
53.92656392866066 6.23992
53.95154477641532 6.247730000000001
53.976723591801296 6.26199
54.00171000771266 6.21371
54.02669920004598 6.2424599999999995
54.051691170915745 6.19146
54.076881204886796 6.22078
54.101878760928514 6.20631
54.12687910187696 6.1083099999999995
54.152077577768296 6.13887
54.1770835166946 6.1332699999999996
54.20209224691339 6.10494
54.22710377055121 6.0658199999999995
54.25231352511594 6.05903
54.27733066384342 6.0155400000000006
54.30235060239643 6.072769999999999
54.32737334290836 6.03456
54.35259441062629 5.98999
54.377622783395324 6.004569999999999
54.40265396455061 6.01184
54.42768795623251 5.9809
54.45292037169559 5.9368300000000005
54.477960012857906 5.93867
54.50300247099511 5.89837
54.52804774825457 5.84534
54.55329154616743 5.85208
54.57834249018678 5.83365
54.6033962597977 5.8323
54.6284528571545 5.80011
54.653708072335164 5.75893
54.67877035378786 5.7285
54.70383546947698 5.7108099999999995
54.72890342156389 5.74466
54.7541700889442 5.71389
54.77924374251975 5.69517
54.8043202390049 5.68127
54.82959552413022 5.61207
54.8546777351945 5.61015
54.87976279569621 5.57201
54.90485070780914 5.6443900000000005
54.930137506558005 5.59167
54.95523115074295 5.61682
54.98032765308844 5.543819999999999
55.005427015775496 5.51917
55.03072536339621 5.50402
55.05583047570572 5.48338
55.080938454927676 5.452459999999999
55.10604930325027 5.3974400000000005
55.131359235107396 5.42205
55.15647585066083 5.4326099999999995
55.181595341907496 5.3612400000000004
55.20671771104285 5.37296
55.232039262617704 5.30382
55.25716741665048 5.27176
55.28229845518636 5.30655
55.30743238042802 5.22329
55.33276558731939 5.24141
55.357905315183636 5.21152
55.383047936390035 5.20825
55.40819345314859 5.15616
55.433538351073295 5.1487
55.458689688238415 5.13654
55.483843927614096 5.05018
55.509197623043605 5.06834
55.53435769621134 5.0136400000000005
55.55952067826466 5.04523
55.5846865714265 4.9939
55.61005202069737 4.97524
55.63522376553902 4.94605
55.66039842818645 4.9221900000000005
55.68557601087004 4.94885
55.7109532500271 4.93633
55.73613670233794 4.91829
