TT I
1.2716486653135266 7.652769999999999
1.2939594142134223 7.203860000000001
1.3162702121660406 6.696039999999999
1.3385810600174564 6.54895
1.3608919586137629 6.597110000000001
1.383202908801069 6.74936
1.405513911425503 6.02541
1.4278249673332093 6.3061
1.4501343378461518 6.45155
1.4724455028545926 5.81912
1.4947567236847858 6.609710000000001
1.517068001182951 6.35352
1.5393793361953272 6.57575
1.5616907295681737 6.29225
1.5840021821477681 5.67431
1.60631369478041 5.79799
1.6286252683124185 5.41785
1.6509369035901333 5.40112
1.6732468618895553 5.05371
1.695558623192809 5.14872
1.7178704487808514 5.41752
1.7401823395001077 5.17471
1.7625012545597203 4.75826
1.7848028405262486 4.2862800000000005
1.8071218901122095 4.76904
1.8294236121921872 4.59929
1.8517427996910911 4.6624099999999995
1.8740620574440425 5.132569999999999
1.8963639900671978 5.26891
1.9186833908139995 5.05143
1.9409854680117449 5.52578
1.9633050151394713 5.90449
1.9856246367570705 4.56685
2.0079269371922672 4.30483
2.03024671027244 4.81497
2.0525491637446027 4.3754800000000005
2.074869091674931 4.59054
2.097171701569106 4.7142
2.1194917877373847 5.07216
2.141811954326636 5.27808
2.164114805233074 5.04209
2.186435135143035 5.73217
2.208738150935709 10.1097
2.231058647554722 17.8968
2.2533792288321184 14.6997
2.275682498336085 7.73861
2.298003251406138 4.83522
2.3203066942619714 4.7325800000000005
2.3426276225136022 5.067
2.3649486396617507 5.1746
2.387252348930071 5.23893
2.4095735463442893 5.46119
2.4318774374315884 5.0620400000000005
2.4541988185014043 5.92957
2.476502894794693 6.42172
2.498824462909887 5.65705
2.521146125856138 5.84737
2.5434504863470337 5.8544
2.5657723414244717 6.4389400000000006
2.588076895590662 7.1973199999999995
2.610398946189713 6.758139999999999
2.6327210958598384 6.60027
2.6550259469304716 6.648910000000001
2.6773482972090137 7.4209
2.6996533504259 7.532
2.7219759047039602 7.70661
2.744298562293959 6.9931399999999995
2.7666039251246595 7.29961
2.7889267918020164 7.54997
2.8112323652516555 7.24356
2.833555444408179 8.17447
2.8558786311183852 8.013639999999999
2.8781845268938557 8.50527
2.9005079311721484 8.74742
2.9228140460410397 9.40997
2.9451376712799635 9.11576
2.967444008632326 9.62073
2.9897678582247247 9.73997
3.0120918213106695 10.0644
3.0343984987899373 10.6928
3.0567226913198637 11.335
3.079029599759726 11.5561
3.101354025127254 11.9734
3.123678568232338 12.592
3.145985829517914 12.7046
3.16831061055229 13.3298
3.1906181112775593 14.0232
3.212943133635653 14.7317
3.2352682779763207 14.5292
3.2575761442691227 15.36
3.2799015350264273 15.6406
3.302209649240067 16.1308
3.3245352898092655 16.9107
3.3468436553365257 17.2099
3.369169549113219 18.0215
3.3914955708171384 19.1451
3.413804319727358 19.5191
3.4361305997334863 19.4828
3.4584396084414553 19.8272
3.4807661501462652 20.5574
3.503092824025881 20.6443
3.5254022288463154 21.0244
3.5477291695206588 21.8451
3.5700388426251948 22.5038
3.5923660534916446 23.0964
3.6146934007816114 32.591
3.637003482731501 63.0871
3.6593311053109985 67.685
3.681641464033634 43.0896
3.7039693653009733 28.0375
3.726297407241705 25.9924
3.7486081875460804 25.7238
3.7709365132734978 26.5071
3.793247578841633 26.8652
3.8155761917550093 27.2605
3.8378875459837216 27.3431
3.8602164494827234 27.7244
3.882545499606844 28.9458
3.9048572932539183 29.2038
3.9271866390645718 29.9625
3.9494987298666713 30.660999999999998
3.971828374764527 31.0247
3.9941581705403255 31.1302
4.016470713506008 31.9132
4.038800813471445 32.7785
4.061113662089144 33.2344
4.0834440696459176 34.3694
4.105774632334751 34.6246
4.128087945865126 35.2986
4.150418821249301 35.9026
4.172732448931298 36.9204
4.195063640413578 38.7372
4.2173775856475215 41.9096
4.239709096631102 60.5547
4.262040768704612 157.406
4.284355196706267 200.16299999999998
4.306687193387355 136.444
4.329001947444346 65.781
4.35133427213731 46.501999999999995
4.373666762177566 45.0447
4.395982011761091 44.7954
4.418314834921175 46.1329
4.44063041906622 51.0689
4.4629635787515625 58.2852
4.4852969080429785 58.3321
4.5076130004776225 53.2836
4.529946671403969 52.7041
4.552263106909177 52.8443
4.574597122877047 53.1907
4.596931312711224 53.7923
4.619248269273446 54.8465
4.6415828092605835 55.8473
4.663900117405352 56.8317
4.686235010953232 58.4232
4.708552674085913 59.9367
4.730887924602802 61.2871
4.753223354952695 63.1247
4.775541557023902 64.8118
4.797877349456786 66.4739
4.820195915032126 68.3342
4.842532072957498 69.6309
4.864868414979744 72.0323
4.88718753227192 74.4127
4.909524244902505 75.9701
4.931843734218147 78.3078
4.954180820867835 81.3787
4.976518095879839 83.9985
4.998838149695359 87.9431
5.021175803844231 91.9634
5.043496238205739 96.1209
5.065834274903528 101.181
5.088172504230693 107.35
5.1104935158799565 115.913
5.132832132875765 137.667
5.155153533596801 175.109
5.1774925416746225 242.91099999999997
5.199814334878411 599.523
5.2221537374521505 1613.36
5.244493338631803 3683.94
5.266815727034316 7488.25
5.289155727832427 11479.8
5.311478517248165 8873.84
5.333818921080011 3493.7
5.356159527788849 760.326
5.3784829252032536 224.794
5.400823940070432 162.372
5.423147747031976 140.046
5.445489173474152 127.42200000000001
5.467830807066149 121.758
5.490155234831516 116.869
5.512497285125229 111.65700000000001
5.534822130975162 109.579
5.557164601388673 106.76
5.579489868738879 103.38600000000001
5.601832762690846 102.101
5.6241758697774475 101.444
5.646501775867269 100.148
5.668845311622074 99.3028
5.691171647754637 98.4176
5.713515615597765 97.4619
5.735859800852677 96.8585
5.758186788542988 96.5268
5.780531411018185 97.4183
5.802858837297399 96.9446
5.825203900414495 97.1238
5.8475491852224 98.0018
5.869877275883075 98.26
5.892223006467101 99.7591
5.914551544266608 101.866
5.936897724049891 106.48299999999999
5.959244129804903 115.90100000000001
5.981573344815301 155.501
6.0039202049061 319.644
6.026249875609095 672.5269999999999
6.04859719346037 1281.17
6.070927323278297 2338.89
6.093275102315365 4026.69
6.115623113320588 4811.65
6.137953938319995 3372.71
6.160302415650845 1133.24
6.182633708324452 278.291
6.2049826554078376 127.28200000000001
6.227331838745022 99.9276
6.249663839443684 90.3895
6.27201349767565 85.8422
6.294345974611799 87.4826
6.316696111167083 93.2617
6.339046488263839 88.8246
6.361379686074702 78.8114
6.383730546639482 73.5792
6.406064229255215 71.1164
6.428415576718203 70.8918
6.450749747566656 69.3501
6.47310158535871 68.3168
6.495453669698332 67.3758
6.517788579421056 66.1067
6.540141159237969 65.339
6.562476565766648 64.9964
6.5848296444934045 64.6173
6.607182974060425 64.2655
6.6295191323281015 63.8643
6.651872965955752 65.8623
6.6742096296068985 80.2976
6.6965639707294615 107.57799999999999
6.71891856698715 107.09700000000001
6.741255995248479 81.3294
6.763611104154477 65.4425
6.785949046381137 60.8968
6.808304671371482 60.0019
6.8306605557940046 59.6677
6.852999275508618 58.9574
6.875355681171544 58.4
6.897694923437771 57.9068
6.92005185377892 57.8539
6.9423916220322655 57.9384
6.964749080490181 57.235
6.987106804399774 57.6378
7.009447368180821 57.3275
7.031805625367033 56.8434
7.054146723727803 56.5008
7.076505517631004 56.0897
7.098864581288365 56.5693
7.121206488070854 56.3469
7.143566093607822 56.0853
7.165908543567245 56.6446
7.188268694426048 56.7872
7.2106291193438095 56.4078
7.232972390625943 57.1686
7.255333366030969 64.9819
7.277677189091925 95.7282
7.300038718428332 123.846
7.322400526130865 109.296
7.344745183422596 76.1165
7.367107550224791 60.1319
7.389452767901992 56.7387
7.411815697249891 55.9474
7.434161478756298 55.2768
7.456524974096713 55.4711
7.478888753837185 55.5305
7.501235387657368 55.7344
7.523599738562711 55.8511
7.545946944825532 55.8236
7.568311870344528 56.3032
7.5906770845765665 56.8595
7.613025156078678 57.5598
7.635390950099687 58.1816
7.657739602662809 57.5394
7.680105979923558 57.041000000000004
7.702472650212829 57.3659
7.724822180948224 57.3966
7.747189439655568 57.534
7.769539560075357 57.7104
7.791907410653562 58.0837
7.81425812420825 57.9869
7.836626570110925 58.4804
7.858995315087906 59.2447
7.881346924933401 59.4758
7.903716270417482 60.1954
7.926068482028405 60.0842
7.948438431475253 60.8674
7.9708086843180235 61.5937
7.993161805171116 62.1901
8.015532667162402 62.4891
8.037886398416653 63.6608
8.060257873014221 63.9809
8.082629655331942 64.8241
8.104984308787587 65.3029
8.127356708900503 68.1673
8.149711981398308 72.2041
8.172085002766314 73.8555
8.194458336181368 72.1006
8.216814543847752 70.9727
8.23918850371002 71.309
8.26154533906492 72.8182
8.283919928836452 74.3433
8.306277395339652 75.3976
8.328652618483376 77.2298
8.351028159736202 79.3832
8.373386579575245 81.5485
8.395762759396959 83.8628
8.418121819038275 88.613
8.440498640894003 98.9062
8.462875785192262 113.779
8.485235811156207 145.53799999999998
8.507613602688501 223.96
8.529974277114228 344.042
8.552352719347912 499.355
8.574731488360351 755.54
8.59709314210385 1181.16
8.619472567021075 1684.34
8.64183487789147 2095.51
8.664214962183097 1825.98
8.686577933647762 1056.24
8.708958680784317 427.216
8.731339760774953 182.764
8.753703729764451 119.37299999999999
8.77608547780821 104.574
8.798450116065078 99.6596
8.820832535634787 96.1919
8.843215292401656 94.525
8.865580941199045 92.7462
8.887964374703538 91.5263
8.910330701447199 92.0902
8.932714815164482 92.6439
8.955099270424924 91.4836
8.977466620733543 89.2834
8.999851761421976 87.7429
9.022219798361645 86.3784
9.04460562795561 86.3853
9.066991803441677 86.073
9.089360876979615 85.6008
9.111747746589993 85.2657
9.13411751544971 84.4292
9.156505082664324 84.3267
9.178875550323522 84.6015
9.20126381862328 84.7527
9.223652438908596 84.9498
9.246023961427412 84.8244
9.26841328802173 84.351
9.290785518039224 84.6255
9.313175554425882 85.9435
9.335565947154315 85.8906
9.357939245086508 86.3005
9.380330352834827 86.0588
9.40270436697103 86.0943
9.425096193225055 86.1934
9.447488380180165 87.0088
9.469863475295412 87.208
9.492256385987508 87.2667
9.514632206018318 88.2118
9.537025843935714 88.8602
9.559402392368193 89.5096
9.581796761000229 90.4016
9.604191496441521 91.2992
9.626569144158516 93.7511
9.648964615551032 96.4843
9.671343000390081 97.8686
9.693739211225699 96.9319
9.716135793237463 96.3656
9.738515290448102 96.4712
9.760912617143402 97.2134
9.783292860202891 99.0979
9.805690935076182 100.587
9.828089385495742 101.434
9.850470754023561 103.81700000000001
9.872869957865444 109.48700000000001
9.89525208097539 119.944
9.917652041736662 129.985
9.940052382417589 138.109
9.962435644102392 170.64700000000002
9.984836746950979 233.533
10.007220771957746 318.877
10.029622640473708 439.689
10.052007432299963 617.493
10.074410069984072 870.796
10.096813093716005 1220.03
10.119199042482517 1603.52
10.141602840636468 1852.85
10.163989564971628 1647.86
10.186394141051062 1013.47
10.208799107559706 472.805
10.231187001965623 210.81400000000002
10.253592751657669 135.488
10.275981430388155 118.49
10.298387966769793 115.31700000000001
10.320794897965431 116.41799999999999
10.343184759907361 114.794
10.36559248305461 110.90100000000001
10.387983138083852 110.236
10.410391656691655 118.65700000000001
10.432800574501677 136.95
10.455192425893369 158.286
10.47760214443012 188.283
10.499994797678786 231.997
10.522405320453982 298.5
10.54479877906917 384.523
10.567210109595656 487.05300000000005
10.5896218454736 541.999
10.612016518879773 526.7080000000001
10.634429067781074 372.56300000000005
10.656824555333241 216.204
10.679237920773568 130.94899999999998
10.701651695961992 100.56
10.724048411481384 92.4235
10.746463008485165 89.3234
10.768860546937125 87.4125
10.791275969274796 85.7733
10.81369180576079 84.7043
10.836090585366925 83.6136
10.858507252467449 82.1017
10.88090686379991 81.0697
10.903324365036394 80.5087
10.925724811614439 79.8331
10.948143150509463 80.8064
10.970561909719066 80.0733
10.992963615930844 78.3036
11.015383218085756 76.5786
11.037785768347074 75.1244
11.06020621697282 74.7901
11.082627090322113 74.2108
11.105030913430326 73.643
11.12745263854165 73.5037
11.149857314510728 75.3008
11.172279894912576 78.8967
11.194702904450653 79.0831
11.217108866490921 76.3058
11.239532736615194 73.2582
11.26193956033512 72.12
11.284364294577085 70.9605
11.306789462371718 69.6851
11.329197585398376 68.9939
11.351623622610898 69.0126
11.37403261614354 67.7068
11.396459526308487 67.8934
11.418869393879497 67.4352
11.441297180532617 66.8027
11.463725406927658 66.4462
11.486136592353875 66.15100000000001
11.508565700543707 66.2784
11.530977768845315 67.6437
11.553407762368774 68.4202
11.575838200059769 67.7643
11.598251599479612 66.4147
11.620682927815501 65.4088
11.64309721895548 65.1819
11.665529441478206 65.0107
11.687962112597958 64.7125
11.710377748130886 64.6814
11.732811318753434 64.6212
11.755227854859067 64.4111
11.777662328529495 64.5596
11.800079768750786 64.6285
11.822515149015453 64.5181
11.844950984084935 64.5423
11.867369787303163 64.1883
11.889806534289491 64.2108
11.912226250487029 64.648
11.934663912939751 64.5672
11.9571020346363 64.7385
11.979523127133968 65.0483
12.001962169624331 66.3472
12.024384183972964 69.1162
12.046824150809913 73.9482
12.069264581333726 80.2982
12.091687985297767 86.9089
12.11412934550045 96.3792
12.136553680195208 110.134
12.158995973632788 128.582
12.181438735204349 150.921
12.20386447284199 176.019
12.226308172985636 197.143
12.24873485024193 199.55
12.271179492516982 172.72099999999998
12.293607112949127 130.844
12.316052700916226 96.4071
12.338498763250042 78.6344
12.360927805303868 70.5633
12.383374818673879 67.808
12.405804812803074 66.0612
12.428252780773262 65.9813
12.45070122756722 66.033
12.473132656675375 66.0363
12.49558206341869 66.0623
12.518014453510101 66.0751
12.540464823770117 66.3622
12.562915677315177 66.6997
12.58534951575545 66.9278
12.607801338171472 68.3511
12.630236146511358 71.9562
12.652688941369085 74.816
12.675124723177234 75.0743
12.697578494048786 73.0463
12.720032754458185 70.4048
12.742470003354093 69.4433
12.764925245138771 69.7234
12.787363476431278 69.8874
12.809819703166806 70.5347
12.83227642391173 71.3557
12.854716135692716 71.7323
12.877173846755147 72.8621
12.899614549869717 73.3315
12.9220732548287 74.051
12.94453245827299 74.5163
12.966974655289818 75.8998
12.989434858002571 76.7483
13.011878055298721 77.192
13.034339260862497 78.6968
13.056800969391883 80.0062
13.079245674017244 82.7931
13.101708390774869 87.4917
13.12415410463411 99.23200000000001
13.146617833206086 113.93799999999999
13.169064559883248 127.603
13.191529303857127 144.612
13.213994557076367 168.229
13.236442809902437 202.028
13.258909083908291 246.752
13.28135835851934 295.226
13.30382565690295 352.656
13.326293469022952 401.765
13.348744283242008 420.635
13.371213125129904 367.63699999999994
13.39366497011003 278.564
13.416134845360597 186.84099999999998
13.438605238843131 132.799
13.46105863690397 116.495
13.483530069144786 117.905
13.505984506951902 124.818
13.528456981549432 136.783
13.550929978879088 152.238
13.573385983253365 174.386
13.595860028340867 205.46099999999998
13.618317081455832 244.19
13.64079217790333 288.829
13.663250283359057 332.524
13.685726434770173 361.69300000000004
13.708203115221277 343.726
13.730662806148091 275.703
13.75314054697177 200.945
13.775601299246777 135.799
13.798080104050406 102.23200000000001
13.820559442405358 88.572
13.843021793671388 84.4513
13.865502201420897 82.7375
13.887965623051947 82.016
13.910447103807167 80.6917
13.932929122629764 79.4713
13.955394156785959 79.0357
13.977877254034569 78.0519
14.000343367582113 77.4964
14.022827546871707 76.9148
14.045294743423524 76.0968
14.06778000837062 75.3187
14.090265817715476 75.0555
14.112734645763819 74.6824
14.13522154619454 74.4742
14.157691466286913 74.2402
14.180179461423874 73.9833
14.202668005486178 73.4121
14.22513957064374 72.778
14.247629214846473 72.5017
14.270101881097517 72.3468
14.29259262906496 72.3173
14.315083930490205 72.5966
14.337558255389705 72.815
14.360050666019726 72.998
14.382526101071944 72.1009
14.405019624534942 71.3335
14.427513705993134 70.7951
14.449990813291825 70.9146
14.47248601302899 70.8112
14.49496423954951 70.9769
14.517460561197822 71.0378
14.539939910570322 70.7274
14.562437357763558 71.0056
14.58493536931253 71.8853
14.607416409993311 72.4579
14.62991555254159 73.1533
14.652397725157423 73.1633
14.674898002342799 72.9825
14.697398848433282 73.0605
14.719882725991326 74.3485
14.74238471217934 76.4695
14.764869730765593 81.8908
14.787372860692983 85.9369
14.809876564079925 91.5607
14.83236330125751 98.0306
14.854868153850365 106.99600000000001
14.877356041159485 119.961
14.899862046604186 135.483
14.922351087688757 154.91
14.944858249632887 176.463
14.967365991421232 199.74
14.989856770231246 215.03
15.012365673994204 217.43200000000002
15.03485761569738 193.50400000000002
15.05736768508665 154.17700000000002
15.07987833888692 121.274
15.102372032001655 94.7817
15.124883856909658 79.8351
15.14737872204565 74.5631
15.169891721717274 72.8617
15.192405310371893 72.4617
15.214901940621196 72.4403
15.237416709527137 72.0431
15.259914520936249 72.2983
15.282430473753607 71.3544
15.304947020131227 70.361
15.327446610371178 69.8794
15.349964346154254 69.0637
15.372465126703139 68.7327
15.394984055556009 68.6494
15.417486030076159 68.2979
15.44000615566487 67.9262
15.462526881230803 67.952
15.485030653812652 68.2392
15.507552581617434 68.0051
15.530057557334603 67.9502
15.55258069104857 68.4693
15.575104429329837 68.1919
15.597611216864632 68.1565
15.620136166564563 68.8043
15.6426441664095 70.9154
15.665170331202765 74.682
15.687697105158826 78.7996
15.710206930593545 82.805
15.732734925158933 87.4266
15.755245972089478 93.9834
15.77777519094324 102.87100000000001
15.800287463046663 114.352
15.822817909869592 128.835
15.84534897229804 144.553
15.867863089299354 162.681
15.890395385222186 179.46099999999998
15.912910736597423 190.322
15.935444269699861 187.32299999999998
15.957978423016485 163.026
15.980495633101265 131.2
16.003031029129367 102.31200000000001
16.02554948280019 79.8918
16.048086125229432 69.9921
16.070623392487107 66.6591
16.09314371869582 65.6044
16.11568223789321 64.6663
16.13820381691126 63.7235
16.160743591742527 62.973
16.183283996022084 62.1513
16.205807461423195 61.1041
16.228349126881973 60.6767
16.25087385432698 60.5685
16.27341678466365 60.0324
16.29594277784926 59.8112
16.31848697676433 59.8311
16.341031811604868 59.7864
16.36355971058487 59.7762
16.3861058195587 59.602
16.40863499352978 58.7141
16.431182380342005 58.2709
16.453730407713202 57.7249
16.476261501364792 57.26
16.498810812136167 57.1901
16.52134319004079 57.1419
16.54389378792203 57.2231
16.566445031001553 56.8841
16.588979342490088 56.7448
16.61153187824822 56.6588
16.634067483263312 56.4096
16.656621315414416 56.4884
16.679175797408888 55.9816
16.701713349928728 56.1321
16.72426913389191 56.323
16.74680798922351 56.3925
16.76936507887444 56.4162
16.791905240734874 56.5078
16.814463639794468 56.3393
16.837022695210294 56.2349
16.859564824093756 56.4989
16.882125194503903 57.0163
16.904668639217885 57.6134
16.927230328348003 57.7419
16.949792678493612 57.9192
16.972338104193863 57.5094
16.994901778652235 57.3204
17.017448529496576 57.1845
17.040013531998152 57.9064
17.06257920018044 58.4961
17.0851279459922 59.4327
17.107694947817667 60.6284
17.130245028099072 61.5271
17.15281336730298 62.8635
17.17536478578733 64.4022
17.19793446610687 66.6359
17.220504818648422 69.2653
17.243058251703697 71.5098
17.265629950971032 74.9795
17.288184731571736 78.8609
17.310757781306908 82.7712
17.33333150794385 84.8758
17.355888317140174 84.4671
17.37846339986244 79.7401
17.401021565958885 73.57
17.42359800851343 68.1629
17.44617513265564 64.1362
17.468735341390783 61.8818
17.491261035594565 60.9211
17.51396340099364 60.7297
17.536490463869136 60.913000000000004
17.559018209820174 60.9978
17.58154663977963 61.2245
17.604251766089718 61.369
17.626781572227713 61.3209
17.64931206518155 61.4452
17.671843245885103 61.9284
17.69455114821572 62.3662
17.717083712612634 62.6692
17.739616967569667 62.8891
17.762150914021706 63.1675
17.78486160749854 63.3898
17.807396945166804 64.3255
17.829932977143503 66.219
17.85246970436452 68.6328
17.875183204129467 70.8091
17.897721330097664 73.1897
17.920260154126645 75.6597
17.942799677153296 78.98
17.9655159983646 82.8791
17.988056927677544 88.0647
18.010598558807683 94.7439
18.033140892692916 102.34200000000001
18.05586005052525 110.30799999999999
18.07840379824407 120.06
18.10094825154059 130.377
18.12366954819864 139.84799999999998
18.146215420998306 142.856
18.16876200220057 136.72299999999998
18.191309292745153 124.318
18.214033452627167 110.405
18.236582170236648 97.8937
18.259131600016456 91.301
18.281681742907335 89.1477
18.304408781233683 91.6277
18.32696035875955 95.2047
18.349512652227624 99.2798
18.372065662579683 103.809
18.394795594587553 106.156
18.41735004715306 104.689
18.43990521943684 98.8024
18.46246111238171 89.64
18.485193953325208 80.0267
18.507751296070428 72.332
18.530309362314178 67.8431
18.552868153000343 65.5941
18.57560391815056 64.0105
18.59816416623245 63.4305
18.620725141597372 63.0178
18.643286845190268 62.5575
18.666025549835414 62.1565
18.688588718427933 61.583999999999996
18.711152618092243 61.4694
18.73389353884365 61.1646
18.75645890921984 60.7071
18.77902501351406 60.5038
18.801591852673102 60.3196
18.824335739722738 59.7334
18.846904057212626 59.8402
18.8694731124168 59.513999999999996
18.89204290628315 59.4782
18.914789774966803 59.2696
18.937361054791623 58.8797
18.959933076131318 58.6112
18.982505839934877 58.7409
19.00525570560582 58.9346
19.027829963004184 58.7025
19.05040496572238 58.6815
19.072980714710468 59.0063
19.095733592739563 59.3206
19.11831084296757 59.5161
19.140888842324735 60.0696
19.16346759176222 60.4875
19.18622349753803 60.855
19.208803755869358 61.8375
19.231384767143577 63.1124
19.253966532312948 64.5772
19.276725481241822 66.1968
19.29930876296784 67.7816
19.3218928014549 70.1934
19.34465404436217 72.5913
19.36723960516257 75.0979
19.389825925592426 76.7795
19.412413006605938 76.9029
19.43517731967805 74.3211
19.457765930683355 70.1264
19.48035530514408 65.6205
19.50294544401556 61.5428
19.525712842708348 58.5144
19.54830451925909 56.9581
19.570896963095727 55.7068
19.593490175174704 55.578
19.616260674962184 55.6292
19.638855432416964 55.1832
19.661450960992624 55.4242
19.68404726164677 55.2102
19.706820878021247 55.0562
19.729418731756834 55.1983
19.752017360452857 54.8998
19.77461676506804 55.3439
19.797393513540218 55.4978
19.819994478951667 55.8108
19.84259622316767 56.5053
19.8651987471481 57.0706
19.887978643247177 57.1073
19.91058273574792 57.6147
19.933187610901943 58.4035
19.955969879466828 59.5148
19.97857632894404 60.8489
20.00118356396599 62.2278
20.023791585494575 64.0204
20.046577028914875 66.2136
20.069186632506966 67.8685
20.091797025500632 70.1392
20.114408208858933 71.3806
20.137196842715273 72.133
20.159809615886765 70.9381
20.18242318232135 68.2888
20.20503754298326 66.0807
20.227829382875154 64.3012
20.250445341109344 63.6744
20.27306209647285 63.747
20.29567964993108 64.6282
20.31847471147704 65.3798
20.34109387027612 66.4581
20.363713830075454 66.6776
20.386334591841646 65.5298
20.409132890679302 63.239
20.431755265564437 60.0947
20.454378445325528 57.1336
20.477002430930366 55.1398
20.499803982716553 53.8011
20.522429589228004 52.9269
20.54505600449589 52.36
20.567683229489194 52.3265
20.590488049900088 52.0104
20.61311690359731 51.8946
20.63574656993626 51.4776
20.658553853717297 51.1689
20.681185154618298 51.2693
20.703817271080066 50.868
20.72645020407368 50.7253
20.749260783967177 50.7018
20.771895359337133 50.5565
20.794530754161617 50.4437
20.817166969412938 50.4348
20.83998086114876 50.3319
20.86261872660049 50.2567
20.885257415405402 50.3176
20.90789692853701 50.0213
20.930714147864748 50.1808
20.953355319030678 50.2417
20.97599731745334 50.2153
20.99864014410749 50.0122
21.021460706796564 50.2502
21.044105199328826 50.5337
21.06675052302631 50.45399999999999
21.089396678865015 50.8192
21.112220600704806 50.9315
21.134868430275347 51.2145
21.15751709492456 51.3391
21.180166595629693 51.4885
21.202993892429635 52.0444
21.22564507473034 52.4115
21.24829709602816 52.5993
21.27112693608965 52.6655
21.293780644891275 53.1479
21.316435195634053 52.5666
21.339090589297417 51.5097
21.361923832041875 51.1921
21.384580921090404 50.4567
21.407238856007325 50.0494
21.429897637773326 49.9717
21.45273429906592 49.8915
21.475394784108598 49.8136
21.498056118951983 49.8103
21.520718304578022 50.0249
21.543558400304388 50.2281
21.566222297108816 50.5545
21.58888704765135 50.9275
21.61155265291521 51.1788
21.63439619898156 51.5798
21.657063523335786 51.8626
21.67973170537063 52.468
21.7024007460706 53.0563
21.72524775840385 53.6297
21.747918526116475 54.8281
21.770590155457388 55.9009
21.79326264741238 57.3285
21.816113141960237 58.681000000000004
21.838787368860547 60.0444
21.861462461341976 61.6693
21.884315579735777 63.5904
21.90699241312273 64.9108
21.92967011506078 65.9802
21.95234868653799 66.2468
21.9752053151131 65.4392
21.997885635446785 63.5984
22.020566828293532 61.5789
22.04324889464272 59.5529
22.066109049404666 57.8765
22.088792872571794 56.9731
22.111477572219204 57.1526
22.1341631493376 57.4352
22.157026846313123 57.2734
22.179714188221507 56.8237
22.202402410582668 55.9503
22.22509151438863 54.5853
22.24795876962584 53.0931
22.270649646204486 52.1379
22.293341407213727 51.291000000000004
22.316034053646906 50.7239
22.338904883215342 50.5168
22.36159931041458 50.511
22.38429462602756 50.3994
22.40699083104897 50.1985
22.429865251039757 50.2151
22.452563244831367 50.2405
22.47526213102522 50.2932
22.49813925616515 50.0835
22.520839937143307 50.0087
22.543541513520587 50.145
22.56624398629403 49.9912
22.589124730075895 49.9159
22.611829005656723 50.403
22.63453418063466 50.3631
22.657240256008077 50.6606
22.680124634582935 50.7331
22.70283252079775 50.9997
22.725541310413075 51.4127
22.74825100442868 51.6087
22.771139033969575 51.9891
22.79385054687155 52.2508
22.81656296718292 52.9244
22.83927629590484 53.8318
22.862167992606945 54.5592
22.88488314827121 55.2986
22.907599215359284 56.0488
22.93031619487366 56.9662
22.953211574954405 58.0701
22.975930389478226 59.0503
22.998650119445763 59.5823
23.02137076586092 58.9496
23.044269845560063 57.8175
23.06699233506288 56.2203
23.089715744034912 54.4455
23.112617610931565 52.6922
23.135342869061212 51.6116
23.158069049684816 50.611999999999995
23.1807961538087 50.3378
23.20370174880544 50.4004
23.226430710184808 50.3644
23.249160598093425 50.543
23.271891413539002 50.6115
23.294800752937697 50.6839
23.31753343374794 50.8858
23.340267045128353 50.9437
23.36300158808808 51.2647
23.38591468821339 51.6082
23.408651104658304 52.1513
23.431388455719986 52.6683
23.454126742409 53.2143
23.4770436196085 54.1229
23.499783787914662 55.0074
23.522524894889884 55.5829
23.54526694154616 56.5137
23.56818761219047 57.6563
23.59093154860734 58.4579
23.613676427751283 59.2678
23.636422250635754 58.8025
23.659346731118656 57.2667
23.68209445191868 55.618
23.704843119509587 53.3949
23.72759273490623 51.4463
23.750521041644767 49.7963
23.77327256312355 48.6144
23.796025035462787 47.9605
23.818956224555475 47.506
23.841710609113413 47.4625
23.86446594758979 47.1628
23.887222241002014 46.8865
23.910157285144578 46.4089
23.932915498962537 46.4638
23.955674670778713 46.4136
23.978434801611975 46.1874
24.001373717286125 46.0659
24.024135776723917 46.0024
24.046898798245582 45.8995
24.06966278287146 45.5907
24.092605586582614 45.4356
24.115371508023642 45.2315
24.1381383956401 45.1989
24.16090625045381 45.3194
24.183852958731244 45.2927
24.206622758582608 45.1977
24.229393528706886 44.8701
24.252165270127392 44.9453
24.27511589952438 44.9071
24.297889594216997 44.6546
24.32066426328598 44.5984
24.34343990775613 44.5433
24.36639447485003 44.5198
24.38917208083877 44.4608
24.41195066531332 44.3705
24.43490819850244 44.3512
24.457688750692377 44.1045
24.48047028445616 44.2374
24.503252800821233 44.2147
24.526214300784112 44.2709
24.548998793132213 44.2615
24.57178427117417 44.1664
24.59457073593893 44.2226
24.617536219319863 44.1199
24.64032466834748 44.2018
24.663114107195035 43.9894
24.685904536893013 43.8398
24.708874020360852 43.7181
24.731666442613744 43.7649
24.754459858818787 43.5709
24.777254270007962 43.6112
24.80022777025625 43.4894
24.82302418230472 43.4476
24.845821592443674 43.5154
24.86862000170663 43.5037
24.891597535453727 43.3361
24.914397953892728 43.6442
24.93719937456671 43.6516
24.96000179851076 43.7698
24.98298338249997 44.0324
25.00578782394922 44.2275
25.028593271784167 44.5186
25.05157790644186 44.5792
25.07438537804115 44.6124
25.097193859145293 44.7998
25.120003350792075 45.0341
25.142992065061257 45.3201
25.165803588823465 45.665
25.18861612625217 45.7773
25.211429678386736 45.8687
25.234422489079968 46.0169
25.257238081693636 45.8659
25.280054692141732 46.0648
25.3028723214652 45.8547
25.325869245420463 45.9061
25.348688923599397 45.9788
25.371509623787006 46.0838
25.394331347025812 45.9806
25.41733240110666 45.6201
25.440156181590016 44.9176
25.46298098826268 44.321999999999996
25.48580682216873 43.7641
25.50881202326435 43.1738
25.53163992281684 42.6026
25.55446885274561 42.3071
25.577298814096377 42.1074
25.600308179121807 41.9994
25.623140214533745 42.0812
25.64597328451537 41.9994
25.66898578564376 41.8662
25.691820936010206 41.818999999999996
25.714657124097695 41.7854
25.737494350954734 41.8745
25.760511045684957 41.7408
25.783350361364224 41.7427
25.806190718969255 41.7462
25.82903211955018 41.8721
25.852053024868923 41.8109
25.874896522722523 41.7537
25.897741066713106 41.8635
25.920586657892454 41.9312
25.943611790812668 42.0473
25.966459487728237 42.1229
25.989308234998564 42.1588
26.01215803367705 42.4821
26.03518741123814 42.5094
26.05803932412957 42.6523
26.080892291600094 42.6056
26.10374631470478 42.6629
26.12677995397268 42.8255
26.14963609978026 42.7961
26.172493304397875 42.708999999999996
26.19535156888223 42.3908
26.218389486949604 42.0312
26.241249882640123 41.7587
26.26411134137826 41.4928
26.28715248187403 41.5295
26.31001607820869 41.3668
26.3328807407756 41.1956
26.35574647063438 41.2697
26.37879191991473 41.2146
26.401659795896734 41.2408
26.424528742360263 41.4655
26.447398760366614 41.7129
26.470448535598294 41.75899999999999
26.49332070826805 42.0154
26.516193955675355 42.2832
26.53906827888316 42.3101
26.562122397260108 42.5213
26.584998883685063 42.7292
26.607876449110325 42.93
26.63075509460056 43.0924
26.65381357334404 43.3085
26.67669439061878 43.2655
26.699576291163382 43.3323
26.722459276044212 43.0616
26.745522132402975 42.883
26.768407297649354 42.5571
26.791293550442003 42.1389
26.814180891848974 41.9278
26.837248143099337 41.6064
26.860137673466657 41.6088
26.88302829566349 41.2446
26.90592001075963 41.1584
26.92899167420566 41.09
26.951885586870763 40.6483
26.974780595655517 40.4052
26.99785558178161 40.4285
27.020752794605112 40.1795
27.043651106772522 40.0648
27.06655051935668 40.0535
27.089629948036183 39.9161
27.112531573292053 39.8967
27.135434302194138 39.9244
27.158338135817015 39.7755
27.181422024430987 39.7396
27.204328079372566 39.5953
27.22723524226965 39.6222
27.250143514198573 39.6922
27.273231880156334 39.778
27.296142382065014 39.6548
27.319053996245536 39.5735
27.341966723775965 39.604
27.365059584515222 39.6659
27.38797455070062 39.6887
27.410890633481237 39.4265
27.433807833936918 39.4695
27.456905206923906 39.532
27.47982465472398 39.4522
27.502745223449743 39.6723
27.525666914182825 39.8766
27.548768816912457 39.8358
27.571692763693633 39.6588
27.59461783573812 39.4532
27.617723149491244 39.3235
27.640650484125285 39.3376
27.66357894728264 39.4129
27.686508540048052 39.244
27.709618414237887 39.1516
27.732550278321757 39.1608
27.755483275279115 38.9993
27.778417406196485 39.1423
27.801531858397514 39.0722
27.824468269376716 39.079
27.847405817586786 38.974000000000004
27.870344504116094 39.1808
27.893463551932008 39.1778
27.916404527281053 39.3696
27.93934664422563 39.3193
27.962289903855886 39.4073
27.98541356491974 39.716
28.00835912214229 39.777
28.03130582533231 39.9436
28.054253675581805 40.1657
28.077381967556104 40.0642
28.100332124185126 39.9471
28.123283431160893 39.9533
28.146235889577238 39.9286
28.169368830154156 39.7081
28.192323603752033 39.4543
28.215279532083304 39.1325
28.238415973016764 38.9951
28.261374223145094 38.8288
28.284333631303806 38.7571
28.307294198589954 38.5445
28.330435319167677 38.3565
28.353398217078915 38.0961
28.376362277420153 37.8427
28.39932750129032 37.6029
28.422473319286713 37.5244
28.44544088262495 37.5306
28.468409612800283 37.2607
28.491379510913497 37.0707
28.51453004413313 36.9964
28.53750229057244 36.921
28.56047570826344 36.8578
28.583450298308804 36.8586
28.606605564586562 36.6672
28.629582511831156 36.6955
28.65256063474956 36.695
28.675539934446338 36.6408
28.698699951647605 36.5516
28.72168161743193 36.4702
28.74466446331978 36.5359
28.767648490417624 36.4955
28.790813276438353 36.429
28.813799678527303 36.3615
28.836787265157085 36.3403
28.859955641890075 36.3581
28.882945610203045 36.3354
28.905936766392035 36.2499
28.928929111566863 36.3907
28.952102288520145 36.3105
28.975097024308607 36.173
28.998092952423807 36.0156
29.021090073977508 35.8552
29.04426806913204 35.7998
29.067267590245258 35.6805
29.090268308143695 35.5274
29.11327022394099 35.6041
29.13645305530891 35.3496
29.159457379627167 35.4166
29.18246290519685 35.3661
29.20546963313352 35.2985
29.22865731875826 35.397
29.25166646419296 35.2833
29.27467681535305 35.126
29.29768837335608 35.2748
29.320880931312562 35.2354
29.34389491580634 35.121
29.366910110507334 35.1078
29.38992651653503 35.2
29.41312396492981 35.1554
29.436142806456754 35.0826
29.45916286268059 34.9788
29.48236399319994 34.9117
29.50538649169417 34.7428
29.528410208259935 34.7323
29.55143514402014 34.4491
29.574641196749695 34.2985
29.597668583816574 34.2512
29.6206971934585 34.1352
29.64372702680042 34.1707
29.666938019934474 34.0525
29.689970313635285 34.0002
29.713003834422636 33.8962
29.73603858342347 33.7879
29.759254535188578 33.9086
29.78229175361658 33.6981
29.80533020365064 33.8786
29.82836988641968 33.827
29.85159081507472 33.6318
29.874632976355343 33.6458
29.89767637376955 33.7384
29.920721008448314 33.5583
29.9439469322847 33.5372
29.96699405457564 33.5544
29.9900424175358 33.5679
30.013092022298157 33.3713
30.03632295963995 33.3635
30.059375061131373 33.4221
30.08242840783577 33.4678
30.105483000888153 33.3985
30.128718970092244 33.2526
30.151776069006917 33.2205
30.17483441768648 33.2679
30.198074175317235 33.3378
30.221135036724256 33.2775
30.24419715131772 33.282
30.267260520236203 33.2391
30.290505341942243 33.2637
30.313571232750228 33.2236
30.336638381310948 33.3541
30.35970678876503 33.1647
30.38295669299435 33.1018
30.40602763151657 33.1279
30.429099832366074 33.0227
30.452173296685572 32.9458
30.47542830191959 32.9892
30.498504306502497 32.9738
30.521581577995562 33.0797
30.544660117543582 33.1535
30.56792024229725 33.123000000000005
30.59100133132069 32.9594
30.614083691845494 33.0909
30.637167325018545 33.0985
30.660432587840603 33.2104
30.683518779717886 33.0705
30.70660624769615 33.1056
30.729694992924372 33.0619
30.75296541239743 33.1339
30.77605672557558 33.0336
30.799149319462742 33.0185
30.8224236211637 32.8813
30.845518789950724 32.7477
30.868615242910597 32.7789
30.891712981195973 32.5966
30.91499247215866 32.5138
30.938092794619365 32.5143
30.96119440587579 32.4076
30.984297307082752 32.3056
31.00758200598383 32.2287
31.030687500658694 32.0846
31.053794288760695 32.0092
31.076902371446767 31.915
31.100192296997445 31.9231
31.12330298246119 31.9277
31.14641496599209 31.8793
31.169528248749216 31.924
31.19282341969534 31.9126
31.215939314557186 31.7673
31.239056512134788 31.8409
31.262175013589378 31.7912
31.28547544871168 31.7307
31.30859657161541 31.6958
31.331719001892175 31.666
31.35484274070538 31.7517
31.378148458819545 31.7499
31.401274828443725 31.7715
31.424402510106933 31.7087
31.447712205419993 31.735
31.470842524931633 31.5769
31.493974159989783 31.6198
31.51710711176168 31.6701
31.54042212308802 31.6626
31.563557722100917 31.6605
31.586694641341655 31.5402
31.609832881979628 31.4037
31.63315322823208 31.3885
31.656294125521327 31.289
31.679436347728515 31.2627
31.70257989602529 31.0892
31.725905596152327 31.0655
31.74905181052835 30.9734
31.772199354521323 30.9724
31.79534822930507 30.9365
31.818679302290967 31.0401
31.84183085259981 30.9701
31.864983737233473 31.0108
31.88813795736804 31.0786
31.911474422233013 30.9345
31.934631327356435 30.976999999999997
31.9577895715215 30.9594
31.980949155906522 30.9024
32.004291031706956 30.8672
32.027453310562606 30.8355
32.05061693318573 30.6945
32.07396288236386 30.6895
32.09712920658542 30.6309
32.12029687812702 30.4856
32.14346589817093 30.4028
32.166817291729984 30.3767
32.18998902288583 30.2682
32.21316210610336 30.1134
32.23633654256711 30.0634
32.259693399663725 30.0283
32.282870556771144 30.0121
32.30604907069099 29.9661
32.329228942610065 29.8887
32.35259128243769 29.7321
32.375773884550505 29.7638
32.398957848235646 29.7662
32.422143174682176 29.7015
32.445511016471215 29.6429
32.468699082679954 29.5424
32.49188851523011 29.5879
32.51507931531304 29.4678
32.538452678331 29.4229
32.56164622776311 29.3172
32.58484114831493 29.278000000000002
32.60803744118015 29.2688
32.631416344731896 29.2566
32.654615396551876 29.1398
32.67781582427913 29.1545
32.701198898634416 29.1133
32.72440209253756 29.1385
32.747606665947124 29.0862
32.77081262006088 29.0363
32.79420126883317 29.0175
32.81740999876112 28.9025
32.840620112999424 28.8511
32.86383161274818 28.8549
32.88722585534586 28.8311
32.91044014056596 28.8919
32.933655814909734 28.8094
32.95687287957963 28.8157
32.98027273544904 28.6136
33.00349259526636 28.6576
33.026713849030116 28.6608
33.04993649794511 28.5955
33.073341986570746 28.6333
33.09656744032826 28.5987
33.11979429286444 28.5955
33.14302254538647 28.4945
33.166433686291185 28.4895
33.18966475336992 28.4341
33.212897224069096 28.414
33.23613109959831 28.3559
33.259547912343415 28.2465
33.2827846121627 28.2921
33.306022720453775 28.195
33.32926223842861 28.1952
33.352684742614166 28.1551
33.37592709463173 28.1897
33.399170859982064 28.0268
33.422597648419426 28.0618
33.44584425514446 27.888
33.46909227885668 27.878
33.4923417207723 27.7681
33.51577423505344 27.8302
33.539026528130385 27.6822
33.56228024307245 27.6536
33.585535381098246 27.4635
33.60897364093058 27.5142
33.63223163992385 27.5762
33.6554910656699 27.3658
33.678751919389796 27.4402
33.702195944520106 27.4104
33.72545966903325 27.3893
33.74872482519663 27.2471
33.771991414233746 27.315
33.79544122444841 27.3486
33.81871069412428 27.1534
33.84198160035767 27.084
33.86525394437455 27.1612
33.88870955949969 27.0198
33.911984794020626 26.9989
33.93526147001624 26.9706
33.958539588715006 26.9212
33.98200102861669 26.8313
34.0052820477047 26.8639
34.02856451319451 26.8282
34.05203033759056 26.6636
34.07531571090147 26.6527
34.09860253431845 26.7103
34.121890809074316 26.609
34.145362493118924 26.6037
34.16865368561615 26.608
34.191946333164054 26.4515
34.21524043699793 26.4746
34.23871800066799 26.479
34.26201503218366 26.3531
34.28531352370466 26.3139
34.30861347646881 26.3017
34.33209693978188 26.3306
34.3553998301885 26.3149
34.378704185565205 26.175
34.402010007152356 26.1161
34.42549939016683 26.0879
34.44880815937748 26.01
34.472118398533134 25.9794
34.49543010887669 25.9826
34.51892543169198 25.7955
34.54224009966052 25.7784
34.56555624255917 25.8523
34.58887386163339 25.7376
34.61237514439016 25.6846
34.6356957311114 25.678
34.65901779775809 25.6542
34.68252356662995 25.5967
34.705848608458616 25.6063
34.72917513396849 25.5644
34.75250314440949 25.487
34.77601490857862 25.4788
34.799345904259795 25.3804
34.82267838863559 25.4641
34.846012362958525 25.4196
34.869530142679984 25.3472
34.89286711232212 25.355
34.91620557568269 25.2506
34.93954553401677 25.233
34.9630693495876 25.1341
34.986412313340814 25.1752
35.00975677584668 25.1571
35.033102738362956 25.0683
35.05663261012228 24.9399
35.0799815881786 25.0495
35.10333207003229 24.9533
35.12668405694369 25.0305
35.150220005273056 25.0185
35.17357501786656 24.8782
35.19693153931268 24.8544
35.220289570874385 24.7862
35.24383161619786 24.7678
35.267192683604904 24.7629
35.290555264930376 24.6993
35.314101899412165 24.6976
35.33746752422433 24.6651
35.36083466676374 24.7414
35.38420332829803 24.6421
35.407756095629054 24.6104
35.43112781085063 24.6397
35.45450104888391 24.5745
35.477875810999194 24.6022
35.50143473172161 24.4897
35.52481255774625 24.5957
35.54819191167777 24.5328
35.57157279478914 24.4665
35.595137889488406 24.3286
35.61852184675279 24.3015
35.641907337029984 24.2578
35.665294361595684 24.1849
35.68886565090076 24.1724
35.7122557598848 24.2128
35.73564740699838 24.1242
35.759040593519934 24.1329
35.78261809810353 24.0605
35.80601437933051 23.9453
35.829412203814705 23.9032
35.85281157283719 23.8527
35.876395313415884 23.964000000000002
35.8997977874528 23.9063
35.92320180988546 23.837
35.946790244133936 23.7832
35.97019737933222 23.7154
35.993606066789866 23.7171
36.01701630779276 23.6947
36.04061101440684 23.6074
36.06402437852291 23.6251
36.08743930005611 23.5599
36.1108557802951 23.4548
36.13445678011326 23.5064
36.15787639383515 23.5244
36.18129757014299 23.4108
36.20472031032821 23.3574
36.22832762423364 23.326999999999998
36.25175350829375 23.2487
36.275180960119776 23.2975
36.298609981005924 23.3618
36.32222362992669 23.2549
36.34565580510207 23.1962
36.36908955323448 23.1617
36.39252487562093 23.121
36.416144880530226 23.0122
36.43958336764275 22.9884
36.463023432914625 23.0686
36.486465077645676 22.9395
36.51009145956204 23.0923
36.53353627947859 22.9496
36.55698268276811 22.8866
36.58043067073321 22.8285
36.60406345072071 22.8187
36.62751462435344 22.8441
36.65096738658405 22.7418
36.67460498210655 22.7437
36.69806093788647 22.7231
36.72151848619297 22.6272
36.744977628333636 22.6259
36.76862165890998 22.5277
36.79208400512205 22.5737
36.81554794910557 22.5552
36.83901349217101 22.4728
36.862663978991606 22.5058
36.88613273667352 22.4233
36.90960309738324 22.3778
36.933075062434064 22.3072
36.95673202673572 22.3336
36.98020721697122 22.2141
37.003684015502365 22.2197
37.027162423645365 22.1623
37.050825886711465 22.1892
37.07430753063053 22.135
37.09779078812467 22.07
37.121275660513014 22.029
37.144945643673694 22.0371
37.16843376245278 22.0305
37.19192350009803 21.9969
37.215414857931435 21.9564
37.239091382563885 21.8347
37.262585997426164 21.888
37.28608223645736 21.8217
37.309763684451696 21.7619
37.33326318851098 21.6941
37.356764320726555 21.7249
37.380267082425526 21.7195
37.40395510942588 21.6712
37.42746114683234 21.6339
37.45096881771841 21.5583
37.474478123414166 21.5818
37.49817275092816 21.519000000000002
37.52168534303452 21.5083
37.54519957395567 21.4409
37.568715445024665 21.4358
37.592416694607714 21.3182
37.61593586281424 21.3689
37.63945667518264 21.3883
37.66297913304891 21.2727
37.68668702630454 21.2821
37.710212792059274 21.209
37.733740207334854 21.1862
37.757269273470364 21.0581
37.780983832050374 21.0442
37.80451621684926 21.1046
37.82805025654007 21.0416
37.851585952464795 20.9771
37.8753071980695 20.8826
37.89884622345676 20.8866
37.92238690911902 20.8905
37.94611318753442 20.8054
37.969657210779765 20.7797
37.99320289834801 20.8039
38.016750251586465 20.7978
38.04048325513017 20.7201
38.06403395679343 20.6064
38.087586328183946 20.6384
38.11114037065203 20.6357
38.13488012115898 20.6632
38.1584375229181 20.5989
38.181996599821 20.4423
38.205557353221124 20.4599
38.229303872575656 20.5038
38.2528679961576 20.4257
38.27643380031219 20.4327
38.30000128639589 20.3781
38.32375459653193 20.4025
38.34732546371299 20.3537
38.37089801690786 20.2858
38.39447225747609 20.2153
38.418232380377425 20.1697
38.441810012983396 20.2228
38.46538933705673 20.1462
38.488970353960084 20.1208
38.51273731166058 20.1183
38.536321731567014 20.0531
38.55990784840681 20.0211
38.58367995004091 19.9599
38.60726947812959 19.895
38.63086070726198 19.9325
38.654453638806274 19.9195
38.678232613930824 19.8355
38.70182896773327 19.7585
38.72542702806741 19.7803
38.7490267963045 19.7362
38.77281266709232 19.7052
38.79641586862214 19.7039
38.8200207821842 19.6685
38.843627409152944 19.6273
38.86742019782782 19.6169
38.891030269149255 19.5328
38.914642058016156 19.5265
38.938255565806124 19.5385
38.96205529464307 19.486
38.98567225787121 19.4989
39.00929094417078 19.4281
39.03291135492255 19.3939
39.05671804624804 19.3613
39.080341923549106 19.355999999999998
39.103967529460334 19.2721
39.127594865365744 19.250999999999998
39.15140854155791 19.1974
39.17503935514948 19.2689
39.19867190290282 19.2174
39.22249083587951 19.2115
39.24612686969409 19.2242
39.269764641845306 19.1639
39.293404153722804 19.0579
39.317230110864074 19.0472
39.34087311998506 18.9457
39.36451787301696 18.9626
39.388164371352595 18.9342
39.41199737518003 18.8545
39.43564738196752 18.8547
39.45929913825317 18.8391
39.48295264543308 18.8192
39.506792718520884 18.7385
39.530449745387216 18.7401
39.55410852735203 18.7446
39.57776906581474 18.69
39.60161623079 18.673
39.625280300200025 18.6738
39.64894613032202 18.5463
39.67261372255866 18.6227
39.6964680021016 18.5727
39.72013913657293 18.6132
39.74381203738292 18.5625
39.76748670593756 18.4975
39.79134812278169 18.468
39.81502634488497 18.4392
39.83870633896685 18.4181
39.862388106436654 18.3376
39.88625668336918 18.37
39.90994201572829 18.3608
39.933629125719285 18.282
39.957503091207826 18.2191
39.9811937746168 18.2598
40.00488623990914 18.2375
40.02858048850006 18.1575
40.05246165409549 18.1228
40.076159487492085 18.0841
40.099859108448875 18.0705
40.123560518384345 18.0289
40.1474489070226 18.0093
40.171153913178564 17.9491
40.194860712584955 17.9368
40.2185693066637 17.9676
40.242464941335314 17.8745
40.26617714307655 17.8194
40.289891143772046 17.8051
40.3136069448471 17.7638
40.33750984859743 17.8306
40.3612292688043 17.7411
40.3849504936829 17.6656
40.40867352466194 17.7088
40.43258372059144 17.6865
40.45631038219906 17.6585
40.48003885420956 17.6488
40.503769138055105 17.5544
40.52768664931955 17.5521
40.55142057531802 17.5211
40.57515631746428 17.4785
40.599079334038514 17.435
40.62281872700477 17.4101
40.64655994043941 17.4024
40.67030297578061 17.4216
40.69423334835778 17.3777
40.71798004609188 17.28
40.74172857006355 17.3045
40.76547892171441 17.3054
40.7894166736039 17.2336
40.813170699248566 17.2273
40.83692655691388 17.1662
40.86068424804498 17.1717
40.884629402612525 17.0862
40.908390779366385 17.0818
40.932153993938 17.0695
40.95591904777605 17.0268
40.979871628443995 17.0412
41.003640379561936 16.9826
41.02741097430883 16.9319
41.05118341413683 16.9013
41.075143444384416 16.9031
41.098919593177826 16.9372
41.1226975914255 16.8746
41.14647744058318 16.8579
41.170444943946755 16.772000000000002
41.19422851378379 16.7253
41.218013938914645 16.7819
41.24198706625173 16.6941
41.26577622087193 16.6933
41.289567235177785 16.6597
41.31336011063129 16.6785
41.337340752422875 16.6462
41.361137369129835 16.6129
41.38493585138705 16.6041
41.40873620066004 16.5605
41.43272438060107 16.5079
41.45652848292052 16.4351
41.48033445666918 16.4602
41.50414230331616 16.4263
41.528138045159764 16.4293
41.551949656675205 16.3724
41.575763145513235 16.303
41.59957851314666 16.2756
41.62358184070442 16.2298
41.64740098505737 16.2294
41.6712220126409 16.2794
41.69504492493139 16.2168
41.71905586207357 16.1432
41.74288256296395 16.1183
41.766711153007456 16.1883
41.79054163368412 16.1137
41.814560204340054 16.0878
41.838394485526365 16.142
41.86223066180303 16.0544
41.88625497706819 15.9327
41.910094962812 15.9554
41.93393684811168 15.8958
41.95778063445365 15.9074
41.981812625263366 15.8676
42.00566023303407 15.8111
42.029509746323676 15.7849
42.05336116662236 15.7907
42.077400857069705 15.7891
42.10125611078846 15.7502
42.12511327600405 15.6657
42.14897235421036 15.6731
42.173019768448455 15.6614
42.19688269209613 15.6581
42.22074753323349 15.6293
42.24461429335818 15.5818
42.268669455600495 15.5825
42.292540073217886 15.5218
42.31641261433284 15.52
42.34028708044675 15.4363
42.36435001496739 15.4629
42.38822835065557 15.3943
42.41210861586426 15.3858
42.4359908120986 15.3896
42.46006154323262 15.3052
42.48394762115317 15.3364
42.507835634632315 15.3823
42.531912233047436 15.3518
42.55580413732265 15.2796
42.579697981698 15.1772
42.60359376768525 15.1771
42.62767820545945 15.1587
42.65157789440821 15.1836
42.67547952952185 15.0863
42.699383112316 15.1
42.72347541395347 15.0406
42.74738291190531 14.977
42.771292362102166 14.9826
42.795203766063516 14.9755
42.819303956130405 14.9836
42.843219287476536 14.9237
42.86713657716324 14.8809
42.89105582671383 14.8489
42.91516392983864 14.9122
42.939087119032166 14.8972
42.963012272677304 14.8155
42.98693939230129 14.8057
43.01105543317513 14.7359
43.034986504731386 14.7368
43.05891954686589 14.6925
43.08285456110972 14.698
43.10697856448665 14.6485
43.130917542983475 14.5722
43.15485849820081 14.5972
43.17880143167367 14.5765
43.20293342237094 14.5525
43.226880332449 14.4815
43.25082922540554 14.5274
43.27496722682525 14.472000000000001
43.29892010567796 14.4502
43.32287497204102 14.4251
43.34683182745632 14.4109
43.370977859791836 14.3844
43.39493871351105 14.3516
43.41890156092628 14.3388
43.44286640358341 14.3234
43.46702049182749 14.2914
43.49098934522816 14.2514
43.51496019852649 14.2382
43.5389330532723 14.1764
43.56309522248204 14.1172
43.58707210044314 14.1154
43.61105098451946 14.1138
43.63503187626491 14.1373
43.659202151562134 14.0744
43.68318707902681 14.0729
43.70717401884041 14.0475
43.731162972560874 13.9807
43.75534137913236 13.9871
43.779334381108384 13.9648
43.803329401683186 13.9299
43.82732644241872 13.9343
43.8515130055166 13.9241
43.87551410707659 13.8419
43.89951723350145 13.7882
43.923709934595614 13.7884
43.94771713129917 13.784
43.97172635758096 13.8045
43.99573761501002 13.7439
44.0199385169922 13.6918
44.04395385732619 13.6996
44.067971233533086 13.7209
44.09199064718605 13.6276
44.11619977548961 13.5976
44.14022328470671 13.607000000000001
44.16424883610785 13.592
44.18827643127035 13.5313
44.21249381139513 13.5059
44.236525514814076 13.5244
44.26055926674478 13.543
44.28459506876863 13.5207
44.3088207262813 13.4573
44.33286064928722 13.439
44.35690262714919 13.3972
44.38094666145278 13.3887
44.4051806219871 13.4123
44.42922879003185 13.357999999999999
44.45327901929361 13.2741
44.477331311362136 13.2485
44.501573600619416 13.2676
44.525630039221795 13.2339
44.54968854541895 13.2035
44.573937102200176 13.2033
44.5979997645541 13.1492
44.622064499300315 13.1515
44.64613130803592 13.1154
44.67038823869318 13.1232
44.69445921643748 13.0616
44.718532272981385 13.0325
44.742607409926194 13.034
44.76687274034801 13.023
44.79095205918753 12.9404
44.81503346325094 12.9519
44.839116954143876 12.9301
44.86339071028742 12.9376
44.88747839599524 12.9206
44.91156817336837 12.8778
44.93566004401666 12.850999999999999
44.959942251908146 12.870999999999999
44.984038330325966 12.8439
45.00813650686762 12.7366
45.03223678314731 12.7465
45.05652746888232 12.7319
45.08063196592069 12.7154
45.104738567558705 12.6865
45.128847275414856 12.6626
45.15314646515866 12.5994
45.17725940679741 12.6373
45.20137445952892 12.5584
45.22568004865265 12.546
45.24979934496396 12.5489
45.27392075725247 12.5264
45.29804428714431 12.4807
45.322358426247604 12.4974
45.346486212804315 12.4713
45.370616121861914 12.450999999999999
45.39474815505086 12.4153
45.41907087049246 12.3403
45.4432071734666 12.3305
45.46734560548283 12.3657
45.49148616817604 12.3232
45.51581748638564 12.304
45.5399623320197 12.2456
45.56410931325473 12.2845
45.58825843173002 12.2514
45.61259837920865 12.2127
45.636751793816 12.2064
45.66090735060093 12.1416
45.68506505120716 12.1272
45.7094136545275 12.1377
45.73357566449271 12.1201
45.75773982322992 12.0843
45.78190613238733 12.0782
45.806263418194064 12.0258
45.83043404997326 11.9925
45.85460683713677 11.9819
45.87897065658495 12.0025
45.90314777634752 11.9345
45.92732705646868 11.9316
45.9515084986045 11.9053
45.97588104735473 11.866
46.00006683541565 11.8826
46.02425479047904 11.8663
46.04844491420549 11.8453
46.0728262191024 11.819
46.09702070211635 11.8084
46.12121735879483 11.7683
46.14541619080294 11.7513
46.169806278764455 11.7306
46.194009483459034 11.7362
46.21821486849841 11.6583
46.24242243555223 11.6651
46.266821333570014 11.6532
46.29103328674601 11.6161
46.31524742696538 11.6044
46.33946375590237 11.5502
46.36387149104216 11.5753
46.38809221957392 11.5121
46.41231514186606 11.5165
46.436540259597464 11.4997
46.460956858999374 11.4635
46.48518638983522 11.4562
46.509418121166966 11.4128
46.533652054678114 11.4495
46.55807754555709 11.4151
46.58231590571962 11.407
46.60655647313217 11.377
46.630988654873654 11.3017
46.655233659129024 11.2896
46.67948087571551 11.2599
46.70373030632484 11.2338
46.72817142736393 11.2385
46.752425308428684 11.210999999999999
46.77668140861147 11.2058
46.80093972960865 11.2125
46.82538981736788 11.1735
46.849652602470904 11.1175
46.87391761349769 11.0892
46.8981848521493 11.0803
46.9226439341274 11.0251
46.946915650573224 11.0431
46.97118959976749 11.0386
46.99546578341598 10.9866
47.019933887188216 11.001
47.04421456235744 10.9692
47.06849747711879 10.9181
47.09278263318286 10.9127
47.11725978640143 10.9017
47.14154944775105 10.8552
47.165841355555656 10.8454
47.1901355115306 10.8164
47.214621741924994 10.8272
47.23892041698887 10.8151
47.26322134538975 10.7679
47.28771440635075 10.7499
47.31201986422527 10.7442
47.33632758061436 10.7235
47.360637557241866 10.7043
47.38513974410611 10.7284
47.40945426407847 10.7364
47.43377104948137 10.69
47.45809010204344 10.6754
47.48260144275502 10.5903
47.506925052572285 10.607999999999999
47.53125093475548 10.5494
47.55557909103813 10.5201
47.58009961361992 10.502
47.60443234110732 10.4346
47.62876734791564 10.4637
47.65310463578333 10.489
47.6776343683373 10.4725
47.7019762413987 10.4164
47.72632040075572 10.4303
47.75066684815169 10.4103
47.77520581885936 10.353
47.799556865477655 10.3117
47.823910205386 10.3341
47.84826584033272 10.3434
47.87281407745551 10.2952
47.89717432569297 10.2963
47.92153687423484 10.2861
47.94609208429692 10.2661
47.97045925671401 10.247
47.99482873471275 10.186
48.01920052005013 10.22
48.04376504619224 10.1755
48.068141469543484 10.1518
48.09252020552573 10.134
48.11690125590099 10.1407
48.1414751266064 10.0926
48.16586082917454 10.0704
48.19024885144316 10.0222
48.2146391951793 10.0214
48.239222439012764 10.0352
48.26361744916137 10.0057
48.28801478610016 10.0257
48.31241445160131 10.0023
48.337007097209366 9.96105
48.36141144338331 9.9069
48.38581812345755 9.92025
48.41022713920929 9.93185
48.434829215320704 9.90051
48.45924292604658 9.857000000000001
48.48365897780325 9.859010000000001
48.50807737237308 9.847539999999999
48.532688907799276 9.81621
48.55711201168574 9.80437
48.581537463754074 9.78674
48.60615611725119 9.784180000000001
48.63058628942721 9.69967
48.65501881516546 9.76036
48.6794536962573 9.70555
48.70408185970339 9.70708
48.72852147531801 9.65028
48.75296345168211 9.663780000000001
48.77740779059232 9.64466
48.80204549302823 9.63424
48.82649458091802 9.628169999999999
48.85094603676547 9.56758
48.87539986237231 9.548110000000001
48.90004713292306 9.52488
48.92450572200832 9.51465
48.94896668628025 9.486289999999999
48.97343002754588 9.47463
48.99808689542115 9.5072
49.02255501470614 9.468580000000001
49.04702551642794 9.44727
49.0714984023988 9.43104
49.096164896893235 9.416089999999999
49.120642575466796 9.38064
49.145122643748394 9.362969999999999
49.16960510355558 9.34455
49.19428125404938 9.35857
49.2187685210852 9.29764
49.243258185121555 9.297410000000001
49.26794160167084 9.27914
49.2924360839405 9.26879
49.31693296869764 9.23449
49.34143225776915 9.2311
49.36612538195438 9.210180000000001
49.39062950396021 9.19893
49.41513603578346 9.17602
49.4396449792564 9.172080000000001
49.46434784069503 9.16492
49.488861631846454 9.13374
49.513377840166804 9.1156
49.537896467493745 9.05102
49.56260909589029 9.0474
49.587132585683285 9.00639
49.611658500018365 8.99652
49.636186840738596 9.000580000000001
49.66090926588511 9.01037
49.685442483902584 8.9534
49.70997813385706 8.93383
49.734516217597076 8.93105
49.75924846937352 8.9379
49.7837914452858 8.885480000000001
49.80833686055187 8.892710000000001
49.83288471702571 8.8171
49.85762682540054 8.861139999999999
49.882179588965734 8.8458
49.9067347993235 8.76915
49.93129245833333 8.80829
49.95604445336378 8.811639999999999
49.98060703442832 8.78435
50.005172069746266 8.760769999999999
50.02993150438364 8.76003
50.05450147301533 8.74033
50.07907390151433 8.72867
50.10364879174981 8.66228
50.12841816587289 8.67458
50.1529980044635 8.62903
50.17758031042124 8.62926
50.20216508562089 8.64369
50.22694442953363 8.616430000000001
50.25153416817468 8.593539999999999
50.27612638170508 8.5965
50.300721072005196 8.52939
50.325510416102105 8.55594
50.350110084975064 8.53725
50.37471223628208 8.52572
50.39931687190919 8.47563
50.424116246675766 8.44616
50.44872587605249 8.44088
50.47333799543065 8.43293
50.49795260670191 8.432080000000001
50.52276204271512 8.36428
50.54738166295838 8.358310000000001
50.57200378079314 8.42071
50.596628398116835 8.352730000000001
50.62144792604559 8.34465
50.646077567609396 8.36449
50.670709714377715 8.343
50.69553683636198 8.30157
50.72017401885922 8.29001
50.7448137122895 8.27788
50.76945591856022 8.262830000000001
50.79429318636823 8.2034
50.818940443716784 8.19048
50.84359021965163 8.18397
50.868242516085964 8.16646
50.893089960641895 8.12451
50.917747323549435 8.12242
50.94240721271973 8.1202
50.96706963007175 8.08215
50.99192728239342 8.08504
51.01659478166073 8.13819
51.04126481489051 8.09404
51.06593738400761 8.06743
51.090805275207074 8.048869999999999
51.11548294172845 8.01105
51.14016314993547 8.00538
51.164845901758845 8.01901
51.18972406304274 7.96024
51.21441192780656 7.92202
51.23910234200271 7.92985
51.2637953075678 7.92528
51.288683770237945 7.89089
51.31338186432707 7.85735
51.33808251561888 7.85098
51.362978729967345 7.855519999999999
51.387684521509755 7.84617
51.41239287610203 7.826219999999999
51.437103795691165 7.840089999999999
51.46201036644977 7.79292
51.486726441956634 7.7630300000000005
51.51144508832545 7.77603
51.536166307509156 7.7565800000000005
51.56108326624387 7.71822
51.58580965706056 7.71725
51.61053862657523 7.682980000000001
51.635270176746864 7.660260000000001
51.66019755512065 7.670139999999999
51.68493429268881 7.67238
51.70967361681515 7.669410000000001
51.73441552946465 7.60394
51.759353359237934 7.629110000000001
51.7841004750961 7.59686
51.80885018539685 7.53828
51.833602492111254 7.54626
51.8585508051424 7.54598
51.883308330926425 7.53057
51.90806845906181 7.49927
51.932831191525715 7.4867
51.95779001977161 7.465
51.98255798721516 7.463369999999999
52.00732856494335 7.447839999999999
52.03229530577543 7.43543
52.057071130455945 7.4023699999999995
52.081849571391054 7.393739999999999
52.106630630568695 7.40015
52.13160794279417 7.38085
52.15639426492067 7.38658
52.18118321127822 7.33327
52.205974783860896 7.295889999999999
52.23096269971011 7.27555
52.255759551287994 7.2992300000000006
52.280559035098186 7.28684
52.30536115314103 7.26622
52.33035970494467 7.251410000000001
52.35516711807904 7.271489999999999
52.37997717147198 7.21652
52.40478986713005 7.21368
52.42979908731974 7.17875
52.454617094216 7.169230000000001
52.47943774942214 7.15073
52.50426105495102 7.150010000000001
52.529280976059844 7.150519999999999
52.554109609024096 7.08793
52.57894089837482 7.0930100000000005
52.60377484613117 7.073980000000001
52.62880550079408 7.0556399999999995
52.65364479223379 7.07647
52.67848674816189 7.05262
52.70352547971946 7.02164
52.72837279155837 6.97871
52.753222773982785 7.0148600000000005
52.778075429022984 6.97992
52.80312495150885 6.99282
52.827982978797436 6.98205
52.85284368481815 6.936539999999999
52.87770707160767 6.93912
52.90276741793998 6.91535
52.92763619336701 6.87396
52.952507655698504 6.8891
52.977381806977576 6.88737
53.00245301017842 6.85353
53.02733256653592 6.83666
53.052214817996074 6.84479
53.077099766608484 6.81568
53.102181859804446 6.7903199999999995
53.127072229988265 6.816089999999999
53.15196530349892 6.756469999999999
53.17686108239249 6.75626
53.20195409881522 6.75415
53.22685531582556 6.70098
53.25175924441303 6.71364
53.27666588664027 6.68542
53.30176985962693 6.66395
53.3266819565689 6.62466
53.35159677336455 6.629589999999999
53.376514312083096 6.618939999999999
53.40162927507703 6.604239999999999
53.42655228516116 6.603289999999999
53.45147802340193 6.570689999999999
53.47660125628886 6.5476
53.50153247842639 6.558439999999999
53.52646643496923 6.527430000000001
53.55140312799818 6.5627699999999995
53.576537409691696 6.51311
53.60147960336152 6.49863
53.626424539786164 6.4951300000000005
53.65137222105307 6.4774
53.67651758529126 6.46743
53.70147078399681 6.38542
53.72642673383343 6.4402800000000004
53.75138543689533 6.42962
53.776541917524526 6.42502
53.801506154876755 6.39014
53.826473151763246 6.4057
53.851442910284916 6.319380000000001
53.87661054126026 6.31781
53.9015858509782 6.31381
53.92656392866066 6.31787
53.95154477641532 6.34054
53.976723591801296 6.28501
54.00171000771266 6.29652
54.02669920004598 6.28326
54.051691170915745 6.286980000000001
54.076881204886796 6.25215
54.101878760928514 6.22609
54.12687910187696 6.20987
54.152077577768296 6.21136
54.1770835166946 6.18227
54.20209224691339 6.17475
54.22710377055121 6.19194
54.25231352511594 6.13456
54.27733066384342 6.0941
54.30235060239643 6.1159099999999995
54.32737334290836 6.1181
54.35259441062629 6.07662
54.377622783395324 6.02993
54.40265396455061 6.01431
54.42768795623251 6.0206599999999995
54.45292037169559 5.96591
54.477960012857906 5.9764
54.50300247099511 5.96702
54.52804774825457 5.92342
54.55329154616743 5.9257
54.57834249018678 5.87867
54.6033962597977 5.84877
54.6284528571545 5.80962
54.653708072335164 5.8369
54.67877035378786 5.86245
54.70383546947698 5.80756
54.72890342156389 5.78293
54.7541700889442 5.80144
54.77924374251975 5.73289
54.8043202390049 5.72312
54.82959552413022 5.66105
54.8546777351945 5.65459
54.87976279569621 5.64065
54.90485070780914 5.65344
54.930137506558005 5.55134
54.95523115074295 5.65534
54.98032765308844 5.58067
55.005427015775496 5.61712
55.03072536339621 5.5974900000000005
55.05583047570572 5.5294300000000005
55.080938454927676 5.5084599999999995
55.10604930325027 5.48498
55.131359235107396 5.525180000000001
55.15647585066083 5.44112
55.181595341907496 5.43644
55.20671771104285 5.43126
55.232039262617704 5.33804
55.25716741665048 5.3407
55.28229845518636 5.37046
55.30743238042802 5.27655
55.33276558731939 5.26809
55.357905315183636 5.28328
55.383047936390035 5.1955
55.40819345314859 5.21857
55.433538351073295 5.19209
55.458689688238415 5.17784
55.483843927614096 5.1637699999999995
55.509197623043605 5.16141
55.53435769621134 5.13614
55.55952067826466 5.10222
55.5846865714265 5.081119999999999
55.61005202069737 5.044969999999999
55.63522376553902 5.046930000000001
55.66039842818645 4.99289
55.68557601087004 4.94224
55.7109532500271 4.9253599999999995
55.73613670233794 4.9502
