TT I
1.2716486653135266 7.361439999999999
1.2939594142134223 6.85589
1.3162702121660406 5.96737
1.3385810600174564 6.315230000000001
1.3608919586137629 6.13085
1.383202908801069 6.62558
1.405513911425503 5.91295
1.4278249673332093 6.37628
1.4501343378461518 5.96684
1.4724455028545926 5.3541
1.4947567236847858 5.51048
1.517068001182951 5.90589
1.5393793361953272 5.2782599999999995
1.5616907295681737 5.3929599999999995
1.5840021821477681 5.49735
1.60631369478041 5.432580000000001
1.6286252683124185 6.0567400000000005
1.6509369035901333 5.13261
1.6732468618895553 5.429869999999999
1.695558623192809 4.72317
1.7178704487808514 5.21617
1.7401823395001077 5.20315
1.7625012545597203 4.91367
1.7848028405262486 5.03186
1.8071218901122095 4.85559
1.8294236121921872 4.22136
1.8517427996910911 4.85811
1.8740620574440425 4.99317
1.8963639900671978 4.91073
1.9186833908139995 4.88115
1.9409854680117449 5.07749
1.9633050151394713 5.3971
1.9856246367570705 5.07186
2.0079269371922672 4.755380000000001
2.03024671027244 4.20444
2.0525491637446027 4.23355
2.074869091674931 4.69224
2.097171701569106 4.89084
2.1194917877373847 4.73398
2.141811954326636 4.66339
2.164114805233074 5.0553099999999995
2.186435135143035 6.59472
2.208738150935709 15.6729
2.231058647554722 34.6244
2.2533792288321184 26.895
2.275682498336085 11.6527
2.298003251406138 6.12156
2.3203066942619714 5.76987
2.3426276225136022 5.77198
2.3649486396617507 5.47751
2.387252348930071 6.04434
2.4095735463442893 6.0458099999999995
2.4318774374315884 5.96063
2.4541988185014043 6.44407
2.476502894794693 6.47455
2.498824462909887 6.34666
2.521146125856138 6.3596699999999995
2.5434504863470337 6.8967600000000004
2.5657723414244717 7.6456100000000005
2.588076895590662 7.9363600000000005
2.610398946189713 8.14371
2.6327210958598384 8.12386
2.6550259469304716 7.3054
2.6773482972090137 7.63267
2.6996533504259 7.87933
2.7219759047039602 8.319339999999999
2.744298562293959 8.50503
2.7666039251246595 8.60585
2.7889267918020164 7.911289999999999
2.8112323652516555 7.78931
2.833555444408179 8.26238
2.8558786311183852 8.176219999999999
2.8781845268938557 8.83211
2.9005079311721484 8.766210000000001
2.9228140460410397 9.24135
2.9451376712799635 9.223360000000001
2.967444008632326 9.41889
2.9897678582247247 10.4282
3.0120918213106695 10.3493
3.0343984987899373 10.3764
3.0567226913198637 10.9436
3.079029599759726 11.4635
3.101354025127254 12.3133
3.123678568232338 12.7277
3.145985829517914 12.5995
3.16831061055229 13.1449
3.1906181112775593 14.4346
3.212943133635653 14.6747
3.2352682779763207 14.4038
3.2575761442691227 15.3334
3.2799015350264273 15.9034
3.302209649240067 16.2017
3.3245352898092655 17.1638
3.3468436553365257 17.6848
3.369169549113219 17.9749
3.3914955708171384 18.6088
3.413804319727358 18.9445
3.4361305997334863 19.1989
3.4584396084414553 20.044
3.4807661501462652 20.0504
3.503092824025881 21.2209
3.5254022288463154 21.3546
3.5477291695206588 22.5436
3.5700388426251948 23.1848
3.5923660534916446 24.215
3.6146934007816114 42.6857
3.637003482731501 106.656
3.6593311053109985 120.561
3.681641464033634 66.2278
3.7039693653009733 32.5979
3.726297407241705 26.6175
3.7486081875460804 26.1549
3.7709365132734978 26.575
3.793247578841633 27.1492
3.8155761917550093 27.3743
3.8378875459837216 27.3314
3.8602164494827234 27.9894
3.882545499606844 28.4792
3.9048572932539183 29.12
3.9271866390645718 29.7224
3.9494987298666713 29.9046
3.971828374764527 30.5028
3.9941581705403255 30.9893
4.016470713506008 31.6971
4.038800813471445 32.6363
4.061113662089144 33.0108
4.0834440696459176 33.7215
4.105774632334751 33.9752
4.128087945865126 35.0597
4.150418821249301 36.4472
4.172732448931298 37.65
4.195063640413578 39.5649
4.2173775856475215 44.835
4.239709096631102 82.8238
4.262040768704612 287.685
4.284355196706267 399.103
4.306687193387355 250.83599999999998
4.329001947444346 91.7443
4.35133427213731 50.4023
4.373666762177566 45.2479
4.395982011761091 45.0962
4.418314834921175 46.3824
4.44063041906622 56.2669
4.4629635787515625 69.9033
4.4852969080429785 69.5375
4.5076130004776225 56.2562
4.529946671403969 51.0198
4.552263106909177 50.6631
4.574597122877047 51.4613
4.596931312711224 52.1008
4.619248269273446 53.2715
4.6415828092605835 54.5357
4.663900117405352 55.6594
4.686235010953232 57.0885
4.708552674085913 58.3783
4.730887924602802 59.9875
4.753223354952695 61.1714
4.775541557023902 62.5135
4.797877349456786 63.9384
4.820195915032126 66.2611
4.842532072957498 67.8254
4.864868414979744 69.1054
4.88718753227192 71.2889
4.909524244902505 73.29899999999999
4.931843734218147 75.3054
4.954180820867835 77.3584
4.976518095879839 80.9123
4.998838149695359 83.4768
5.021175803844231 86.8042
5.043496238205739 89.98899999999999
5.065834274903528 93.7594
5.088172504230693 99.021
5.1104935158799565 105.971
5.132832132875765 130.35
5.155153533596801 182.53900000000002
5.1774925416746225 217.297
5.199814334878411 339.664
5.2221537374521505 937.685
5.244493338631803 2722.82
5.266815727034316 7279.71
5.289155727832427 12598.4
5.311478517248165 9107.02
5.333818921080011 3049.86
5.356159527788849 610.12
5.3784829252032536 195.30900000000003
5.400823940070432 147.954
5.423147747031976 130.87
5.445489173474152 120.49700000000001
5.467830807066149 114.244
5.490155234831516 110.221
5.512497285125229 106.84
5.534822130975162 104.65
5.557164601388673 102.036
5.579489868738879 99.7229
5.601832762690846 99.2101
5.6241758697774475 98.3642
5.646501775867269 97.1181
5.668845311622074 95.7055
5.691171647754637 94.7756
5.713515615597765 93.7585
5.735859800852677 92.71700000000001
5.758186788542988 91.8386
5.780531411018185 91.8461
5.802858837297399 91.1416
5.825203900414495 91.1357
5.8475491852224 90.6872
5.869877275883075 91.9263
5.892223006467101 93.0805
5.914551544266608 94.0792
5.936897724049891 96.2975
5.959244129804903 101.396
5.981573344815301 116.859
6.0039202049061 196.076
6.026249875609095 422.965
6.04859719346037 928.7660000000001
6.070927323278297 2074.84
6.093275102315365 4406.37
6.115623113320588 5262.08
6.137953938319995 3509.31
6.160302415650845 1108.75
6.182633708324452 258.015
6.2049826554078376 118.626
6.227331838745022 94.9528
6.249663839443684 86.4829
6.27201349767565 84.1164
6.294345974611799 92.667
6.316696111167083 108.215
6.339046488263839 101.594
6.361379686074702 82.9572
6.383730546639482 73.2407
6.406064229255215 69.7129
6.428415576718203 69.0271
6.450749747566656 67.7812
6.47310158535871 66.7681
6.495453669698332 65.6278
6.517788579421056 65.2767
6.540141159237969 64.3111
6.562476565766648 63.9156
6.5848296444934045 63.6721
6.607182974060425 62.9578
6.6295191323281015 63.4258
6.651872965955752 67.919
6.6742096296068985 100.85600000000001
6.6965639707294615 160.384
6.71891856698715 161.265
6.741255995248479 104.98200000000001
6.763611104154477 70.9378
6.785949046381137 61.6638
6.808304671371482 58.9929
6.8306605557940046 58.6133
6.852999275508618 58.1046
6.875355681171544 57.483999999999995
6.897694923437771 57.196999999999996
6.92005185377892 57.2515
6.9423916220322655 56.7116
6.964749080490181 56.339
6.987106804399774 56.3129
7.009447368180821 56.4173
7.031805625367033 56.0491
7.054146723727803 55.799
7.076505517631004 55.7364
7.098864581288365 55.971000000000004
7.121206488070854 55.7838
7.143566093607822 55.9394
7.165908543567245 55.4386
7.188268694426048 56.2185
7.2106291193438095 56.6547
7.232972390625943 57.8372
7.255333366030969 73.9577
7.277677189091925 142.561
7.300038718428332 205.768
7.322400526130865 171.85299999999998
7.344745183422596 99.3713
7.367107550224791 64.5105
7.389452767901992 57.2119
7.411815697249891 56.3037
7.434161478756298 55.3462
7.456524974096713 55.0692
7.478888753837185 54.8461
7.501235387657368 55.3061
7.523599738562711 55.3682
7.545946944825532 55.6602
7.568311870344528 55.6737
7.5906770845765665 56.1002
7.613025156078678 57.8464
7.635390950099687 59.3147
7.657739602662809 58.0449
7.680105979923558 56.7667
7.702472650212829 56.2565
7.724822180948224 56.4011
7.747189439655568 56.4889
7.769539560075357 56.4586
7.791907410653562 57.0146
7.81425812420825 56.8952
7.836626570110925 57.1379
7.858995315087906 57.9344
7.881346924933401 58.1939
7.903716270417482 58.7219
7.926068482028405 59.031000000000006
7.948438431475253 59.4184
7.9708086843180235 60.1905
7.993161805171116 60.7851
8.015532667162402 61.0565
8.037886398416653 62.0684
8.060257873014221 62.3451
8.082629655331942 63.0143
8.104984308787587 64.3154
8.127356708900503 68.0201
8.149711981398308 75.3459
8.172085002766314 78.2397
8.194458336181368 73.5135
8.216814543847752 69.8995
8.23918850371002 69.9795
8.26154533906492 70.4083
8.283919928836452 71.9248
8.306277395339652 72.765
8.328652618483376 74.3447
8.351028159736202 76.3358
8.373386579575245 78.5969
8.395762759396959 80.6374
8.418121819038275 86.4367
8.440498640894003 101.959
8.462875785192262 118.16
8.485235811156207 126.603
8.507613602688501 158.325
8.529974277114228 237.38400000000001
8.552352719347912 367.608
8.574731488360351 619.374
8.59709314210385 1123.8
8.619472567021075 1801.28
8.64183487789147 2240.88
8.664214962183097 1911.88
8.686577933647762 1020.6
8.708958680784317 405.41900000000004
8.731339760774953 176.262
8.753703729764451 114.34200000000001
8.77608547780821 100.46799999999999
8.798450116065078 96.4692
8.820832535634787 93.431
8.843215292401656 91.5939
8.865580941199045 90.1977
8.887964374703538 88.7251
8.910330701447199 90.624
8.932714815164482 94.198
8.955099270424924 93.0709
8.977466620733543 89.0721
8.999851761421976 85.8096
9.022219798361645 83.6987
9.04460562795561 83.7166
9.066991803441677 83.0297
9.089360876979615 83.2362
9.111747746589993 82.7011
9.13411751544971 82.1138
9.156505082664324 81.8067
9.178875550323522 82.6726
9.20126381862328 83.0085
9.223652438908596 83.3636
9.246023961427412 83.1111
9.26841328802173 82.3209
9.290785518039224 81.8187
9.313175554425882 82.4472
9.335565947154315 82.5212
9.357939245086508 83.0311
9.380330352834827 82.9587
9.40270436697103 83.3005
9.425096193225055 83.1741
9.447488380180165 83.99700000000001
9.469863475295412 84.1346
9.492256385987508 84.8237
9.514632206018318 85.4553
9.537025843935714 85.8237
9.559402392368193 86.4349
9.581796761000229 87.3644
9.604191496441521 88.3425
9.626569144158516 92.9615
9.648964615551032 98.5922
9.671343000390081 100.652
9.693739211225699 97.5161
9.716135793237463 94.2614
9.738515290448102 93.3423
9.760912617143402 94.1041
9.783292860202891 95.1238
9.805690935076182 96.3848
9.828089385495742 97.3418
9.850470754023561 100.09700000000001
9.872869957865444 109.251
9.89525208097539 127.8
9.917652041736662 143.141
9.940052382417589 140.545
9.962435644102392 140.66
9.984836746950979 170.065
10.007220771957746 229.885
10.029622640473708 328.8
10.052007432299963 498.77
10.074410069984072 777.382
10.096813093716005 1209.36
10.119199042482517 1706.81
10.141602840636468 1937.26
10.163989564971628 1645.34
10.186394141051062 963.428
10.208799107559706 431.019
10.231187001965623 202.085
10.253592751657669 130.862
10.275981430388155 115.01899999999999
10.298387966769793 115.55799999999999
10.320794897965431 118.615
10.343184759907361 117.557
10.36559248305461 110.63799999999999
10.387983138083852 105.227
10.410391656691655 106.789
10.432800574501677 115.927
10.455192425893369 131.711
10.47760214443012 155.204
10.499994797678786 196.545
10.522405320453982 271.789
10.54479877906917 382.772
10.567210109595656 496.895
10.5896218454736 572.556
10.612016518879773 518.806
10.634429067781074 361.62300000000005
10.656824555333241 214.833
10.679237920773568 134.594
10.701651695961992 99.0424
10.724048411481384 90.36
10.746463008485165 87.1871
10.768860546937125 85.3258
10.791275969274796 83.7694
10.81369180576079 82.7388
10.836090585366925 81.40899999999999
10.858507252467449 80.0443
10.88090686379991 79.263
10.903324365036394 78.8659
10.925724811614439 79.2775
10.948143150509463 80.8743
10.970561909719066 79.8993
10.992963615930844 77.83800000000001
11.015383218085756 75.3898
11.037785768347074 73.7528
11.06020621697282 73.014
11.082627090322113 72.5316
11.105030913430326 72.2367
11.12745263854165 72.8446
11.149857314510728 77.6866
11.172279894912576 85.8024
11.194702904450653 87.1202
11.217108866490921 81.6399
11.239532736615194 76.0988
11.26193956033512 73.3984
11.284364294577085 71.419
11.306789462371718 68.8759
11.329197585398376 67.4786
11.351623622610898 67.3327
11.37403261614354 66.278
11.396459526308487 66.6191
11.418869393879497 66.3048
11.441297180532617 65.865
11.463725406927658 65.404
11.486136592353875 65.3246
11.508565700543707 66.0498
11.530977768845315 68.5518
11.553407762368774 69.4974
11.575838200059769 68.8861
11.598251599479612 66.5395
11.620682927815501 64.7954
11.64309721895548 64.2406
11.665529441478206 63.4514
11.687962112597958 62.9268
11.710377748130886 63.3332
11.732811318753434 63.1517
11.755227854859067 63.2959
11.777662328529495 63.1075
11.800079768750786 63.1207
11.822515149015453 63.0178
11.844950984084935 63.023999999999994
11.867369787303163 63.0285
11.889806534289491 62.6663
11.912226250487029 63.453
11.934663912939751 63.2121
11.9571020346363 63.0864
11.979523127133968 62.8399
12.001962169624331 63.5174
12.024384183972964 64.3785
12.046824150809913 67.0347
12.069264581333726 72.4258
12.091687985297767 78.575
12.11412934550045 87.0449
12.136553680195208 100.777
12.158995973632788 121.073
12.181438735204349 148.256
12.20386447284199 177.571
12.226308172985636 202.83
12.24873485024193 202.388
12.271179492516982 171.019
12.293607112949127 135.197
12.316052700916226 102.338
12.338498763250042 82.113
12.360927805303868 72.355
12.383374818673879 67.7324
12.405804812803074 65.1997
12.428252780773262 64.7775
12.45070122756722 64.4139
12.473132656675375 64.5444
12.49558206341869 64.6966
12.518014453510101 64.7382
12.540464823770117 64.8684
12.562915677315177 65.0287
12.58534951575545 66.0141
12.607801338171472 68.4509
12.630236146511358 75.2507
12.652688941369085 81.3365
12.675124723177234 81.5858
12.697578494048786 76.5485
12.720032754458185 70.8331
12.742470003354093 68.4063
12.764925245138771 68.081
12.787363476431278 68.435
12.809819703166806 68.45100000000001
12.83227642391173 69.3737
12.854716135692716 69.815
12.877173846755147 70.8399
12.899614549869717 71.1142
12.9220732548287 71.7452
12.94453245827299 72.1301
12.966974655289818 73.2774
12.989434858002571 74.0811
13.011878055298721 74.7069
13.034339260862497 75.756
13.056800969391883 77.225
13.079245674017244 78.7974
13.101708390774869 80.2781
13.12415410463411 86.9702
13.146617833206086 98.2782
13.169064559883248 109.801
13.191529303857127 124.146
13.213994557076367 145.159
13.236442809902437 179.141
13.258909083908291 231.329
13.28135835851934 294.324
13.30382565690295 363.82099999999997
13.326293469022952 419.30199999999996
13.348744283242008 431.491
13.371213125129904 371.454
13.39366497011003 274.522
13.416134845360597 183.22400000000002
13.438605238843131 127.571
13.46105863690397 106.56299999999999
13.483530069144786 104.712
13.505984506951902 109.473
13.528456981549432 118.412
13.550929978879088 132.82399999999998
13.573385983253365 154.906
13.595860028340867 191.014
13.618317081455832 241.83
13.64079217790333 293.547
13.663250283359057 345.042
13.685726434770173 374.86400000000003
13.708203115221277 344.20099999999996
13.730662806148091 274.058
13.75314054697177 194.01
13.775601299246777 134.175
13.798080104050406 100.551
13.820559442405358 86.4209
13.843021793671388 82.2469
13.865502201420897 80.5103
13.887965623051947 79.9886
13.910447103807167 78.7377
13.932929122629764 77.157
13.955394156785959 76.8279
13.977877254034569 75.9424
14.000343367582113 75.1617
14.022827546871707 74.7422
14.045294743423524 73.8063
14.06778000837062 73.3267
14.090265817715476 73.1916
14.112734645763819 72.7898
14.13522154619454 72.9783
14.157691466286913 72.8615
14.180179461423874 72.6263
14.202668005486178 71.7249
14.22513957064374 71.0947
14.247629214846473 70.5218
14.270101881097517 70.4321
14.29259262906496 71.0526
14.315083930490205 72.1342
14.337558255389705 72.3619
14.360050666019726 71.8595
14.382526101071944 70.6646
14.405019624534942 69.712
14.427513705993134 69.1196
14.449990813291825 68.9729
14.47248601302899 68.9405
14.49496423954951 68.8196
14.517460561197822 68.8481
14.539939910570322 68.4509
14.562437357763558 69.0972
14.58493536931253 70.468
14.607416409993311 71.6043
14.62991555254159 72.7075
14.652397725157423 72.3053
14.674898002342799 71.3081
14.697398848433282 70.5324
14.719882725991326 70.8721
14.74238471217934 71.752
14.764869730765593 74.6323
14.787372860692983 78.0347
14.809876564079925 82.4211
14.83236330125751 87.4495
14.854868153850365 95.397
14.877356041159485 108.292
14.899862046604186 126.228
14.922351087688757 149.917
14.944858249632887 176.21
14.967365991421232 202.50099999999998
14.989856770231246 217.88299999999998
15.012365673994204 216.91099999999997
15.03485761569738 190.843
15.05736768508665 151.555
15.07987833888692 118.39200000000001
15.102372032001655 92.76
15.124883856909658 78.0939
15.14737872204565 72.7287
15.169891721717274 70.8773
15.192405310371893 70.9237
15.214901940621196 71.523
15.237416709527137 72.0236
15.259914520936249 72.2409
15.282430473753607 71.0839
15.304947020131227 69.9079
15.327446610371178 68.6135
15.349964346154254 67.4758
15.372465126703139 66.8296
15.394984055556009 66.7363
15.417486030076159 66.6021
15.44000615566487 66.3311
15.462526881230803 66.2301
15.485030653812652 66.2631
15.507552581617434 66.6641
15.530057557334603 66.8163
15.55258069104857 66.6337
15.575104429329837 66.5984
15.597611216864632 66.1694
15.620136166564563 66.1595
15.6426441664095 66.652
15.665170331202765 68.5591
15.687697105158826 71.613
15.710206930593545 74.9452
15.732734925158933 78.9072
15.755245972089478 84.8437
15.77777519094324 93.5126
15.800287463046663 105.65
15.822817909869592 123.145
15.84534897229804 143.034
15.867863089299354 166.12599999999998
15.890395385222186 184.93
15.912910736597423 194.21
15.935444269699861 184.515
15.957978423016485 159.113
15.980495633101265 128.66
16.003031029129367 100.20700000000001
16.02554948280019 79.3519
16.048086125229432 69.4122
16.070623392487107 66.5149
16.09314371869582 65.4909
16.11568223789321 64.7819
16.13820381691126 63.4862
16.160743591742527 62.1246
16.183283996022084 61.2328
16.205807461423195 59.8848
16.228349126881973 59.3029
16.25087385432698 59.5554
16.27341678466365 58.7538
16.29594277784926 58.8227
16.31848697676433 59.1842
16.341031811604868 59.8359
16.36355971058487 60.0044
16.3861058195587 59.6965
16.40863499352978 58.4611
16.431182380342005 57.4094
16.453730407713202 56.5931
16.476261501364792 56.2111
16.498810812136167 55.758
16.52134319004079 55.9013
16.54389378792203 55.9631
16.566445031001553 55.6116
16.588979342490088 55.3522
16.61153187824822 55.2122
16.634067483263312 55.158
16.656621315414416 54.9173
16.679175797408888 54.6759
16.701713349928728 54.9463
16.72426913389191 55.1131
16.74680798922351 55.1884
16.76936507887444 55.3598
16.791905240734874 55.4796
16.814463639794468 55.3012
16.837022695210294 55.1947
16.859564824093756 55.6005
16.882125194503903 56.5377
16.904668639217885 57.3353
16.927230328348003 57.5032
16.949792678493612 57.4612
16.972338104193863 56.8254
16.994901778652235 56.0433
17.017448529496576 55.9136
17.040013531998152 55.8797
17.06257920018044 56.3083
17.0851279459922 57.0098
17.107694947817667 57.7667
17.130245028099072 58.6927
17.15281336730298 60.2024
17.17536478578733 61.6422
17.19793446610687 63.5774
17.220504818648422 66.4308
17.243058251703697 69.3263
17.265629950971032 73.7477
17.288184731571736 78.29
17.310757781306908 82.6283
17.33333150794385 83.7271
17.355888317140174 83.1317
17.37846339986244 78.3491
17.401021565958885 72.09
17.42359800851343 66.704
17.44617513265564 62.6231
17.468735341390783 60.5626
17.491261035594565 59.5249
17.51396340099364 59.1096
17.536490463869136 59.3422
17.559018209820174 59.3575
17.58154663977963 59.5152
17.604251766089718 59.4867
17.626781572227713 59.7021
17.64931206518155 60.0855
17.671843245885103 60.6764
17.69455114821572 60.8301
17.717083712612634 61.2598
17.739616967569667 61.3097
17.762150914021706 61.2659
17.78486160749854 61.293
17.807396945166804 61.8851
17.829932977143503 62.7598
17.85246970436452 63.8953
17.875183204129467 65.715
17.897721330097664 68.0712
17.920260154126645 70.3491
17.942799677153296 73.11
17.9655159983646 76.6269
17.988056927677544 81.3977
18.010598558807683 88.6752
18.033140892692916 97.8922
18.05586005052525 108.095
18.07840379824407 119.586
18.10094825154059 130.92
18.12366954819864 138.642
18.146215420998306 139.912
18.16876200220057 131.675
18.191309292745153 119.22200000000001
18.214033452627167 105.209
18.236582170236648 93.2586
18.259131600016456 87.2369
18.281681742907335 86.3075
18.304408781233683 89.9198
18.32696035875955 94.5921
18.349512652227624 99.4723
18.372065662579683 103.78399999999999
18.394795594587553 105.75399999999999
18.41735004715306 103.456
18.43990521943684 98.1398
18.46246111238171 89.2223
18.485193953325208 79.1326
18.507751296070428 71.2589
18.530309362314178 66.7942
18.552868153000343 64.01
18.57560391815056 62.4916
18.59816416623245 61.9559
18.620725141597372 61.513000000000005
18.643286845190268 60.9819
18.666025549835414 60.7498
18.688588718427933 60.0279
18.711152618092243 59.998000000000005
18.73389353884365 59.5345
18.75645890921984 59.0327
18.77902501351406 58.8438
18.801591852673102 58.8639
18.824335739722738 58.0694
18.846904057212626 58.2954
18.8694731124168 57.95
18.89204290628315 57.8584
18.914789774966803 57.6802
18.937361054791623 57.5387
18.959933076131318 57.2714
18.982505839934877 57.2469
19.00525570560582 57.5722
19.027829963004184 57.0975
19.05040496572238 57.2456
19.072980714710468 57.0948
19.095733592739563 57.2439
19.11831084296757 57.5978
19.140888842324735 58.0106
19.16346759176222 58.2564
19.18622349753803 58.7891
19.208803755869358 59.7126
19.231384767143577 60.6862
19.253966532312948 61.9002
19.276725481241822 63.7562
19.29930876296784 66.1724
19.3218928014549 69.4487
19.34465404436217 72.2773
19.36723960516257 75.5136
19.389825925592426 76.7273
19.412413006605938 75.9252
19.43517731967805 73.1013
19.457765930683355 68.5652
19.48035530514408 63.9255
19.50294544401556 60.1011
19.525712842708348 57.388000000000005
19.54830451925909 55.7554
19.570896963095727 54.5714
19.593490175174704 54.0353
19.616260674962184 54.0594
19.638855432416964 53.7186
19.661450960992624 53.9098
19.68404726164677 53.6917
19.706820878021247 53.4863
19.729418731756834 53.7254
19.752017360452857 53.5375
19.77461676506804 53.6213
19.797393513540218 53.6997
19.819994478951667 54.0402
19.84259622316767 54.6017
19.8651987471481 54.908
19.887978643247177 55.2542
19.91058273574792 55.6231
19.933187610901943 56.2647
19.955969879466828 57.4472
19.97857632894404 58.8039
20.00118356396599 60.1475
20.023791585494575 61.9682
20.046577028914875 64.7481
20.069186632506966 67.0353
20.091797025500632 69.0054
20.114408208858933 69.8317
20.137196842715273 69.8375
20.159809615886765 68.6328
20.18242318232135 65.7667
20.20503754298326 63.5386
20.227829382875154 62.4735
20.250445341109344 62.153
20.27306209647285 62.6132
20.29567964993108 63.5896
20.31847471147704 64.8667
20.34109387027612 65.6707
20.363713830075454 65.5443
20.386334591841646 64.5479
20.409132890679302 62.1297
20.431755265564437 59.0448
20.454378445325528 56.19
20.477002430930366 54.1234
20.499803982716553 52.6373
20.522429589228004 51.9737
20.54505600449589 51.42
20.567683229489194 51.3579
20.590488049900088 50.7542
20.61311690359731 50.4172
20.63574656993626 50.1008
20.658553853717297 49.8598
20.681185154618298 49.8698
20.703817271080066 49.6988
20.72645020407368 49.4221
20.749260783967177 49.4783
20.771895359337133 49.3218
20.794530754161617 49.248000000000005
20.817166969412938 49.2567
20.83998086114876 49.0692
20.86261872660049 48.9149
20.885257415405402 48.5863
20.90789692853701 48.7316
20.930714147864748 48.6526
20.953355319030678 48.6111
20.97599731745334 48.8738
20.99864014410749 48.5614
21.021460706796564 48.6632
21.044105199328826 48.9903
21.06675052302631 49.1228
21.089396678865015 49.2463
21.112220600704806 49.3259
21.134868430275347 49.9162
21.15751709492456 50.2223
21.180166595629693 50.6774
21.202993892429635 51.0272
21.22564507473034 51.0906
21.24829709602816 51.5884
21.27112693608965 51.5644
21.293780644891275 51.4047
21.316435195634053 50.841
21.339090589297417 50.2043
21.361923832041875 49.7086
21.384580921090404 49.2231
21.407238856007325 48.6457
21.429897637773326 48.6907
21.45273429906592 48.5551
21.475394784108598 48.4065
21.498056118951983 48.5028
21.520718304578022 48.6872
21.543558400304388 48.6803
21.566222297108816 48.9195
21.58888704765135 48.88
21.61155265291521 49.2898
21.63439619898156 49.7866
21.657063523335786 49.8911
21.67973170537063 50.4072
21.7024007460706 50.9037
21.72524775840385 51.5183
21.747918526116475 52.6233
21.770590155457388 53.6609
21.79326264741238 55.2109
21.816113141960237 56.8884
21.838787368860547 58.5441
21.861462461341976 60.208999999999996
21.884315579735777 62.3187
21.90699241312273 63.6536
21.92967011506078 64.6479
21.95234868653799 64.6459
21.9752053151131 63.68899999999999
21.997885635446785 61.9748
22.020566828293532 59.9965
22.04324889464272 58.1001
22.066109049404666 56.9119
22.088792872571794 56.0958
22.111477572219204 56.0751
22.1341631493376 56.0192
22.157026846313123 56.2201
22.179714188221507 55.4291
22.202402410582668 54.531000000000006
22.22509151438863 53.06
22.24795876962584 51.7847
22.270649646204486 50.864
22.293341407213727 50.0418
22.316034053646906 49.468
22.338904883215342 49.2349
22.36159931041458 49.0594
22.38429462602756 49.1758
22.40699083104897 49.1722
22.429865251039757 49.0467
22.452563244831367 49.1812
22.47526213102522 49.1371
22.49813925616515 49.0479
22.520839937143307 48.92
22.543541513520587 48.9585
22.56624398629403 48.6072
22.589124730075895 48.5486
22.611829005656723 48.6608
22.63453418063466 48.5613
22.657240256008077 48.9908
22.680124634582935 49.101000000000006
22.70283252079775 49.4079
22.725541310413075 49.6046
22.74825100442868 49.7167
22.771139033969575 50.3171
22.79385054687155 50.3878
22.81656296718292 50.9485
22.83927629590484 51.7836
22.862167992606945 52.7786
22.88488314827121 53.8642
22.907599215359284 54.9206
22.93031619487366 56.1479
22.953211574954405 56.9109
22.975930389478226 57.8991
22.998650119445763 58.2149
23.02137076586092 57.673
23.044269845560063 56.5367
23.06699233506288 54.9402
23.089715744034912 53.1701
23.112617610931565 51.5897
23.135342869061212 50.3196
23.158069049684816 49.412
23.1807961538087 49.0971
23.20370174880544 48.9963
23.226430710184808 49.0081
23.249160598093425 48.8858
23.271891413539002 48.8126
23.294800752937697 49.0298
23.31753343374794 49.0503
23.340267045128353 49.1052
23.36300158808808 49.4062
23.38591468821339 49.8661
23.408651104658304 50.2365
23.431388455719986 50.7719
23.454126742409 51.3454
23.4770436196085 52.5574
23.499783787914662 53.8215
23.522524894889884 54.593
23.54526694154616 55.5342
23.56818761219047 56.8141
23.59093154860734 57.4606
23.613676427751283 58.0917
23.636422250635754 57.411
23.659346731118656 56.1222
23.68209445191868 54.2425
23.704843119509587 52.1398
23.72759273490623 50.0856
23.750521041644767 48.5765
23.77327256312355 47.4458
23.796025035462787 46.9079
23.818956224555475 46.3192
23.841710609113413 46.033
23.86446594758979 45.8657
23.887222241002014 45.7047
23.910157285144578 45.4711
23.932915498962537 45.4095
23.955674670778713 45.3397
23.978434801611975 45.2078
24.001373717286125 44.8837
24.024135776723917 44.8028
24.046898798245582 44.7392
24.06966278287146 44.6121
24.092605586582614 44.5143
24.115371508023642 44.1972
24.1381383956401 44.131
24.16090625045381 44.1445
24.183852958731244 44.047
24.206622758582608 44.1881
24.229393528706886 43.8154
24.252165270127392 43.8425
24.27511589952438 43.893
24.297889594216997 43.6066
24.32066426328598 43.4041
24.34343990775613 43.5776
24.36639447485003 43.3523
24.38917208083877 43.2854
24.41195066531332 43.1236
24.43490819850244 43.218
24.457688750692377 43.1719
24.48047028445616 43.0168
24.503252800821233 43.0124
24.526214300784112 43.255
24.548998793132213 43.1823
24.57178427117417 43.2126
24.59457073593893 43.1381
24.617536219319863 43.1085
24.64032466834748 43.1766
24.663114107195035 42.9655
24.685904536893013 42.728
24.708874020360852 42.7577
24.731666442613744 42.6497
24.754459858818787 42.6455
24.777254270007962 42.5682
24.80022777025625 42.358000000000004
24.82302418230472 42.3171
24.845821592443674 42.4252
24.86862000170663 42.3979
24.891597535453727 42.1924
24.914397953892728 42.4178
24.93719937456671 42.2685
24.96000179851076 42.426
24.98298338249997 42.7098
25.00578782394922 42.9526
25.028593271784167 42.9765
25.05157790644186 43.153
25.07438537804115 43.2632
25.097193859145293 43.6432
25.120003350792075 43.7725
25.142992065061257 44.2186
25.165803588823465 44.4072
25.18861612625217 44.6374
25.211429678386736 44.6691
25.234422489079968 44.8871
25.257238081693636 44.8482
25.280054692141732 44.9044
25.3028723214652 44.9406
25.325869245420463 44.8781
25.348688923599397 45.0021
25.371509623787006 44.9032
25.394331347025812 44.7129
25.41733240110666 44.4317
25.440156181590016 43.7106
25.46298098826268 43.2101
25.48580682216873 42.7113
25.50881202326435 42.0995
25.53163992281684 41.6899
25.55446885274561 41.4073
25.577298814096377 41.174
25.600308179121807 40.9912
25.623140214533745 40.9697
25.64597328451537 40.9227
25.66898578564376 40.7066
25.691820936010206 40.7864
25.714657124097695 40.6309
25.737494350954734 40.7384
25.760511045684957 40.666
25.783350361364224 40.6985
25.806190718969255 40.8038
25.82903211955018 40.794000000000004
25.852053024868923 40.8173
25.874896522722523 40.8266
25.897741066713106 40.7237
25.920586657892454 40.9168
25.943611790812668 40.9002
25.966459487728237 41.0065
25.989308234998564 40.9659
26.01215803367705 41.3021
26.03518741123814 41.5857
26.05803932412957 41.5714
26.080892291600094 41.6117
26.10374631470478 41.7385
26.12677995397268 41.8398
26.14963609978026 41.726000000000006
26.172493304397875 41.5004
26.19535156888223 41.3905
26.218389486949604 40.9852
26.241249882640123 40.6791
26.26411134137826 40.4985
26.28715248187403 40.4071
26.31001607820869 40.278
26.3328807407756 40.1341
26.35574647063438 40.3261
26.37879191991473 40.2998
26.401659795896734 40.2133
26.424528742360263 40.2421
26.447398760366614 40.4835
26.470448535598294 40.6973
26.49332070826805 40.8649
26.516193955675355 41.1535
26.53906827888316 41.4309
26.562122397260108 41.5556
26.584998883685063 41.7
26.607876449110325 41.9639
26.63075509460056 42.1497
26.65381357334404 42.391999999999996
26.67669439061878 42.32899999999999
26.699576291163382 42.2413
26.722459276044212 42.2278
26.745522132402975 41.9189
26.768407297649354 41.544
26.791293550442003 41.2308
26.814180891848974 41.0191
26.837248143099337 40.7704
26.860137673466657 40.6518
26.88302829566349 40.3273
26.90592001075963 40.1506
26.92899167420566 40.0748
26.951885586870763 39.6036
26.974780595655517 39.561
26.99785558178161 39.2741
27.020752794605112 39.1231
27.043651106772522 39.0285
27.06655051935668 38.9682
27.089629948036183 38.9072
27.112531573292053 38.8537
27.135434302194138 38.9214
27.158338135817015 38.6338
27.181422024430987 38.7609
27.204328079372566 38.5642
27.22723524226965 38.6738
27.250143514198573 38.7282
27.273231880156334 38.6721
27.296142382065014 38.4897
27.319053996245536 38.5023
27.341966723775965 38.5679
27.365059584515222 38.6878
27.38797455070062 38.6821
27.410890633481237 38.626
27.433807833936918 38.4463
27.456905206923906 38.4762
27.47982465472398 38.5708
27.502745223449743 38.6478
27.525666914182825 38.7386
27.548768816912457 38.7131
27.571692763693633 38.5725
27.59461783573812 38.5199
27.617723149491244 38.2618
27.640650484125285 38.1777
27.66357894728264 38.1683
27.686508540048052 38.216
27.709618414237887 38.1552
27.732550278321757 37.9244
27.755483275279115 37.9629
27.778417406196485 37.9123
27.801531858397514 37.9627
27.824468269376716 37.9303
27.847405817586786 37.9663
27.870344504116094 38.0913
27.893463551932008 38.2846
27.916404527281053 38.46
27.93934664422563 38.3904
27.962289903855886 38.5338
27.98541356491974 38.8416
28.00835912214229 38.8545
28.03130582533231 39.1249
28.054253675581805 39.1073
28.077381967556104 39.1189
28.100332124185126 39.1347
28.123283431160893 39.1597
28.146235889577238 38.9495
28.169368830154156 38.7149
28.192323603752033 38.5356
28.215279532083304 38.3812
28.238415973016764 38.1237
28.261374223145094 37.972
28.284333631303806 37.919000000000004
28.307294198589954 37.8061
28.330435319167677 37.2824
28.353398217078915 37.2224
28.376362277420153 36.8402
28.39932750129032 36.6138
28.422473319286713 36.5342
28.44544088262495 36.6302
28.468409612800283 36.4878
28.491379510913497 36.256
28.51453004413313 36.0676
28.53750229057244 36.1032
28.56047570826344 36.0284
28.583450298308804 36.0213
28.606605564586562 35.7805
28.629582511831156 35.9084
28.65256063474956 35.8519
28.675539934446338 35.8287
28.698699951647605 35.7715
28.72168161743193 35.6848
28.74466446331978 35.6681
28.767648490417624 35.5699
28.790813276438353 35.6079
28.813799678527303 35.6509
28.836787265157085 35.5633
28.859955641890075 35.5807
28.882945610203045 35.5776
28.905936766392035 35.5255
28.928929111566863 35.5603
28.952102288520145 35.3754
28.975097024308607 35.3364
28.998092952423807 35.0383
29.021090073977508 35.066
29.04426806913204 35.0323
29.067267590245258 34.7888
29.090268308143695 34.8447
29.11327022394099 34.7087
29.13645305530891 34.688
29.159457379627167 34.5528
29.18246290519685 34.5049
29.20546963313352 34.559
29.22865731875826 34.5154
29.25166646419296 34.4466
29.27467681535305 34.3571
29.29768837335608 34.4066
29.320880931312562 34.4735
29.34389491580634 34.4863
29.366910110507334 34.3471
29.38992651653503 34.2936
29.41312396492981 34.4064
29.436142806456754 34.2373
29.45916286268059 34.1677
29.48236399319994 34.0706
29.50538649169417 33.9628
29.528410208259935 33.8048
29.55143514402014 33.68
29.574641196749695 33.5895
29.597668583816574 33.523
29.6206971934585 33.3428
29.64372702680042 33.3645
29.666938019934474 33.3079
29.689970313635285 33.2908
29.713003834422636 33.1996
29.73603858342347 33.0983
29.759254535188578 33.0301
29.78229175361658 32.9974
29.80533020365064 33.0497
29.82836988641968 32.9747
29.85159081507472 32.9381
29.874632976355343 32.9338
29.89767637376955 33.0154
29.920721008448314 32.7917
29.9439469322847 32.8102
29.96699405457564 32.6491
29.9900424175358 32.7302
30.013092022298157 32.7215
30.03632295963995 32.5606
30.059375061131373 32.5471
30.08242840783577 32.5573
30.105483000888153 32.5907
30.128718970092244 32.5246
30.151776069006917 32.5282
30.17483441768648 32.5436
30.198074175317235 32.4903
30.221135036724256 32.5204
30.24419715131772 32.5387
30.267260520236203 32.4946
30.290505341942243 32.3974
30.313571232750228 32.4852
30.336638381310948 32.4764
30.35970678876503 32.4049
30.38295669299435 32.3547
30.40602763151657 32.3318
30.429099832366074 32.213
30.452173296685572 32.2345
30.47542830191959 32.154
30.498504306502497 32.1587
30.521581577995562 32.2327
30.544660117543582 32.2384
30.56792024229725 32.2722
30.59100133132069 32.2225
30.614083691845494 32.2262
30.637167325018545 32.3173
30.660432587840603 32.3275
30.683518779717886 32.3136
30.70660624769615 32.3227
30.729694992924372 32.3435
30.75296541239743 32.3811
30.77605672557558 32.2952
30.799149319462742 32.2271
30.8224236211637 32.1281
30.845518789950724 31.9732
30.868615242910597 31.8799
30.891712981195973 31.8103
30.91499247215866 31.7237
30.938092794619365 31.7328
30.96119440587579 31.6095
30.984297307082752 31.5356
31.00758200598383 31.3777
31.030687500658694 31.3255
31.053794288760695 31.338
31.076902371446767 31.1537
31.100192296997445 31.2328
31.12330298246119 31.1679
31.14641496599209 30.9939
31.169528248749216 31.0672
31.19282341969534 31.0178
31.215939314557186 31.1248
31.239056512134788 31.1107
31.262175013589378 31.0678
31.28547544871168 30.9646
31.30859657161541 30.991
31.331719001892175 30.9508
31.35484274070538 31.0369
31.378148458819545 30.9912
31.401274828443725 31.0039
31.424402510106933 30.9757
31.447712205419993 30.9863
31.470842524931633 30.8488
31.493974159989783 30.8555
31.51710711176168 30.9528
31.54042212308802 30.9126
31.563557722100917 30.8693
31.586694641341655 30.7172
31.609832881979628 30.5893
31.63315322823208 30.5995
31.656294125521327 30.5803
31.679436347728515 30.3873
31.70257989602529 30.2505
31.725905596152327 30.2978
31.74905181052835 30.2967
31.772199354521323 30.2453
31.79534822930507 30.3065
31.818679302290967 30.3416
31.84183085259981 30.2645
31.864983737233473 30.1812
31.88813795736804 30.18
31.911474422233013 30.2003
31.934631327356435 30.2476
31.9577895715215 30.1045
31.980949155906522 30.1011
32.004291031706956 30.2193
32.027453310562606 30.0777
32.05061693318573 30.0342
32.07396288236386 30.046999999999997
32.09712920658542 29.9358
32.12029687812702 29.7161
32.14346589817093 29.6487
32.166817291729984 29.7043
32.18998902288583 29.5384
32.21316210610336 29.4477
32.23633654256711 29.4185
32.259693399663725 29.3742
32.282870556771144 29.2715
32.30604907069099 29.3005
32.329228942610065 29.2709
32.35259128243769 28.9838
32.375773884550505 29.013
32.398957848235646 29.0823
32.422143174682176 28.991999999999997
32.445511016471215 28.8446
32.468699082679954 28.866999999999997
32.49188851523011 28.8869
32.51507931531304 28.8027
32.538452678331 28.7846
32.56164622776311 28.6434
32.58484114831493 28.6289
32.60803744118015 28.6065
32.631416344731896 28.6378
32.654615396551876 28.5588
32.67781582427913 28.5197
32.701198898634416 28.5641
32.72440209253756 28.3569
32.747606665947124 28.3426
32.77081262006088 28.3381
32.79420126883317 28.230999999999998
32.81740999876112 28.267
32.840620112999424 28.1601
32.86383161274818 28.1734
32.88722585534586 28.2032
32.91044014056596 28.1259
32.933655814909734 28.0673
32.95687287957963 28.1749
32.98027273544904 28.1202
33.00349259526636 27.9503
33.026713849030116 28.0649
33.04993649794511 28.0476
33.073341986570746 27.9598
33.09656744032826 27.8012
33.11979429286444 27.9256
33.14302254538647 27.9172
33.166433686291185 27.7484
33.18966475336992 27.7713
33.212897224069096 27.6758
33.23613109959831 27.7199
33.259547912343415 27.5915
33.2827846121627 27.8047
33.306022720453775 27.6667
33.32926223842861 27.5205
33.352684742614166 27.4432
33.37592709463173 27.5431
33.399170859982064 27.4482
33.422597648419426 27.4191
33.44584425514446 27.2263
33.46909227885668 27.2607
33.4923417207723 27.139
33.51577423505344 27.15
33.539026528130385 27.0077
33.56228024307245 26.9813
33.585535381098246 26.8445
33.60897364093058 26.897
33.63223163992385 26.936999999999998
33.6554910656699 26.8082
33.678751919389796 26.7796
33.702195944520106 26.6837
33.72545966903325 26.7533
33.74872482519663 26.6719
33.771991414233746 26.6366
33.79544122444841 26.6091
33.81871069412428 26.5199
33.84198160035767 26.5232
33.86525394437455 26.5109
33.88870955949969 26.3959
33.911984794020626 26.3897
33.93526147001624 26.3633
33.958539588715006 26.2442
33.98200102861669 26.2811
34.0052820477047 26.2164
34.02856451319451 26.2106
34.05203033759056 26.1
34.07531571090147 26.0823
34.09860253431845 26.0908
34.121890809074316 25.9937
34.145362493118924 25.9252
34.16865368561615 25.9262
34.191946333164054 25.8953
34.21524043699793 25.8884
34.23871800066799 25.8785
34.26201503218366 25.6878
34.28531352370466 25.6977
34.30861347646881 25.680999999999997
34.33209693978188 25.7089
34.3553998301885 25.5957
34.378704185565205 25.5777
34.402010007152356 25.4351
34.42549939016683 25.4574
34.44880815937748 25.4158
34.472118398533134 25.3878
34.49543010887669 25.3042
34.51892543169198 25.2155
34.54224009966052 25.2602
34.56555624255917 25.2249
34.58887386163339 25.107
34.61237514439016 25.1388
34.6356957311114 25.0861
34.65901779775809 25.0165
34.68252356662995 24.8766
34.705848608458616 24.9839
34.72917513396849 24.9617
34.75250314440949 24.8662
34.77601490857862 24.8373
34.799345904259795 24.8513
34.82267838863559 24.8561
34.846012362958525 24.8488
34.869530142679984 24.6482
34.89286711232212 24.7178
34.91620557568269 24.7495
34.93954553401677 24.6168
34.9630693495876 24.5388
34.986412313340814 24.545
35.00975677584668 24.5309
35.033102738362956 24.4885
35.05663261012228 24.4073
35.0799815881786 24.4278
35.10333207003229 24.3903
35.12668405694369 24.3301
35.150220005273056 24.435
35.17357501786656 24.3532
35.19693153931268 24.3229
35.220289570874385 24.2598
35.24383161619786 24.2676
35.267192683604904 24.285999999999998
35.290555264930376 24.1961
35.314101899412165 24.1733
35.33746752422433 24.2076
35.36083466676374 24.1701
35.38420332829803 24.0858
35.407756095629054 24.0797
35.43112781085063 24.0205
35.45450104888391 24.0009
35.477875810999194 24.0144
35.50143473172161 23.8915
35.52481255774625 23.9747
35.54819191167777 23.8388
35.57157279478914 23.8659
35.595137889488406 23.8539
35.61852184675279 23.7893
35.641907337029984 23.724
35.665294361595684 23.7043
35.68886565090076 23.728
35.7122557598848 23.5855
35.73564740699838 23.58
35.759040593519934 23.5992
35.78261809810353 23.5368
35.80601437933051 23.4117
35.829412203814705 23.4037
35.85281157283719 23.371
35.876395313415884 23.3507
35.8997977874528 23.2492
35.92320180988546 23.2937
35.946790244133936 23.2457
35.97019737933222 23.2412
35.993606066789866 23.1737
36.01701630779276 23.1783
36.04061101440684 23.1104
36.06402437852291 23.0739
36.08743930005611 23.0655
36.1108557802951 22.9936
36.13445678011326 22.9963
36.15787639383515 22.9591
36.18129757014299 22.918000000000003
36.20472031032821 22.9212
36.22832762423364 22.834
36.25175350829375 22.8106
36.275180960119776 22.7141
36.298609981005924 22.7838
36.32222362992669 22.7726
36.34565580510207 22.6951
36.36908955323448 22.6184
36.39252487562093 22.509
36.416144880530226 22.5017
36.43958336764275 22.4764
36.463023432914625 22.4832
36.486465077645676 22.4339
36.51009145956204 22.4712
36.53353627947859 22.4945
36.55698268276811 22.4595
36.58043067073321 22.406
36.60406345072071 22.2578
36.62751462435344 22.2768
36.65096738658405 22.2844
36.67460498210655 22.2645
36.69806093788647 22.2092
36.72151848619297 22.1122
36.744977628333636 22.0894
36.76862165890998 22.1105
36.79208400512205 22.1044
36.81554794910557 22.0719
36.83901349217101 21.9265
36.862663978991606 21.884
36.88613273667352 21.8996
36.90960309738324 21.836
36.933075062434064 21.8197
36.95673202673572 21.772
36.98020721697122 21.8094
37.003684015502365 21.7427
37.027162423645365 21.6885
37.050825886711465 21.6542
37.07430753063053 21.6602
37.09779078812467 21.6064
37.121275660513014 21.5656
37.144945643673694 21.5014
37.16843376245278 21.5261
37.19192350009803 21.4968
37.215414857931435 21.51
37.239091382563885 21.3625
37.262585997426164 21.3231
37.28608223645736 21.3039
37.309763684451696 21.3449
37.33326318851098 21.3215
37.356764320726555 21.2673
37.380267082425526 21.223000000000003
37.40395510942588 21.1883
37.42746114683234 21.1716
37.45096881771841 21.1107
37.474478123414166 21.0625
37.49817275092816 21.0415
37.52168534303452 20.9894
37.54519957395567 20.9558
37.568715445024665 20.8923
37.592416694607714 20.8414
37.61593586281424 20.8844
37.63945667518264 20.9407
37.66297913304891 20.8174
37.68668702630454 20.8247
37.710212792059274 20.7152
37.733740207334854 20.6463
37.757269273470364 20.6262
37.780983832050374 20.6393
37.80451621684926 20.5861
37.82805025654007 20.5566
37.851585952464795 20.5433
37.8753071980695 20.4411
37.89884622345676 20.3852
37.92238690911902 20.4178
37.94611318753442 20.3933
37.969657210779765 20.4073
37.99320289834801 20.3092
38.016750251586465 20.2647
38.04048325513017 20.233
38.06403395679343 20.1874
38.087586328183946 20.2134
38.11114037065203 20.1391
38.13488012115898 20.1831
38.1584375229181 20.1162
38.181996599821 20.0442
38.205557353221124 20.008
38.229303872575656 19.9942
38.2528679961576 20.0643
38.27643380031219 19.9352
38.30000128639589 19.9088
38.32375459653193 19.9305
38.34732546371299 19.8191
38.37089801690786 19.7702
38.39447225747609 19.7436
38.418232380377425 19.711
38.441810012983396 19.6993
38.46538933705673 19.6703
38.488970353960084 19.7111
38.51273731166058 19.6106
38.536321731567014 19.5498
38.55990784840681 19.523
38.58367995004091 19.5529
38.60726947812959 19.493
38.63086070726198 19.5015
38.654453638806274 19.4617
38.678232613930824 19.3946
38.70182896773327 19.3379
38.72542702806741 19.2702
38.7490267963045 19.3463
38.77281266709232 19.2862
38.79641586862214 19.2975
38.8200207821842 19.2287
38.843627409152944 19.2359
38.86742019782782 19.1248
38.891030269149255 19.0736
38.914642058016156 19.1639
38.938255565806124 19.1018
38.96205529464307 19.0816
38.98567225787121 19.0364
39.00929094417078 18.9823
39.03291135492255 18.9807
39.05671804624804 18.9987
39.080341923549106 18.9362
39.103967529460334 18.8851
39.127594865365744 18.7901
39.15140854155791 18.824
39.17503935514948 18.7663
39.19867190290282 18.7655
39.22249083587951 18.6987
39.24612686969409 18.686
39.269764641845306 18.7291
39.293404153722804 18.6261
39.317230110864074 18.5857
39.34087311998506 18.541
39.36451787301696 18.59
39.388164371352595 18.5064
39.41199737518003 18.4437
39.43564738196752 18.4364
39.45929913825317 18.3844
39.48295264543308 18.3842
39.506792718520884 18.445
39.530449745387216 18.3465
39.55410852735203 18.2678
39.57776906581474 18.3438
39.60161623079 18.2672
39.625280300200025 18.2488
39.64894613032202 18.1857
39.67261372255866 18.1718
39.6964680021016 18.1389
39.72013913657293 18.1559
39.74381203738292 18.0985
39.76748670593756 18.0309
39.79134812278169 18.0406
39.81502634488497 18.0905
39.83870633896685 18.0096
39.862388106436654 17.917
39.88625668336918 17.9108
39.90994201572829 17.9789
39.933629125719285 17.8661
39.957503091207826 17.8017
39.9811937746168 17.8265
40.00488623990914 17.7773
40.02858048850006 17.7464
40.05246165409549 17.6724
40.076159487492085 17.6551
40.099859108448875 17.6585
40.123560518384345 17.5784
40.1474489070226 17.5923
40.171153913178564 17.5537
40.194860712584955 17.5701
40.2185693066637 17.5268
40.242464941335314 17.4631
40.26617714307655 17.4874
40.289891143772046 17.4474
40.3136069448471 17.4063
40.33750984859743 17.407
40.3612292688043 17.3501
40.3849504936829 17.3268
40.40867352466194 17.3329
40.43258372059144 17.2844
40.45631038219906 17.2442
40.48003885420956 17.1863
40.503769138055105 17.2132
40.52768664931955 17.1846
40.55142057531802 17.105
40.57515631746428 17.0607
40.599079334038514 17.0866
40.62281872700477 17.0478
40.64655994043941 17.0326
40.67030297578061 16.9988
40.69423334835778 17.032
40.71798004609188 16.9667
40.74172857006355 16.8765
40.76547892171441 16.9393
40.7894166736039 16.8846
40.813170699248566 16.8161
40.83692655691388 16.7885
40.86068424804498 16.8059
40.884629402612525 16.7903
40.908390779366385 16.7448
40.932153993938 16.7229
40.95591904777605 16.6497
40.979871628443995 16.7121
41.003640379561936 16.6247
41.02741097430883 16.6288
41.05118341413683 16.6513
41.075143444384416 16.5948
41.098919593177826 16.5595
41.1226975914255 16.5624
41.14647744058318 16.5127
41.170444943946755 16.4816
41.19422851378379 16.4499
41.218013938914645 16.3666
41.24198706625173 16.3343
41.26577622087193 16.2991
41.289567235177785 16.2605
41.31336011063129 16.2585
41.337340752422875 16.1998
41.361137369129835 16.1925
41.38493585138705 16.1957
41.40873620066004 16.1448
41.43272438060107 16.1162
41.45652848292052 16.0527
41.48033445666918 16.0541
41.50414230331616 16.0475
41.528138045159764 16.0659
41.551949656675205 15.9541
41.575763145513235 15.942
41.59957851314666 15.959000000000001
41.62358184070442 15.9328
41.64740098505737 15.8913
41.6712220126409 15.8397
41.69504492493139 15.7861
41.71905586207357 15.7887
41.74288256296395 15.8009
41.766711153007456 15.7987
41.79054163368412 15.6956
41.814560204340054 15.7399
41.838394485526365 15.7429
41.86223066180303 15.6593
41.88625497706819 15.6093
41.910094962812 15.6162
41.93393684811168 15.5929
41.95778063445365 15.5305
41.981812625263366 15.5177
42.00566023303407 15.4585
42.029509746323676 15.4882
42.05336116662236 15.4381
42.077400857069705 15.4708
42.10125611078846 15.3959
42.12511327600405 15.3611
42.14897235421036 15.3692
42.173019768448455 15.2926
42.19688269209613 15.2769
42.22074753323349 15.2487
42.24461429335818 15.2463
42.268669455600495 15.1867
42.292540073217886 15.1568
42.31641261433284 15.1688
42.34028708044675 15.1095
42.36435001496739 15.0984
42.38822835065557 15.1181
42.41210861586426 15.0717
42.4359908120986 15.0486
42.46006154323262 15.0212
42.48394762115317 14.9908
42.507835634632315 15.0105
42.531912233047436 14.9864
42.55580413732265 14.9547
42.579697981698 14.9025
42.60359376768525 14.8616
42.62767820545945 14.8275
42.65157789440821 14.812000000000001
42.67547952952185 14.8099
42.699383112316 14.7846
42.72347541395347 14.720999999999998
42.74738291190531 14.7088
42.771292362102166 14.6969
42.795203766063516 14.6772
42.819303956130405 14.6113
42.843219287476536 14.6012
42.86713657716324 14.5817
42.89105582671383 14.544
42.91516392983864 14.514000000000001
42.939087119032166 14.5005
42.963012272677304 14.5091
42.98693939230129 14.434000000000001
43.01105543317513 14.4295
43.034986504731386 14.3894
43.05891954686589 14.3817
43.08285456110972 14.3412
43.10697856448665 14.3045
43.130917542983475 14.2766
43.15485849820081 14.3106
43.17880143167367 14.2665
43.20293342237094 14.2088
43.226880332449 14.1612
43.25082922540554 14.1916
43.27496722682525 14.1878
43.29892010567796 14.0914
43.32287497204102 14.1348
43.34683182745632 14.0896
43.370977859791836 14.0431
43.39493871351105 14.0414
43.41890156092628 14.0484
43.44286640358341 13.955
43.46702049182749 13.9716
43.49098934522816 13.9292
43.51496019852649 13.9455
43.5389330532723 13.883
43.56309522248204 13.8496
43.58707210044314 13.8872
43.61105098451946 13.8025
43.63503187626491 13.7728
43.659202151562134 13.7849
43.68318707902681 13.7215
43.70717401884041 13.6763
43.731162972560874 13.6779
43.75534137913236 13.6523
43.779334381108384 13.6478
43.803329401683186 13.603
43.82732644241872 13.5774
43.8515130055166 13.6009
43.87551410707659 13.5565
43.89951723350145 13.5388
43.923709934595614 13.5256
43.94771713129917 13.5372
43.97172635758096 13.5177
43.99573761501002 13.494000000000002
44.0199385169922 13.3872
44.04395385732619 13.419
44.067971233533086 13.4254
44.09199064718605 13.3551
44.11619977548961 13.2955
44.14022328470671 13.2658
44.16424883610785 13.3084
44.18827643127035 13.2798
44.21249381139513 13.2829
44.236525514814076 13.1982
44.26055926674478 13.2755
44.28459506876863 13.1876
44.3088207262813 13.1545
44.33286064928722 13.1156
44.35690262714919 13.0838
44.38094666145278 13.0709
44.4051806219871 13.0927
44.42922879003185 13.0295
44.45327901929361 13.0244
44.477331311362136 13.0212
44.501573600619416 12.9468
44.525630039221795 12.9417
44.54968854541895 12.9383
44.573937102200176 12.9319
44.5979997645541 12.8828
44.622064499300315 12.8718
44.64613130803592 12.8293
44.67038823869318 12.8384
44.69445921643748 12.8261
44.718532272981385 12.770999999999999
44.742607409926194 12.7116
44.76687274034801 12.7082
44.79095205918753 12.6907
44.81503346325094 12.6811
44.839116954143876 12.6959
44.86339071028742 12.6345
44.88747839599524 12.6062
44.91156817336837 12.5912
44.93566004401666 12.5862
44.959942251908146 12.5506
44.984038330325966 12.5049
45.00813650686762 12.4837
45.03223678314731 12.4983
45.05652746888232 12.4476
45.08063196592069 12.4099
45.104738567558705 12.4177
45.128847275414856 12.3923
45.15314646515866 12.3668
45.17725940679741 12.347000000000001
45.20137445952892 12.3209
45.22568004865265 12.3068
45.24979934496396 12.2654
45.27392075725247 12.2314
45.29804428714431 12.2481
45.322358426247604 12.23
45.346486212804315 12.1448
45.370616121861914 12.2004
45.39474815505086 12.1962
45.41907087049246 12.1284
45.4432071734666 12.0771
45.46734560548283 12.107000000000001
45.49148616817604 12.0909
45.51581748638564 12.0871
45.5399623320197 12.0737
45.56410931325473 12.0305
45.58825843173002 12.0174
45.61259837920865 11.955
45.636751793816 11.9395
45.66090735060093 11.8854
45.68506505120716 11.8678
45.7094136545275 11.8712
45.73357566449271 11.8398
45.75773982322992 11.8079
45.78190613238733 11.8162
45.806263418194064 11.7416
45.83043404997326 11.7687
45.85460683713677 11.7551
45.87897065658495 11.7758
45.90314777634752 11.7193
45.92732705646868 11.6871
45.9515084986045 11.6555
45.97588104735473 11.6542
46.00006683541565 11.6112
46.02425479047904 11.5722
46.04844491420549 11.5766
46.0728262191024 11.5705
46.09702070211635 11.5458
46.12121735879483 11.5693
46.14541619080294 11.475999999999999
46.169806278764455 11.4818
46.194009483459034 11.466
46.21821486849841 11.4317
46.24242243555223 11.439
46.266821333570014 11.3644
46.29103328674601 11.3623
46.31524742696538 11.3993
46.33946375590237 11.3273
46.36387149104216 11.3283
46.38809221957392 11.2636
46.41231514186606 11.2556
46.436540259597464 11.2404
46.460956858999374 11.2459
46.48518638983522 11.1754
46.509418121166966 11.1988
46.533652054678114 11.155999999999999
46.55807754555709 11.142000000000001
46.58231590571962 11.1504
46.60655647313217 11.103
46.630988654873654 11.0819
46.655233659129024 11.0209
46.67948087571551 11.0125
46.70373030632484 11.0443
46.72817142736393 11.0163
46.752425308428684 10.9581
46.77668140861147 10.9812
46.80093972960865 10.9499
46.82538981736788 10.9264
46.849652602470904 10.9354
46.87391761349769 10.8663
46.8981848521493 10.8399
46.9226439341274 10.8059
46.946915650573224 10.8142
46.97118959976749 10.7934
46.99546578341598 10.7668
47.019933887188216 10.7354
47.04421456235744 10.7419
47.06849747711879 10.7009
47.09278263318286 10.6668
47.11725978640143 10.7093
47.14154944775105 10.6411
47.165841355555656 10.6211
47.1901355115306 10.5993
47.214621741924994 10.5646
47.23892041698887 10.5978
47.26322134538975 10.5411
47.28771440635075 10.54
47.31201986422527 10.5462
47.33632758061436 10.482999999999999
47.360637557241866 10.5262
47.38513974410611 10.5147
47.40945426407847 10.4627
47.43377104948137 10.4288
47.45809010204344 10.4081
47.48260144275502 10.3885
47.506925052572285 10.3307
47.53125093475548 10.3645
47.55557909103813 10.3089
47.58009961361992 10.2876
47.60443234110732 10.2865
47.62876734791564 10.2609
47.65310463578333 10.2753
47.6776343683373 10.2254
47.7019762413987 10.2193
47.72632040075572 10.1583
47.75066684815169 10.1807
47.77520581885936 10.1678
47.799556865477655 10.1411
47.823910205386 10.1821
47.84826584033272 10.0975
47.87281407745551 10.0814
47.89717432569297 10.1158
47.92153687423484 10.085
47.94609208429692 10.0384
47.97045925671401 10.0212
47.99482873471275 9.9915
48.01920052005013 9.98299
48.04376504619224 10.0129
48.068141469543484 9.98067
48.09252020552573 9.97764
48.11690125590099 9.87612
48.1414751266064 9.89224
48.16586082917454 9.89114
48.19024885144316 9.822510000000001
48.2146391951793 9.88091
48.239222439012764 9.85719
48.26361744916137 9.79641
48.28801478610016 9.79953
48.31241445160131 9.804780000000001
48.337007097209366 9.8049
48.36141144338331 9.72989
48.38581812345755 9.71764
48.41022713920929 9.70372
48.434829215320704 9.67874
48.45924292604658 9.66062
48.48365897780325 9.68028
48.50807737237308 9.6575
48.532688907799276 9.62855
48.55711201168574 9.59782
48.581537463754074 9.56575
48.60615611725119 9.57068
48.63058628942721 9.54898
48.65501881516546 9.53092
48.6794536962573 9.51517
48.70408185970339 9.48265
48.72852147531801 9.45149
48.75296345168211 9.43614
48.77740779059232 9.42849
48.80204549302823 9.45453
48.82649458091802 9.4263
48.85094603676547 9.404589999999999
48.87539986237231 9.39029
48.90004713292306 9.35397
48.92450572200832 9.32322
48.94896668628025 9.329089999999999
48.97343002754588 9.28251
48.99808689542115 9.3264
49.02255501470614 9.283539999999999
49.04702551642794 9.28205
49.0714984023988 9.21434
49.096164896893235 9.16514
49.120642575466796 9.17612
49.145122643748394 9.14753
49.16960510355558 9.128810000000001
49.19428125404938 9.13926
49.2187685210852 9.14217
49.243258185121555 9.10678
49.26794160167084 9.11539
49.2924360839405 9.083060000000001
49.31693296869764 9.062289999999999
49.34143225776915 9.00708
49.36612538195438 9.01878
49.39062950396021 9.015310000000001
49.41513603578346 9.01116
49.4396449792564 8.961689999999999
49.46434784069503 8.98505
49.488861631846454 8.93876
49.513377840166804 8.91949
49.537896467493745 8.87071
49.56260909589029 8.851460000000001
49.587132585683285 8.86185
49.611658500018365 8.85225
49.636186840738596 8.79862
49.66090926588511 8.82944
49.685442483902584 8.7928
49.70997813385706 8.7596
49.734516217597076 8.791839999999999
49.75924846937352 8.767539999999999
49.7837914452858 8.713339999999999
49.80833686055187 8.664589999999999
49.83288471702571 8.67407
49.85762682540054 8.68727
49.882179588965734 8.66635
49.9067347993235 8.62243
49.93129245833333 8.63227
49.95604445336378 8.5981
49.98060703442832 8.58496
50.005172069746266 8.550839999999999
50.02993150438364 8.53942
50.05450147301533 8.52112
50.07907390151433 8.51326
50.10364879174981 8.4753
50.12841816587289 8.473410000000001
50.1529980044635 8.51568
50.17758031042124 8.46605
50.20216508562089 8.432739999999999
50.22694442953363 8.390419999999999
50.25153416817468 8.39155
50.27612638170508 8.39823
50.300721072005196 8.33612
50.325510416102105 8.35622
50.350110084975064 8.32247
50.37471223628208 8.32616
50.39931687190919 8.31687
50.424116246675766 8.2805
50.44872587605249 8.27411
50.47333799543065 8.2593
50.49795260670191 8.20538
50.52276204271512 8.23995
50.54738166295838 8.22918
50.57200378079314 8.201830000000001
50.596628398116835 8.162230000000001
50.62144792604559 8.18142
50.646077567609396 8.13867
50.670709714377715 8.13117
50.69553683636198 8.12851
50.72017401885922 8.11042
50.7448137122895 8.10525
50.76945591856022 8.04964
50.79429318636823 8.04622
50.818940443716784 8.06002
50.84359021965163 8.05017
50.868242516085964 8.0237
50.893089960641895 7.98608
50.917747323549435 7.97594
50.94240721271973 7.941089999999999
50.96706963007175 7.93135
50.99192728239342 7.9368300000000005
51.01659478166073 7.937460000000001
51.04126481489051 7.901489999999999
51.06593738400761 7.879160000000001
51.090805275207074 7.86765
51.11548294172845 7.86534
51.14016314993547 7.82493
51.164845901758845 7.82505
51.18972406304274 7.842639999999999
51.21441192780656 7.79944
51.23910234200271 7.805389999999999
51.2637953075678 7.777019999999999
51.288683770237945 7.761710000000001
51.31338186432707 7.723730000000001
51.33808251561888 7.71276
51.362978729967345 7.6894
51.387684521509755 7.694380000000001
51.41239287610203 7.68301
51.437103795691165 7.66127
51.46201036644977 7.63859
51.486726441956634 7.575080000000001
51.51144508832545 7.58648
51.536166307509156 7.61875
51.56108326624387 7.59616
51.58580965706056 7.574789999999999
51.61053862657523 7.56683
51.635270176746864 7.5281199999999995
51.66019755512065 7.53626
51.68493429268881 7.47744
51.70967361681515 7.49728
51.73441552946465 7.48867
51.759353359237934 7.4793899999999995
51.7841004750961 7.478110000000001
51.80885018539685 7.421810000000001
51.833602492111254 7.38029
51.8585508051424 7.39164
51.883308330926425 7.3763
51.90806845906181 7.3708100000000005
51.932831191525715 7.36505
51.95779001977161 7.30578
51.98255798721516 7.27168
52.00732856494335 7.24455
52.03229530577543 7.24101
52.057071130455945 7.258210000000001
52.081849571391054 7.2461199999999995
52.106630630568695 7.25232
52.13160794279417 7.219539999999999
52.15639426492067 7.229080000000001
52.18118321127822 7.211110000000001
52.205974783860896 7.16593
52.23096269971011 7.14387
52.255759551287994 7.1460300000000005
52.280559035098186 7.1306199999999995
52.30536115314103 7.1344899999999996
52.33035970494467 7.0982199999999995
52.35516711807904 7.081239999999999
52.37997717147198 7.0731
52.40478986713005 7.10142
52.42979908731974 7.05507
52.454617094216 7.03452
52.47943774942214 7.03795
52.50426105495102 6.9954
52.529280976059844 6.98814
52.554109609024096 6.94803
52.57894089837482 6.969930000000001
52.60377484613117 6.943789999999999
52.62880550079408 6.927919999999999
52.65364479223379 6.891430000000001
52.67848674816189 6.90868
52.70352547971946 6.900469999999999
52.72837279155837 6.87591
52.753222773982785 6.868010000000001
52.778075429022984 6.849880000000001
52.80312495150885 6.82805
52.827982978797436 6.84951
52.85284368481815 6.8024
52.87770707160767 6.735360000000001
52.90276741793998 6.74949
52.92763619336701 6.74258
52.952507655698504 6.7323699999999995
52.977381806977576 6.72553
53.00245301017842 6.7081100000000005
53.02733256653592 6.73084
53.052214817996074 6.68398
53.077099766608484 6.65265
53.102181859804446 6.6566399999999994
53.127072229988265 6.68462
53.15196530349892 6.65195
53.17686108239249 6.60398
53.20195409881522 6.582339999999999
53.22685531582556 6.612889999999999
53.25175924441303 6.53609
53.27666588664027 6.5526800000000005
53.30176985962693 6.51352
53.3266819565689 6.51579
53.35159677336455 6.5191300000000005
53.376514312083096 6.50011
53.40162927507703 6.488119999999999
53.42655228516116 6.4886800000000004
53.45147802340193 6.46166
53.47660125628886 6.461790000000001
53.50153247842639 6.4539
53.52646643496923 6.447030000000001
53.55140312799818 6.42939
53.576537409691696 6.38663
53.60147960336152 6.39475
53.626424539786164 6.38347
53.65137222105307 6.35725
53.67651758529126 6.33446
53.70147078399681 6.31502
53.72642673383343 6.3154900000000005
53.75138543689533 6.28976
53.776541917524526 6.27384
53.801506154876755 6.2706
53.826473151763246 6.27313
53.851442910284916 6.23351
53.87661054126026 6.21355
53.9015858509782 6.21805
53.92656392866066 6.15434
53.95154477641532 6.178669999999999
53.976723591801296 6.1387599999999996
54.00171000771266 6.11931
54.02669920004598 6.17016
54.051691170915745 6.13185
54.076881204886796 6.10187
54.101878760928514 6.12171
54.12687910187696 6.09305
54.152077577768296 6.08634
54.1770835166946 6.0602
54.20209224691339 6.03504
54.22710377055121 6.00174
54.25231352511594 5.99972
54.27733066384342 5.97581
54.30235060239643 5.97242
54.32737334290836 5.95371
54.35259441062629 5.95207
54.377622783395324 5.95916
54.40265396455061 5.95361
54.42768795623251 5.8590800000000005
54.45292037169559 5.84903
54.477960012857906 5.872319999999999
54.50300247099511 5.861000000000001
54.52804774825457 5.81841
54.55329154616743 5.800680000000001
54.57834249018678 5.77495
54.6033962597977 5.76429
54.6284528571545 5.77493
54.653708072335164 5.69041
54.67877035378786 5.68848
54.70383546947698 5.68613
54.72890342156389 5.6989
54.7541700889442 5.6965
54.77924374251975 5.61981
54.8043202390049 5.623069999999999
54.82959552413022 5.58007
54.8546777351945 5.54707
54.87976279569621 5.46955
54.90485070780914 5.5677
54.930137506558005 5.55922
54.95523115074295 5.552630000000001
54.98032765308844 5.46777
55.005427015775496 5.42226
55.03072536339621 5.43328
55.05583047570572 5.42171
55.080938454927676 5.37226
55.10604930325027 5.36658
55.131359235107396 5.34439
55.15647585066083 5.2968
55.181595341907496 5.3383199999999995
55.20671771104285 5.30262
55.232039262617704 5.28333
55.25716741665048 5.25327
55.28229845518636 5.24504
55.30743238042802 5.1660900000000005
55.33276558731939 5.11279
55.357905315183636 5.17058
55.383047936390035 5.128909999999999
55.40819345314859 5.06998
55.433538351073295 5.02264
55.458689688238415 5.08999
55.483843927614096 5.03935
55.509197623043605 5.04649
55.53435769621134 4.99295
55.55952067826466 4.95881
55.5846865714265 4.96999
55.61005202069737 4.93768
55.63522376553902 4.90311
55.66039842818645 4.8716
55.68557601087004 4.84408
55.7109532500271 4.81162
55.73613670233794 4.80835
