TT I
1.2716486653135266 8.287889999999999
1.2939594142134223 7.7264
1.3162702121660406 7.40165
1.3385810600174564 6.93077
1.3608919586137629 6.45635
1.383202908801069 6.688210000000001
1.405513911425503 7.058839999999999
1.4278249673332093 6.79432
1.4501343378461518 6.27829
1.4724455028545926 6.08596
1.4947567236847858 6.86607
1.517068001182951 6.6197
1.5393793361953272 6.48686
1.5616907295681737 6.26018
1.5840021821477681 5.51245
1.60631369478041 5.69953
1.6286252683124185 5.52425
1.6509369035901333 5.54631
1.6732468618895553 5.42149
1.695558623192809 5.50779
1.7178704487808514 5.75474
1.7401823395001077 5.33536
1.7625012545597203 5.24374
1.7848028405262486 5.3224599999999995
1.8071218901122095 5.17176
1.8294236121921872 5.0484599999999995
1.8517427996910911 5.1359900000000005
1.8740620574440425 5.0831800000000005
1.8963639900671978 5.4687
1.9186833908139995 5.41676
1.9409854680117449 5.33964
1.9633050151394713 5.29946
1.9856246367570705 4.99034
2.0079269371922672 4.66737
2.03024671027244 4.89671
2.0525491637446027 5.00241
2.074869091674931 5.13885
2.097171701569106 5.281619999999999
2.1194917877373847 5.33622
2.141811954326636 5.078880000000001
2.164114805233074 4.24894
2.186435135143035 4.77837
2.208738150935709 4.6125300000000005
2.231058647554722 4.26481
2.2533792288321184 5.26818
2.275682498336085 4.5036
2.298003251406138 4.128430000000001
2.3203066942619714 4.29396
2.3426276225136022 4.03281
2.3649486396617507 4.15377
2.387252348930071 4.53527
2.4095735463442893 4.078880000000001
2.4318774374315884 4.6866699999999994
2.4541988185014043 3.8543300000000005
2.476502894794693 4.80513
2.498824462909887 4.67427
2.521146125856138 4.64543
2.5434504863470337 4.55844
2.5657723414244717 4.56306
2.588076895590662 5.24426
2.610398946189713 5.6669
2.6327210958598384 5.46393
2.6550259469304716 5.452780000000001
2.6773482972090137 5.9474599999999995
2.6996533504259 6.01088
2.7219759047039602 6.2904
2.744298562293959 5.72687
2.7666039251246595 6.0027099999999995
2.7889267918020164 6.44855
2.8112323652516555 6.70747
2.833555444408179 7.275689999999999
2.8558786311183852 7.183680000000001
2.8781845268938557 7.92241
2.9005079311721484 8.12449
2.9228140460410397 8.49672
2.9451376712799635 9.290339999999999
2.967444008632326 8.95919
2.9897678582247247 10.0168
3.0120918213106695 10.5046
3.0343984987899373 10.3134
3.0567226913198637 10.8085
3.079029599759726 11.6482
3.101354025127254 12.3196
3.123678568232338 13.0525
3.145985829517914 12.7261
3.16831061055229 13.7659
3.1906181112775593 14.1771
3.212943133635653 15.0478
3.2352682779763207 15.244000000000002
3.2575761442691227 15.2235
3.2799015350264273 15.8399
3.302209649240067 17.1121
3.3245352898092655 17.4736
3.3468436553365257 17.1347
3.369169549113219 17.8494
3.3914955708171384 18.8885
3.413804319727358 18.9468
3.4361305997334863 19.0619
3.4584396084414553 19.8197
3.4807661501462652 20.6611
3.503092824025881 21.1971
3.5254022288463154 21.0146
3.5477291695206588 21.6438
3.5700388426251948 21.6623
3.5923660534916446 22.6078
3.6146934007816114 23.2045
3.637003482731501 23.500999999999998
3.6593311053109985 23.9202
3.681641464033634 24.0536
3.7039693653009733 24.5625
3.726297407241705 25.5092
3.7486081875460804 25.4728
3.7709365132734978 25.7684
3.793247578841633 26.4667
3.8155761917550093 26.6416
3.8378875459837216 27.320999999999998
3.8602164494827234 27.5178
3.882545499606844 28.6613
3.9048572932539183 29.2541
3.9271866390645718 29.5606
3.9494987298666713 30.2645
3.971828374764527 30.6121
3.9941581705403255 31.6903
4.016470713506008 31.8904
4.038800813471445 32.6786
4.061113662089144 33.4278
4.0834440696459176 34.0978
4.105774632334751 33.9132
4.128087945865126 34.8823
4.150418821249301 35.5523
4.172732448931298 36.5853
4.195063640413578 37.324
4.2173775856475215 38.5278
4.239709096631102 39.1502
4.262040768704612 39.0841
4.284355196706267 39.8037
4.306687193387355 40.8109
4.329001947444346 41.9845
4.35133427213731 42.7655
4.373666762177566 43.5833
4.395982011761091 44.4341
4.418314834921175 45.2995
4.44063041906622 46.7646
4.4629635787515625 47.0985
4.4852969080429785 48.328
4.5076130004776225 49.5515
4.529946671403969 51.3525
4.552263106909177 51.9597
4.574597122877047 53.1446
4.596931312711224 54.7954
4.619248269273446 55.9533
4.6415828092605835 56.5681
4.663900117405352 58.0616
4.686235010953232 59.9209
4.708552674085913 61.0308
4.730887924602802 62.8545
4.753223354952695 64.1577
4.775541557023902 66.3817
4.797877349456786 67.457
4.820195915032126 69.8308
4.842532072957498 71.7943
4.864868414979744 73.9983
4.88718753227192 76.3586
4.909524244902505 79.3421
4.931843734218147 81.6973
4.954180820867835 84.9078
4.976518095879839 89.0197
4.998838149695359 93.0346
5.021175803844231 97.458
5.043496238205739 102.04299999999999
5.065834274903528 108.744
5.088172504230693 116.068
5.1104935158799565 125.86
5.132832132875765 141.827
5.155153533596801 169.45
5.1774925416746225 269.014
5.199814334878411 860.457
5.2221537374521505 2277.61
5.244493338631803 3976.49
5.266815727034316 6469.71
5.289155727832427 10120.6
5.311478517248165 9674.0
5.333818921080011 4824.52
5.356159527788849 1185.96
5.3784829252032536 303.599
5.400823940070432 191.394
5.423147747031976 158.399
5.445489173474152 140.07299999999998
5.467830807066149 130.849
5.490155234831516 124.28299999999999
5.512497285125229 118.941
5.534822130975162 116.272
5.557164601388673 113.19200000000001
5.579489868738879 109.97
5.601832762690846 107.758
5.6241758697774475 106.28
5.646501775867269 105.795
5.668845311622074 104.787
5.691171647754637 104.154
5.713515615597765 102.62700000000001
5.735859800852677 101.81200000000001
5.758186788542988 101.345
5.780531411018185 101.387
5.802858837297399 101.31
5.825203900414495 101.71
5.8475491852224 103.01
5.869877275883075 104.787
5.892223006467101 107.39399999999999
5.914551544266608 112.20700000000001
5.936897724049891 119.696
5.959244129804903 135.369
5.981573344815301 190.021
6.0039202049061 429.165
6.026249875609095 915.4889999999999
6.04859719346037 1450.53
6.070927323278297 2132.7
6.093275102315365 3421.29
6.115623113320588 4533.29
6.137953938319995 3905.88
6.160302415650845 1571.58
6.182633708324452 415.44599999999997
6.2049826554078376 160.28799999999998
6.227331838745022 113.53299999999999
6.249663839443684 98.756
6.27201349767565 90.5308
6.294345974611799 85.9111
6.316696111167083 81.9733
6.339046488263839 79.1834
6.361379686074702 76.6218
6.383730546639482 74.572
6.406064229255215 72.9464
6.428415576718203 72.0788
6.450749747566656 70.6804
6.47310158535871 69.5002
6.495453669698332 68.9276
6.517788579421056 68.2834
6.540141159237969 66.7647
6.562476565766648 65.902
6.5848296444934045 65.2622
6.607182974060425 64.5289
6.6295191323281015 64.1073
6.651872965955752 63.4977
6.6742096296068985 62.9881
6.6965639707294615 62.4507
6.71891856698715 61.928999999999995
6.741255995248479 61.1118
6.763611104154477 60.8451
6.785949046381137 60.3039
6.808304671371482 60.1199
6.8306605557940046 59.7612
6.852999275508618 58.9715
6.875355681171544 58.3492
6.897694923437771 58.4482
6.92005185377892 58.4036
6.9423916220322655 58.2259
6.964749080490181 57.5097
6.987106804399774 56.9861
7.009447368180821 57.0826
7.031805625367033 57.1006
7.054146723727803 57.0061
7.076505517631004 56.9393
7.098864581288365 57.0181
7.121206488070854 56.8244
7.143566093607822 55.8336
7.165908543567245 56.3759
7.188268694426048 56.2965
7.2106291193438095 56.1734
7.232972390625943 55.946999999999996
7.255333366030969 55.9826
7.277677189091925 55.8518
7.300038718428332 55.9379
7.322400526130865 55.6378
7.344745183422596 56.0039
7.367107550224791 55.8152
7.389452767901992 56.1822
7.411815697249891 56.3486
7.434161478756298 55.4114
7.456524974096713 55.4029
7.478888753837185 55.8076
7.501235387657368 56.398
7.523599738562711 57.8159
7.545946944825532 61.0924
7.568311870344528 61.1907
7.5906770845765665 58.9768
7.613025156078678 57.9117
7.635390950099687 57.8332
7.657739602662809 57.7638
7.680105979923558 57.3217
7.702472650212829 57.8663
7.724822180948224 58.0578
7.747189439655568 58.3128
7.769539560075357 58.3939
7.791907410653562 59.1449
7.81425812420825 58.891000000000005
7.836626570110925 59.3378
7.858995315087906 60.1475
7.881346924933401 60.5305
7.903716270417482 60.9387
7.926068482028405 61.3604
7.948438431475253 61.9952
7.9708086843180235 62.7802
7.993161805171116 63.6201
8.015532667162402 63.8357
8.037886398416653 64.9035
8.060257873014221 65.2728
8.082629655331942 66.0481
8.104984308787587 66.7825
8.127356708900503 67.7894
8.149711981398308 68.7359
8.172085002766314 69.5833
8.194458336181368 70.5103
8.216814543847752 71.8726
8.23918850371002 73.3568
8.26154533906492 74.3035
8.283919928836452 76.3854
8.306277395339652 77.7431
8.328652618483376 79.6365
8.351028159736202 81.9125
8.373386579575245 84.9839
8.395762759396959 87.0176
8.418121819038275 90.956
8.440498640894003 96.8924
8.462875785192262 108.09
8.485235811156207 149.555
8.507613602688501 278.758
8.529974277114228 465.07099999999997
8.552352719347912 605.815
8.574731488360351 752.33
8.59709314210385 1015.05
8.619472567021075 1433.36
8.64183487789147 1901.07
8.664214962183097 1945.88
8.686577933647762 1304.45
8.708958680784317 589.602
8.731339760774953 242.53
8.753703729764451 137.612
8.77608547780821 113.176
8.798450116065078 106.01700000000001
8.820832535634787 101.03299999999999
8.843215292401656 98.524
8.865580941199045 96.2293
8.887964374703538 94.6609
8.910330701447199 93.5053
8.932714815164482 92.1999
8.955099270424924 90.9562
8.977466620733543 90.2436
8.999851761421976 89.7654
9.022219798361645 89.1684
9.04460562795561 88.7908
9.066991803441677 88.7816
9.089360876979615 88.1451
9.111747746589993 87.7972
9.13411751544971 87.1933
9.156505082664324 87.0191
9.178875550323522 87.4656
9.20126381862328 87.4328
9.223652438908596 90.5496
9.246023961427412 93.9078
9.26841328802173 93.5219
9.290785518039224 91.2086
9.313175554425882 89.1951
9.335565947154315 88.0018
9.357939245086508 88.3929
9.380330352834827 88.4819
9.40270436697103 88.4348
9.425096193225055 88.2268
9.447488380180165 89.4801
9.469863475295412 89.3913
9.492256385987508 90.0464
9.514632206018318 90.8635
9.537025843935714 91.3594
9.559402392368193 91.889
9.581796761000229 92.7641
9.604191496441521 93.3151
9.626569144158516 94.044
9.648964615551032 94.8142
9.671343000390081 95.7483
9.693739211225699 96.7768
9.716135793237463 98.2315
9.738515290448102 98.9004
9.760912617143402 100.29
9.783292860202891 101.87899999999999
9.805690935076182 103.14399999999999
9.828089385495742 104.616
9.850470754023561 107.256
9.872869957865444 109.506
9.89525208097539 112.95100000000001
9.917652041736662 118.117
9.940052382417589 131.154
9.962435644102392 183.403
9.984836746950979 294.078
10.007220771957746 431.978
10.029622640473708 539.317
10.052007432299963 637.299
10.074410069984072 773.938
10.096813093716005 1013.72
10.119199042482517 1356.34
10.141602840636468 1732.06
10.163989564971628 1755.75
10.186394141051062 1249.04
10.208799107559706 647.19
10.231187001965623 291.007
10.253592751657669 158.37
10.275981430388155 126.899
10.298387966769793 118.965
10.320794897965431 116.09700000000001
10.343184759907361 113.955
10.36559248305461 112.16799999999999
10.387983138083852 113.624
10.410391656691655 126.288
10.432800574501677 157.326
10.455192425893369 192.06599999999997
10.47760214443012 218.95
10.499994797678786 238.37400000000002
10.522405320453982 274.75
10.54479877906917 336.708
10.567210109595656 421.798
10.5896218454736 513.66
10.612016518879773 535.906
10.634429067781074 437.634
10.656824555333241 280.655
10.679237920773568 165.13299999999998
10.701651695961992 112.719
10.724048411481384 98.1818
10.746463008485165 93.6158
10.768860546937125 90.90799999999999
10.791275969274796 88.6327
10.81369180576079 87.1281
10.836090585366925 85.5668
10.858507252467449 84.2055
10.88090686379991 83.2375
10.903324365036394 82.5506
10.925724811614439 81.0402
10.948143150509463 80.6863
10.970561909719066 79.5517
10.992963615930844 78.5675
11.015383218085756 77.9173
11.037785768347074 76.8907
11.06020621697282 76.2605
11.082627090322113 75.9437
11.105030913430326 74.982
11.12745263854165 74.6322
11.149857314510728 73.7624
11.172279894912576 73.3999
11.194702904450653 72.2665
11.217108866490921 71.8238
11.239532736615194 71.6263
11.26193956033512 71.1734
11.284364294577085 70.947
11.306789462371718 70.1129
11.329197585398376 69.9917
11.351623622610898 69.9214
11.37403261614354 69.0938
11.396459526308487 68.9691
11.418869393879497 68.5382
11.441297180532617 68.3193
11.463725406927658 67.7054
11.486136592353875 67.8028
11.508565700543707 67.1839
11.530977768845315 67.2167
11.553407762368774 66.9435
11.575838200059769 66.774
11.598251599479612 66.7626
11.620682927815501 66.4065
11.64309721895548 66.5639
11.665529441478206 66.3439
11.687962112597958 65.8302
11.710377748130886 65.9258
11.732811318753434 65.8122
11.755227854859067 65.6638
11.777662328529495 65.6635
11.800079768750786 65.3538
11.822515149015453 65.4618
11.844950984084935 65.8694
11.867369787303163 65.6547
11.889806534289491 65.7941
11.912226250487029 66.3161
11.934663912939751 67.4701
11.9571020346363 67.6164
11.979523127133968 67.9885
12.001962169624331 69.0507
12.024384183972964 71.5968
12.046824150809913 79.2683
12.069264581333726 88.7993
12.091687985297767 96.2339
12.11412934550045 101.755
12.136553680195208 108.32600000000001
12.158995973632788 118.86399999999999
12.181438735204349 134.548
12.20386447284199 155.982
12.226308172985636 184.204
12.24873485024193 202.929
12.271179492516982 189.33599999999998
12.293607112949127 153.3
12.316052700916226 108.988
12.338498763250042 82.7915
12.360927805303868 71.4369
12.383374818673879 68.2819
12.405804812803074 67.4811
12.428252780773262 67.48899999999999
12.45070122756722 67.5176
12.473132656675375 67.2352
12.49558206341869 67.6182
12.518014453510101 67.3729
12.540464823770117 67.6652
12.562915677315177 67.5485
12.58534951575545 68.0381
12.607801338171472 67.8024
12.630236146511358 68.3
12.652688941369085 68.6838
12.675124723177234 69.0068
12.697578494048786 69.5123
12.720032754458185 70.1335
12.742470003354093 70.5249
12.764925245138771 70.8575
12.787363476431278 71.464
12.809819703166806 72.1107
12.83227642391173 72.6589
12.854716135692716 73.3443
12.877173846755147 74.5802
12.899614549869717 74.835
12.9220732548287 75.7319
12.94453245827299 76.2856
12.966974655289818 77.9813
12.989434858002571 78.596
13.011878055298721 79.9086
13.034339260862497 80.9917
13.056800969391883 82.4295
13.079245674017244 85.7396
13.101708390774869 91.3228
13.12415410463411 107.196
13.146617833206086 131.47299999999998
13.169064559883248 151.963
13.191529303857127 165.729
13.213994557076367 177.481
13.236442809902437 194.22099999999998
13.258909083908291 221.109
13.28135835851934 255.646
13.30382565690295 303.668
13.326293469022952 364.541
13.348744283242008 409.597
13.371213125129904 399.973
13.39366497011003 326.291
13.416134845360597 228.794
13.438605238843131 158.001
13.46105863690397 130.567
13.483530069144786 134.425
13.505984506951902 147.005
13.528456981549432 158.463
13.550929978879088 165.274
13.573385983253365 174.625
13.595860028340867 191.53400000000002
13.618317081455832 217.80700000000002
13.64079217790333 251.938
13.663250283359057 296.678
13.685726434770173 341.41900000000004
13.708203115221277 361.23699999999997
13.730662806148091 316.47900000000004
13.75314054697177 243.09799999999998
13.775601299246777 168.81599999999997
13.798080104050406 117.729
13.820559442405358 94.8592
13.843021793671388 88.1537
13.865502201420897 85.57799999999999
13.887965623051947 84.4133
13.910447103807167 83.3805
13.932929122629764 81.9095
13.955394156785959 81.1912
13.977877254034569 80.417
14.000343367582113 79.3224
14.022827546871707 79.11399999999999
14.045294743423524 78.03
14.06778000837062 77.4132
14.090265817715476 77.0259
14.112734645763819 77.0146
14.13522154619454 76.8797
14.157691466286913 76.8403
14.180179461423874 76.1586
14.202668005486178 75.6995
14.22513957064374 74.9691
14.247629214846473 74.41199999999999
14.270101881097517 73.8464
14.29259262906496 73.5797
14.315083930490205 73.7132
14.337558255389705 73.6442
14.360050666019726 73.3937
14.382526101071944 72.9624
14.405019624534942 72.7597
14.427513705993134 72.5291
14.449990813291825 72.5856
14.47248601302899 72.7717
14.49496423954951 72.8264
14.517460561197822 72.9054
14.539939910570322 72.6787
14.562437357763558 72.9959
14.58493536931253 73.1426
14.607416409993311 73.0252
14.62991555254159 73.3492
14.652397725157423 73.4981
14.674898002342799 74.2348
14.697398848433282 74.9005
14.719882725991326 76.398
14.74238471217934 79.4808
14.764869730765593 87.2674
14.787372860692983 95.8567
14.809876564079925 103.64
14.83236330125751 109.109
14.854868153850365 113.09299999999999
14.877356041159485 118.618
14.899862046604186 127.98
14.922351087688757 140.52100000000002
14.944858249632887 156.922
14.967365991421232 176.47400000000002
14.989856770231246 199.95
15.012365673994204 217.15099999999998
15.03485761569738 211.88099999999997
15.05736768508665 181.356
15.07987833888692 142.70600000000002
15.102372032001655 108.834
15.124883856909658 87.0086
15.14737872204565 78.4604
15.169891721717274 75.1763
15.192405310371893 74.3552
15.214901940621196 73.3686
15.237416709527137 72.58
15.259914520936249 72.4543
15.282430473753607 71.5974
15.304947020131227 70.9531
15.327446610371178 70.9028
15.349964346154254 70.4701
15.372465126703139 70.2783
15.394984055556009 70.03
15.417486030076159 70.0652
15.44000615566487 69.4924
15.462526881230803 69.8059
15.485030653812652 69.7355
15.507552581617434 69.582
15.530057557334603 69.3969
15.55258069104857 69.5533
15.575104429329837 70.1394
15.597611216864632 69.9328
15.620136166564563 70.827
15.6426441664095 73.4741
15.665170331202765 79.7451
15.687697105158826 86.7333
15.710206930593545 92.985
15.732734925158933 97.211
15.755245972089478 100.053
15.77777519094324 103.611
15.800287463046663 110.242
15.822817909869592 119.275
15.84534897229804 130.411
15.867863089299354 146.07
15.890395385222186 163.954
15.912910736597423 182.385
15.935444269699861 189.37599999999998
15.957978423016485 179.763
15.980495633101265 151.77700000000002
16.003031029129367 119.47200000000001
16.02554948280019 91.5271
16.048086125229432 75.6267
16.070623392487107 69.1243
16.09314371869582 66.7401
16.11568223789321 65.1349
16.13820381691126 64.2888
16.160743591742527 63.8164
16.183283996022084 63.3253
16.205807461423195 62.4939
16.228349126881973 61.9735
16.25087385432698 61.7485
16.27341678466365 61.1352
16.29594277784926 61.0332
16.31848697676433 60.6464
16.341031811604868 60.1551
16.36355971058487 59.7852
16.3861058195587 59.526
16.40863499352978 59.1116
16.431182380342005 58.9616
16.453730407713202 58.7238
16.476261501364792 58.5383
16.498810812136167 58.3341
16.52134319004079 58.4259
16.54389378792203 57.9723
16.566445031001553 58.001000000000005
16.588979342490088 57.8257
16.61153187824822 57.7559
16.634067483263312 57.65
16.656621315414416 57.4503
16.679175797408888 57.3512
16.701713349928728 57.3233
16.72426913389191 57.4216
16.74680798922351 57.3589
16.76936507887444 57.3475
16.791905240734874 57.3862
16.814463639794468 57.318000000000005
16.837022695210294 57.416000000000004
16.859564824093756 57.5457
16.882125194503903 57.5578
16.904668639217885 57.7552
16.927230328348003 57.4787
16.949792678493612 58.0097
16.972338104193863 57.9919
16.994901778652235 58.2079
17.017448529496576 58.4878
17.040013531998152 59.1416
17.06257920018044 60.496
17.0851279459922 61.9988
17.107694947817667 63.2584
17.130245028099072 64.2581
17.15281336730298 65.1902
17.17536478578733 65.9162
17.19793446610687 67.0385
17.220504818648422 68.8654
17.243058251703697 70.1653
17.265629950971032 72.7429
17.288184731571736 75.9904
17.310757781306908 80.1824
17.33333150794385 83.7042
17.355888317140174 85.0897
17.37846339986244 84.1226
17.401021565958885 79.3203
17.42359800851343 73.2606
17.44617513265564 68.0185
17.468735341390783 64.6003
17.491261035594565 62.7677
17.51396340099364 62.0125
17.536490463869136 62.1948
17.559018209820174 62.2409
17.58154663977963 62.2969
17.604251766089718 62.6716
17.626781572227713 62.8079
17.64931206518155 62.79
17.671843245885103 63.3493
17.69455114821572 63.5311
17.717083712612634 63.6036
17.739616967569667 64.1024
17.762150914021706 64.8638
17.78486160749854 64.8412
17.807396945166804 65.9907
17.829932977143503 68.1083
17.85246970436452 71.4574
17.875183204129467 75.4978
17.897721330097664 79.0713
17.920260154126645 82.1834
17.942799677153296 84.2122
17.9655159983646 85.4318
17.988056927677544 87.8973
18.010598558807683 92.0841
18.033140892692916 97.2876
18.05586005052525 103.333
18.07840379824407 111.04700000000001
18.10094825154059 121.78
18.12366954819864 134.57
18.146215420998306 144.18200000000002
18.16876200220057 145.945
18.191309292745153 138.096
18.214033452627167 124.04700000000001
18.236582170236648 108.016
18.259131600016456 96.1595
18.281681742907335 90.0657
18.304408781233683 89.5551
18.32696035875955 91.4697
18.349512652227624 94.9688
18.372065662579683 100.18
18.394795594587553 104.76100000000001
18.41735004715306 106.885
18.43990521943684 103.738
18.46246111238171 96.5312
18.485193953325208 86.4169
18.507751296070428 77.5174
18.530309362314178 71.527
18.552868153000343 67.8148
18.57560391815056 65.9767
18.59816416623245 65.3694
18.620725141597372 64.8809
18.643286845190268 64.1162
18.666025549835414 63.75
18.688588718427933 63.2037
18.711152618092243 62.8812
18.73389353884365 62.7674
18.75645890921984 62.3115
18.77902501351406 61.6658
18.801591852673102 61.9304
18.824335739722738 61.2766
18.846904057212626 61.1532
18.8694731124168 60.7971
18.89204290628315 60.9993
18.914789774966803 60.651
18.937361054791623 60.2597
18.959933076131318 59.7434
18.982505839934877 59.9114
19.00525570560582 60.0031
19.027829963004184 59.7348
19.05040496572238 59.9433
19.072980714710468 60.1003
19.095733592739563 60.8502
19.11831084296757 61.4073
19.140888842324735 62.2295
19.16346759176222 62.5294
19.18622349753803 62.8925
19.208803755869358 63.3701
19.231384767143577 63.7861
19.253966532312948 64.6287
19.276725481241822 65.8485
19.29930876296784 66.968
19.3218928014549 68.6213
19.34465404436217 70.6213
19.36723960516257 72.9421
19.389825925592426 75.1316
19.412413006605938 77.0211
19.43517731967805 76.8088
19.457765930683355 73.9817
19.48035530514408 69.6355
19.50294544401556 65.5222
19.525712842708348 61.6616
19.54830451925909 59.2013
19.570896963095727 57.6547
19.593490175174704 57.1455
19.616260674962184 56.7342
19.638855432416964 56.4324
19.661450960992624 56.6338
19.68404726164677 56.2542
19.706820878021247 56.1508
19.729418731756834 56.4505
19.752017360452857 56.1844
19.77461676506804 56.5861
19.797393513540218 56.9668
19.819994478951667 57.6215
19.84259622316767 58.4632
19.8651987471481 58.9057
19.887978643247177 59.1774
19.91058273574792 59.348
19.933187610901943 59.68
19.955969879466828 60.4008
19.97857632894404 61.3235
20.00118356396599 62.2305
20.023791585494575 63.4631
20.046577028914875 65.5541
20.069186632506966 67.7671
20.091797025500632 70.172
20.114408208858933 72.0781
20.137196842715273 73.6144
20.159809615886765 73.6076
20.18242318232135 71.3981
20.20503754298326 68.939
20.227829382875154 66.5257
20.250445341109344 64.8959
20.27306209647285 63.9625
20.29567964993108 64.0694
20.31847471147704 65.0087
20.34109387027612 66.3315
20.363713830075454 67.656
20.386334591841646 67.6686
20.409132890679302 66.4299
20.431755265564437 63.7112
20.454378445325528 60.3612
20.477002430930366 57.5343
20.499803982716553 55.4671
20.522429589228004 54.0649
20.54505600449589 53.2689
20.567683229489194 53.1853
20.590488049900088 52.8389
20.61311690359731 52.6093
20.63574656993626 52.6406
20.658553853717297 52.3153
20.681185154618298 52.1328
20.703817271080066 52.0886
20.72645020407368 51.8092
20.749260783967177 51.7376
20.771895359337133 51.7474
20.794530754161617 51.5797
20.817166969412938 51.4162
20.83998086114876 51.3761
20.86261872660049 51.3545
20.885257415405402 51.4084
20.90789692853701 51.1684
20.930714147864748 51.2152
20.953355319030678 51.3988
20.97599731745334 51.6429
20.99864014410749 51.4725
21.021460706796564 51.5047
21.044105199328826 51.5289
21.06675052302631 51.4994
21.089396678865015 51.5972
21.112220600704806 51.9084
21.134868430275347 51.9869
21.15751709492456 52.2033
21.180166595629693 52.2042
21.202993892429635 52.4983
21.22564507473034 52.8931
21.24829709602816 53.3424
21.27112693608965 53.7507
21.293780644891275 54.0444
21.316435195634053 53.7945
21.339090589297417 53.1401
21.361923832041875 52.6797
21.384580921090404 52.1763
21.407238856007325 51.239
21.429897637773326 51.1234
21.45273429906592 51.0233
21.475394784108598 50.9559
21.498056118951983 51.0885
21.520718304578022 51.1795
21.543558400304388 51.3068
21.566222297108816 51.7208
21.58888704765135 52.2576
21.61155265291521 52.9751
21.63439619898156 53.4948
21.657063523335786 53.903999999999996
21.67973170537063 54.4182
21.7024007460706 54.7182
21.72524775840385 54.9597
21.747918526116475 55.4749
21.770590155457388 56.2836
21.79326264741238 57.0186
21.816113141960237 58.208
21.838787368860547 59.576
21.861462461341976 61.0445
21.884315579735777 62.8559
21.90699241312273 64.5265
21.92967011506078 66.1074
21.95234868653799 67.152
21.9752053151131 67.3493
21.997885635446785 65.9905
22.020566828293532 64.1914
22.04324889464272 61.4635
22.066109049404666 59.293
22.088792872571794 58.1023
22.111477572219204 57.5158
22.1341631493376 57.8586
22.157026846313123 57.898999999999994
22.179714188221507 58.2722
22.202402410582668 57.7945
22.22509151438863 56.4906
22.24795876962584 55.0392
22.270649646204486 54.0056
22.293341407213727 52.9564
22.316034053646906 52.0232
22.338904883215342 51.6761
22.36159931041458 51.6713
22.38429462602756 51.3896
22.40699083104897 50.9567
22.429865251039757 50.8314
22.452563244831367 50.8968
22.47526213102522 51.0873
22.49813925616515 51.1271
22.520839937143307 51.0953
22.543541513520587 51.0367
22.56624398629403 50.9126
22.589124730075895 51.0119
22.611829005656723 51.3855
22.63453418063466 51.7202
22.657240256008077 52.1742
22.680124634582935 52.4473
22.70283252079775 52.6659
22.725541310413075 52.9624
22.74825100442868 53.0843
22.771139033969575 53.2681
22.79385054687155 53.1879
22.81656296718292 53.6233
22.83927629590484 54.071000000000005
22.862167992606945 54.6793
22.88488314827121 55.3912
22.907599215359284 55.821999999999996
22.93031619487366 56.5698
22.953211574954405 57.549
22.975930389478226 58.715
22.998650119445763 59.5584
23.02137076586092 59.9376
23.044269845560063 59.5593
23.06699233506288 58.6691
23.089715744034912 56.8719
23.112617610931565 55.0548
23.135342869061212 53.5292
23.158069049684816 52.4147
23.1807961538087 51.7345
23.20370174880544 51.5225
23.226430710184808 51.6234
23.249160598093425 51.8825
23.271891413539002 52.1685
23.294800752937697 52.3249
23.31753343374794 52.6239
23.340267045128353 52.5474
23.36300158808808 52.7766
23.38591468821339 52.9576
23.408651104658304 52.8814
23.431388455719986 53.0831
23.454126742409 53.6369
23.4770436196085 54.0594
23.499783787914662 54.823
23.522524894889884 55.2692
23.54526694154616 56.0558
23.56818761219047 56.9075
23.59093154860734 57.8569
23.613676427751283 59.2685
23.636422250635754 59.4808
23.659346731118656 59.1654
23.68209445191868 57.8729
23.704843119509587 55.9061
23.72759273490623 53.7699
23.750521041644767 51.9572
23.77327256312355 50.3774
23.796025035462787 49.4968
23.818956224555475 48.8069
23.841710609113413 48.4627
23.86446594758979 48.1938
23.887222241002014 47.9283
23.910157285144578 47.5683
23.932915498962537 47.4998
23.955674670778713 47.2819
23.978434801611975 47.1477
24.001373717286125 47.0046
24.024135776723917 46.8267
24.046898798245582 46.7553
24.06966278287146 46.7324
24.092605586582614 46.5329
24.115371508023642 46.2366
24.1381383956401 46.0103
24.16090625045381 46.0411
24.183852958731244 46.1879
24.206622758582608 46.0448
24.229393528706886 45.815
24.252165270127392 45.8641
24.27511589952438 45.9135
24.297889594216997 45.5375
24.32066426328598 45.5102
24.34343990775613 45.4283
24.36639447485003 45.3641
24.38917208083877 45.2619
24.41195066531332 45.0914
24.43490819850244 45.2791
24.457688750692377 45.083
24.48047028445616 44.993
24.503252800821233 45.0705
24.526214300784112 45.2589
24.548998793132213 45.1993
24.57178427117417 44.9082
24.59457073593893 45.0925
24.617536219319863 45.1735
24.64032466834748 45.1398
24.663114107195035 44.9304
24.685904536893013 44.6666
24.708874020360852 44.6818
24.731666442613744 44.6814
24.754459858818787 44.6076
24.777254270007962 44.4424
24.80022777025625 44.4513
24.82302418230472 44.4553
24.845821592443674 44.54
24.86862000170663 44.5073
24.891597535453727 44.292
24.914397953892728 44.7838
24.93719937456671 44.5343
24.96000179851076 44.7998
24.98298338249997 44.9048
25.00578782394922 45.1229
25.028593271784167 45.1693
25.05157790644186 45.3252
25.07438537804115 45.5014
25.097193859145293 45.5136
25.120003350792075 45.6053
25.142992065061257 45.9878
25.165803588823465 46.1859
25.18861612625217 46.3644
25.211429678386736 46.5322
25.234422489079968 46.7763
25.257238081693636 46.7027
25.280054692141732 46.5491
25.3028723214652 46.5473
25.325869245420463 46.4968
25.348688923599397 46.4585
25.371509623787006 46.742
25.394331347025812 46.6017
25.41733240110666 46.4925
25.440156181590016 46.0664
25.46298098826268 45.5564
25.48580682216873 44.9567
25.50881202326435 44.5385
25.53163992281684 43.8822
25.55446885274561 43.3088
25.577298814096377 43.0909
25.600308179121807 42.881
25.623140214533745 42.998999999999995
25.64597328451537 42.8126
25.66898578564376 42.7482
25.691820936010206 42.7402
25.714657124097695 42.7452
25.737494350954734 42.7371
25.760511045684957 42.6405
25.783350361364224 42.6138
25.806190718969255 42.6311
25.82903211955018 42.7246
25.852053024868923 42.6635
25.874896522722523 42.7136
25.897741066713106 42.4991
25.920586657892454 42.5548
25.943611790812668 42.6805
25.966459487728237 42.8069
25.989308234998564 42.7056
26.01215803367705 43.1384
26.03518741123814 43.0846
26.05803932412957 43.1328
26.080892291600094 43.1184
26.10374631470478 43.2872
26.12677995397268 43.669
26.14963609978026 43.6964
26.172493304397875 43.449
26.19535156888223 43.4751
26.218389486949604 43.233000000000004
26.241249882640123 43.1127
26.26411134137826 42.6213
26.28715248187403 42.53
26.31001607820869 42.4688
26.3328807407756 42.2163
26.35574647063438 42.2818
26.37879191991473 42.1968
26.401659795896734 42.3641
26.424528742360263 42.4972
26.447398760366614 42.4836
26.470448535598294 42.3825
26.49332070826805 42.6657
26.516193955675355 42.6833
26.53906827888316 42.8339
26.562122397260108 42.9738
26.584998883685063 43.118
26.607876449110325 43.3453
26.63075509460056 43.3625
26.65381357334404 43.6863
26.67669439061878 43.9279
26.699576291163382 44.028999999999996
26.722459276044212 44.0409
26.745522132402975 43.8076
26.768407297649354 43.5638
26.791293550442003 43.2564
26.814180891848974 42.8764
26.837248143099337 42.4294
26.860137673466657 42.3238
26.88302829566349 42.115
26.90592001075963 42.1916
26.92899167420566 41.9908
26.951885586870763 41.6082
26.974780595655517 41.4357
26.99785558178161 41.2645
27.020752794605112 41.0253
27.043651106772522 40.8911
27.06655051935668 40.745
27.089629948036183 40.7601
27.112531573292053 40.8839
27.135434302194138 40.7945
27.158338135817015 40.6262
27.181422024430987 40.5656
27.204328079372566 40.4906
27.22723524226965 40.5699
27.250143514198573 40.4286
27.273231880156334 40.2973
27.296142382065014 40.3978
27.319053996245536 40.1574
27.341966723775965 40.3164
27.365059584515222 40.3816
27.38797455070062 40.3341
27.410890633481237 40.1735
27.433807833936918 40.1785
27.456905206923906 40.2539
27.47982465472398 40.2731
27.502745223449743 40.3087
27.525666914182825 40.3965
27.548768816912457 40.3688
27.571692763693633 40.2681
27.59461783573812 40.3267
27.617723149491244 40.1266
27.640650484125285 40.2678
27.66357894728264 40.2025
27.686508540048052 40.3146
27.709618414237887 40.0156
27.732550278321757 39.8719
27.755483275279115 39.8838
27.778417406196485 39.8033
27.801531858397514 39.8086
27.824468269376716 39.8208
27.847405817586786 39.7492
27.870344504116094 39.8639
27.893463551932008 39.8477
27.916404527281053 39.9152
27.93934664422563 39.9115
27.962289903855886 39.9199
27.98541356491974 40.1615
28.00835912214229 40.2162
28.03130582533231 40.434
28.054253675581805 40.5468
28.077381967556104 40.6709
28.100332124185126 40.6793
28.123283431160893 40.6473
28.146235889577238 40.617
28.169368830154156 40.5655
28.192323603752033 40.3077
28.215279532083304 39.9785
28.238415973016764 39.8855
28.261374223145094 39.7189
28.284333631303806 39.5114
28.307294198589954 39.3758
28.330435319167677 39.1757
28.353398217078915 38.8541
28.376362277420153 38.702
28.39932750129032 38.4951
28.422473319286713 38.2531
28.44544088262495 38.2711
28.468409612800283 38.1086
28.491379510913497 37.7881
28.51453004413313 37.8089
28.53750229057244 37.6217
28.56047570826344 37.5809
28.583450298308804 37.525
28.606605564586562 37.422
28.629582511831156 37.4565
28.65256063474956 37.2708
28.675539934446338 37.3889
28.698699951647605 37.2626
28.72168161743193 37.2238
28.74466446331978 37.2787
28.767648490417624 37.1168
28.790813276438353 37.022
28.813799678527303 37.1258
28.836787265157085 37.0795
28.859955641890075 37.0599
28.882945610203045 37.014
28.905936766392035 36.8511
28.928929111566863 37.0113
28.952102288520145 36.9272
28.975097024308607 36.785
28.998092952423807 36.7934
29.021090073977508 36.6649
29.04426806913204 36.5979
29.067267590245258 36.4108
29.090268308143695 36.3169
29.11327022394099 36.2726
29.13645305530891 36.1615
29.159457379627167 36.1275
29.18246290519685 35.9617
29.20546963313352 35.9684
29.22865731875826 36.0032
29.25166646419296 35.9062
29.27467681535305 35.7338
29.29768837335608 35.9157
29.320880931312562 35.8015
29.34389491580634 35.6996
29.366910110507334 35.7599
29.38992651653503 35.7651
29.41312396492981 35.7381
29.436142806456754 35.5683
29.45916286268059 35.7279
29.48236399319994 35.6927
29.50538649169417 35.5403
29.528410208259935 35.4216
29.55143514402014 35.2381
29.574641196749695 35.0979
29.597668583816574 35.0023
29.6206971934585 34.7485
29.64372702680042 34.8734
29.666938019934474 34.7125
29.689970313635285 34.6033
29.713003834422636 34.5517
29.73603858342347 34.498000000000005
29.759254535188578 34.4695
29.78229175361658 34.4499
29.80533020365064 34.4592
29.82836988641968 34.5838
29.85159081507472 34.4124
29.874632976355343 34.2421
29.89767637376955 34.3321
29.920721008448314 34.1216
29.9439469322847 34.2532
29.96699405457564 34.0772
29.9900424175358 34.14
30.013092022298157 34.0123
30.03632295963995 34.018
30.059375061131373 34.0364
30.08242840783577 34.0863
30.105483000888153 34.0357
30.128718970092244 33.8621
30.151776069006917 33.9973
30.17483441768648 33.9422
30.198074175317235 33.9737
30.221135036724256 33.9238
30.24419715131772 33.8789
30.267260520236203 33.7575
30.290505341942243 33.8459
30.313571232750228 33.9618
30.336638381310948 33.9762
30.35970678876503 33.8394
30.38295669299435 33.746
30.40602763151657 33.7574
30.429099832366074 33.6638
30.452173296685572 33.7216
30.47542830191959 33.5916
30.498504306502497 33.595
30.521581577995562 33.5519
30.544660117543582 33.7024
30.56792024229725 33.653
30.59100133132069 33.5867
30.614083691845494 33.6616
30.637167325018545 33.6256
30.660432587840603 33.6875
30.683518779717886 33.5458
30.70660624769615 33.7535
30.729694992924372 33.704
30.75296541239743 33.7815
30.77605672557558 33.7015
30.799149319462742 33.6082
30.8224236211637 33.3368
30.845518789950724 33.4181
30.868615242910597 33.3653
30.891712981195973 33.2469
30.91499247215866 33.1092
30.938092794619365 33.0598
30.96119440587579 33.0414
30.984297307082752 32.9644
31.00758200598383 32.7956
31.030687500658694 32.8057
31.053794288760695 32.7379
31.076902371446767 32.573
31.100192296997445 32.6148
31.12330298246119 32.6884
31.14641496599209 32.4803
31.169528248749216 32.5601
31.19282341969534 32.5377
31.215939314557186 32.4664
31.239056512134788 32.4441
31.262175013589378 32.375
31.28547544871168 32.306999999999995
31.30859657161541 32.3061
31.331719001892175 32.3533
31.35484274070538 32.4184
31.378148458819545 32.2835
31.401274828443725 32.3336
31.424402510106933 32.297
31.447712205419993 32.3466
31.470842524931633 32.2298
31.493974159989783 32.3043
31.51710711176168 32.2958
31.54042212308802 32.2075
31.563557722100917 32.2799
31.586694641341655 32.1546
31.609832881979628 32.04
31.63315322823208 31.9727
31.656294125521327 31.8706
31.679436347728515 31.7635
31.70257989602529 31.7106
31.725905596152327 31.728
31.74905181052835 31.6033
31.772199354521323 31.6332
31.79534822930507 31.5669
31.818679302290967 31.5216
31.84183085259981 31.5577
31.864983737233473 31.4373
31.88813795736804 31.5392
31.911474422233013 31.4321
31.934631327356435 31.5476
31.9577895715215 31.4542
31.980949155906522 31.5259
32.004291031706956 31.5062
32.027453310562606 31.4338
32.05061693318573 31.2308
32.07396288236386 31.3082
32.09712920658542 31.2052
32.12029687812702 31.1069
32.14346589817093 31.0422
32.166817291729984 31.031999999999996
32.18998902288583 30.9377
32.21316210610336 30.8687
32.23633654256711 30.680999999999997
32.259693399663725 30.6945
32.282870556771144 30.5042
32.30604907069099 30.5928
32.329228942610065 30.5445
32.35259128243769 30.4395
32.375773884550505 30.3238
32.398957848235646 30.3605
32.422143174682176 30.365
32.445511016471215 30.1556
32.468699082679954 30.0905
32.49188851523011 30.0479
32.51507931531304 30.0723
32.538452678331 30.1025
32.56164622776311 29.9657
32.58484114831493 30.0129
32.60803744118015 29.8748
32.631416344731896 29.8674
32.654615396551876 29.8771
32.67781582427913 29.7578
32.701198898634416 29.6852
32.72440209253756 29.5752
32.747606665947124 29.6813
32.77081262006088 29.4969
32.79420126883317 29.5031
32.81740999876112 29.5344
32.840620112999424 29.3405
32.86383161274818 29.3648
32.88722585534586 29.3659
32.91044014056596 29.4725
32.933655814909734 29.3261
32.95687287957963 29.4253
32.98027273544904 29.2898
33.00349259526636 29.1702
33.026713849030116 29.2189
33.04993649794511 29.1155
33.073341986570746 29.0747
33.09656744032826 29.0675
33.11979429286444 29.0901
33.14302254538647 29.1115
33.166433686291185 29.0014
33.18966475336992 28.9205
33.212897224069096 28.9394
33.23613109959831 28.8369
33.259547912343415 28.8332
33.2827846121627 28.9111
33.306022720453775 28.8401
33.32926223842861 28.7139
33.352684742614166 28.7381
33.37592709463173 28.7106
33.399170859982064 28.7677
33.422597648419426 28.5378
33.44584425514446 28.4166
33.46909227885668 28.4981
33.4923417207723 28.3953
33.51577423505344 28.3625
33.539026528130385 28.1681
33.56228024307245 28.1591
33.585535381098246 28.0922
33.60897364093058 28.1396
33.63223163992385 28.0147
33.6554910656699 27.9681
33.678751919389796 27.9275
33.702195944520106 27.8263
33.72545966903325 27.8353
33.74872482519663 27.7629
33.771991414233746 27.8208
33.79544122444841 27.7668
33.81871069412428 27.676
33.84198160035767 27.6244
33.86525394437455 27.6382
33.88870955949969 27.5272
33.911984794020626 27.574
33.93526147001624 27.4996
33.958539588715006 27.4598
33.98200102861669 27.3546
34.0052820477047 27.3073
34.02856451319451 27.2676
34.05203033759056 27.3009
34.07531571090147 27.2295
34.09860253431845 27.3286
34.121890809074316 27.2061
34.145362493118924 27.1138
34.16865368561615 27.0666
34.191946333164054 27.0288
34.21524043699793 26.978
34.23871800066799 26.988000000000003
34.26201503218366 26.8003
34.28531352370466 26.7707
34.30861347646881 26.7641
34.33209693978188 26.7745
34.3553998301885 26.7768
34.378704185565205 26.685
34.402010007152356 26.6249
34.42549939016683 26.5764
34.44880815937748 26.4769
34.472118398533134 26.5407
34.49543010887669 26.5214
34.51892543169198 26.375999999999998
34.54224009966052 26.3594
34.56555624255917 26.3118
34.58887386163339 26.1994
34.61237514439016 26.1678
34.6356957311114 26.1299
34.65901779775809 26.1182
34.68252356662995 26.1766
34.705848608458616 26.1923
34.72917513396849 25.9604
34.75250314440949 25.9733
34.77601490857862 25.8974
34.799345904259795 25.8272
34.82267838863559 25.8593
34.846012362958525 25.8452
34.869530142679984 25.8207
34.89286711232212 25.7289
34.91620557568269 25.7974
34.93954553401677 25.8207
34.9630693495876 25.6752
34.986412313340814 25.6417
35.00975677584668 25.6581
35.033102738362956 25.5709
35.05663261012228 25.46
35.0799815881786 25.5631
35.10333207003229 25.4176
35.12668405694369 25.4964
35.150220005273056 25.362
35.17357501786656 25.4068
35.19693153931268 25.3785
35.220289570874385 25.2386
35.24383161619786 25.3253
35.267192683604904 25.2287
35.290555264930376 25.264
35.314101899412165 25.3023
35.33746752422433 25.1316
35.36083466676374 25.1021
35.38420332829803 25.0965
35.407756095629054 25.1687
35.43112781085063 25.0599
35.45450104888391 25.015
35.477875810999194 25.0572
35.50143473172161 24.94
35.52481255774625 24.9727
35.54819191167777 24.9538
35.57157279478914 24.9398
35.595137889488406 24.8565
35.61852184675279 24.7505
35.641907337029984 24.7182
35.665294361595684 24.7902
35.68886565090076 24.7402
35.7122557598848 24.7254
35.73564740699838 24.598000000000003
35.759040593519934 24.6033
35.78261809810353 24.5904
35.80601437933051 24.4514
35.829412203814705 24.4392
35.85281157283719 24.3654
35.876395313415884 24.3542
35.8997977874528 24.373
35.92320180988546 24.223000000000003
35.946790244133936 24.1184
35.97019737933222 24.1495
35.993606066789866 24.1531
36.01701630779276 24.1877
36.04061101440684 24.0855
36.06402437852291 24.0423
36.08743930005611 24.0232
36.1108557802951 23.9285
36.13445678011326 23.9918
36.15787639383515 23.9505
36.18129757014299 23.9098
36.20472031032821 23.8836
36.22832762423364 23.7482
36.25175350829375 23.7394
36.275180960119776 23.694000000000003
36.298609981005924 23.7933
36.32222362992669 23.7544
36.34565580510207 23.7022
36.36908955323448 23.6437
36.39252487562093 23.4659
36.416144880530226 23.4646
36.43958336764275 23.4559
36.463023432914625 23.5031
36.486465077645676 23.3812
36.51009145956204 23.5017
36.53353627947859 23.4667
36.55698268276811 23.4083
36.58043067073321 23.3191
36.60406345072071 23.2758
36.62751462435344 23.2377
36.65096738658405 23.2735
36.67460498210655 23.1493
36.69806093788647 23.1728
36.72151848619297 23.0497
36.744977628333636 23.0916
36.76862165890998 23.0146
36.79208400512205 23.002
36.81554794910557 22.9311
36.83901349217101 22.8271
36.862663978991606 22.886999999999997
36.88613273667352 22.8801
36.90960309738324 22.9197
36.933075062434064 22.7715
36.95673202673572 22.7358
36.98020721697122 22.6478
37.003684015502365 22.6722
37.027162423645365 22.5841
37.050825886711465 22.5784
37.07430753063053 22.5224
37.09779078812467 22.5167
37.121275660513014 22.4496
37.144945643673694 22.4649
37.16843376245278 22.4022
37.19192350009803 22.4341
37.215414857931435 22.3306
37.239091382563885 22.3109
37.262585997426164 22.2827
37.28608223645736 22.2127
37.309763684451696 22.174
37.33326318851098 22.1697
37.356764320726555 22.1256
37.380267082425526 22.1583
37.40395510942588 22.0472
37.42746114683234 21.9457
37.45096881771841 21.9711
37.474478123414166 21.958000000000002
37.49817275092816 22.0045
37.52168534303452 21.8773
37.54519957395567 21.8093
37.568715445024665 21.8246
37.592416694607714 21.7929
37.61593586281424 21.8158
37.63945667518264 21.8
37.66297913304891 21.7397
37.68668702630454 21.7519
37.710212792059274 21.5654
37.733740207334854 21.5591
37.757269273470364 21.5566
37.780983832050374 21.5676
37.80451621684926 21.511
37.82805025654007 21.4763
37.851585952464795 21.4318
37.8753071980695 21.3281
37.89884622345676 21.2978
37.92238690911902 21.2953
37.94611318753442 21.250999999999998
37.969657210779765 21.2056
37.99320289834801 21.2074
38.016750251586465 21.1976
38.04048325513017 21.1009
38.06403395679343 21.1017
38.087586328183946 21.0869
38.11114037065203 21.0927
38.13488012115898 21.0352
38.1584375229181 21.0046
38.181996599821 20.945
38.205557353221124 20.8814
38.229303872575656 20.8561
38.2528679961576 20.8234
38.27643380031219 20.7617
38.30000128639589 20.7947
38.32375459653193 20.8301
38.34732546371299 20.7402
38.37089801690786 20.6846
38.39447225747609 20.6025
38.418232380377425 20.6051
38.441810012983396 20.5632
38.46538933705673 20.4984
38.488970353960084 20.484
38.51273731166058 20.465999999999998
38.536321731567014 20.4334
38.55990784840681 20.385
38.58367995004091 20.3227
38.60726947812959 20.3219
38.63086070726198 20.258
38.654453638806274 20.3145
38.678232613930824 20.2613
38.70182896773327 20.2264
38.72542702806741 20.1292
38.7490267963045 20.1299
38.77281266709232 20.0885
38.79641586862214 20.032
38.8200207821842 19.9793
38.843627409152944 20.0716
38.86742019782782 19.9775
38.891030269149255 19.8954
38.914642058016156 19.9163
38.938255565806124 19.8758
38.96205529464307 19.827
38.98567225787121 19.858
39.00929094417078 19.8305
39.03291135492255 19.7946
39.05671804624804 19.7418
39.080341923549106 19.7249
39.103967529460334 19.6849
39.127594865365744 19.6
39.15140854155791 19.6088
39.17503935514948 19.5883
39.19867190290282 19.5642
39.22249083587951 19.5444
39.24612686969409 19.5033
39.269764641845306 19.4297
39.293404153722804 19.4797
39.317230110864074 19.3475
39.34087311998506 19.3304
39.36451787301696 19.3514
39.388164371352595 19.2557
39.41199737518003 19.2469
39.43564738196752 19.2062
39.45929913825317 19.1883
39.48295264543308 19.1292
39.506792718520884 19.115
39.530449745387216 19.0737
39.55410852735203 19.0854
39.57776906581474 19.0686
39.60161623079 18.9877
39.625280300200025 18.9548
39.64894613032202 18.9218
39.67261372255866 18.9087
39.6964680021016 18.9322
39.72013913657293 18.9608
39.74381203738292 18.9028
39.76748670593756 18.8181
39.79134812278169 18.7941
39.81502634488497 18.8067
39.83870633896685 18.7223
39.862388106436654 18.7224
39.88625668336918 18.6881
39.90994201572829 18.6998
39.933629125719285 18.602999999999998
39.957503091207826 18.5825
39.9811937746168 18.5717
40.00488623990914 18.4784
40.02858048850006 18.4775
40.05246165409549 18.4561
40.076159487492085 18.41
40.099859108448875 18.444000000000003
40.123560518384345 18.3281
40.1474489070226 18.3576
40.171153913178564 18.3007
40.194860712584955 18.3323
40.2185693066637 18.2521
40.242464941335314 18.2591
40.26617714307655 18.2487
40.289891143772046 18.1647
40.3136069448471 18.1542
40.33750984859743 18.1489
40.3612292688043 18.0518
40.3849504936829 18.0697
40.40867352466194 18.0636
40.43258372059144 18.0024
40.45631038219906 18.0012
40.48003885420956 17.9112
40.503769138055105 17.8416
40.52768664931955 17.8943
40.55142057531802 17.9214
40.57515631746428 17.846
40.599079334038514 17.8048
40.62281872700477 17.7354
40.64655994043941 17.7716
40.67030297578061 17.7575
40.69423334835778 17.6651
40.71798004609188 17.6473
40.74172857006355 17.6383
40.76547892171441 17.6226
40.7894166736039 17.5453
40.813170699248566 17.521
40.83692655691388 17.5313
40.86068424804498 17.5804
40.884629402612525 17.5232
40.908390779366385 17.4777
40.932153993938 17.4092
40.95591904777605 17.3906
40.979871628443995 17.3483
41.003640379561936 17.3375
41.02741097430883 17.3069
41.05118341413683 17.2758
41.075143444384416 17.2899
41.098919593177826 17.2669
41.1226975914255 17.2231
41.14647744058318 17.1515
41.170444943946755 17.0911
41.19422851378379 17.0923
41.218013938914645 17.0186
41.24198706625173 17.0071
41.26577622087193 17.011
41.289567235177785 16.992
41.31336011063129 16.9716
41.337340752422875 16.9488
41.361137369129835 16.9473
41.38493585138705 16.8454
41.40873620066004 16.791
41.43272438060107 16.77
41.45652848292052 16.7933
41.48033445666918 16.7163
41.50414230331616 16.6966
41.528138045159764 16.6452
41.551949656675205 16.5631
41.575763145513235 16.5876
41.59957851314666 16.5975
41.62358184070442 16.5839
41.64740098505737 16.4925
41.6712220126409 16.4621
41.69504492493139 16.428
41.71905586207357 16.4705
41.74288256296395 16.4697
41.766711153007456 16.424
41.79054163368412 16.3728
41.814560204340054 16.3944
41.838394485526365 16.3385
41.86223066180303 16.2678
41.88625497706819 16.3017
41.910094962812 16.2666
41.93393684811168 16.2023
41.95778063445365 16.1587
41.981812625263366 16.1728
42.00566023303407 16.1186
42.029509746323676 16.1023
42.05336116662236 16.0714
42.077400857069705 16.0469
42.10125611078846 16.0782
42.12511327600405 15.9387
42.14897235421036 15.9838
42.173019768448455 15.9817
42.19688269209613 15.9044
42.22074753323349 15.8664
42.24461429335818 15.8703
42.268669455600495 15.8328
42.292540073217886 15.8
42.31641261433284 15.7644
42.34028708044675 15.7669
42.36435001496739 15.7844
42.38822835065557 15.7372
42.41210861586426 15.7079
42.4359908120986 15.6691
42.46006154323262 15.6022
42.48394762115317 15.603
42.507835634632315 15.5929
42.531912233047436 15.5233
42.55580413732265 15.501
42.579697981698 15.4869
42.60359376768525 15.4682
42.62767820545945 15.4554
42.65157789440821 15.4586
42.67547952952185 15.4405
42.699383112316 15.3813
42.72347541395347 15.322000000000001
42.74738291190531 15.2875
42.771292362102166 15.3203
42.795203766063516 15.2828
42.819303956130405 15.2591
42.843219287476536 15.1778
42.86713657716324 15.1813
42.89105582671383 15.1258
42.91516392983864 15.1435
42.939087119032166 15.1303
42.963012272677304 15.125
42.98693939230129 15.0606
43.01105543317513 14.9982
43.034986504731386 14.9984
43.05891954686589 14.9659
43.08285456110972 14.981
43.10697856448665 14.9437
43.130917542983475 14.8946
43.15485849820081 14.913
43.17880143167367 14.8263
43.20293342237094 14.8165
43.226880332449 14.7528
43.25082922540554 14.7644
43.27496722682525 14.745
43.29892010567796 14.7125
43.32287497204102 14.687999999999999
43.34683182745632 14.6274
43.370977859791836 14.652000000000001
43.39493871351105 14.6166
43.41890156092628 14.6411
43.44286640358341 14.5758
43.46702049182749 14.5982
43.49098934522816 14.5283
43.51496019852649 14.511
43.5389330532723 14.4643
43.56309522248204 14.4204
43.58707210044314 14.4768
43.61105098451946 14.3395
43.63503187626491 14.3359
43.659202151562134 14.3102
43.68318707902681 14.3168
43.70717401884041 14.3246
43.731162972560874 14.2634
43.75534137913236 14.1932
43.779334381108384 14.2018
43.803329401683186 14.1808
43.82732644241872 14.1864
43.8515130055166 14.1148
43.87551410707659 14.1068
43.89951723350145 14.0446
43.923709934595614 14.0672
43.94771713129917 14.0512
43.97172635758096 14.0101
43.99573761501002 13.9839
44.0199385169922 13.9444
44.04395385732619 13.9763
44.067971233533086 13.9556
44.09199064718605 13.895999999999999
44.11619977548961 13.8624
44.14022328470671 13.8255
44.16424883610785 13.7937
44.18827643127035 13.8086
44.21249381139513 13.8169
44.236525514814076 13.7289
44.26055926674478 13.7437
44.28459506876863 13.7592
44.3088207262813 13.7251
44.33286064928722 13.6676
44.35690262714919 13.6267
44.38094666145278 13.6226
44.4051806219871 13.6391
44.42922879003185 13.5052
44.45327901929361 13.5224
44.477331311362136 13.4932
44.501573600619416 13.5095
44.525630039221795 13.4746
44.54968854541895 13.4479
44.573937102200176 13.436
44.5979997645541 13.4125
44.622064499300315 13.3903
44.64613130803592 13.3683
44.67038823869318 13.3215
44.69445921643748 13.2859
44.718532272981385 13.2576
44.742607409926194 13.2376
44.76687274034801 13.2024
44.79095205918753 13.1804
44.81503346325094 13.186
44.839116954143876 13.1742
44.86339071028742 13.1533
44.88747839599524 13.1481
44.91156817336837 13.1008
44.93566004401666 13.1165
44.959942251908146 13.0518
44.984038330325966 13.0302
45.00813650686762 12.9403
45.03223678314731 12.9671
45.05652746888232 12.9309
45.08063196592069 12.9064
45.104738567558705 12.9179
45.128847275414856 12.8747
45.15314646515866 12.8205
45.17725940679741 12.8456
45.20137445952892 12.815
45.22568004865265 12.8018
45.24979934496396 12.7621
45.27392075725247 12.718
45.29804428714431 12.7217
45.322358426247604 12.7441
45.346486212804315 12.69
45.370616121861914 12.6554
45.39474815505086 12.6055
45.41907087049246 12.558
45.4432071734666 12.5473
45.46734560548283 12.5874
45.49148616817604 12.5822
45.51581748638564 12.5425
45.5399623320197 12.4984
45.56410931325473 12.4516
45.58825843173002 12.4689
45.61259837920865 12.4256
45.636751793816 12.4771
45.66090735060093 12.3621
45.68506505120716 12.3208
45.7094136545275 12.2728
45.73357566449271 12.2915
45.75773982322992 12.2875
45.78190613238733 12.2778
45.806263418194064 12.2318
45.83043404997326 12.257
45.85460683713677 12.207
45.87897065658495 12.2142
45.90314777634752 12.1753
45.92732705646868 12.1739
45.9515084986045 12.1418
45.97588104735473 12.1355
46.00006683541565 12.0309
46.02425479047904 12.0483
46.04844491420549 12.0169
46.0728262191024 12.0456
46.09702070211635 11.9718
46.12121735879483 11.9721
46.14541619080294 11.9767
46.169806278764455 11.9951
46.194009483459034 11.9364
46.21821486849841 11.8822
46.24242243555223 11.8836
46.266821333570014 11.8642
46.29103328674601 11.8244
46.31524742696538 11.8511
46.33946375590237 11.8177
46.36387149104216 11.7881
46.38809221957392 11.7415
46.41231514186606 11.7139
46.436540259597464 11.6919
46.460956858999374 11.6544
46.48518638983522 11.6637
46.509418121166966 11.599
46.533652054678114 11.6319
46.55807754555709 11.584000000000001
46.58231590571962 11.5538
46.60655647313217 11.5535
46.630988654873654 11.5275
46.655233659129024 11.4989
46.67948087571551 11.4712
46.70373030632484 11.4808
46.72817142736393 11.4982
46.752425308428684 11.4072
46.77668140861147 11.4085
46.80093972960865 11.3427
46.82538981736788 11.3475
46.849652602470904 11.3428
46.87391761349769 11.3076
46.8981848521493 11.3004
46.9226439341274 11.2693
46.946915650573224 11.2399
46.97118959976749 11.2339
46.99546578341598 11.1816
47.019933887188216 11.1866
47.04421456235744 11.1837
47.06849747711879 11.1393
47.09278263318286 11.0755
47.11725978640143 11.0695
47.14154944775105 11.0319
47.165841355555656 11.0456
47.1901355115306 11.0366
47.214621741924994 11.0141
47.23892041698887 10.9895
47.26322134538975 10.9395
47.28771440635075 10.9655
47.31201986422527 10.9935
47.33632758061436 10.9055
47.360637557241866 10.9032
47.38513974410611 10.9202
47.40945426407847 10.8661
47.43377104948137 10.84
47.45809010204344 10.812000000000001
47.48260144275502 10.7931
47.506925052572285 10.7357
47.53125093475548 10.7282
47.55557909103813 10.7636
47.58009961361992 10.6983
47.60443234110732 10.6824
47.62876734791564 10.6947
47.65310463578333 10.6745
47.6776343683373 10.6505
47.7019762413987 10.575
47.72632040075572 10.575
47.75066684815169 10.5926
47.77520581885936 10.5513
47.799556865477655 10.532
47.823910205386 10.5262
47.84826584033272 10.5102
47.87281407745551 10.4882
47.89717432569297 10.4642
47.92153687423484 10.4427
47.94609208429692 10.4223
47.97045925671401 10.3878
47.99482873471275 10.4079
48.01920052005013 10.3685
48.04376504619224 10.3528
48.068141469543484 10.325
48.09252020552573 10.3227
48.11690125590099 10.2643
48.1414751266064 10.2861
48.16586082917454 10.3008
48.19024885144316 10.2329
48.2146391951793 10.2543
48.239222439012764 10.22
48.26361744916137 10.2202
48.28801478610016 10.1731
48.31241445160131 10.1929
48.337007097209366 10.1817
48.36141144338331 10.101
48.38581812345755 10.0513
48.41022713920929 10.0946
48.434829215320704 10.0415
48.45924292604658 10.0227
48.48365897780325 10.0248
48.50807737237308 10.0125
48.532688907799276 9.986180000000001
48.55711201168574 9.94179
48.581537463754074 9.96395
48.60615611725119 9.92747
48.63058628942721 9.93689
48.65501881516546 9.89495
48.6794536962573 9.88397
48.70408185970339 9.877089999999999
48.72852147531801 9.87393
48.75296345168211 9.82456
48.77740779059232 9.792489999999999
48.80204549302823 9.81743
48.82649458091802 9.81273
48.85094603676547 9.76078
48.87539986237231 9.76197
48.90004713292306 9.68027
48.92450572200832 9.739239999999999
48.94896668628025 9.6852
48.97343002754588 9.63132
48.99808689542115 9.63818
49.02255501470614 9.6207
49.04702551642794 9.615860000000001
49.0714984023988 9.561860000000001
49.096164896893235 9.530380000000001
49.120642575466796 9.50273
49.145122643748394 9.544
49.16960510355558 9.51302
49.19428125404938 9.49665
49.2187685210852 9.489339999999999
49.243258185121555 9.47519
49.26794160167084 9.477039999999999
49.2924360839405 9.415610000000001
49.31693296869764 9.38622
49.34143225776915 9.38768
49.36612538195438 9.36306
49.39062950396021 9.35394
49.41513603578346 9.32554
49.4396449792564 9.28014
49.46434784069503 9.29925
49.488861631846454 9.26934
49.513377840166804 9.25732
49.537896467493745 9.23277
49.56260909589029 9.2334
49.587132585683285 9.196660000000001
49.611658500018365 9.1995
49.636186840738596 9.17671
49.66090926588511 9.159289999999999
49.685442483902584 9.15778
49.70997813385706 9.12209
49.734516217597076 9.08453
49.75924846937352 9.10949
49.7837914452858 9.09465
49.80833686055187 9.03599
49.83288471702571 9.04077
49.85762682540054 9.0538
49.882179588965734 9.01643
49.9067347993235 8.96579
49.93129245833333 8.95847
49.95604445336378 8.94903
49.98060703442832 8.94391
50.005172069746266 8.93721
50.02993150438364 8.91563
50.05450147301533 8.88452
50.07907390151433 8.892719999999999
50.10364879174981 8.85848
50.12841816587289 8.81425
50.1529980044635 8.82227
50.17758031042124 8.82854
50.20216508562089 8.81435
50.22694442953363 8.78055
50.25153416817468 8.73611
50.27612638170508 8.7021
50.300721072005196 8.71355
50.325510416102105 8.680760000000001
50.350110084975064 8.6757
50.37471223628208 8.69642
50.39931687190919 8.65511
50.424116246675766 8.64863
50.44872587605249 8.61327
50.47333799543065 8.586739999999999
50.49795260670191 8.55361
50.52276204271512 8.518089999999999
50.54738166295838 8.501389999999999
50.57200378079314 8.528960000000001
50.596628398116835 8.503260000000001
50.62144792604559 8.51786
50.646077567609396 8.51769
50.670709714377715 8.49997
50.69553683636198 8.42949
50.72017401885922 8.42477
50.7448137122895 8.4128
50.76945591856022 8.4364
50.79429318636823 8.418
50.818940443716784 8.346
50.84359021965163 8.32218
50.868242516085964 8.30322
50.893089960641895 8.30412
50.917747323549435 8.295169999999999
50.94240721271973 8.29386
50.96706963007175 8.2242
50.99192728239342 8.26501
51.01659478166073 8.260060000000001
51.04126481489051 8.23541
51.06593738400761 8.207239999999999
51.090805275207074 8.199010000000001
51.11548294172845 8.17592
51.14016314993547 8.145610000000001
51.164845901758845 8.17357
51.18972406304274 8.11934
51.21441192780656 8.074580000000001
51.23910234200271 8.08969
51.2637953075678 8.08789
51.288683770237945 8.07522
51.31338186432707 8.00838
51.33808251561888 8.02399
51.362978729967345 7.997719999999999
51.387684521509755 8.03477
51.41239287610203 8.025689999999999
51.437103795691165 7.97855
51.46201036644977 7.9455100000000005
51.486726441956634 7.9106
51.51144508832545 7.906610000000001
51.536166307509156 7.897460000000001
51.56108326624387 7.862830000000001
51.58580965706056 7.87189
51.61053862657523 7.859039999999999
51.635270176746864 7.82694
51.66019755512065 7.82644
51.68493429268881 7.80012
51.70967361681515 7.79489
51.73441552946465 7.76854
51.759353359237934 7.73795
51.7841004750961 7.7560199999999995
51.80885018539685 7.757219999999999
51.833602492111254 7.711310000000001
51.8585508051424 7.70965
51.883308330926425 7.660419999999999
51.90806845906181 7.62513
51.932831191525715 7.64359
51.95779001977161 7.622389999999999
51.98255798721516 7.5849
52.00732856494335 7.53039
52.03229530577543 7.5474
52.057071130455945 7.56377
52.081849571391054 7.55036
52.106630630568695 7.5201899999999995
52.13160794279417 7.4856
52.15639426492067 7.4896
52.18118321127822 7.4878
52.205974783860896 7.46605
52.23096269971011 7.46357
52.255759551287994 7.4503
52.280559035098186 7.44125
52.30536115314103 7.41898
52.33035970494467 7.4043399999999995
52.35516711807904 7.371460000000001
52.37997717147198 7.339580000000001
52.40478986713005 7.3566899999999995
52.42979908731974 7.331010000000001
52.454617094216 7.31302
52.47943774942214 7.281910000000001
52.50426105495102 7.308339999999999
52.529280976059844 7.25162
52.554109609024096 7.249
52.57894089837482 7.230180000000001
52.60377484613117 7.20795
52.62880550079408 7.187289999999999
52.65364479223379 7.17657
52.67848674816189 7.15413
52.70352547971946 7.13957
52.72837279155837 7.19423
52.753222773982785 7.1523
52.778075429022984 7.144710000000001
52.80312495150885 7.08161
52.827982978797436 7.07995
52.85284368481815 7.08672
52.87770707160767 7.04927
52.90276741793998 7.014069999999999
52.92763619336701 6.99535
52.952507655698504 7.0177
52.977381806977576 7.019889999999999
53.00245301017842 7.02838
53.02733256653592 6.96295
53.052214817996074 6.93052
53.077099766608484 6.950589999999999
53.102181859804446 6.931260000000001
53.127072229988265 6.93748
53.15196530349892 6.8977699999999995
53.17686108239249 6.85019
53.20195409881522 6.858219999999999
53.22685531582556 6.85428
53.25175924441303 6.8598300000000005
53.27666588664027 6.84532
53.30176985962693 6.794339999999999
53.3266819565689 6.77533
53.35159677336455 6.771719999999999
53.376514312083096 6.78067
53.40162927507703 6.7304699999999995
53.42655228516116 6.71554
53.45147802340193 6.731389999999999
53.47660125628886 6.70038
53.50153247842639 6.692830000000001
53.52646643496923 6.62922
53.55140312799818 6.651089999999999
53.576537409691696 6.627739999999999
53.60147960336152 6.6185
53.626424539786164 6.60973
53.65137222105307 6.60025
53.67651758529126 6.614089999999999
53.70147078399681 6.574330000000001
53.72642673383343 6.55284
53.75138543689533 6.570360000000001
53.776541917524526 6.576789999999999
53.801506154876755 6.526730000000001
53.826473151763246 6.4993
53.851442910284916 6.47975
53.87661054126026 6.496230000000001
53.9015858509782 6.4154599999999995
53.92656392866066 6.43999
53.95154477641532 6.4164
53.976723591801296 6.41984
54.00171000771266 6.39398
54.02669920004598 6.41782
54.051691170915745 6.40583
54.076881204886796 6.42451
54.101878760928514 6.33127
54.12687910187696 6.29447
54.152077577768296 6.307
54.1770835166946 6.28235
54.20209224691339 6.30216
54.22710377055121 6.2782
54.25231352511594 6.25767
54.27733066384342 6.2348
54.30235060239643 6.25075
54.32737334290836 6.1829
54.35259441062629 6.14783
54.377622783395324 6.15618
54.40265396455061 6.17065
54.42768795623251 6.1500900000000005
54.45292037169559 6.07903
54.477960012857906 6.06152
54.50300247099511 5.997000000000001
54.52804774825457 5.9968900000000005
54.55329154616743 5.99486
54.57834249018678 5.96519
54.6033962597977 5.9204099999999995
54.6284528571545 5.94866
54.653708072335164 5.89634
54.67877035378786 5.9201
54.70383546947698 5.8474900000000005
54.72890342156389 5.87918
54.7541700889442 5.82642
54.77924374251975 5.81161
54.8043202390049 5.80914
54.82959552413022 5.76319
54.8546777351945 5.771669999999999
54.87976279569621 5.691730000000001
54.90485070780914 5.73665
54.930137506558005 5.698259999999999
54.95523115074295 5.73206
54.98032765308844 5.60797
55.005427015775496 5.62535
55.03072536339621 5.63046
55.05583047570572 5.55124
55.080938454927676 5.5399
55.10604930325027 5.53108
55.131359235107396 5.56424
55.15647585066083 5.489
55.181595341907496 5.4829099999999995
55.20671771104285 5.4124099999999995
55.232039262617704 5.41147
55.25716741665048 5.35794
55.28229845518636 5.35401
55.30743238042802 5.273540000000001
55.33276558731939 5.296930000000001
55.357905315183636 5.27189
55.383047936390035 5.24911
55.40819345314859 5.2217199999999995
55.433538351073295 5.22026
55.458689688238415 5.24745
55.483843927614096 5.1763
55.509197623043605 5.15905
55.53435769621134 5.1094
55.55952067826466 5.08914
55.5846865714265 5.1011
55.61005202069737 5.01339
55.63522376553902 5.03078
55.66039842818645 5.011419999999999
55.68557601087004 4.99844
55.7109532500271 4.9172199999999995
55.73613670233794 4.98006
