TT I
1.2716486653135266 7.101189999999999
1.2939594142134223 7.31878
1.3162702121660406 6.71081
1.3385810600174564 6.53135
1.3608919586137629 6.382569999999999
1.383202908801069 6.10456
1.405513911425503 5.818980000000001
1.4278249673332093 6.36493
1.4501343378461518 6.675730000000001
1.4724455028545926 6.60155
1.4947567236847858 6.22735
1.517068001182951 5.99605
1.5393793361953272 6.05904
1.5616907295681737 5.517180000000001
1.5840021821477681 4.95254
1.60631369478041 5.48795
1.6286252683124185 5.41277
1.6509369035901333 5.26231
1.6732468618895553 4.4518699999999995
1.695558623192809 4.65155
1.7178704487808514 4.36908
1.7401823395001077 4.46169
1.7625012545597203 5.150919999999999
1.7848028405262486 4.63606
1.8071218901122095 4.21247
1.8294236121921872 4.47478
1.8517427996910911 4.7175400000000005
1.8740620574440425 4.53894
1.8963639900671978 4.33665
1.9186833908139995 4.20822
1.9409854680117449 4.66311
1.9633050151394713 4.75211
1.9856246367570705 4.44497
2.0079269371922672 4.40418
2.03024671027244 4.643009999999999
2.0525491637446027 4.72004
2.074869091674931 4.5151
2.097171701569106 4.5707699999999996
2.1194917877373847 4.60235
2.141811954326636 4.84854
2.164114805233074 4.5580300000000005
2.186435135143035 4.38159
2.208738150935709 5.18772
2.231058647554722 6.89125
2.2533792288321184 5.92462
2.275682498336085 4.75941
2.298003251406138 4.94886
2.3203066942619714 4.8996900000000005
2.3426276225136022 5.346830000000001
2.3649486396617507 5.96064
2.387252348930071 5.8581900000000005
2.4095735463442893 5.38869
2.4318774374315884 6.46391
2.4541988185014043 6.23579
2.476502894794693 6.49677
2.498824462909887 7.07419
2.521146125856138 7.345269999999999
2.5434504863470337 7.3899
2.5657723414244717 8.15816
2.588076895590662 8.28316
2.610398946189713 8.23359
2.6327210958598384 8.644110000000001
2.6550259469304716 7.64302
2.6773482972090137 8.36112
2.6996533504259 8.67562
2.7219759047039602 8.30917
2.744298562293959 8.64925
2.7666039251246595 7.6267
2.7889267918020164 8.39077
2.8112323652516555 8.246189999999999
2.833555444408179 8.92355
2.8558786311183852 8.86503
2.8781845268938557 8.695969999999999
2.9005079311721484 9.1301
2.9228140460410397 9.23057
2.9451376712799635 8.8554
2.967444008632326 9.97327
2.9897678582247247 9.447239999999999
3.0120918213106695 9.9814
3.0343984987899373 9.827110000000001
3.0567226913198637 10.7018
3.079029599759726 11.3223
3.101354025127254 12.2792
3.123678568232338 12.8449
3.145985829517914 12.6117
3.16831061055229 13.3669
3.1906181112775593 13.6395
3.212943133635653 14.145999999999999
3.2352682779763207 14.6238
3.2575761442691227 14.5962
3.2799015350264273 15.1339
3.302209649240067 16.0345
3.3245352898092655 16.3864
3.3468436553365257 17.0455
3.369169549113219 17.2587
3.3914955708171384 18.358
3.413804319727358 18.3412
3.4361305997334863 18.5738
3.4584396084414553 19.1469
3.4807661501462652 19.7751
3.503092824025881 20.2923
3.5254022288463154 20.3706
3.5477291695206588 20.3567
3.5700388426251948 21.0761
3.5923660534916446 22.0384
3.6146934007816114 23.3612
3.637003482731501 28.5096
3.6593311053109985 29.6966
3.681641464033634 26.0004
3.7039693653009733 24.0451
3.726297407241705 24.6781
3.7486081875460804 24.6423
3.7709365132734978 25.1622
3.793247578841633 25.5775
3.8155761917550093 26.0832
3.8378875459837216 26.4109
3.8602164494827234 26.5714
3.882545499606844 27.393
3.9048572932539183 27.8495
3.9271866390645718 28.1945
3.9494987298666713 29.0247
3.971828374764527 29.2941
3.9941581705403255 29.9552
4.016470713506008 30.4959
4.038800813471445 31.1751
4.061113662089144 31.8877
4.0834440696459176 32.6909
4.105774632334751 32.8197
4.128087945865126 33.5071
4.150418821249301 33.5713
4.172732448931298 34.7624
4.195063640413578 35.2156
4.2173775856475215 36.5649
4.239709096631102 39.7358
4.262040768704612 54.633
4.284355196706267 64.1765
4.306687193387355 55.7031
4.329001947444346 44.1685
4.35133427213731 42.0217
4.373666762177566 42.049
4.395982011761091 42.4635
4.418314834921175 43.3429
4.44063041906622 44.7542
4.4629635787515625 46.8951
4.4852969080429785 47.9026
4.5076130004776225 49.8339
4.529946671403969 53.5537
4.552263106909177 57.5515
4.574597122877047 55.1704
4.596931312711224 53.0861
4.619248269273446 52.9802
4.6415828092605835 53.993
4.663900117405352 55.3022
4.686235010953232 56.6559
4.708552674085913 57.8974
4.730887924602802 59.1096
4.753223354952695 61.1974
4.775541557023902 63.7903
4.797877349456786 67.0682
4.820195915032126 68.0037
4.842532072957498 67.4231
4.864868414979744 70.1161
4.88718753227192 74.5111
4.909524244902505 77.2899
4.931843734218147 76.1199
4.954180820867835 77.8709
4.976518095879839 80.9978
4.998838149695359 82.7839
5.021175803844231 86.3221
5.043496238205739 89.8584
5.065834274903528 93.9232
5.088172504230693 98.2443
5.1104935158799565 103.68799999999999
5.132832132875765 116.4
5.155153533596801 136.045
5.1774925416746225 175.62
5.199814334878411 377.834
5.2221537374521505 1005.18
5.244493338631803 2811.2
5.266815727034316 7974.87
5.289155727832427 13853.3
5.311478517248165 8528.92
5.333818921080011 2338.95
5.356159527788849 437.115
5.3784829252032536 179.895
5.400823940070432 144.68
5.423147747031976 125.624
5.445489173474152 116.964
5.467830807066149 117.228
5.490155234831516 116.325
5.512497285125229 110.345
5.534822130975162 104.77
5.557164601388673 101.126
5.579489868738879 98.8901
5.601832762690846 97.50299999999999
5.6241758697774475 95.6479
5.646501775867269 94.9592
5.668845311622074 94.2333
5.691171647754637 93.91799999999999
5.713515615597765 92.5412
5.735859800852677 92.3291
5.758186788542988 93.647
5.780531411018185 96.8029
5.802858837297399 96.3351
5.825203900414495 95.991
5.8475491852224 98.1926
5.869877275883075 97.4186
5.892223006467101 95.0577
5.914551544266608 93.8165
5.936897724049891 96.6147
5.959244129804903 104.198
5.981573344815301 132.781
6.0039202049061 243.829
6.026249875609095 475.913
6.04859719346037 970.2339999999999
6.070927323278297 2283.7
6.093275102315365 4797.02
6.115623113320588 5583.65
6.137953938319995 2898.28
6.160302415650845 799.503
6.182633708324452 190.71900000000002
6.2049826554078376 102.134
6.227331838745022 86.929
6.249663839443684 81.2271
6.27201349767565 77.8499
6.294345974611799 76.4456
6.316696111167083 75.6585
6.339046488263839 74.1621
6.361379686074702 70.9893
6.383730546639482 69.3007
6.406064229255215 68.8263
6.428415576718203 69.2231
6.450749747566656 67.9978
6.47310158535871 65.8554
6.495453669698332 64.4818
6.517788579421056 63.6912
6.540141159237969 62.6102
6.562476565766648 62.2599
6.5848296444934045 61.645
6.607182974060425 61.7365
6.6295191323281015 61.5004
6.651872965955752 60.2125
6.6742096296068985 61.5674
6.6965639707294615 65.865
6.71891856698715 65.4754
6.741255995248479 61.24100000000001
6.763611104154477 58.4842
6.785949046381137 57.7724
6.808304671371482 58.3412
6.8306605557940046 59.3198
6.852999275508618 57.9407
6.875355681171544 56.8738
6.897694923437771 55.9694
6.92005185377892 55.2774
6.9423916220322655 55.5801
6.964749080490181 54.5545
6.987106804399774 54.8419
7.009447368180821 55.3734
7.031805625367033 54.8623
7.054146723727803 54.6106
7.076505517631004 54.2632
7.098864581288365 53.9772
7.121206488070854 53.9449
7.143566093607822 54.2463
7.165908543567245 54.7953
7.188268694426048 55.0683
7.2106291193438095 53.905
7.232972390625943 53.3504
7.255333366030969 53.8226
7.277677189091925 58.4913
7.300038718428332 63.6003
7.322400526130865 61.5321
7.344745183422596 56.4535
7.367107550224791 53.8271
7.389452767901992 53.4111
7.411815697249891 53.1293
7.434161478756298 52.7367
7.456524974096713 53.1001
7.478888753837185 53.0143
7.501235387657368 53.3511
7.523599738562711 54.3671
7.545946944825532 55.6074
7.568311870344528 55.9674
7.5906770845765665 55.0951
7.613025156078678 54.6085
7.635390950099687 54.5594
7.657739602662809 54.8977
7.680105979923558 55.1703
7.702472650212829 56.068999999999996
7.724822180948224 55.8028
7.747189439655568 55.4879
7.769539560075357 55.106
7.791907410653562 55.861999999999995
7.81425812420825 55.5997
7.836626570110925 56.1142
7.858995315087906 57.1754
7.881346924933401 57.4411
7.903716270417482 57.3568
7.926068482028405 57.7057
7.948438431475253 58.4009
7.9708086843180235 59.0907
7.993161805171116 59.6777
8.015532667162402 60.141999999999996
8.037886398416653 61.2852
8.060257873014221 62.0666
8.082629655331942 62.5918
8.104984308787587 63.3192
8.127356708900503 64.9993
8.149711981398308 68.0374
8.172085002766314 69.2692
8.194458336181368 68.7171
8.216814543847752 67.8339
8.23918850371002 68.6163
8.26154533906492 69.7919
8.283919928836452 71.4305
8.306277395339652 72.1955
8.328652618483376 73.3634
8.351028159736202 75.7081
8.373386579575245 78.0674
8.395762759396959 79.3139
8.418121819038275 81.8574
8.440498640894003 86.6239
8.462875785192262 96.8439
8.485235811156207 124.382
8.507613602688501 179.39700000000002
8.529974277114228 269.6
8.552352719347912 404.19300000000004
8.574731488360351 665.658
8.59709314210385 1248.15
8.619472567021075 2045.34
8.64183487789147 2377.14
8.664214962183097 1780.1
8.686577933647762 814.5939999999999
8.708958680784317 297.894
8.731339760774953 138.619
8.753703729764451 103.949
8.77608547780821 96.37899999999999
8.798450116065078 92.9091
8.820832535634787 91.1845
8.843215292401656 91.3049
8.865580941199045 90.7962
8.887964374703538 89.8542
8.910330701447199 90.1539
8.932714815164482 89.6272
8.955099270424924 87.2947
8.977466620733543 84.9743
8.999851761421976 84.3382
9.022219798361645 83.7486
9.04460562795561 83.2416
9.066991803441677 83.4527
9.089360876979615 83.6974
9.111747746589993 83.8702
9.13411751544971 82.7404
9.156505082664324 81.7372
9.178875550323522 81.6298
9.20126381862328 81.885
9.223652438908596 82.883
9.246023961427412 84.2985
9.26841328802173 84.4758
9.290785518039224 83.9139
9.313175554425882 84.5399
9.335565947154315 85.3185
9.357939245086508 86.0384
9.380330352834827 84.9482
9.40270436697103 84.8208
9.425096193225055 84.3824
9.447488380180165 84.3082
9.469863475295412 84.1238
9.492256385987508 84.2743
9.514632206018318 84.9148
9.537025843935714 85.3047
9.559402392368193 86.7709
9.581796761000229 88.7452
9.604191496441521 90.4244
9.626569144158516 92.1202
9.648964615551032 93.0282
9.671343000390081 92.2422
9.693739211225699 91.7938
9.716135793237463 91.6067
9.738515290448102 92.5549
9.760912617143402 94.4758
9.783292860202891 96.2372
9.805690935076182 98.2085
9.828089385495742 98.8212
9.850470754023561 99.6067
9.872869957865444 101.758
9.89525208097539 105.166
9.917652041736662 110.59899999999999
9.940052382417589 121.78399999999999
9.962435644102392 151.06799999999998
9.984836746950979 195.21599999999998
10.007220771957746 259.83
10.029622640473708 365.82
10.052007432299963 548.819
10.074410069984072 852.9739999999999
10.096813093716005 1356.52
10.119199042482517 1915.94
10.141602840636468 2037.81
10.163989564971628 1472.85
10.186394141051062 734.929
10.208799107559706 311.676
10.231187001965623 159.642
10.253592751657669 117.458
10.275981430388155 108.389
10.298387966769793 106.00299999999999
10.320794897965431 105.456
10.343184759907361 104.25200000000001
10.36559248305461 102.85799999999999
10.387983138083852 104.306
10.410391656691655 111.376
10.432800574501677 123.71
10.455192425893369 140.235
10.47760214443012 167.18
10.499994797678786 212.715
10.522405320453982 297.361
10.54479877906917 420.745
10.567210109595656 556.536
10.5896218454736 597.7230000000001
10.612016518879773 474.30199999999996
10.634429067781074 295.704
10.656824555333241 168.989
10.679237920773568 111.13799999999999
10.701651695961992 92.9779
10.724048411481384 88.2092
10.746463008485165 85.381
10.768860546937125 83.5918
10.791275969274796 82.1909
10.81369180576079 81.5623
10.836090585366925 80.6081
10.858507252467449 79.3147
10.88090686379991 78.3547
10.903324365036394 77.5667
10.925724811614439 76.5546
10.948143150509463 76.3475
10.970561909719066 76.0381
10.992963615930844 75.7838
11.015383218085756 74.21300000000001
11.037785768347074 72.7649
11.06020621697282 71.9678
11.082627090322113 71.3086
11.105030913430326 70.4608
11.12745263854165 70.0623
11.149857314510728 69.6677
11.172279894912576 70.3902
11.194702904450653 69.5409
11.217108866490921 68.3194
11.239532736615194 67.9217
11.26193956033512 67.2713
11.284364294577085 66.8844
11.306789462371718 66.305
11.329197585398376 66.5102
11.351623622610898 66.2939
11.37403261614354 65.1091
11.396459526308487 65.2708
11.418869393879497 64.9824
11.441297180532617 64.3418
11.463725406927658 63.9457
11.486136592353875 63.7031
11.508565700543707 63.5932
11.530977768845315 63.6831
11.553407762368774 63.5997
11.575838200059769 63.431999999999995
11.598251599479612 62.9824
11.620682927815501 62.6752
11.64309721895548 62.6411
11.665529441478206 62.3916
11.687962112597958 61.9864
11.710377748130886 62.0973
11.732811318753434 62.028
11.755227854859067 61.7951
11.777662328529495 61.8379
11.800079768750786 61.8131
11.822515149015453 62.0801
11.844950984084935 62.4224
11.867369787303163 61.9024
11.889806534289491 61.6372
11.912226250487029 62.0415
11.934663912939751 62.656000000000006
11.9571020346363 62.9872
11.979523127133968 63.2596
12.001962169624331 64.4167
12.024384183972964 65.9272
12.046824150809913 69.0058
12.069264581333726 73.5902
12.091687985297767 79.9873
12.11412934550045 89.0362
12.136553680195208 105.21700000000001
12.158995973632788 128.655
12.181438735204349 159.659
12.20386447284199 193.201
12.226308172985636 208.696
12.24873485024193 192.513
12.271179492516982 151.056
12.293607112949127 108.915
12.316052700916226 81.6376
12.338498763250042 68.5728
12.360927805303868 64.4922
12.383374818673879 63.6951
12.405804812803074 63.0027
12.428252780773262 63.0251
12.45070122756722 63.4135
12.473132656675375 63.3132
12.49558206341869 64.0215
12.518014453510101 64.0769
12.540464823770117 64.1368
12.562915677315177 63.9992
12.58534951575545 64.2415
12.607801338171472 64.1097
12.630236146511358 65.1134
12.652688941369085 65.7786
12.675124723177234 66.39699999999999
12.697578494048786 66.6914
12.720032754458185 66.3141
12.742470003354093 66.4489
12.764925245138771 66.79899999999999
12.787363476431278 67.402
12.809819703166806 67.6793
12.83227642391173 68.4842
12.854716135692716 69.2271
12.877173846755147 70.4435
12.899614549869717 70.8981
12.9220732548287 71.8724
12.94453245827299 72.2767
12.966974655289818 73.3919
12.989434858002571 74.2099
13.011878055298721 74.869
13.034339260862497 75.5496
13.056800969391883 77.2021
13.079245674017244 80.4312
13.101708390774869 84.9006
13.12415410463411 93.0955
13.146617833206086 103.241
13.169064559883248 114.09200000000001
13.191529303857127 129.437
13.213994557076367 152.791
13.236442809902437 190.864
13.258909083908291 251.452
13.28135835851934 325.824
13.30382565690295 401.861
13.326293469022952 451.125
13.348744283242008 418.199
13.371213125129904 322.418
13.39366497011003 219.275
13.416134845360597 148.05
13.438605238843131 112.868
13.46105863690397 104.587
13.483530069144786 106.777
13.505984506951902 112.665
13.528456981549432 123.59
13.550929978879088 139.07299999999998
13.573385983253365 163.719
13.595860028340867 203.09400000000002
13.618317081455832 258.418
13.64079217790333 329.11800000000005
13.663250283359057 380.898
13.685726434770173 389.305
13.708203115221277 325.356
13.730662806148091 241.127
13.75314054697177 163.406
13.775601299246777 113.744
13.798080104050406 91.1524
13.820559442405358 83.0519
13.843021793671388 80.3539
13.865502201420897 78.9634
13.887965623051947 78.4088
13.910447103807167 77.6572
13.932929122629764 76.5151
13.955394156785959 76.0309
13.977877254034569 74.8325
14.000343367582113 74.3363
14.022827546871707 73.7396
14.045294743423524 72.9481
14.06778000837062 72.5239
14.090265817715476 72.2455
14.112734645763819 71.9731
14.13522154619454 71.6157
14.157691466286913 71.419
14.180179461423874 71.3931
14.202668005486178 70.782
14.22513957064374 70.3489
14.247629214846473 69.7386
14.270101881097517 69.617
14.29259262906496 69.1494
14.315083930490205 68.9445
14.337558255389705 68.9192
14.360050666019726 68.8857
14.382526101071944 68.7393
14.405019624534942 68.51
14.427513705993134 68.3226
14.449990813291825 68.1554
14.47248601302899 67.9634
14.49496423954951 68.2666
14.517460561197822 68.2879
14.539939910570322 67.8775
14.562437357763558 68.3663
14.58493536931253 68.7788
14.607416409993311 68.9921
14.62991555254159 68.999
14.652397725157423 69.2509
14.674898002342799 69.6467
14.697398848433282 69.7744
14.719882725991326 71.4838
14.74238471217934 73.7241
14.764869730765593 77.175
14.787372860692983 80.1658
14.809876564079925 84.7938
14.83236330125751 90.927
14.854868153850365 100.087
14.877356041159485 114.686
14.899862046604186 133.22
14.922351087688757 160.961
14.944858249632887 195.343
14.967365991421232 223.264
14.989856770231246 232.96400000000003
15.012365673994204 215.25
15.03485761569738 177.261
15.05736768508665 133.655
15.07987833888692 102.095
15.102372032001655 83.2447
15.124883856909658 73.7403
15.14737872204565 70.6228
15.169891721717274 69.4591
15.192405310371893 69.2359
15.214901940621196 68.8522
15.237416709527137 68.1294
15.259914520936249 68.0199
15.282430473753607 67.2089
15.304947020131227 66.6896
15.327446610371178 66.402
15.349964346154254 66.0653
15.372465126703139 66.2272
15.394984055556009 65.7514
15.417486030076159 65.6024
15.44000615566487 65.3467
15.462526881230803 65.3174
15.485030653812652 65.3232
15.507552581617434 64.9711
15.530057557334603 64.9431
15.55258069104857 65.1445
15.575104429329837 65.3945
15.597611216864632 65.1836
15.620136166564563 66.3831
15.6426441664095 68.0478
15.665170331202765 70.2556
15.687697105158826 73.1321
15.710206930593545 76.5326
15.732734925158933 81.3979
15.755245972089478 87.8875
15.77777519094324 97.0974
15.800287463046663 110.15299999999999
15.822817909869592 130.435
15.84534897229804 153.674
15.867863089299354 180.98
15.890395385222186 199.361
15.912910736597423 198.338
15.935444269699861 176.75400000000002
15.957978423016485 141.62
15.980495633101265 109.331
16.003031029129367 85.5657
16.02554948280019 70.8563
16.048086125229432 64.5765
16.070623392487107 62.5251
16.09314371869582 61.6702
16.11568223789321 60.8629
16.13820381691126 60.1561
16.160743591742527 59.8698
16.183283996022084 59.3411
16.205807461423195 58.5025
16.228349126881973 57.8625
16.25087385432698 57.9467
16.27341678466365 57.4397
16.29594277784926 57.2567
16.31848697676433 56.7642
16.341031811604868 56.5154
16.36355971058487 56.2703
16.3861058195587 56.0443
16.40863499352978 55.5937
16.431182380342005 55.5217
16.453730407713202 55.1091
16.476261501364792 54.9734
16.498810812136167 54.6498
16.52134319004079 54.7832
16.54389378792203 54.7263
16.566445031001553 54.6297
16.588979342490088 54.3909
16.61153187824822 54.3423
16.634067483263312 53.9874
16.656621315414416 54.2049
16.679175797408888 53.7379
16.701713349928728 53.928999999999995
16.72426913389191 54.0444
16.74680798922351 54.0221
16.76936507887444 53.9449
16.791905240734874 53.9527
16.814463639794468 54.0377
16.837022695210294 53.9759
16.859564824093756 54.2256
16.882125194503903 54.3975
16.904668639217885 54.5948
16.927230328348003 54.4797
16.949792678493612 54.5741
16.972338104193863 54.7729
16.994901778652235 54.7296
17.017448529496576 55.0904
17.040013531998152 55.5456
17.06257920018044 56.1878
17.0851279459922 57.0207
17.107694947817667 57.5512
17.130245028099072 58.3934
17.15281336730298 59.6088
17.17536478578733 61.1523
17.19793446610687 63.4852
17.220504818648422 66.8206
17.243058251703697 70.3599
17.265629950971032 75.3923
17.288184731571736 80.5947
17.310757781306908 83.6874
17.33333150794385 83.4713
17.355888317140174 79.8423
17.37846339986244 73.2011
17.401021565958885 67.3182
17.42359800851343 63.2219
17.44617513265564 60.3499
17.468735341390783 59.1548
17.491261035594565 58.6015
17.51396340099364 58.2158
17.536490463869136 58.4789
17.559018209820174 58.4602
17.58154663977963 58.5691
17.604251766089718 58.7699
17.626781572227713 59.1843
17.64931206518155 59.236999999999995
17.671843245885103 59.5461
17.69455114821572 59.6894
17.717083712612634 59.906000000000006
17.739616967569667 60.2868
17.762150914021706 60.8843
17.78486160749854 61.1816
17.807396945166804 62.4053
17.829932977143503 63.5248
17.85246970436452 64.8087
17.875183204129467 66.4959
17.897721330097664 68.6215
17.920260154126645 71.1735
17.942799677153296 74.4164
17.9655159983646 78.3591
17.988056927677544 83.7054
18.010598558807683 91.7567
18.033140892692916 102.488
18.05586005052525 114.976
18.07840379824407 128.727
18.10094825154059 139.29399999999998
18.12366954819864 143.673
18.146215420998306 137.493
18.16876200220057 125.005
18.191309292745153 109.59100000000001
18.214033452627167 95.7974
18.236582170236648 87.0064
18.259131600016456 83.9737
18.281681742907335 85.8452
18.304408781233683 91.3912
18.32696035875955 97.7289
18.349512652227624 102.544
18.372065662579683 106.759
18.394795594587553 105.417
18.41735004715306 98.7351
18.43990521943684 90.0407
18.46246111238171 81.1674
18.485193953325208 72.2543
18.507751296070428 66.7862
18.530309362314178 63.9336
18.552868153000343 62.3006
18.57560391815056 61.2515
18.59816416623245 61.0309
18.620725141597372 60.4424
18.643286845190268 60.0705
18.666025549835414 59.5868
18.688588718427933 58.9598
18.711152618092243 58.8317
18.73389353884365 58.6071
18.75645890921984 58.2865
18.77902501351406 58.0873
18.801591852673102 58.1359
18.824335739722738 57.6947
18.846904057212626 57.4083
18.8694731124168 56.934
18.89204290628315 57.1026
18.914789774966803 56.8393
18.937361054791623 56.5049
18.959933076131318 56.294
18.982505839934877 56.1709
19.00525570560582 56.2912
19.027829963004184 56.062
19.05040496572238 56.2175
19.072980714710468 56.2567
19.095733592739563 56.4145
19.11831084296757 56.485
19.140888842324735 56.8989
19.16346759176222 57.1705
19.18622349753803 57.6738
19.208803755869358 58.7337
19.231384767143577 60.0209
19.253966532312948 61.6078
19.276725481241822 63.7759
19.29930876296784 66.6465
19.3218928014549 69.7223
19.34465404436217 72.8779
19.36723960516257 75.2263
19.389825925592426 75.5327
19.412413006605938 73.3059
19.43517731967805 68.9575
19.457765930683355 64.2961
19.48035530514408 59.9804
19.50294544401556 56.9885
19.525712842708348 55.4001
19.54830451925909 54.1656
19.570896963095727 53.3971
19.593490175174704 53.2208
19.616260674962184 53.2791
19.638855432416964 52.9752
19.661450960992624 52.9535
19.68404726164677 52.9962
19.706820878021247 52.7738
19.729418731756834 52.8255
19.752017360452857 52.6361
19.77461676506804 52.9482
19.797393513540218 53.273
19.819994478951667 53.4304
19.84259622316767 53.8773
19.8651987471481 54.2438
19.887978643247177 54.4702
19.91058273574792 55.0992
19.933187610901943 55.9299
19.955969879466828 57.2096
19.97857632894404 58.7363
20.00118356396599 60.6464
20.023791585494575 62.9339
20.046577028914875 66.0361
20.069186632506966 68.5165
20.091797025500632 70.1579
20.114408208858933 70.2338
20.137196842715273 69.2191
20.159809615886765 66.8582
20.18242318232135 63.66
20.20503754298326 61.7621
20.227829382875154 61.0884
20.250445341109344 61.5123
20.27306209647285 62.8777
20.29567964993108 64.3002
20.31847471147704 65.439
20.34109387027612 65.839
20.363713830075454 64.59100000000001
20.386334591841646 62.3048
20.409132890679302 59.0933
20.431755265564437 56.1413
20.454378445325528 53.7029
20.477002430930366 51.9247
20.499803982716553 50.8061
20.522429589228004 50.1549
20.54505600449589 49.9042
20.567683229489194 49.756
20.590488049900088 49.6054
20.61311690359731 49.3272
20.63574656993626 49.2483
20.658553853717297 49.1816
20.681185154618298 49.0285
20.703817271080066 48.9057
20.72645020407368 48.4038
20.749260783967177 48.6032
20.771895359337133 48.5296
20.794530754161617 48.4172
20.817166969412938 48.3563
20.83998086114876 48.1774
20.86261872660049 48.0624
20.885257415405402 48.2465
20.90789692853701 48.0891
20.930714147864748 47.9397
20.953355319030678 48.2196
20.97599731745334 48.3373
20.99864014410749 48.0491
21.021460706796564 48.1918
21.044105199328826 48.3651
21.06675052302631 48.3611
21.089396678865015 48.6086
21.112220600704806 48.9602
21.134868430275347 49.4884
21.15751709492456 49.563
21.180166595629693 49.8675
21.202993892429635 50.5578
21.22564507473034 50.8333
21.24829709602816 51.1057
21.27112693608965 50.9815
21.293780644891275 50.711000000000006
21.316435195634053 50.0271
21.339090589297417 49.1589
21.361923832041875 48.6338
21.384580921090404 48.1737
21.407238856007325 47.7233
21.429897637773326 47.8095
21.45273429906592 47.9913
21.475394784108598 47.9835
21.498056118951983 47.7739
21.520718304578022 48.1306
21.543558400304388 48.3133
21.566222297108816 48.5831
21.58888704765135 48.7319
21.61155265291521 48.9298
21.63439619898156 49.3996
21.657063523335786 49.553000000000004
21.67973170537063 50.1001
21.7024007460706 50.5284
21.72524775840385 51.4975
21.747918526116475 52.553000000000004
21.770590155457388 53.7039
21.79326264741238 55.2538
21.816113141960237 57.3569
21.838787368860547 59.2925
21.861462461341976 61.4794
21.884315579735777 63.6541
21.90699241312273 64.4975
21.92967011506078 64.4136
21.95234868653799 63.2542
21.9752053151131 61.4178
21.997885635446785 59.0316
22.020566828293532 57.2948
22.04324889464272 56.0171
22.066109049404666 55.5642
22.088792872571794 55.5532
22.111477572219204 55.9096
22.1341631493376 55.7952
22.157026846313123 55.347
22.179714188221507 54.3013
22.202402410582668 52.9489
22.22509151438863 51.3197
22.24795876962584 50.1984
22.270649646204486 49.4447
22.293341407213727 49.0635
22.316034053646906 48.6591
22.338904883215342 48.27
22.36159931041458 48.2583
22.38429462602756 48.0209
22.40699083104897 48.0348
22.429865251039757 48.0381
22.452563244831367 48.1853
22.47526213102522 48.2157
22.49813925616515 48.0518
22.520839937143307 48.027
22.543541513520587 48.0343
22.56624398629403 48.0003
22.589124730075895 47.968
22.611829005656723 48.273
22.63453418063466 48.2271
22.657240256008077 48.3633
22.680124634582935 48.7676
22.70283252079775 48.727
22.725541310413075 49.0595
22.74825100442868 49.2258
22.771139033969575 49.96
22.79385054687155 50.0371
22.81656296718292 50.7764
22.83927629590484 51.7352
22.862167992606945 52.7371
22.88488314827121 54.0979
22.907599215359284 55.2104
22.93031619487366 56.2338
22.953211574954405 57.0356
22.975930389478226 57.5781
22.998650119445763 57.1525
23.02137076586092 56.1011
23.044269845560063 54.4337
23.06699233506288 52.5214
23.089715744034912 51.0913
23.112617610931565 49.7705
23.135342869061212 48.9723
23.158069049684816 48.3237
23.1807961538087 48.2113
23.20370174880544 48.1629
23.226430710184808 48.3055
23.249160598093425 48.2473
23.271891413539002 48.3024
23.294800752937697 48.4086
23.31753343374794 48.6851
23.340267045128353 48.7263
23.36300158808808 49.2033
23.38591468821339 49.4088
23.408651104658304 49.852
23.431388455719986 50.5554
23.454126742409 51.4097
23.4770436196085 52.3984
23.499783787914662 54.0453
23.522524894889884 55.1275
23.54526694154616 56.3875
23.56818761219047 57.6546
23.59093154860734 57.7305
23.613676427751283 57.5971
23.636422250635754 56.1448
23.659346731118656 54.1267
23.68209445191868 52.1126
23.704843119509587 49.9001
23.72759273490623 48.2473
23.750521041644767 46.9926
23.77327256312355 46.336000000000006
23.796025035462787 45.8282
23.818956224555475 45.4184
23.841710609113413 45.2933
23.86446594758979 45.1945
23.887222241002014 44.9172
23.910157285144578 44.6864
23.932915498962537 44.6504
23.955674670778713 44.5072
23.978434801611975 44.3637
24.001373717286125 44.1507
24.024135776723917 43.9543
24.046898798245582 43.8279
24.06966278287146 44.103
24.092605586582614 43.817
24.115371508023642 43.422
24.1381383956401 43.3498
24.16090625045381 43.4249
24.183852958731244 43.2905
24.206622758582608 43.1786
24.229393528706886 43.0374
24.252165270127392 43.1131
24.27511589952438 43.1334
24.297889594216997 42.8358
24.32066426328598 42.868
24.34343990775613 42.6934
24.36639447485003 42.466
24.38917208083877 42.6807
24.41195066531332 42.4661
24.43490819850244 42.4758
24.457688750692377 42.356
24.48047028445616 42.2999
24.503252800821233 42.4493
24.526214300784112 42.5933
24.548998793132213 42.6084
24.57178427117417 42.5173
24.59457073593893 42.5104
24.617536219319863 42.3614
24.64032466834748 42.4126
24.663114107195035 42.3074
24.685904536893013 42.0705
24.708874020360852 42.0703
24.731666442613744 41.9359
24.754459858818787 41.9761
24.777254270007962 41.9118
24.80022777025625 41.6854
24.82302418230472 41.8212
24.845821592443674 41.8705
24.86862000170663 41.7234
24.891597535453727 41.6896
24.914397953892728 41.7562
24.93719937456671 41.8609
24.96000179851076 42.0097
24.98298338249997 42.1532
25.00578782394922 42.3002
25.028593271784167 42.4592
25.05157790644186 42.8463
25.07438537804115 42.9928
25.097193859145293 43.3311
25.120003350792075 43.5904
25.142992065061257 43.8558
25.165803588823465 44.1004
25.18861612625217 44.2068
25.211429678386736 44.118
25.234422489079968 44.1087
25.257238081693636 44.1458
25.280054692141732 44.2262
25.3028723214652 44.3444
25.325869245420463 44.5614
25.348688923599397 44.5449
25.371509623787006 44.4827
25.394331347025812 44.1014
25.41733240110666 43.4645
25.440156181590016 42.7514
25.46298098826268 42.1526
25.48580682216873 41.5578
25.50881202326435 41.0279
25.53163992281684 40.7259
25.55446885274561 40.5567
25.577298814096377 40.3693
25.600308179121807 40.3679
25.623140214533745 40.3844
25.64597328451537 40.3774
25.66898578564376 40.0584
25.691820936010206 40.0432
25.714657124097695 40.0153
25.737494350954734 40.055
25.760511045684957 39.9368
25.783350361364224 39.9467
25.806190718969255 39.9796
25.82903211955018 40.103
25.852053024868923 40.0885
25.874896522722523 40.0965
25.897741066713106 40.0809
25.920586657892454 40.2765
25.943611790812668 40.3501
25.966459487728237 40.5843
25.989308234998564 40.7256
26.01215803367705 40.9623
26.03518741123814 41.2245
26.05803932412957 41.2239
26.080892291600094 41.2712
26.10374631470478 41.2006
26.12677995397268 41.2495
26.14963609978026 41.1402
26.172493304397875 40.7108
26.19535156888223 40.4984
26.218389486949604 40.2687
26.241249882640123 39.8971
26.26411134137826 39.7082
26.28715248187403 39.6938
26.31001607820869 39.6559
26.3328807407756 39.5528
26.35574647063438 39.6781
26.37879191991473 39.6249
26.401659795896734 39.6017
26.424528742360263 39.8462
26.447398760366614 40.077
26.470448535598294 40.1097
26.49332070826805 40.3096
26.516193955675355 40.7649
26.53906827888316 40.9274
26.562122397260108 41.0998
26.584998883685063 41.4484
26.607876449110325 41.7058
26.63075509460056 41.8937
26.65381357334404 42.0182
26.67669439061878 41.9156
26.699576291163382 41.4789
26.722459276044212 41.3162
26.745522132402975 41.0361
26.768407297649354 40.7737
26.791293550442003 40.5155
26.814180891848974 40.2482
26.837248143099337 40.0806
26.860137673466657 40.0315
26.88302829566349 39.6702
26.90592001075963 39.5178
26.92899167420566 39.400999999999996
26.951885586870763 39.0203
26.974780595655517 38.842
26.99785558178161 38.739000000000004
27.020752794605112 38.7335
27.043651106772522 38.4518
27.06655051935668 38.4588
27.089629948036183 38.2916
27.112531573292053 38.1941
27.135434302194138 38.3617
27.158338135817015 38.2134
27.181422024430987 38.1813
27.204328079372566 38.024
27.22723524226965 38.1306
27.250143514198573 38.2202
27.273231880156334 38.0688
27.296142382065014 37.9388
27.319053996245536 37.8178
27.341966723775965 38.1287
27.365059584515222 38.1166
27.38797455070062 38.079
27.410890633481237 37.9235
27.433807833936918 38.0477
27.456905206923906 38.1058
27.47982465472398 38.0995
27.502745223449743 38.2642
27.525666914182825 38.2675
27.548768816912457 38.2255
27.571692763693633 38.1
27.59461783573812 37.8787
27.617723149491244 37.7916
27.640650484125285 37.6691
27.66357894728264 37.6928
27.686508540048052 37.6739
27.709618414237887 37.5956
27.732550278321757 37.4475
27.755483275279115 37.4136
27.778417406196485 37.6166
27.801531858397514 37.5086
27.824468269376716 37.3523
27.847405817586786 37.4104
27.870344504116094 37.6593
27.893463551932008 37.6594
27.916404527281053 37.8965
27.93934664422563 38.0482
27.962289903855886 37.9938
27.98541356491974 38.3229
28.00835912214229 38.5401
28.03130582533231 38.7808
28.054253675581805 38.951
28.077381967556104 38.7448
28.100332124185126 38.6308
28.123283431160893 38.4979
28.146235889577238 38.408
28.169368830154156 38.1926
28.192323603752033 37.9924
28.215279532083304 37.8121
28.238415973016764 37.4902
28.261374223145094 37.3635
28.284333631303806 37.0089
28.307294198589954 37.0116
28.330435319167677 36.633
28.353398217078915 36.3801
28.376362277420153 36.2072
28.39932750129032 36.007
28.422473319286713 35.8955
28.44544088262495 35.9899
28.468409612800283 35.7969
28.491379510913497 35.6238
28.51453004413313 35.5274
28.53750229057244 35.4986
28.56047570826344 35.4582
28.583450298308804 35.4282
28.606605564586562 35.1843
28.629582511831156 35.2665
28.65256063474956 35.3676
28.675539934446338 35.1225
28.698699951647605 35.1856
28.72168161743193 35.0826
28.74466446331978 34.9806
28.767648490417624 35.150999999999996
28.790813276438353 35.0158
28.813799678527303 35.0614
28.836787265157085 35.0526
28.859955641890075 34.9962
28.882945610203045 35.0531
28.905936766392035 34.9336
28.928929111566863 34.9723
28.952102288520145 34.8228
28.975097024308607 34.7222
28.998092952423807 34.5705
29.021090073977508 34.4701
29.04426806913204 34.4029
29.067267590245258 34.2153
29.090268308143695 34.1023
29.11327022394099 34.1608
29.13645305530891 34.0667
29.159457379627167 34.0694
29.18246290519685 33.974000000000004
29.20546963313352 33.9725
29.22865731875826 33.8911
29.25166646419296 33.9546
29.27467681535305 33.8175
29.29768837335608 33.8941
29.320880931312562 34.0617
29.34389491580634 33.9825
29.366910110507334 33.8341
29.38992651653503 33.8756
29.41312396492981 33.8685
29.436142806456754 33.7184
29.45916286268059 33.5571
29.48236399319994 33.4793
29.50538649169417 33.2983
29.528410208259935 33.2463
29.55143514402014 33.0723
29.574641196749695 33.0579
29.597668583816574 32.9236
29.6206971934585 32.7546
29.64372702680042 32.7336
29.666938019934474 32.6254
29.689970313635285 32.6715
29.713003834422636 32.5771
29.73603858342347 32.5647
29.759254535188578 32.4752
29.78229175361658 32.5204
29.80533020365064 32.5438
29.82836988641968 32.451
29.85159081507472 32.3312
29.874632976355343 32.2838
29.89767637376955 32.3314
29.920721008448314 32.0592
29.9439469322847 32.1779
29.96699405457564 32.2083
29.9900424175358 32.2713
30.013092022298157 32.156
30.03632295963995 32.0891
30.059375061131373 32.0917
30.08242840783577 32.0206
30.105483000888153 32.059
30.128718970092244 32.0455
30.151776069006917 32.0325
30.17483441768648 32.0843
30.198074175317235 32.1341
30.221135036724256 32.0405
30.24419715131772 31.9786
30.267260520236203 31.8624
30.290505341942243 31.8817
30.313571232750228 31.8827
30.336638381310948 31.9294
30.35970678876503 31.8444
30.38295669299435 31.7364
30.40602763151657 31.7582
30.429099832366074 31.7697
30.452173296685572 31.7302
30.47542830191959 31.6591
30.498504306502497 31.7024
30.521581577995562 31.7519
30.544660117543582 31.7315
30.56792024229725 31.8813
30.59100133132069 31.771
30.614083691845494 31.9172
30.637167325018545 31.8957
30.660432587840603 31.9998
30.683518779717886 31.9149
30.70660624769615 31.9568
30.729694992924372 31.8477
30.75296541239743 31.7478
30.77605672557558 31.8832
30.799149319462742 31.7153
30.8224236211637 31.6143
30.845518789950724 31.3864
30.868615242910597 31.4061
30.891712981195973 31.1784
30.91499247215866 31.2764
30.938092794619365 31.2283
30.96119440587579 31.0676
30.984297307082752 30.9951
31.00758200598383 30.8786
31.030687500658694 30.8347
31.053794288760695 30.7665
31.076902371446767 30.7392
31.100192296997445 30.7427
31.12330298246119 30.7236
31.14641496599209 30.5127
31.169528248749216 30.7445
31.19282341969534 30.596999999999998
31.215939314557186 30.6191
31.239056512134788 30.6194
31.262175013589378 30.5858
31.28547544871168 30.5428
31.30859657161541 30.4019
31.331719001892175 30.5033
31.35484274070538 30.6806
31.378148458819545 30.5614
31.401274828443725 30.5363
31.424402510106933 30.5933
31.447712205419993 30.6628
31.470842524931633 30.5025
31.493974159989783 30.5561
31.51710711176168 30.4623
31.54042212308802 30.465999999999998
31.563557722100917 30.4741
31.586694641341655 30.2544
31.609832881979628 30.1735
31.63315322823208 30.1072
31.656294125521327 29.9771
31.679436347728515 29.9244
31.70257989602529 29.8126
31.725905596152327 29.8746
31.74905181052835 29.7848
31.772199354521323 29.8135
31.79534822930507 29.8705
31.818679302290967 29.7808
31.84183085259981 29.7398
31.864983737233473 29.8077
31.88813795736804 29.7953
31.911474422233013 29.6698
31.934631327356435 29.7298
31.9577895715215 29.7775
31.980949155906522 29.7226
32.004291031706956 29.6348
32.027453310562606 29.5325
32.05061693318573 29.4297
32.07396288236386 29.4384
32.09712920658542 29.3833
32.12029687812702 29.2819
32.14346589817093 29.1484
32.166817291729984 29.151999999999997
32.18998902288583 29.124000000000002
32.21316210610336 28.9997
32.23633654256711 28.8734
32.259693399663725 28.8671
32.282870556771144 28.8432
32.30604907069099 28.7724
32.329228942610065 28.7441
32.35259128243769 28.6359
32.375773884550505 28.6457
32.398957848235646 28.5776
32.422143174682176 28.4638
32.445511016471215 28.4966
32.468699082679954 28.4699
32.49188851523011 28.3605
32.51507931531304 28.2445
32.538452678331 28.4464
32.56164622776311 28.2567
32.58484114831493 28.1579
32.60803744118015 28.1461
32.631416344731896 28.1925
32.654615396551876 28.1962
32.67781582427913 28.1087
32.701198898634416 27.9697
32.72440209253756 28.0342
32.747606665947124 27.9019
32.77081262006088 27.8463
32.79420126883317 27.8336
32.81740999876112 27.8521
32.840620112999424 27.7129
32.86383161274818 27.693
32.88722585534586 27.6879
32.91044014056596 27.7355
32.933655814909734 27.6937
32.95687287957963 27.6927
32.98027273544904 27.5837
33.00349259526636 27.5693
33.026713849030116 27.6631
33.04993649794511 27.5759
33.073341986570746 27.5261
33.09656744032826 27.4758
33.11979429286444 27.4621
33.14302254538647 27.4774
33.166433686291185 27.38
33.18966475336992 27.3704
33.212897224069096 27.246
33.23613109959831 27.2754
33.259547912343415 27.1374
33.2827846121627 27.2166
33.306022720453775 27.2269
33.32926223842861 27.0392
33.352684742614166 27.0821
33.37592709463173 27.0517
33.399170859982064 26.9278
33.422597648419426 26.9068
33.44584425514446 26.7645
33.46909227885668 26.7416
33.4923417207723 26.6844
33.51577423505344 26.6568
33.539026528130385 26.6042
33.56228024307245 26.5914
33.585535381098246 26.4458
33.60897364093058 26.5006
33.63223163992385 26.5
33.6554910656699 26.3353
33.678751919389796 26.4087
33.702195944520106 26.3638
33.72545966903325 26.3097
33.74872482519663 26.1698
33.771991414233746 26.2143
33.79544122444841 26.1843
33.81871069412428 26.0974
33.84198160035767 26.1127
33.86525394437455 26.0001
33.88870955949969 25.9648
33.911984794020626 26.0021
33.93526147001624 26.0638
33.958539588715006 25.9628
33.98200102861669 25.8074
34.0052820477047 25.7685
34.02856451319451 25.7981
34.05203033759056 25.7514
34.07531571090147 25.6627
34.09860253431845 25.613000000000003
34.121890809074316 25.5782
34.145362493118924 25.5394
34.16865368561615 25.5675
34.191946333164054 25.5524
34.21524043699793 25.4626
34.23871800066799 25.4852
34.26201503218366 25.3588
34.28531352370466 25.379
34.30861347646881 25.3335
34.33209693978188 25.1979
34.3553998301885 25.21
34.378704185565205 25.0813
34.402010007152356 25.0829
34.42549939016683 25.0145
34.44880815937748 24.9513
34.472118398533134 24.9945
34.49543010887669 24.9206
34.51892543169198 24.8752
34.54224009966052 24.8494
34.56555624255917 24.802
34.58887386163339 24.7288
34.61237514439016 24.7009
34.6356957311114 24.7342
34.65901779775809 24.6162
34.68252356662995 24.5838
34.705848608458616 24.6771
34.72917513396849 24.6379
34.75250314440949 24.5404
34.77601490857862 24.5079
34.799345904259795 24.3897
34.82267838863559 24.3819
34.846012362958525 24.4221
34.869530142679984 24.3071
34.89286711232212 24.1927
34.91620557568269 24.3126
34.93954553401677 24.3315
34.9630693495876 24.2797
34.986412313340814 24.2885
35.00975677584668 24.1635
35.033102738362956 24.0589
35.05663261012228 24.0774
35.0799815881786 24.068
35.10333207003229 23.9514
35.12668405694369 23.9243
35.150220005273056 23.961
35.17357501786656 23.939
35.19693153931268 23.9337
35.220289570874385 23.9009
35.24383161619786 23.8601
35.267192683604904 23.8674
35.290555264930376 23.7863
35.314101899412165 23.8653
35.33746752422433 23.8346
35.36083466676374 23.7673
35.38420332829803 23.6932
35.407756095629054 23.7211
35.43112781085063 23.6913
35.45450104888391 23.7231
35.477875810999194 23.7472
35.50143473172161 23.5177
35.52481255774625 23.6193
35.54819191167777 23.5817
35.57157279478914 23.5225
35.595137889488406 23.4463
35.61852184675279 23.3582
35.641907337029984 23.3715
35.665294361595684 23.3391
35.68886565090076 23.3315
35.7122557598848 23.2969
35.73564740699838 23.2031
35.759040593519934 23.1207
35.78261809810353 23.1991
35.80601437933051 23.0369
35.829412203814705 22.9617
35.85281157283719 23.0005
35.876395313415884 22.9996
35.8997977874528 22.9629
35.92320180988546 22.8648
35.946790244133936 22.8581
35.97019737933222 22.8563
35.993606066789866 22.845
36.01701630779276 22.7957
36.04061101440684 22.7221
36.06402437852291 22.7409
36.08743930005611 22.7069
36.1108557802951 22.6246
36.13445678011326 22.6737
36.15787639383515 22.588
36.18129757014299 22.561
36.20472031032821 22.4871
36.22832762423364 22.3968
36.25175350829375 22.3731
36.275180960119776 22.3627
36.298609981005924 22.4262
36.32222362992669 22.346
36.34565580510207 22.3231
36.36908955323448 22.3737
36.39252487562093 22.2181
36.416144880530226 22.2064
36.43958336764275 22.2292
36.463023432914625 22.1256
36.486465077645676 22.0906
36.51009145956204 22.2328
36.53353627947859 22.1018
36.55698268276811 22.0538
36.58043067073321 22.0972
36.60406345072071 22.006
36.62751462435344 21.9674
36.65096738658405 21.8807
36.67460498210655 21.8819
36.69806093788647 21.8863
36.72151848619297 21.7993
36.744977628333636 21.7856
36.76862165890998 21.7492
36.79208400512205 21.7348
36.81554794910557 21.7495
36.83901349217101 21.608
36.862663978991606 21.5571
36.88613273667352 21.5146
36.90960309738324 21.5814
36.933075062434064 21.5563
36.95673202673572 21.4604
36.98020721697122 21.4335
37.003684015502365 21.3602
37.027162423645365 21.3545
37.050825886711465 21.2908
37.07430753063053 21.1946
37.09779078812467 21.2329
37.121275660513014 21.2325
37.144945643673694 21.1627
37.16843376245278 21.2041
37.19192350009803 21.2176
37.215414857931435 21.0858
37.239091382563885 20.9469
37.262585997426164 21.0473
37.28608223645736 20.9389
37.309763684451696 20.9829
37.33326318851098 20.925
37.356764320726555 20.8968
37.380267082425526 20.9239
37.40395510942588 20.8351
37.42746114683234 20.8616
37.45096881771841 20.6979
37.474478123414166 20.7328
37.49817275092816 20.6716
37.52168534303452 20.76
37.54519957395567 20.5995
37.568715445024665 20.6071
37.592416694607714 20.6235
37.61593586281424 20.5722
37.63945667518264 20.5509
37.66297913304891 20.498
37.68668702630454 20.4507
37.710212792059274 20.3723
37.733740207334854 20.4034
37.757269273470364 20.3637
37.780983832050374 20.3137
37.80451621684926 20.3302
37.82805025654007 20.2704
37.851585952464795 20.2031
37.8753071980695 20.1784
37.89884622345676 20.1309
37.92238690911902 20.0873
37.94611318753442 20.0398
37.969657210779765 20.0243
37.99320289834801 20.0472
38.016750251586465 20.0023
38.04048325513017 19.8869
38.06403395679343 19.8987
38.087586328183946 19.8533
38.11114037065203 19.8593
38.13488012115898 19.8368
38.1584375229181 19.7188
38.181996599821 19.7593
38.205557353221124 19.7215
38.229303872575656 19.6681
38.2528679961576 19.708
38.27643380031219 19.5814
38.30000128639589 19.5997
38.32375459653193 19.5525
38.34732546371299 19.5463
38.37089801690786 19.4485
38.39447225747609 19.3719
38.418232380377425 19.4097
38.441810012983396 19.4098
38.46538933705673 19.3481
38.488970353960084 19.2914
38.51273731166058 19.2357
38.536321731567014 19.2909
38.55990784840681 19.2036
38.58367995004091 19.2328
38.60726947812959 19.1821
38.63086070726198 19.2277
38.654453638806274 19.1605
38.678232613930824 19.0618
38.70182896773327 19.0175
38.72542702806741 19.0289
38.7490267963045 19.0789
38.77281266709232 19.0166
38.79641586862214 18.9206
38.8200207821842 18.8827
38.843627409152944 18.8677
38.86742019782782 18.8859
38.891030269149255 18.8238
38.914642058016156 18.8164
38.938255565806124 18.701
38.96205529464307 18.7087
38.98567225787121 18.7083
39.00929094417078 18.6812
39.03291135492255 18.656
39.05671804624804 18.6581
39.080341923549106 18.6394
39.103967529460334 18.5341
39.127594865365744 18.4992
39.15140854155791 18.5159
39.17503935514948 18.4275
39.19867190290282 18.4435
39.22249083587951 18.4577
39.24612686969409 18.4125
39.269764641845306 18.3604
39.293404153722804 18.4082
39.317230110864074 18.3062
39.34087311998506 18.2221
39.36451787301696 18.2319
39.388164371352595 18.1826
39.41199737518003 18.1703
39.43564738196752 18.1844
39.45929913825317 18.1143
39.48295264543308 18.0705
39.506792718520884 18.0904
39.530449745387216 18.0951
39.55410852735203 18.0391
39.57776906581474 18.0327
39.60161623079 17.9531
39.625280300200025 17.9692
39.64894613032202 17.8824
39.67261372255866 17.8741
39.6964680021016 17.822
39.72013913657293 17.814
39.74381203738292 17.742
39.76748670593756 17.8101
39.79134812278169 17.7716
39.81502634488497 17.7024
39.83870633896685 17.6576
39.862388106436654 17.6216
39.88625668336918 17.6831
39.90994201572829 17.6168
39.933629125719285 17.5688
39.957503091207826 17.5358
39.9811937746168 17.5816
40.00488623990914 17.5095
40.02858048850006 17.495
40.05246165409549 17.4481
40.076159487492085 17.3642
40.099859108448875 17.3189
40.123560518384345 17.3468
40.1474489070226 17.3255
40.171153913178564 17.2707
40.194860712584955 17.2541
40.2185693066637 17.2627
40.242464941335314 17.2392
40.26617714307655 17.207
40.289891143772046 17.1984
40.3136069448471 17.1508
40.33750984859743 17.1101
40.3612292688043 17.0858
40.3849504936829 17.0042
40.40867352466194 16.9783
40.43258372059144 16.9812
40.45631038219906 16.9766
40.48003885420956 16.9445
40.503769138055105 16.935
40.52768664931955 16.8864
40.55142057531802 16.8627
40.57515631746428 16.8525
40.599079334038514 16.802
40.62281872700477 16.7573
40.64655994043941 16.7311
40.67030297578061 16.6933
40.69423334835778 16.6946
40.71798004609188 16.6855
40.74172857006355 16.657
40.76547892171441 16.6862
40.7894166736039 16.5947
40.813170699248566 16.4734
40.83692655691388 16.4713
40.86068424804498 16.497
40.884629402612525 16.4736
40.908390779366385 16.4836
40.932153993938 16.3904
40.95591904777605 16.3563
40.979871628443995 16.4347
41.003640379561936 16.3585
41.02741097430883 16.3477
41.05118341413683 16.3119
41.075143444384416 16.272000000000002
41.098919593177826 16.2516
41.1226975914255 16.2451
41.14647744058318 16.1632
41.170444943946755 16.1404
41.19422851378379 16.1555
41.218013938914645 16.1523
41.24198706625173 16.0895
41.26577622087193 16.0379
41.289567235177785 16.0346
41.31336011063129 16.0156
41.337340752422875 15.9543
41.361137369129835 15.9672
41.38493585138705 15.9785
41.40873620066004 15.93
41.43272438060107 15.9053
41.45652848292052 15.7896
41.48033445666918 15.7433
41.50414230331616 15.7303
41.528138045159764 15.7793
41.551949656675205 15.7417
41.575763145513235 15.6807
41.59957851314666 15.647
41.62358184070442 15.6778
41.64740098505737 15.6202
41.6712220126409 15.5817
41.69504492493139 15.5401
41.71905586207357 15.5742
41.74288256296395 15.526
41.766711153007456 15.4956
41.79054163368412 15.4859
41.814560204340054 15.4637
41.838394485526365 15.4897
41.86223066180303 15.4289
41.88625497706819 15.4089
41.910094962812 15.3397
41.93393684811168 15.3499
41.95778063445365 15.3084
41.981812625263366 15.2617
42.00566023303407 15.2627
42.029509746323676 15.1771
42.05336116662236 15.120999999999999
42.077400857069705 15.1813
42.10125611078846 15.1635
42.12511327600405 15.0922
42.14897235421036 15.1295
42.173019768448455 15.0614
42.19688269209613 15.0362
42.22074753323349 15.0264
42.24461429335818 15.0266
42.268669455600495 14.9873
42.292540073217886 14.9513
42.31641261433284 14.8731
42.34028708044675 14.9308
42.36435001496739 14.897
42.38822835065557 14.8981
42.41210861586426 14.8252
42.4359908120986 14.779000000000002
42.46006154323262 14.7888
42.48394762115317 14.7385
42.507835634632315 14.745999999999999
42.531912233047436 14.6775
42.55580413732265 14.668
42.579697981698 14.5776
42.60359376768525 14.6301
42.62767820545945 14.5905
42.65157789440821 14.5856
42.67547952952185 14.5843
42.699383112316 14.5451
42.72347541395347 14.4759
42.74738291190531 14.4183
42.771292362102166 14.4839
42.795203766063516 14.4379
42.819303956130405 14.3691
42.843219287476536 14.3434
42.86713657716324 14.3113
42.89105582671383 14.2629
42.91516392983864 14.2783
42.939087119032166 14.2771
42.963012272677304 14.2271
42.98693939230129 14.2338
43.01105543317513 14.234000000000002
43.034986504731386 14.1892
43.05891954686589 14.1213
43.08285456110972 14.0642
43.10697856448665 14.088
43.130917542983475 14.0382
43.15485849820081 14.0319
43.17880143167367 13.96
43.20293342237094 13.9808
43.226880332449 13.9676
43.25082922540554 13.9698
43.27496722682525 13.8865
43.29892010567796 13.9232
43.32287497204102 13.9088
43.34683182745632 13.8556
43.370977859791836 13.8468
43.39493871351105 13.862
43.41890156092628 13.7889
43.44286640358341 13.780999999999999
43.46702049182749 13.7175
43.49098934522816 13.6217
43.51496019852649 13.6877
43.5389330532723 13.6604
43.56309522248204 13.6473
43.58707210044314 13.632
43.61105098451946 13.5446
43.63503187626491 13.5059
43.659202151562134 13.5409
43.68318707902681 13.5009
43.70717401884041 13.5098
43.731162972560874 13.4839
43.75534137913236 13.4373
43.779334381108384 13.4294
43.803329401683186 13.3843
43.82732644241872 13.3848
43.8515130055166 13.415999999999999
43.87551410707659 13.4056
43.89951723350145 13.3281
43.923709934595614 13.3174
43.94771713129917 13.3007
43.97172635758096 13.2435
43.99573761501002 13.2506
44.0199385169922 13.1907
44.04395385732619 13.1906
44.067971233533086 13.1512
44.09199064718605 13.1568
44.11619977548961 13.1233
44.14022328470671 13.1004
44.16424883610785 13.0766
44.18827643127035 13.0701
44.21249381139513 13.0176
44.236525514814076 12.9727
44.26055926674478 12.9909
44.28459506876863 12.9977
44.3088207262813 12.9344
44.33286064928722 12.9158
44.35690262714919 12.8941
44.38094666145278 12.85
44.4051806219871 12.809000000000001
44.42922879003185 12.8368
44.45327901929361 12.7985
44.477331311362136 12.8192
44.501573600619416 12.7266
44.525630039221795 12.7355
44.54968854541895 12.7313
44.573937102200176 12.7153
44.5979997645541 12.6905
44.622064499300315 12.6364
44.64613130803592 12.6288
44.67038823869318 12.6715
44.69445921643748 12.5905
44.718532272981385 12.5039
44.742607409926194 12.5083
44.76687274034801 12.5383
44.79095205918753 12.5011
44.81503346325094 12.453
44.839116954143876 12.4374
44.86339071028742 12.4274
44.88747839599524 12.3893
44.91156817336837 12.3758
44.93566004401666 12.3896
44.959942251908146 12.3519
44.984038330325966 12.3454
45.00813650686762 12.2443
45.03223678314731 12.2311
45.05652746888232 12.1976
45.08063196592069 12.2315
45.104738567558705 12.2133
45.128847275414856 12.2148
45.15314646515866 12.1675
45.17725940679741 12.1408
45.20137445952892 12.0813
45.22568004865265 12.0662
45.24979934496396 12.0612
45.27392075725247 12.049000000000001
45.29804428714431 12.0579
45.322358426247604 12.0102
45.346486212804315 11.9769
45.370616121861914 11.972999999999999
45.39474815505086 11.9401
45.41907087049246 11.8616
45.4432071734666 11.8524
45.46734560548283 11.8414
45.49148616817604 11.8657
45.51581748638564 11.8269
45.5399623320197 11.8134
45.56410931325473 11.7891
45.58825843173002 11.7947
45.61259837920865 11.7631
45.636751793816 11.7577
45.66090735060093 11.6774
45.68506505120716 11.6736
45.7094136545275 11.6814
45.73357566449271 11.6345
45.75773982322992 11.5729
45.78190613238733 11.612
45.806263418194064 11.5689
45.83043404997326 11.5589
45.85460683713677 11.5521
45.87897065658495 11.5577
45.90314777634752 11.4662
45.92732705646868 11.4966
45.9515084986045 11.4699
45.97588104735473 11.4733
46.00006683541565 11.4452
46.02425479047904 11.4123
46.04844491420549 11.3893
46.0728262191024 11.4103
46.09702070211635 11.3602
46.12121735879483 11.3609
46.14541619080294 11.2921
46.169806278764455 11.2852
46.194009483459034 11.2589
46.21821486849841 11.2613
46.24242243555223 11.2204
46.266821333570014 11.1581
46.29103328674601 11.1939
46.31524742696538 11.1671
46.33946375590237 11.1106
46.36387149104216 11.0959
46.38809221957392 11.0896
46.41231514186606 11.0998
46.436540259597464 11.0722
46.460956858999374 11.0168
46.48518638983522 10.9861
46.509418121166966 10.9875
46.533652054678114 10.977
46.55807754555709 10.9654
46.58231590571962 10.9823
46.60655647313217 10.9583
46.630988654873654 10.8704
46.655233659129024 10.8615
46.67948087571551 10.877
46.70373030632484 10.8544
46.72817142736393 10.8091
46.752425308428684 10.8064
46.77668140861147 10.7604
46.80093972960865 10.7499
46.82538981736788 10.7391
46.849652602470904 10.6788
46.87391761349769 10.6527
46.8981848521493 10.6567
46.9226439341274 10.6544
46.946915650573224 10.6149
46.97118959976749 10.615
46.99546578341598 10.5387
47.019933887188216 10.5198
47.04421456235744 10.571
47.06849747711879 10.5366
47.09278263318286 10.4723
47.11725978640143 10.4517
47.14154944775105 10.4524
47.165841355555656 10.4387
47.1901355115306 10.4331
47.214621741924994 10.4209
47.23892041698887 10.4065
47.26322134538975 10.3653
47.28771440635075 10.3307
47.31201986422527 10.3558
47.33632758061436 10.3038
47.360637557241866 10.3082
47.38513974410611 10.3221
47.40945426407847 10.2692
47.43377104948137 10.2787
47.45809010204344 10.2602
47.48260144275502 10.2009
47.506925052572285 10.179
47.53125093475548 10.1589
47.55557909103813 10.1501
47.58009961361992 10.1323
47.60443234110732 10.1214
47.62876734791564 10.1039
47.65310463578333 10.0638
47.6776343683373 10.0488
47.7019762413987 10.0311
47.72632040075572 10.0285
47.75066684815169 9.97738
47.77520581885936 9.98366
47.799556865477655 9.95372
47.823910205386 9.94401
47.84826584033272 9.91231
47.87281407745551 9.893930000000001
47.89717432569297 9.881210000000001
47.92153687423484 9.865839999999999
47.94609208429692 9.8397
47.97045925671401 9.822510000000001
47.99482873471275 9.82498
48.01920052005013 9.82853
48.04376504619224 9.80719
48.068141469543484 9.80875
48.09252020552573 9.76823
48.11690125590099 9.75831
48.1414751266064 9.72355
48.16586082917454 9.7014
48.19024885144316 9.63818
48.2146391951793 9.63149
48.239222439012764 9.66532
48.26361744916137 9.65318
48.28801478610016 9.645660000000001
48.31241445160131 9.63296
48.337007097209366 9.59096
48.36141144338331 9.56138
48.38581812345755 9.53733
48.41022713920929 9.5389
48.434829215320704 9.53957
48.45924292604658 9.49951
48.48365897780325 9.49652
48.50807737237308 9.47745
48.532688907799276 9.44614
48.55711201168574 9.39748
48.581537463754074 9.40602
48.60615611725119 9.40029
48.63058628942721 9.37368
48.65501881516546 9.351
48.6794536962573 9.3291
48.70408185970339 9.296669999999999
48.72852147531801 9.30069
48.75296345168211 9.29042
48.77740779059232 9.28567
48.80204549302823 9.306230000000001
48.82649458091802 9.26352
48.85094603676547 9.220880000000001
48.87539986237231 9.189969999999999
48.90004713292306 9.186760000000001
48.92450572200832 9.18272
48.94896668628025 9.159089999999999
48.97343002754588 9.10936
48.99808689542115 9.10398
49.02255501470614 9.10655
49.04702551642794 9.097389999999999
49.0714984023988 9.08432
49.096164896893235 9.036610000000001
49.120642575466796 9.01476
49.145122643748394 8.978
49.16960510355558 9.000010000000001
49.19428125404938 8.985489999999999
49.2187685210852 8.95978
49.243258185121555 8.94886
49.26794160167084 8.93182
49.2924360839405 8.90357
49.31693296869764 8.881210000000001
49.34143225776915 8.87081
49.36612538195438 8.87406
49.39062950396021 8.84032
49.41513603578346 8.765310000000001
49.4396449792564 8.76694
49.46434784069503 8.81209
49.488861631846454 8.77697
49.513377840166804 8.778889999999999
49.537896467493745 8.73757
49.56260909589029 8.71626
49.587132585683285 8.7159
49.611658500018365 8.69196
49.636186840738596 8.63846
49.66090926588511 8.631680000000001
49.685442483902584 8.61393
49.70997813385706 8.61027
49.734516217597076 8.621889999999999
49.75924846937352 8.635060000000001
49.7837914452858 8.59216
49.80833686055187 8.55531
49.83288471702571 8.54013
49.85762682540054 8.53867
49.882179588965734 8.50031
49.9067347993235 8.48325
49.93129245833333 8.51774
49.95604445336378 8.4449
49.98060703442832 8.452580000000001
50.005172069746266 8.40672
50.02993150438364 8.38983
50.05450147301533 8.38899
50.07907390151433 8.37578
50.10364879174981 8.367389999999999
50.12841816587289 8.32666
50.1529980044635 8.3008
50.17758031042124 8.29304
50.20216508562089 8.31071
50.22694442953363 8.28715
50.25153416817468 8.29434
50.27612638170508 8.24964
50.300721072005196 8.22062
50.325510416102105 8.19042
50.350110084975064 8.2288
50.37471223628208 8.20866
50.39931687190919 8.15274
50.424116246675766 8.14695
50.44872587605249 8.126430000000001
50.47333799543065 8.13441
50.49795260670191 8.09476
50.52276204271512 8.05537
50.54738166295838 8.0583
50.57200378079314 8.07633
50.596628398116835 8.04122
50.62144792604559 8.034839999999999
50.646077567609396 8.00228
50.670709714377715 8.01872
50.69553683636198 7.99489
50.72017401885922 7.99225
50.7448137122895 7.95183
50.76945591856022 7.9885
50.79429318636823 7.94123
50.818940443716784 7.91035
50.84359021965163 7.91803
50.868242516085964 7.8872100000000005
50.893089960641895 7.8538
50.917747323549435 7.83615
50.94240721271973 7.832389999999999
50.96706963007175 7.81093
50.99192728239342 7.7997
51.01659478166073 7.80111
51.04126481489051 7.76014
51.06593738400761 7.7407699999999995
51.090805275207074 7.7359800000000005
51.11548294172845 7.76853
51.14016314993547 7.70755
51.164845901758845 7.709510000000001
51.18972406304274 7.670939999999999
51.21441192780656 7.657660000000001
51.23910234200271 7.665
51.2637953075678 7.63134
51.288683770237945 7.619389999999999
51.31338186432707 7.60115
51.33808251561888 7.572089999999999
51.362978729967345 7.5603
51.387684521509755 7.58018
51.41239287610203 7.5709
51.437103795691165 7.4978
51.46201036644977 7.456980000000001
51.486726441956634 7.46824
51.51144508832545 7.46695
51.536166307509156 7.4604
51.56108326624387 7.43301
51.58580965706056 7.443739999999999
51.61053862657523 7.3663
51.635270176746864 7.3837
51.66019755512065 7.37467
51.68493429268881 7.369669999999999
51.70967361681515 7.36497
51.73441552946465 7.31837
51.759353359237934 7.309480000000001
51.7841004750961 7.33985
51.80885018539685 7.31728
51.833602492111254 7.236269999999999
51.8585508051424 7.24025
51.883308330926425 7.22876
51.90806845906181 7.20471
51.932831191525715 7.175
51.95779001977161 7.160139999999999
51.98255798721516 7.18245
52.00732856494335 7.14875
52.03229530577543 7.1524600000000005
52.057071130455945 7.1239300000000005
52.081849571391054 7.11672
52.106630630568695 7.1348899999999995
52.13160794279417 7.0807
52.15639426492067 7.088080000000001
52.18118321127822 7.0677
52.205974783860896 7.0213600000000005
52.23096269971011 7.006689999999999
52.255759551287994 7.0248800000000005
52.280559035098186 7.031060000000001
52.30536115314103 6.9785699999999995
52.33035970494467 6.9604
52.35516711807904 6.96661
52.37997717147198 6.9282699999999995
52.40478986713005 6.9479999999999995
52.42979908731974 6.881539999999999
52.454617094216 6.911460000000001
52.47943774942214 6.92178
52.50426105495102 6.86406
52.529280976059844 6.8566199999999995
52.554109609024096 6.843539999999999
52.57894089837482 6.837289999999999
52.60377484613117 6.8108
52.62880550079408 6.79316
52.65364479223379 6.78675
52.67848674816189 6.7551
52.70352547971946 6.78008
52.72837279155837 6.7756
52.753222773982785 6.739210000000001
52.778075429022984 6.708889999999999
52.80312495150885 6.7145
52.827982978797436 6.673710000000001
52.85284368481815 6.670160000000001
52.87770707160767 6.63927
52.90276741793998 6.61833
52.92763619336701 6.638160000000001
52.952507655698504 6.64715
52.977381806977576 6.6682
53.00245301017842 6.586119999999999
53.02733256653592 6.5578899999999996
53.052214817996074 6.55058
53.077099766608484 6.55065
53.102181859804446 6.52577
53.127072229988265 6.53911
53.15196530349892 6.5056400000000005
53.17686108239249 6.51589
53.20195409881522 6.50609
53.22685531582556 6.48966
53.25175924441303 6.4307099999999995
53.27666588664027 6.43625
53.30176985962693 6.41365
53.3266819565689 6.41673
53.35159677336455 6.38936
53.376514312083096 6.3996900000000005
53.40162927507703 6.41323
53.42655228516116 6.35502
53.45147802340193 6.34625
53.47660125628886 6.33764
53.50153247842639 6.29431
53.52646643496923 6.27526
53.55140312799818 6.29999
53.576537409691696 6.25739
53.60147960336152 6.24808
53.626424539786164 6.2668
53.65137222105307 6.2413
53.67651758529126 6.2361
53.70147078399681 6.18123
53.72642673383343 6.18898
53.75138543689533 6.1580900000000005
53.776541917524526 6.16036
53.801506154876755 6.1666
53.826473151763246 6.16305
53.851442910284916 6.06821
53.87661054126026 6.10325
53.9015858509782 6.1288599999999995
53.92656392866066 6.10382
53.95154477641532 6.06166
53.976723591801296 6.08014
54.00171000771266 6.0425699999999996
54.02669920004598 6.01777
54.051691170915745 6.03223
54.076881204886796 5.99731
54.101878760928514 5.9863800000000005
54.12687910187696 5.97901
54.152077577768296 5.9995400000000005
54.1770835166946 5.95986
54.20209224691339 5.91756
54.22710377055121 5.89395
54.25231352511594 5.88401
54.27733066384342 5.863090000000001
54.30235060239643 5.87297
54.32737334290836 5.9016
54.35259441062629 5.83536
54.377622783395324 5.81912
54.40265396455061 5.821269999999999
54.42768795623251 5.765219999999999
54.45292037169559 5.76579
54.477960012857906 5.80644
54.50300247099511 5.7531
54.52804774825457 5.73428
54.55329154616743 5.72272
54.57834249018678 5.72773
54.6033962597977 5.64519
54.6284528571545 5.6407099999999994
54.653708072335164 5.61439
54.67877035378786 5.6264199999999995
54.70383546947698 5.569459999999999
54.72890342156389 5.52457
54.7541700889442 5.52916
54.77924374251975 5.53918
54.8043202390049 5.50336
54.82959552413022 5.48595
54.8546777351945 5.50084
54.87976279569621 5.45063
54.90485070780914 5.4671199999999995
54.930137506558005 5.4002
54.95523115074295 5.416530000000001
54.98032765308844 5.3752
55.005427015775496 5.38933
55.03072536339621 5.37731
55.05583047570572 5.2927
55.080938454927676 5.23106
55.10604930325027 5.2536
55.131359235107396 5.27454
55.15647585066083 5.20821
55.181595341907496 5.26583
55.20671771104285 5.1868099999999995
55.232039262617704 5.16413
55.25716741665048 5.12786
55.28229845518636 5.16056
55.30743238042802 5.11396
55.33276558731939 5.11923
55.357905315183636 5.08836
55.383047936390035 5.02704
55.40819345314859 5.01015
55.433538351073295 4.98283
55.458689688238415 4.974069999999999
55.483843927614096 4.9101099999999995
55.509197623043605 4.92868
55.53435769621134 4.85471
55.55952067826466 4.81162
55.5846865714265 4.82008
55.61005202069737 4.86569
55.63522376553902 4.83052
55.66039842818645 4.79776
55.68557601087004 4.788959999999999
55.7109532500271 4.7354
55.73613670233794 4.82445
