TT I
1.2716486653135266 32.8805
1.2939594142134223 33.9121
1.3162702121660406 31.95
1.3385810600174564 31.9272
1.3608919586137629 31.1707
1.383202908801069 30.1409
1.405513911425503 29.4436
1.4278249673332093 29.0391
1.4501343378461518 28.8139
1.4724455028545926 27.4676
1.4947567236847858 27.1195
1.517068001182951 27.0098
1.5393793361953272 26.7196
1.5616907295681737 25.941
1.5840021821477681 25.8267
1.60631369478041 25.3799
1.6286252683124185 25.0413
1.6509369035901333 23.8685
1.6732468618895553 23.8231
1.695558623192809 23.7919
1.7178704487808514 23.5702
1.7401823395001077 24.0435
1.7625012545597203 23.2979
1.7848028405262486 23.320999999999998
1.8071218901122095 23.1544
1.8294236121921872 22.8134
1.8517427996910911 22.9337
1.8740620574440425 22.985
1.8963639900671978 22.5369
1.9186833908139995 22.5685
1.9409854680117449 23.2336
1.9633050151394713 23.6974
1.9856246367570705 22.7674
2.0079269371922672 22.8521
2.03024671027244 22.9171
2.0525491637446027 22.8471
2.074869091674931 22.9683
2.097171701569106 23.2566
2.1194917877373847 24.1123
2.141811954326636 24.6886
2.164114805233074 24.6131
2.186435135143035 24.9295
2.208738150935709 25.9997
2.231058647554722 26.3083
2.2533792288321184 26.436
2.275682498336085 26.7023
2.298003251406138 25.8549
2.3203066942619714 25.7031
2.3426276225136022 25.2134
2.3649486396617507 24.4655
2.387252348930071 24.8542
2.4095735463442893 24.4011
2.4318774374315884 23.831
2.4541988185014043 23.9909
2.476502894794693 24.2069
2.498824462909887 24.2717
2.521146125856138 24.1564
2.5434504863470337 24.625
2.5657723414244717 24.0586
2.588076895590662 25.406
2.610398946189713 25.011999999999997
2.6327210958598384 25.3814
2.6550259469304716 25.807
2.6773482972090137 26.6781
2.6996533504259 27.9091
2.7219759047039602 28.9033
2.744298562293959 29.1909
2.7666039251246595 31.3554
2.7889267918020164 32.0726
2.8112323652516555 32.5553
2.833555444408179 34.1279
2.8558786311183852 35.6802
2.8781845268938557 37.7445
2.9005079311721484 40.298
2.9228140460410397 42.1004
2.9451376712799635 44.2551
2.967444008632326 47.3107
2.9897678582247247 50.8727
3.0120918213106695 55.8599
3.0343984987899373 59.873000000000005
3.0567226913198637 63.9345
3.079029599759726 70.1957
3.101354025127254 75.249
3.123678568232338 77.9997
3.145985829517914 80.40100000000001
3.16831061055229 81.4308
3.1906181112775593 80.8862
3.212943133635653 78.7858
3.2352682779763207 74.1507
3.2575761442691227 68.883
3.2799015350264273 63.1635
3.302209649240067 58.0508
3.3245352898092655 52.8461
3.3468436553365257 48.6498
3.369169549113219 44.8587
3.3914955708171384 42.6727
3.413804319727358 39.8548
3.4361305997334863 38.0137
3.4584396084414553 37.2379
3.4807661501462652 36.7384
3.503092824025881 36.3261
3.5254022288463154 36.0137
3.5477291695206588 36.297
3.5700388426251948 37.0213
3.5923660534916446 38.2146
3.6146934007816114 39.8109
3.637003482731501 41.4881
3.6593311053109985 42.2138
3.681641464033634 42.2255
3.7039693653009733 41.9734
3.726297407241705 41.2053
3.7486081875460804 39.6842
3.7709365132734978 38.1115
3.793247578841633 36.4769
3.8155761917550093 36.165
3.8378875459837216 35.4703
3.8602164494827234 34.7204
3.882545499606844 35.0983
3.9048572932539183 35.552
3.9271866390645718 35.2471
3.9494987298666713 35.2757
3.971828374764527 36.4232
3.9941581705403255 36.7323
4.016470713506008 37.8621
4.038800813471445 39.3876
4.061113662089144 40.8306
4.0834440696459176 42.6898
4.105774632334751 44.586000000000006
4.128087945865126 47.3422
4.150418821249301 51.6462
4.172732448931298 56.5297
4.195063640413578 63.0876
4.2173775856475215 70.2659
4.239709096631102 77.7165
4.262040768704612 84.4648
4.284355196706267 89.7427
4.306687193387355 92.2365
4.329001947444346 91.8955
4.35133427213731 86.3205
4.373666762177566 80.1669
4.395982011761091 74.1073
4.418314834921175 68.3434
4.44063041906622 64.4718
4.4629635787515625 62.19
4.4852969080429785 59.7115
4.5076130004776225 57.0593
4.529946671403969 54.4628
4.552263106909177 51.2861
4.574597122877047 49.8913
4.596931312711224 48.2699
4.619248269273446 46.9091
4.6415828092605835 46.053000000000004
4.663900117405352 45.4098
4.686235010953232 45.7809
4.708552674085913 45.8199
4.730887924602802 46.353
4.753223354952695 47.0288
4.775541557023902 48.2394
4.797877349456786 49.1548
4.820195915032126 51.3112
4.842532072957498 52.3381
4.864868414979744 54.0176
4.88718753227192 56.4517
4.909524244902505 59.5074
4.931843734218147 62.4734
4.954180820867835 66.8224
4.976518095879839 71.8291
4.998838149695359 77.5509
5.021175803844231 87.8491
5.043496238205739 100.066
5.065834274903528 112.167
5.088172504230693 125.15100000000001
5.1104935158799565 139.209
5.132832132875765 159.856
5.155153533596801 186.515
5.1774925416746225 225.468
5.199814334878411 288.876
5.2221537374521505 406.306
5.244493338631803 590.54
5.266815727034316 839.112
5.289155727832427 1239.45
5.311478517248165 2099.27
5.333818921080011 3337.1
5.356159527788849 4280.35
5.3784829252032536 3599.0
5.400823940070432 2195.17
5.423147747031976 1070.58
5.445489173474152 551.494
5.467830807066149 351.82099999999997
5.490155234831516 262.39
5.512497285125229 208.412
5.534822130975162 176.826
5.557164601388673 154.274
5.579489868738879 137.235
5.601832762690846 125.23100000000001
5.6241758697774475 117.81200000000001
5.646501775867269 112.30799999999999
5.668845311622074 108.969
5.691171647754637 106.27
5.713515615597765 103.654
5.735859800852677 100.391
5.758186788542988 97.6975
5.780531411018185 96.9591
5.802858837297399 96.2213
5.825203900414495 97.1435
5.8475491852224 99.4594
5.869877275883075 102.01700000000001
5.892223006467101 107.215
5.914551544266608 113.001
5.936897724049891 120.542
5.959244129804903 131.83100000000002
5.981573344815301 149.928
6.0039202049061 176.69799999999998
6.026249875609095 220.422
6.04859719346037 282.14599999999996
6.070927323278297 364.63599999999997
6.093275102315365 479.069
6.115623113320588 620.452
6.137953938319995 860.232
6.160302415650845 1187.18
6.182633708324452 1296.73
6.2049826554078376 1089.38
6.227331838745022 715.087
6.249663839443684 441.44300000000004
6.27201349767565 293.70599999999996
6.294345974611799 213.09799999999998
6.316696111167083 159.597
6.339046488263839 127.435
6.361379686074702 107.145
6.383730546639482 93.6872
6.406064229255215 82.9207
6.428415576718203 76.6896
6.450749747566656 71.8298
6.47310158535871 67.0357
6.495453669698332 63.2897
6.517788579421056 60.5806
6.540141159237969 58.3477
6.562476565766648 57.0545
6.5848296444934045 56.2101
6.607182974060425 55.8157
6.6295191323281015 56.0428
6.651872965955752 56.5166
6.6742096296068985 57.1595
6.6965639707294615 58.1995
6.71891856698715 58.9836
6.741255995248479 58.9969
6.763611104154477 58.6028
6.785949046381137 57.5913
6.808304671371482 55.6428
6.8306605557940046 53.8433
6.852999275508618 51.3975
6.875355681171544 49.8013
6.897694923437771 48.251000000000005
6.92005185377892 46.9912
6.9423916220322655 45.9419
6.964749080490181 44.7016
6.987106804399774 43.9672
7.009447368180821 43.6597
7.031805625367033 43.3392
7.054146723727803 43.3987
7.076505517631004 43.8984
7.098864581288365 44.3369
7.121206488070854 44.8615
7.143566093607822 46.1278
7.165908543567245 47.3738
7.188268694426048 49.2182
7.2106291193438095 51.8438
7.232972390625943 54.9338
7.255333366030969 58.778999999999996
7.277677189091925 64.7337
7.300038718428332 71.211
7.322400526130865 75.396
7.344745183422596 77.2739
7.367107550224791 74.8753
7.389452767901992 70.45
7.411815697249891 65.2649
7.434161478756298 59.3901
7.456524974096713 54.5187
7.478888753837185 52.4521
7.501235387657368 52.2655
7.523599738562711 54.9019
7.545946944825532 67.7175
7.568311870344528 98.8698
7.5906770845765665 140.189
7.613025156078678 147.76
7.635390950099687 109.431
7.657739602662809 71.0226
7.680105979923558 51.5622
7.702472650212829 44.5895
7.724822180948224 41.7967
7.747189439655568 40.1037
7.769539560075357 38.913000000000004
7.791907410653562 38.1905
7.81425812420825 38.0085
7.836626570110925 37.8509
7.858995315087906 38.0384
7.881346924933401 37.4157
7.903716270417482 37.6212
7.926068482028405 37.5509
7.948438431475253 38.1362
7.9708086843180235 38.0207
7.993161805171116 38.3558
8.015532667162402 38.6382
8.037886398416653 39.0248
8.060257873014221 39.3484
8.082629655331942 40.0397
8.104984308787587 40.3637
8.127356708900503 40.9627
8.149711981398308 41.8663
8.172085002766314 42.6827
8.194458336181368 43.641999999999996
8.216814543847752 44.4345
8.23918850371002 45.3124
8.26154533906492 45.8471
8.283919928836452 47.0681
8.306277395339652 47.7696
8.328652618483376 48.7842
8.351028159736202 50.7951
8.373386579575245 53.2416
8.395762759396959 55.192
8.418121819038275 57.9521
8.440498640894003 61.6951
8.462875785192262 66.8035
8.485235811156207 72.6718
8.507613602688501 80.6653
8.529974277114228 92.9579
8.552352719347912 109.484
8.574731488360351 134.953
8.59709314210385 166.985
8.619472567021075 195.957
8.64183487789147 226.986
8.664214962183097 290.349
8.686577933647762 416.351
8.708958680784317 606.981
8.731339760774953 775.686
8.753703729764451 786.669
8.77608547780821 600.809
8.798450116065078 395.635
8.820832535634787 252.168
8.843215292401656 171.287
8.865580941199045 128.539
8.887964374703538 106.045
8.910330701447199 92.8023
8.932714815164482 83.4286
8.955099270424924 77.4092
8.977466620733543 73.4345
8.999851761421976 70.2511
9.022219798361645 66.9872
9.04460562795561 64.6238
9.066991803441677 62.7232
9.089360876979615 61.5811
9.111747746589993 60.4639
9.13411751544971 59.7134
9.156505082664324 59.2354
9.178875550323522 60.725
9.20126381862328 62.8119
9.223652438908596 68.7893
9.246023961427412 85.3878
9.26841328802173 131.47299999999998
9.290785518039224 202.65599999999998
9.313175554425882 249.641
9.335565947154315 213.697
9.357939245086508 139.726
9.380330352834827 89.9112
9.40270436697103 68.4082
9.425096193225055 59.9654
9.447488380180165 57.001000000000005
9.469863475295412 55.2968
9.492256385987508 54.0102
9.514632206018318 53.2473
9.537025843935714 52.5532
9.559402392368193 52.48
9.581796761000229 52.6659
9.604191496441521 53.0095
9.626569144158516 53.2063
9.648964615551032 53.8276
9.671343000390081 54.3219
9.693739211225699 55.0204
9.716135793237463 55.6626
9.738515290448102 56.6223
9.760912617143402 57.3156
9.783292860202891 58.0045
9.805690935076182 59.2929
9.828089385495742 59.6893
9.850470754023561 62.0102
9.872869957865444 64.1381
9.89525208097539 66.4066
9.917652041736662 69.6081
9.940052382417589 73.1531
9.962435644102392 78.0617
9.984836746950979 83.8662
10.007220771957746 91.6184
10.029622640473708 104.444
10.052007432299963 124.51100000000001
10.074410069984072 146.92
10.096813093716005 169.701
10.119199042482517 188.207
10.141602840636468 212.977
10.163989564971628 261.116
10.186394141051062 366.99699999999996
10.208799107559706 535.899
10.231187001965623 720.815
10.253592751657669 816.7410000000001
10.275981430388155 713.804
10.298387966769793 505.486
10.320794897965431 335.306
10.343184759907361 223.354
10.36559248305461 159.423
10.387983138083852 124.71
10.410391656691655 105.7
10.432800574501677 93.7829
10.455192425893369 86.5144
10.47760214443012 84.2369
10.499994797678786 84.4618
10.522405320453982 86.9157
10.54479877906917 90.9898
10.567210109595656 92.5843
10.5896218454736 95.1558
10.612016518879773 104.818
10.634429067781074 125.78399999999999
10.656824555333241 166.245
10.679237920773568 225.315
10.701651695961992 278.149
10.724048411481384 287.567
10.746463008485165 249.44099999999997
10.768860546937125 190.905
10.791275969274796 131.584
10.81369180576079 91.9922
10.836090585366925 71.0196
10.858507252467449 60.5004
10.88090686379991 55.2348
10.903324365036394 52.0682
10.925724811614439 49.5943
10.948143150509463 48.2638
10.970561909719066 46.8645
10.992963615930844 46.2946
11.015383218085756 45.346000000000004
11.037785768347074 44.6565
11.06020621697282 44.4274
11.082627090322113 43.9395
11.105030913430326 43.8692
11.12745263854165 43.3801
11.149857314510728 42.9914
11.172279894912576 43.4594
11.194702904450653 43.5266
11.217108866490921 43.1326
11.239532736615194 42.9075
11.26193956033512 43.1911
11.284364294577085 42.9049
11.306789462371718 42.253
11.329197585398376 41.55
11.351623622610898 41.4659
11.37403261614354 40.7114
11.396459526308487 40.428000000000004
11.418869393879497 39.9215
11.441297180532617 39.4237
11.463725406927658 38.8815
11.486136592353875 38.732
11.508565700543707 38.5496
11.530977768845315 38.4753
11.553407762368774 38.3578
11.575838200059769 38.4548
11.598251599479612 38.5582
11.620682927815501 38.3448
11.64309721895548 38.5604
11.665529441478206 38.0031
11.687962112597958 37.5774
11.710377748130886 37.5997
11.732811318753434 37.3717
11.755227854859067 37.1333
11.777662328529495 36.9975
11.800079768750786 37.047
11.822515149015453 37.1641
11.844950984084935 37.7449
11.867369787303163 38.0956
11.889806534289491 38.6535
11.912226250487029 40.049
11.934663912939751 42.1221
11.9571020346363 47.1752
11.979523127133968 58.3897
12.001962169624331 75.6711
12.024384183972964 88.5897
12.046824150809913 88.3129
12.069264581333726 74.2131
12.091687985297767 58.4236
12.11412934550045 49.8697
12.136553680195208 46.8791
12.158995973632788 46.9506
12.181438735204349 47.4836
12.20386447284199 48.6958
12.226308172985636 50.1992
12.24873485024193 52.9412
12.271179492516982 57.3482
12.293607112949127 64.4085
12.316052700916226 74.6411
12.338498763250042 87.3979
12.360927805303868 95.7609
12.383374818673879 96.1392
12.405804812803074 87.1004
12.428252780773262 73.7101
12.45070122756722 62.445
12.473132656675375 55.1868
12.49558206341869 50.0363
12.518014453510101 46.6612
12.540464823770117 44.6835
12.562915677315177 43.3794
12.58534951575545 42.5072
12.607801338171472 41.7983
12.630236146511358 41.6139
12.652688941369085 41.7019
12.675124723177234 41.9407
12.697578494048786 42.3682
12.720032754458185 42.5979
12.742470003354093 42.4208
12.764925245138771 42.0906
12.787363476431278 41.7367
12.809819703166806 40.9827
12.83227642391173 41.0144
12.854716135692716 40.7202
12.877173846755147 40.6106
12.899614549869717 40.0629
12.9220732548287 40.3626
12.94453245827299 40.1313
12.966974655289818 40.5273
12.989434858002571 40.6166
13.011878055298721 41.0663
13.034339260862497 41.4227
13.056800969391883 42.122
13.079245674017244 43.3794
13.101708390774869 44.6534
13.12415410463411 48.152
13.146617833206086 53.3087
13.169064559883248 58.2738
13.191529303857127 61.7201
13.213994557076367 62.7128
13.236442809902437 63.1437
13.258909083908291 65.1751
13.28135835851934 67.5694
13.30382565690295 70.065
13.326293469022952 72.6888
13.348744283242008 77.277
13.371213125129904 86.1505
13.39366497011003 101.086
13.416134845360597 124.932
13.438605238843131 160.374
13.46105863690397 199.46599999999998
13.483530069144786 222.555
13.505984506951902 214.857
13.528456981549432 181.438
13.550929978879088 142.972
13.573385983253365 115.691
13.595860028340867 98.6393
13.618317081455832 89.3479
13.64079217790333 84.0251
13.663250283359057 80.9141
13.685726434770173 80.0156
13.708203115221277 83.1667
13.730662806148091 91.5564
13.75314054697177 106.64
13.775601299246777 132.836
13.798080104050406 169.315
13.820559442405358 201.68400000000003
13.843021793671388 208.065
13.865502201420897 183.54
13.887965623051947 142.958
13.910447103807167 105.70700000000001
13.932929122629764 81.5601
13.955394156785959 68.3493
13.977877254034569 59.6833
14.000343367582113 54.1942
14.022827546871707 50.8158
14.045294743423524 48.3941
14.06778000837062 47.0316
14.090265817715476 46.3863
14.112734645763819 45.931999999999995
14.13522154619454 46.4719
14.157691466286913 49.355
14.180179461423874 56.2832
14.202668005486178 68.3417
14.22513957064374 79.9221
14.247629214846473 85.9054
14.270101881097517 79.2744
14.29259262906496 65.1376
14.315083930490205 53.2553
14.337558255389705 46.5336
14.360050666019726 43.1382
14.382526101071944 41.8216
14.405019624534942 40.9464
14.427513705993134 40.3962
14.449990813291825 39.7783
14.47248601302899 39.3471
14.49496423954951 39.2769
14.517460561197822 39.2274
14.539939910570322 38.7803
14.562437357763558 38.6408
14.58493536931253 38.7931
14.607416409993311 38.7416
14.62991555254159 38.7927
14.652397725157423 39.13
14.674898002342799 39.4137
14.697398848433282 39.0738
14.719882725991326 39.7572
14.74238471217934 39.6638
14.764869730765593 39.9136
14.787372860692983 40.1316
14.809876564079925 40.7577
14.83236330125751 41.8075
14.854868153850365 42.5468
14.877356041159485 44.3113
14.899862046604186 46.4039
14.922351087688757 48.313
14.944858249632887 49.2747
14.967365991421232 50.3626
14.989856770231246 51.25
15.012365673994204 53.0248
15.03485761569738 57.0205
15.05736768508665 63.0127
15.07987833888692 72.1573
15.102372032001655 86.9606
15.124883856909658 104.865
15.14737872204565 121.51899999999999
15.169891721717274 126.65100000000001
15.192405310371893 119.27600000000001
15.214901940621196 101.973
15.237416709527137 83.0267
15.259914520936249 68.8464
15.282430473753607 59.001999999999995
15.304947020131227 52.4313
15.327446610371178 48.1997
15.349964346154254 45.4465
15.372465126703139 43.8316
15.394984055556009 42.4885
15.417486030076159 41.7477
15.44000615566487 40.9574
15.462526881230803 40.4853
15.485030653812652 39.9569
15.507552581617434 39.6839
15.530057557334603 39.3391
15.55258069104857 39.1988
15.575104429329837 39.2441
15.597611216864632 39.0173
15.620136166564563 39.007
15.6426441664095 38.719
15.665170331202765 38.7295
15.687697105158826 38.9101
15.710206930593545 39.6637
15.732734925158933 40.1329
15.755245972089478 40.7863
15.77777519094324 42.3189
15.800287463046663 43.8555
15.822817909869592 45.4132
15.84534897229804 46.5647
15.867863089299354 47.7977
15.890395385222186 48.4196
15.912910736597423 49.2846
15.935444269699861 51.5909
15.957978423016485 56.0415
15.980495633101265 61.4878
16.003031029129367 70.9514
16.02554948280019 85.0625
16.048086125229432 102.08200000000001
16.070623392487107 117.53299999999999
16.09314371869582 123.963
16.11568223789321 119.65100000000001
16.13820381691126 106.78399999999999
16.160743591742527 91.4768
16.183283996022084 77.2982
16.205807461423195 64.4372
16.228349126881973 54.3128
16.25087385432698 48.038000000000004
16.27341678466365 43.7177
16.29594277784926 41.2128
16.31848697676433 39.5947
16.341031811604868 38.0942
16.36355971058487 37.1242
16.3861058195587 36.4661
16.40863499352978 35.9663
16.431182380342005 35.4024
16.453730407713202 34.9543
16.476261501364792 34.6017
16.498810812136167 34.1902
16.52134319004079 34.1985
16.54389378792203 33.796
16.566445031001553 33.4355
16.588979342490088 33.1506
16.61153187824822 33.095
16.634067483263312 32.7896
16.656621315414416 32.6448
16.679175797408888 32.3226
16.701713349928728 32.2765
16.72426913389191 32.4292
16.74680798922351 32.4305
16.76936507887444 32.3664
16.791905240734874 32.2071
16.814463639794468 32.3322
16.837022695210294 32.3498
16.859564824093756 32.3371
16.882125194503903 32.4099
16.904668639217885 32.7362
16.927230328348003 32.8733
16.949792678493612 33.7886
16.972338104193863 35.2528
16.994901778652235 37.1103
17.017448529496576 39.0267
17.040013531998152 40.2064
17.06257920018044 39.5289
17.0851279459922 37.9948
17.107694947817667 35.9547
17.130245028099072 34.6139
17.15281336730298 34.1744
17.17536478578733 33.7797
17.19793446610687 33.8866
17.220504818648422 34.0212
17.243058251703697 34.2518
17.265629950971032 34.559
17.288184731571736 34.7666
17.310757781306908 35.1773
17.33333150794385 35.01
17.355888317140174 35.5008
17.37846339986244 36.3784
17.401021565958885 37.269
17.42359800851343 38.9503
17.44617513265564 41.4532
17.468735341390783 44.8645
17.491261035594565 48.4459
17.51396340099364 50.9001
17.536490463869136 51.3358
17.559018209820174 49.1999
17.58154663977963 45.6313
17.604251766089718 41.8733
17.626781572227713 39.2795
17.64931206518155 37.4484
17.671843245885103 36.5736
17.69455114821572 35.8008
17.717083712612634 35.6379
17.739616967569667 35.5941
17.762150914021706 35.7943
17.78486160749854 36.2766
17.807396945166804 37.5219
17.829932977143503 39.1676
17.85246970436452 40.8411
17.875183204129467 41.9107
17.897721330097664 42.0995
17.920260154126645 41.3012
17.942799677153296 40.1122
17.9655159983646 39.3879
17.988056927677544 39.7664
18.010598558807683 40.7236
18.033140892692916 41.8399
18.05586005052525 42.3014
18.07840379824407 42.7421
18.10094825154059 43.0733
18.12366954819864 43.5049
18.146215420998306 44.5163
18.16876200220057 46.2728
18.191309292745153 49.0674
18.214033452627167 53.3765
18.236582170236648 59.3005
18.259131600016456 68.5369
18.281681742907335 80.3716
18.304408781233683 92.3815
18.32696035875955 99.1346
18.349512652227624 97.87799999999999
18.372065662579683 89.9403
18.394795594587553 77.8092
18.41735004715306 67.208
18.43990521943684 60.2334
18.46246111238171 56.6257
18.485193953325208 55.5292
18.507751296070428 57.0686
18.530309362314178 61.2223
18.552868153000343 66.4271
18.57560391815056 71.0116
18.59816416623245 73.5393
18.620725141597372 71.7377
18.643286845190268 66.2994
18.666025549835414 59.9938
18.688588718427933 53.64
18.711152618092243 48.8698
18.73389353884365 44.4482
18.75645890921984 41.2835
18.77902501351406 39.2761
18.801591852673102 38.0311
18.824335739722738 36.8657
18.846904057212626 36.3993
18.8694731124168 35.7653
18.89204290628315 35.485
18.914789774966803 35.0727
18.937361054791623 34.7155
18.959933076131318 34.4841
18.982505839934877 34.3949
19.00525570560582 34.2815
19.027829963004184 34.0468
19.05040496572238 33.9177
19.072980714710468 34.0338
19.095733592739563 33.8224
19.11831084296757 33.8077
19.140888842324735 33.6872
19.16346759176222 33.77
19.18622349753803 33.8217
19.208803755869358 34.0737
19.231384767143577 34.4051
19.253966532312948 34.8713
19.276725481241822 35.2018
19.29930876296784 35.6039
19.3218928014549 36.0353
19.34465404436217 36.8503
19.36723960516257 38.4693
19.389825925592426 40.8319
19.412413006605938 43.6104
19.43517731967805 45.8062
19.457765930683355 47.1576
19.48035530514408 46.933
19.50294544401556 45.7096
19.525712842708348 45.3582
19.54830451925909 46.1286
19.570896963095727 47.18
19.593490175174704 48.3688
19.616260674962184 48.5036
19.638855432416964 46.8418
19.661450960992624 44.335
19.68404726164677 41.177
19.706820878021247 38.2501
19.729418731756834 36.7701
19.752017360452857 35.371
19.77461676506804 34.5164
19.797393513540218 33.7151
19.819994478951667 33.0624
19.84259622316767 32.929
19.8651987471481 32.6421
19.887978643247177 32.4008
19.91058273574792 32.2729
19.933187610901943 32.2336
19.955969879466828 32.4399
19.97857632894404 32.5813
20.00118356396599 32.6895
20.023791585494575 32.6699
20.046577028914875 32.9263
20.069186632506966 32.8468
20.091797025500632 32.9378
20.114408208858933 32.9595
20.137196842715273 33.3979
20.159809615886765 33.8883
20.18242318232135 34.3422
20.20503754298326 35.3035
20.227829382875154 36.685
20.250445341109344 38.6262
20.27306209647285 40.8998
20.29567964993108 43.7034
20.31847471147704 45.6544
20.34109387027612 46.2947
20.363713830075454 45.6717
20.386334591841646 44.063
20.409132890679302 41.7958
20.431755265564437 39.8724
20.454378445325528 38.9163
20.477002430930366 38.9496
20.499803982716553 39.8222
20.522429589228004 41.4257
20.54505600449589 43.1194
20.567683229489194 44.1236
20.590488049900088 43.8294
20.61311690359731 42.2402
20.63574656993626 39.9776
20.658553853717297 37.1069
20.681185154618298 35.1362
20.703817271080066 33.637
20.72645020407368 32.4735
20.749260783967177 32.0565
20.771895359337133 31.5964
20.794530754161617 31.4199
20.817166969412938 31.6623
20.83998086114876 32.2865
20.86261872660049 32.9057
20.885257415405402 33.4455
20.90789692853701 33.7734
20.930714147864748 33.5149
20.953355319030678 32.5036
20.97599731745334 31.5086
20.99864014410749 30.5394
21.021460706796564 29.8935
21.044105199328826 29.6144
21.06675052302631 29.4051
21.089396678865015 29.1778
21.112220600704806 29.1675
21.134868430275347 29.3426
21.15751709492456 29.2478
21.180166595629693 29.1098
21.202993892429635 29.1082
21.22564507473034 29.0142
21.24829709602816 28.9637
21.27112693608965 29.0079
21.293780644891275 29.2366
21.316435195634053 29.1066
21.339090589297417 29.2276
21.361923832041875 29.5083
21.384580921090404 29.7384
21.407238856007325 30.0648
21.429897637773326 30.6442
21.45273429906592 31.3573
21.475394784108598 31.9985
21.498056118951983 32.3992
21.520718304578022 32.686
21.543558400304388 32.2715
21.566222297108816 31.9308
21.58888704765135 31.3984
21.61155265291521 30.9376
21.63439619898156 30.5283
21.657063523335786 30.1234
21.67973170537063 29.9563
21.7024007460706 29.8461
21.72524775840385 29.8756
21.747918526116475 30.0656
21.770590155457388 30.2107
21.79326264741238 30.3626
21.816113141960237 30.6283
21.838787368860547 30.8574
21.861462461341976 31.0296
21.884315579735777 31.1514
21.90699241312273 31.2178
21.92967011506078 31.4916
21.95234868653799 31.8379
21.9752053151131 32.5977
21.997885635446785 33.1632
22.020566828293532 34.4499
22.04324889464272 35.5021
22.066109049404666 36.8935
22.088792872571794 39.0247
22.111477572219204 41.7285
22.1341631493376 44.2395
22.157026846313123 46.3056
22.179714188221507 47.2018
22.202402410582668 46.7992
22.22509151438863 45.3797
22.24795876962584 43.5149
22.270649646204486 41.9937
22.293341407213727 40.8277
22.316034053646906 39.8948
22.338904883215342 39.45
22.36159931041458 39.2154
22.38429462602756 38.9977
22.40699083104897 38.1798
22.429865251039757 37.0619
22.452563244831367 35.7263
22.47526213102522 34.4285
22.49813925616515 33.2877
22.520839937143307 32.2879
22.543541513520587 31.8144
22.56624398629403 31.1775
22.589124730075895 30.8553
22.611829005656723 30.6735
22.63453418063466 30.3865
22.657240256008077 30.2719
22.680124634582935 30.131999999999998
22.70283252079775 30.0243
22.725541310413075 30.0101
22.74825100442868 30.0161
22.771139033969575 30.1654
22.79385054687155 30.1366
22.81656296718292 30.4528
22.83927629590484 30.7577
22.862167992606945 31.31
22.88488314827121 31.7127
22.907599215359284 32.0896
22.93031619487366 32.0735
22.953211574954405 32.0681
22.975930389478226 31.7247
22.998650119445763 31.56
23.02137076586092 31.429000000000002
23.044269845560063 31.5586
23.06699233506288 31.8891
23.089715744034912 32.4434
23.112617610931565 33.1549
23.135342869061212 33.9994
23.158069049684816 35.6521
23.1807961538087 37.5404
23.20370174880544 39.4436
23.226430710184808 41.187
23.249160598093425 41.8401
23.271891413539002 40.9541
23.294800752937697 39.5184
23.31753343374794 37.2854
23.340267045128353 35.412
23.36300158808808 34.1004
23.38591468821339 33.0236
23.408651104658304 32.3612
23.431388455719986 32.2048
23.454126742409 32.1428
23.4770436196085 32.4789
23.499783787914662 33.1443
23.522524894889884 33.5864
23.54526694154616 33.8655
23.56818761219047 34.065
23.59093154860734 33.8367
23.613676427751283 33.3363
23.636422250635754 32.9537
23.659346731118656 32.4616
23.68209445191868 32.6504
23.704843119509587 32.9712
23.72759273490623 33.5006
23.750521041644767 34.6369
23.77327256312355 35.9708
23.796025035462787 37.8544
23.818956224555475 39.9896
23.841710609113413 42.0682
23.86446594758979 42.8271
23.887222241002014 42.5481
23.910157285144578 40.7742
23.932915498962537 38.6302
23.955674670778713 36.0598
23.978434801611975 33.8649
24.001373717286125 32.232
24.024135776723917 31.2763
24.046898798245582 30.3905
24.06966278287146 29.8806
24.092605586582614 29.4044
24.115371508023642 29.250999999999998
24.1381383956401 29.1998
24.16090625045381 29.0745
24.183852958731244 28.8331
24.206622758582608 28.732
24.229393528706886 28.4055
24.252165270127392 28.2617
24.27511589952438 27.9227
24.297889594216997 27.6447
24.32066426328598 27.4778
24.34343990775613 27.2333
24.36639447485003 27.1758
24.38917208083877 27.149
24.41195066531332 26.9559
24.43490819850244 26.8869
24.457688750692377 26.7429
24.48047028445616 26.7719
24.503252800821233 26.9412
24.526214300784112 26.8303
24.548998793132213 26.642
24.57178427117417 26.6623
24.59457073593893 26.6116
24.617536219319863 26.6186
24.64032466834748 26.5603
24.663114107195035 26.7634
24.685904536893013 26.8358
24.708874020360852 27.1153
24.731666442613744 27.3834
24.754459858818787 27.8103
24.777254270007962 27.9765
24.80022777025625 27.923000000000002
24.82302418230472 27.8755
24.845821592443674 27.6745
24.86862000170663 27.5068
24.891597535453727 26.9864
24.914397953892728 27.0097
24.93719937456671 26.8169
24.96000179851076 26.683000000000003
24.98298338249997 26.5108
25.00578782394922 26.5036
25.028593271784167 26.389
25.05157790644186 26.344
25.07438537804115 26.3665
25.097193859145293 26.3346
25.120003350792075 26.2446
25.142992065061257 26.4082
25.165803588823465 26.3646
25.18861612625217 26.4751
25.211429678386736 26.5382
25.234422489079968 26.7315
25.257238081693636 26.8216
25.280054692141732 27.1204
25.3028723214652 27.305
25.325869245420463 27.4968
25.348688923599397 27.9066
25.371509623787006 28.5802
25.394331347025812 28.930999999999997
25.41733240110666 29.3575
25.440156181590016 29.593000000000004
25.46298098826268 29.7871
25.48580682216873 29.945
25.50881202326435 29.868000000000002
25.53163992281684 29.7238
25.55446885274561 29.9389
25.577298814096377 30.2601
25.600308179121807 30.8202
25.623140214533745 31.4125
25.64597328451537 31.5292
25.66898578564376 31.1368
25.691820936010206 30.6987
25.714657124097695 29.7379
25.737494350954734 28.7884
25.760511045684957 27.8733
25.783350361364224 27.1919
25.806190718969255 26.9211
25.82903211955018 26.7771
25.852053024868923 26.6347
25.874896522722523 26.6056
25.897741066713106 26.5784
25.920586657892454 26.6662
25.943611790812668 26.6856
25.966459487728237 26.8179
25.989308234998564 26.7216
26.01215803367705 26.5184
26.03518741123814 26.2882
26.05803932412957 26.072
26.080892291600094 25.7337
26.10374631470478 25.6009
26.12677995397268 25.6543
26.14963609978026 25.6605
26.172493304397875 25.7931
26.19535156888223 25.8358
26.218389486949604 25.8899
26.241249882640123 26.0334
26.26411134137826 26.201999999999998
26.28715248187403 26.6497
26.31001607820869 26.9255
26.3328807407756 27.1953
26.35574647063438 27.8265
26.37879191991473 28.1389
26.401659795896734 28.258000000000003
26.424528742360263 28.3956
26.447398760366614 28.0754
26.470448535598294 27.6309
26.49332070826805 27.4
26.516193955675355 27.0503
26.53906827888316 26.6824
26.562122397260108 26.3597
26.584998883685063 26.2751
26.607876449110325 26.2192
26.63075509460056 26.0542
26.65381357334404 25.9874
26.67669439061878 25.8663
26.699576291163382 25.9439
26.722459276044212 26.0153
26.745522132402975 26.1394
26.768407297649354 26.3316
26.791293550442003 26.4238
26.814180891848974 26.6342
26.837248143099337 26.9182
26.860137673466657 27.4829
26.88302829566349 28.0581
26.90592001075963 28.7653
26.92899167420566 29.4862
26.951885586870763 29.8154
26.974780595655517 29.9999
26.99785558178161 30.0493
27.020752794605112 29.7597
27.043651106772522 29.3718
27.06655051935668 29.2671
27.089629948036183 29.0419
27.112531573292053 28.7588
27.135434302194138 28.3798
27.158338135817015 27.7854
27.181422024430987 27.3702
27.204328079372566 26.8193
27.22723524226965 26.3268
27.250143514198573 26.07
27.273231880156334 25.7669
27.296142382065014 25.4438
27.319053996245536 25.2666
27.341966723775965 25.1111
27.365059584515222 25.1158
27.38797455070062 24.9819
27.410890633481237 24.836
27.433807833936918 24.6509
27.456905206923906 24.7661
27.47982465472398 24.6625
27.502745223449743 24.6832
27.525666914182825 24.6673
27.548768816912457 24.6252
27.571692763693633 24.6873
27.59461783573812 24.5884
27.617723149491244 24.7352
27.640650484125285 24.8353
27.66357894728264 24.8616
27.686508540048052 24.8245
27.709618414237887 24.8523
27.732550278321757 24.8335
27.755483275279115 24.8934
27.778417406196485 25.0973
27.801531858397514 25.2744
27.824468269376716 25.3619
27.847405817586786 25.5184
27.870344504116094 25.5567
27.893463551932008 25.4664
27.916404527281053 25.4779
27.93934664422563 25.1959
27.962289903855886 24.9775
27.98541356491974 24.9384
28.00835912214229 24.8728
28.03130582533231 24.8151
28.054253675581805 24.9624
28.077381967556104 25.0028
28.100332124185126 25.1823
28.123283431160893 25.4221
28.146235889577238 25.4382
28.169368830154156 25.6832
28.192323603752033 25.7287
28.215279532083304 25.7657
28.238415973016764 25.6942
28.261374223145094 25.8516
28.284333631303806 26.093000000000004
28.307294198589954 26.5313
28.330435319167677 27.1306
28.353398217078915 27.5462
28.376362277420153 27.7545
28.39932750129032 27.8352
28.422473319286713 27.6357
28.44544088262495 27.5074
28.468409612800283 27.2826
28.491379510913497 26.7942
28.51453004413313 26.585
28.53750229057244 26.4186
28.56047570826344 26.2152
28.583450298308804 26.0935
28.606605564586562 25.8354
28.629582511831156 25.485
28.65256063474956 25.1504
28.675539934446338 24.8551
28.698699951647605 24.5975
28.72168161743193 24.323
28.74466446331978 24.0718
28.767648490417624 23.8282
28.790813276438353 23.5746
28.813799678527303 23.4023
28.836787265157085 23.1623
28.859955641890075 23.1037
28.882945610203045 23.0657
28.905936766392035 22.9969
28.928929111566863 23.0057
28.952102288520145 22.8984
28.975097024308607 22.8549
28.998092952423807 22.8824
29.021090073977508 22.7434
29.04426806913204 22.7647
29.067267590245258 22.7814
29.090268308143695 22.7606
29.11327022394099 22.8533
29.13645305530891 22.9066
29.159457379627167 23.0004
29.18246290519685 23.0599
29.20546963313352 23.2231
29.22865731875826 23.3748
29.25166646419296 23.3051
29.27467681535305 23.1087
29.29768837335608 23.0441
29.320880931312562 22.9035
29.34389491580634 22.6779
29.366910110507334 22.4452
29.38992651653503 22.4076
29.41312396492981 22.2959
29.436142806456754 22.2429
29.45916286268059 22.0331
29.48236399319994 21.9713
29.50538649169417 22.0453
29.528410208259935 22.0594
29.55143514402014 22.0395
29.574641196749695 22.1348
29.597668583816574 22.1047
29.6206971934585 22.1287
29.64372702680042 22.3327
29.666938019934474 22.3992
29.689970313635285 22.5009
29.713003834422636 22.6388
29.73603858342347 22.6318
29.759254535188578 22.6362
29.78229175361658 22.4685
29.80533020365064 22.4263
29.82836988641968 22.2624
29.85159081507472 22.0579
29.874632976355343 21.9004
29.89767637376955 21.7367
29.920721008448314 21.5485
29.9439469322847 21.5072
29.96699405457564 21.338
29.9900424175358 21.4391
30.013092022298157 21.3088
30.03632295963995 21.2547
30.059375061131373 21.2288
30.08242840783577 21.2134
30.105483000888153 21.2372
30.128718970092244 21.291999999999998
30.151776069006917 21.296
30.17483441768648 21.3863
30.198074175317235 21.4903
30.221135036724256 21.524
30.24419715131772 21.42
30.267260520236203 21.3675
30.290505341942243 21.2626
30.313571232750228 21.2469
30.336638381310948 21.1606
30.35970678876503 21.1107
30.38295669299435 21.1396
30.40602763151657 21.0953
30.429099832366074 21.1047
30.452173296685572 21.1745
30.47542830191959 21.1868
30.498504306502497 21.1971
30.521581577995562 21.4017
30.544660117543582 21.4879
30.56792024229725 21.4762
30.59100133132069 21.4757
30.614083691845494 21.4642
30.637167325018545 21.3546
30.660432587840603 21.2602
30.683518779717886 21.1666
30.70660624769615 21.1503
30.729694992924372 21.0306
30.75296541239743 21.0378
30.77605672557558 20.9883
30.799149319462742 21.008000000000003
30.8224236211637 20.9697
30.845518789950724 21.0466
30.868615242910597 21.1792
30.891712981195973 21.1012
30.91499247215866 21.2061
30.938092794619365 21.3402
30.96119440587579 21.5656
30.984297307082752 21.8339
31.00758200598383 21.9933
31.030687500658694 22.2048
31.053794288760695 22.3666
31.076902371446767 22.3699
31.100192296997445 22.4523
31.12330298246119 22.3224
31.14641496599209 22.0835
31.169528248749216 22.0714
31.19282341969534 22.0069
31.215939314557186 21.9041
31.239056512134788 21.7773
31.262175013589378 21.5452
31.28547544871168 21.3751
31.30859657161541 21.1686
31.331719001892175 20.9826
31.35484274070538 20.9441
31.378148458819545 20.8884
31.401274828443725 20.6898
31.424402510106933 20.6278
31.447712205419993 20.6008
31.470842524931633 20.5135
31.493974159989783 20.479
31.51710711176168 20.5198
31.54042212308802 20.489
31.563557722100917 20.5554
31.586694641341655 20.4391
31.609832881979628 20.5375
31.63315322823208 20.5703
31.656294125521327 20.608
31.679436347728515 20.6603
31.70257989602529 20.7142
31.725905596152327 20.7765
31.74905181052835 20.7672
31.772199354521323 20.9659
31.79534822930507 21.0406
31.818679302290967 21.2184
31.84183085259981 21.2202
31.864983737233473 21.2453
31.88813795736804 21.168000000000003
31.911474422233013 20.9195
31.934631327356435 20.8598
31.9577895715215 20.6692
31.980949155906522 20.5363
32.004291031706956 20.4836
32.027453310562606 20.3223
32.05061693318573 20.1513
32.07396288236386 20.2292
32.09712920658542 20.3006
32.12029687812702 20.2644
32.14346589817093 20.2886
32.166817291729984 20.3777
32.18998902288583 20.3751
32.21316210610336 20.3381
32.23633654256711 20.4156
32.259693399663725 20.5417
32.282870556771144 20.5754
32.30604907069099 20.6923
32.329228942610065 20.6878
32.35259128243769 20.6345
32.375773884550505 20.5454
32.398957848235646 20.4643
32.422143174682176 20.3664
32.445511016471215 20.26
32.468699082679954 20.0603
32.49188851523011 20.0421
32.51507931531304 19.8545
32.538452678331 19.7415
32.56164622776311 19.6115
32.58484114831493 19.5776
32.60803744118015 19.492
32.631416344731896 19.3598
32.654615396551876 19.3909
32.67781582427913 19.2148
32.701198898634416 19.1753
32.72440209253756 19.1663
32.747606665947124 19.014
32.77081262006088 18.9828
32.79420126883317 18.9276
32.81740999876112 18.8946
32.840620112999424 18.8418
32.86383161274818 18.7765
32.88722585534586 18.7834
32.91044014056596 18.8646
32.933655814909734 18.8452
32.95687287957963 18.8837
32.98027273544904 18.8324
33.00349259526636 18.8059
33.026713849030116 18.8346
33.04993649794511 18.8986
33.073341986570746 18.8378
33.09656744032826 18.7964
33.11979429286444 18.8259
33.14302254538647 18.789
33.166433686291185 18.7202
33.18966475336992 18.6718
33.212897224069096 18.5599
33.23613109959831 18.5216
33.259547912343415 18.4917
33.2827846121627 18.5016
33.306022720453775 18.5263
33.32926223842861 18.4316
33.352684742614166 18.4804
33.37592709463173 18.495
33.399170859982064 18.5538
33.422597648419426 18.6071
33.44584425514446 18.5971
33.46909227885668 18.6921
33.4923417207723 18.6993
33.51577423505344 18.7943
33.539026528130385 18.7636
33.56228024307245 18.8467
33.585535381098246 18.8249
33.60897364093058 18.8121
33.63223163992385 18.8713
33.6554910656699 18.8296
33.678751919389796 18.7816
33.702195944520106 18.7475
33.72545966903325 18.7157
33.74872482519663 18.5852
33.771991414233746 18.4738
33.79544122444841 18.283
33.81871069412428 18.1089
33.84198160035767 18.0275
33.86525394437455 18.0039
33.88870955949969 17.8837
33.911984794020626 17.8458
33.93526147001624 17.8834
33.958539588715006 17.8726
33.98200102861669 17.7669
34.0052820477047 17.7436
34.02856451319451 17.6994
34.05203033759056 17.6223
34.07531571090147 17.6778
34.09860253431845 17.6207
34.121890809074316 17.5893
34.145362493118924 17.586
34.16865368561615 17.6065
34.191946333164054 17.5637
34.21524043699793 17.5783
34.23871800066799 17.6521
34.26201503218366 17.6335
34.28531352370466 17.599
34.30861347646881 17.5581
34.33209693978188 17.4872
34.3553998301885 17.4781
34.378704185565205 17.4424
34.402010007152356 17.2659
34.42549939016683 17.2491
34.44880815937748 17.2094
34.472118398533134 17.2416
34.49543010887669 17.1707
34.51892543169198 17.1502
34.54224009966052 17.039
34.56555624255917 16.9972
34.58887386163339 17.0533
34.61237514439016 16.9933
34.6356957311114 16.9899
34.65901779775809 17.1005
34.68252356662995 17.1019
34.705848608458616 17.0966
34.72917513396849 17.0417
34.75250314440949 17.1242
34.77601490857862 16.9531
34.799345904259795 16.919
34.82267838863559 16.8981
34.846012362958525 16.8598
34.869530142679984 16.8076
34.89286711232212 16.7543
34.91620557568269 16.7052
34.93954553401677 16.5933
34.9630693495876 16.570999999999998
34.986412313340814 16.5231
35.00975677584668 16.5364
35.033102738362956 16.4921
35.05663261012228 16.5183
35.0799815881786 16.5294
35.10333207003229 16.4549
35.12668405694369 16.4153
35.150220005273056 16.4158
35.17357501786656 16.3962
35.19693153931268 16.3463
35.220289570874385 16.2981
35.24383161619786 16.3831
35.267192683604904 16.3678
35.290555264930376 16.2577
35.314101899412165 16.3154
35.33746752422433 16.3648
35.36083466676374 16.312
35.38420332829803 16.2906
35.407756095629054 16.2423
35.43112781085063 16.2186
35.45450104888391 16.249000000000002
35.477875810999194 16.2914
35.50143473172161 16.2507
35.52481255774625 16.2933
35.54819191167777 16.1908
35.57157279478914 16.183
35.595137889488406 16.1986
35.61852184675279 16.2163
35.641907337029984 16.2578
35.665294361595684 16.2924
35.68886565090076 16.3138
35.7122557598848 16.2866
35.73564740699838 16.4325
35.759040593519934 16.4146
35.78261809810353 16.4769
35.80601437933051 16.5039
35.829412203814705 16.5309
35.85281157283719 16.4821
35.876395313415884 16.5537
35.8997977874528 16.4852
35.92320180988546 16.4128
35.946790244133936 16.4338
35.97019737933222 16.2868
35.993606066789866 16.2864
36.01701630779276 16.2183
36.04061101440684 16.1413
36.06402437852291 16.0973
36.08743930005611 15.9778
36.1108557802951 15.964
36.13445678011326 15.9279
36.15787639383515 15.8359
36.18129757014299 15.7706
36.20472031032821 15.687999999999999
36.22832762423364 15.6799
36.25175350829375 15.6482
36.275180960119776 15.6063
36.298609981005924 15.597000000000001
36.32222362992669 15.6586
36.34565580510207 15.6175
36.36908955323448 15.5503
36.39252487562093 15.4951
36.416144880530226 15.5232
36.43958336764275 15.5511
36.463023432914625 15.4914
36.486465077645676 15.4951
36.51009145956204 15.626
36.53353627947859 15.5695
36.55698268276811 15.562999999999999
36.58043067073321 15.5818
36.60406345072071 15.4827
36.62751462435344 15.4878
36.65096738658405 15.4194
36.67460498210655 15.3519
36.69806093788647 15.3469
36.72151848619297 15.2867
36.744977628333636 15.2594
36.76862165890998 15.238
36.79208400512205 15.2298
36.81554794910557 15.251
36.83901349217101 15.1617
36.862663978991606 15.1974
36.88613273667352 15.1458
36.90960309738324 15.1382
36.933075062434064 15.1955
36.95673202673572 15.2127
36.98020721697122 15.1487
37.003684015502365 15.1539
37.027162423645365 15.1842
37.050825886711465 15.1037
37.07430753063053 15.0369
37.09779078812467 15.0062
37.121275660513014 14.9964
37.144945643673694 14.9618
37.16843376245278 14.9402
37.19192350009803 14.927
37.215414857931435 14.8146
37.239091382563885 14.7597
37.262585997426164 14.7114
37.28608223645736 14.7221
37.309763684451696 14.7242
37.33326318851098 14.6555
37.356764320726555 14.6308
37.380267082425526 14.6314
37.40395510942588 14.557
37.42746114683234 14.5396
37.45096881771841 14.5307
37.474478123414166 14.5222
37.49817275092816 14.4742
37.52168534303452 14.4799
37.54519957395567 14.4189
37.568715445024665 14.4326
37.592416694607714 14.3806
37.61593586281424 14.4189
37.63945667518264 14.4278
37.66297913304891 14.335999999999999
37.68668702630454 14.3454
37.710212792059274 14.2561
37.733740207334854 14.239
37.757269273470364 14.2358
37.780983832050374 14.199000000000002
37.80451621684926 14.2042
37.82805025654007 14.1542
37.851585952464795 14.1232
37.8753071980695 14.0942
37.89884622345676 14.0534
37.92238690911902 14.0402
37.94611318753442 14.0247
37.969657210779765 14.0773
37.99320289834801 14.082
38.016750251586465 14.1084
38.04048325513017 14.0375
38.06403395679343 13.9916
38.087586328183946 13.9912
38.11114037065203 13.972000000000001
38.13488012115898 13.9938
38.1584375229181 13.8747
38.181996599821 13.8882
38.205557353221124 13.9329
38.229303872575656 13.9052
38.2528679961576 13.7912
38.27643380031219 13.7515
38.30000128639589 13.7106
38.32375459653193 13.682
38.34732546371299 13.7205
38.37089801690786 13.6516
38.39447225747609 13.6185
38.418232380377425 13.5725
38.441810012983396 13.5571
38.46538933705673 13.5801
38.488970353960084 13.5221
38.51273731166058 13.5691
38.536321731567014 13.5033
38.55990784840681 13.5077
38.58367995004091 13.4956
38.60726947812959 13.4666
38.63086070726198 13.4485
38.654453638806274 13.4259
38.678232613930824 13.4409
38.70182896773327 13.4232
38.72542702806741 13.4634
38.7490267963045 13.4207
38.77281266709232 13.4419
38.79641586862214 13.3883
38.8200207821842 13.3032
38.843627409152944 13.3007
38.86742019782782 13.2893
38.891030269149255 13.2399
38.914642058016156 13.2483
38.938255565806124 13.1983
38.96205529464307 13.1606
38.98567225787121 13.1961
39.00929094417078 13.1383
39.03291135492255 13.1157
39.05671804624804 13.0944
39.080341923549106 13.0915
39.103967529460334 13.1346
39.127594865365744 13.1203
39.15140854155791 13.0628
39.17503935514948 13.0869
39.19867190290282 13.0043
39.22249083587951 13.0072
39.24612686969409 13.0496
39.269764641845306 12.9933
39.293404153722804 12.952
39.317230110864074 12.8719
39.34087311998506 12.856
39.36451787301696 12.7979
39.388164371352595 12.777000000000001
39.41199737518003 12.7534
39.43564738196752 12.7248
39.45929913825317 12.7629
39.48295264543308 12.7326
39.506792718520884 12.7132
39.530449745387216 12.6869
39.55410852735203 12.6213
39.57776906581474 12.6255
39.60161623079 12.5966
39.625280300200025 12.6354
39.64894613032202 12.6126
39.67261372255866 12.5959
39.6964680021016 12.5962
39.72013913657293 12.5555
39.74381203738292 12.5173
39.76748670593756 12.4887
39.79134812278169 12.5012
39.81502634488497 12.4735
39.83870633896685 12.4774
39.862388106436654 12.388
39.88625668336918 12.4043
39.90994201572829 12.4441
39.933629125719285 12.3876
39.957503091207826 12.3286
39.9811937746168 12.3941
40.00488623990914 12.3543
40.02858048850006 12.2793
40.05246165409549 12.3284
40.076159487492085 12.2531
40.099859108448875 12.2992
40.123560518384345 12.345999999999998
40.1474489070226 12.3265
40.171153913178564 12.2377
40.194860712584955 12.2179
40.2185693066637 12.2495
40.242464941335314 12.1674
40.26617714307655 12.217
40.289891143772046 12.2035
40.3136069448471 12.2004
40.33750984859743 12.2046
40.3612292688043 12.1269
40.3849504936829 12.0972
40.40867352466194 12.1172
40.43258372059144 12.1262
40.45631038219906 12.0692
40.48003885420956 11.9888
40.503769138055105 11.9566
40.52768664931955 11.9572
40.55142057531802 11.9198
40.57515631746428 11.9188
40.599079334038514 11.927
40.62281872700477 11.8751
40.64655994043941 11.8329
40.67030297578061 11.8649
40.69423334835778 11.8608
40.71798004609188 11.8429
40.74172857006355 11.8282
40.76547892171441 11.7952
40.7894166736039 11.7614
40.813170699248566 11.7712
40.83692655691388 11.7779
40.86068424804498 11.7811
40.884629402612525 11.7773
40.908390779366385 11.7659
40.932153993938 11.7056
40.95591904777605 11.6529
40.979871628443995 11.658
41.003640379561936 11.6524
41.02741097430883 11.6375
41.05118341413683 11.5839
41.075143444384416 11.5689
41.098919593177826 11.6109
41.1226975914255 11.6534
41.14647744058318 11.5837
41.170444943946755 11.6005
41.19422851378379 11.5311
41.218013938914645 11.5232
41.24198706625173 11.5038
41.26577622087193 11.4662
41.289567235177785 11.4604
41.31336011063129 11.4471
41.337340752422875 11.4385
41.361137369129835 11.4155
41.38493585138705 11.3831
41.40873620066004 11.3712
41.43272438060107 11.3424
41.45652848292052 11.259
41.48033445666918 11.218
41.50414230331616 11.2476
41.528138045159764 11.2163
41.551949656675205 11.2192
41.575763145513235 11.1805
41.59957851314666 11.1675
41.62358184070442 11.1331
41.64740098505737 11.1152
41.6712220126409 11.1
41.69504492493139 11.13
41.71905586207357 11.0836
41.74288256296395 11.1228
41.766711153007456 11.0347
41.79054163368412 11.0091
41.814560204340054 11.0488
41.838394485526365 11.001
41.86223066180303 10.9457
41.88625497706819 10.9851
41.910094962812 10.969000000000001
41.93393684811168 10.9487
41.95778063445365 10.8793
41.981812625263366 10.9311
42.00566023303407 10.8853
42.029509746323676 10.9051
42.05336116662236 10.8841
42.077400857069705 10.9119
42.10125611078846 10.8443
42.12511327600405 10.8162
42.14897235421036 10.7805
42.173019768448455 10.7959
42.19688269209613 10.8208
42.22074753323349 10.8101
42.24461429335818 10.7369
42.268669455600495 10.7415
42.292540073217886 10.7181
42.31641261433284 10.6614
42.34028708044675 10.6581
42.36435001496739 10.6421
42.38822835065557 10.6514
42.41210861586426 10.6336
42.4359908120986 10.5957
42.46006154323262 10.5528
42.48394762115317 10.5041
42.507835634632315 10.539000000000001
42.531912233047436 10.5198
42.55580413732265 10.4927
42.579697981698 10.4974
42.60359376768525 10.4577
42.62767820545945 10.4329
42.65157789440821 10.3944
42.67547952952185 10.3766
42.699383112316 10.3957
42.72347541395347 10.3203
42.74738291190531 10.3758
42.771292362102166 10.3523
42.795203766063516 10.3307
42.819303956130405 10.3125
42.843219287476536 10.296
42.86713657716324 10.2795
42.89105582671383 10.229
42.91516392983864 10.224
42.939087119032166 10.1657
42.963012272677304 10.1753
42.98693939230129 10.1767
43.01105543317513 10.099
43.034986504731386 10.1277
43.05891954686589 10.1191
43.08285456110972 10.1074
43.10697856448665 10.0602
43.130917542983475 10.0364
43.15485849820081 10.0002
43.17880143167367 9.98683
43.20293342237094 10.0027
43.226880332449 10.0118
43.25082922540554 9.989989999999999
43.27496722682525 9.97766
43.29892010567796 9.97873
43.32287497204102 9.90414
43.34683182745632 9.887360000000001
43.370977859791836 9.890360000000001
43.39493871351105 9.850010000000001
43.41890156092628 9.85741
43.44286640358341 9.850719999999999
43.46702049182749 9.82322
43.49098934522816 9.79405
43.51496019852649 9.77319
43.5389330532723 9.77062
43.56309522248204 9.76182
43.58707210044314 9.740689999999999
43.61105098451946 9.69518
43.63503187626491 9.671380000000001
43.659202151562134 9.637830000000001
43.68318707902681 9.67118
43.70717401884041 9.698960000000001
43.731162972560874 9.64674
43.75534137913236 9.62032
43.779334381108384 9.59886
43.803329401683186 9.581439999999999
43.82732644241872 9.62911
43.8515130055166 9.5951
43.87551410707659 9.53994
43.89951723350145 9.5756
43.923709934595614 9.49472
43.94771713129917 9.50442
43.97172635758096 9.49902
43.99573761501002 9.43815
44.0199385169922 9.41452
44.04395385732619 9.451080000000001
44.067971233533086 9.44919
44.09199064718605 9.508469999999999
44.11619977548961 9.41051
44.14022328470671 9.38707
44.16424883610785 9.394210000000001
44.18827643127035 9.36885
44.21249381139513 9.37275
44.236525514814076 9.31707
44.26055926674478 9.32018
44.28459506876863 9.32649
44.3088207262813 9.3323
44.33286064928722 9.310039999999999
44.35690262714919 9.2699
44.38094666145278 9.25226
44.4051806219871 9.201139999999999
44.42922879003185 9.22667
44.45327901929361 9.17864
44.477331311362136 9.18455
44.501573600619416 9.17277
44.525630039221795 9.137369999999999
44.54968854541895 9.150889999999999
44.573937102200176 9.11969
44.5979997645541 9.10502
44.622064499300315 9.10268
44.64613130803592 9.09477
44.67038823869318 9.0792
44.69445921643748 9.057310000000001
44.718532272981385 9.01483
44.742607409926194 9.00947
44.76687274034801 9.03544
44.79095205918753 8.952110000000001
44.81503346325094 8.952910000000001
44.839116954143876 8.95985
44.86339071028742 8.96222
44.88747839599524 8.942039999999999
44.91156817336837 8.93276
44.93566004401666 8.85639
44.959942251908146 8.86828
44.984038330325966 8.87684
45.00813650686762 8.87693
45.03223678314731 8.85293
45.05652746888232 8.840539999999999
45.08063196592069 8.79295
45.104738567558705 8.78283
45.128847275414856 8.7712
45.15314646515866 8.724160000000001
45.17725940679741 8.7267
45.20137445952892 8.753039999999999
45.22568004865265 8.7496
45.24979934496396 8.74315
45.27392075725247 8.68679
45.29804428714431 8.69777
45.322358426247604 8.68422
45.346486212804315 8.66189
45.370616121861914 8.65905
45.39474815505086 8.65478
45.41907087049246 8.54594
45.4432071734666 8.564110000000001
45.46734560548283 8.55963
45.49148616817604 8.58366
45.51581748638564 8.564039999999999
45.5399623320197 8.54861
45.56410931325473 8.5055
45.58825843173002 8.49269
45.61259837920865 8.48396
45.636751793816 8.48507
45.66090735060093 8.44895
45.68506505120716 8.40524
45.7094136545275 8.40833
45.73357566449271 8.41831
45.75773982322992 8.39424
45.78190613238733 8.396419999999999
45.806263418194064 8.34061
45.83043404997326 8.393180000000001
45.85460683713677 8.338
45.87897065658495 8.31293
45.90314777634752 8.3014
45.92732705646868 8.28655
45.9515084986045 8.27392
45.97588104735473 8.29457
46.00006683541565 8.252989999999999
46.02425479047904 8.27948
46.04844491420549 8.23912
46.0728262191024 8.20169
46.09702070211635 8.25273
46.12121735879483 8.2323
46.14541619080294 8.195910000000001
46.169806278764455 8.171660000000001
46.194009483459034 8.15772
46.21821486849841 8.172930000000001
46.24242243555223 8.13429
46.266821333570014 8.09491
46.29103328674601 8.08862
46.31524742696538 8.12237
46.33946375590237 8.09512
46.36387149104216 8.05376
46.38809221957392 8.000539999999999
46.41231514186606 8.03261
46.436540259597464 8.03882
46.460956858999374 7.983339999999999
46.48518638983522 7.9868
46.509418121166966 7.9706
46.533652054678114 7.94698
46.55807754555709 7.97007
46.58231590571962 7.93191
46.60655647313217 7.9211
46.630988654873654 7.88835
46.655233659129024 7.881819999999999
46.67948087571551 7.85762
46.70373030632484 7.8491800000000005
46.72817142736393 7.860810000000001
46.752425308428684 7.82662
46.77668140861147 7.839010000000001
46.80093972960865 7.8034300000000005
46.82538981736788 7.77221
46.849652602470904 7.765389999999999
46.87391761349769 7.75214
46.8981848521493 7.74305
46.9226439341274 7.72265
46.946915650573224 7.7022
46.97118959976749 7.72013
46.99546578341598 7.67863
47.019933887188216 7.64855
47.04421456235744 7.648739999999999
47.06849747711879 7.64722
47.09278263318286 7.64261
47.11725978640143 7.62613
47.14154944775105 7.58979
47.165841355555656 7.586710000000001
47.1901355115306 7.5792399999999995
47.214621741924994 7.56907
47.23892041698887 7.57547
47.26322134538975 7.4996
47.28771440635075 7.49797
47.31201986422527 7.51762
47.33632758061436 7.49112
47.360637557241866 7.4756100000000005
47.38513974410611 7.43451
47.40945426407847 7.4446699999999995
47.43377104948137 7.44561
47.45809010204344 7.43116
47.48260144275502 7.426080000000001
47.506925052572285 7.407039999999999
47.53125093475548 7.35887
47.55557909103813 7.3536
47.58009961361992 7.35756
47.60443234110732 7.31485
47.62876734791564 7.38952
47.65310463578333 7.32522
47.6776343683373 7.31445
47.7019762413987 7.30532
47.72632040075572 7.26722
47.75066684815169 7.2816399999999994
47.77520581885936 7.240819999999999
47.799556865477655 7.252489999999999
47.823910205386 7.230160000000001
47.84826584033272 7.204960000000001
47.87281407745551 7.1959100000000005
47.89717432569297 7.2087699999999995
47.92153687423484 7.22848
47.94609208429692 7.18849
47.97045925671401 7.18415
47.99482873471275 7.14805
48.01920052005013 7.14952
48.04376504619224 7.11044
48.068141469543484 7.149660000000001
48.09252020552573 7.105910000000001
48.11690125590099 7.047339999999999
48.1414751266064 7.0671100000000004
48.16586082917454 7.049810000000001
48.19024885144316 7.0101
48.2146391951793 7.030469999999999
48.239222439012764 7.00639
48.26361744916137 6.999739999999999
48.28801478610016 6.98435
48.31241445160131 7.02428
48.337007097209366 6.96617
48.36141144338331 6.970510000000001
48.38581812345755 6.93778
48.41022713920929 6.9476
48.434829215320704 6.8825899999999995
48.45924292604658 6.90603
48.48365897780325 6.90373
48.50807737237308 6.88662
48.532688907799276 6.91344
48.55711201168574 6.88265
48.581537463754074 6.84421
48.60615611725119 6.86458
48.63058628942721 6.82101
48.65501881516546 6.82787
48.6794536962573 6.821560000000001
48.70408185970339 6.82061
48.72852147531801 6.81119
48.75296345168211 6.7869
48.77740779059232 6.76882
48.80204549302823 6.76665
48.82649458091802 6.73358
48.85094603676547 6.71367
48.87539986237231 6.7274899999999995
48.90004713292306 6.71197
48.92450572200832 6.69725
48.94896668628025 6.687119999999999
48.97343002754588 6.653389999999999
48.99808689542115 6.65885
49.02255501470614 6.6772100000000005
49.04702551642794 6.645510000000001
49.0714984023988 6.59094
49.096164896893235 6.573160000000001
49.120642575466796 6.6051899999999995
49.145122643748394 6.596010000000001
49.16960510355558 6.54686
49.19428125404938 6.56145
49.2187685210852 6.5541
49.243258185121555 6.51284
49.26794160167084 6.52577
49.2924360839405 6.52568
49.31693296869764 6.48453
49.34143225776915 6.465269999999999
49.36612538195438 6.4619800000000005
49.39062950396021 6.45934
49.41513603578346 6.45717
49.4396449792564 6.46293
49.46434784069503 6.44371
49.488861631846454 6.4191199999999995
49.513377840166804 6.4046
49.537896467493745 6.38048
49.56260909589029 6.35899
49.587132585683285 6.35459
49.611658500018365 6.37004
49.636186840738596 6.34015
49.66090926588511 6.34806
49.685442483902584 6.34445
49.70997813385706 6.293159999999999
49.734516217597076 6.3105400000000005
49.75924846937352 6.30521
49.7837914452858 6.27321
49.80833686055187 6.28255
49.83288471702571 6.26284
49.85762682540054 6.24927
49.882179588965734 6.22938
49.9067347993235 6.222
49.93129245833333 6.20865
49.95604445336378 6.21521
49.98060703442832 6.2270900000000005
50.005172069746266 6.18752
50.02993150438364 6.14887
50.05450147301533 6.1537
50.07907390151433 6.15885
50.10364879174981 6.12969
50.12841816587289 6.13592
50.1529980044635 6.161919999999999
50.17758031042124 6.094609999999999
50.20216508562089 6.0916
50.22694442953363 6.07556
50.25153416817468 6.03955
50.27612638170508 6.03315
50.300721072005196 6.02878
50.325510416102105 6.02794
50.350110084975064 5.98853
50.37471223628208 6.00818
50.39931687190919 6.005
50.424116246675766 5.9855
50.44872587605249 5.96925
50.47333799543065 5.980569999999999
50.49795260670191 5.9911
50.52276204271512 5.931109999999999
50.54738166295838 5.930630000000001
50.57200378079314 5.92816
50.596628398116835 5.95084
50.62144792604559 5.93285
50.646077567609396 5.86796
50.670709714377715 5.8995
50.69553683636198 5.901330000000001
50.72017401885922 5.86709
50.7448137122895 5.85882
50.76945591856022 5.83974
50.79429318636823 5.85311
50.818940443716784 5.80375
50.84359021965163 5.817159999999999
50.868242516085964 5.80585
50.893089960641895 5.75686
50.917747323549435 5.78253
50.94240721271973 5.757680000000001
50.96706963007175 5.7666900000000005
50.99192728239342 5.73614
51.01659478166073 5.7346
51.04126481489051 5.72141
51.06593738400761 5.70034
51.090805275207074 5.72089
51.11548294172845 5.70619
51.14016314993547 5.67619
51.164845901758845 5.68319
51.18972406304274 5.69378
51.21441192780656 5.64149
51.23910234200271 5.64195
51.2637953075678 5.62919
51.288683770237945 5.6104400000000005
51.31338186432707 5.63866
51.33808251561888 5.5917
51.362978729967345 5.5798
51.387684521509755 5.55127
51.41239287610203 5.57204
51.437103795691165 5.56251
51.46201036644977 5.51927
51.486726441956634 5.53334
51.51144508832545 5.51077
51.536166307509156 5.49868
51.56108326624387 5.5064400000000004
51.58580965706056 5.475230000000001
51.61053862657523 5.47291
51.635270176746864 5.467630000000001
51.66019755512065 5.440259999999999
51.68493429268881 5.45351
51.70967361681515 5.45341
51.73441552946465 5.40469
51.759353359237934 5.40446
51.7841004750961 5.41046
51.80885018539685 5.41292
51.833602492111254 5.36756
51.8585508051424 5.34629
51.883308330926425 5.36489
51.90806845906181 5.330830000000001
51.932831191525715 5.32569
51.95779001977161 5.31418
51.98255798721516 5.321280000000001
52.00732856494335 5.2866599999999995
52.03229530577543 5.29209
52.057071130455945 5.28441
52.081849571391054 5.28965
52.106630630568695 5.27131
52.13160794279417 5.2480199999999995
52.15639426492067 5.26755
52.18118321127822 5.24495
52.205974783860896 5.21681
52.23096269971011 5.21774
52.255759551287994 5.1958400000000005
52.280559035098186 5.17229
52.30536115314103 5.17628
52.33035970494467 5.176819999999999
52.35516711807904 5.15226
52.37997717147198 5.1655
52.40478986713005 5.15259
52.42979908731974 5.1460099999999995
52.454617094216 5.1345
52.47943774942214 5.11071
52.50426105495102 5.11178
52.529280976059844 5.0808800000000005
52.554109609024096 5.06192
52.57894089837482 5.09054
52.60377484613117 5.0387699999999995
52.62880550079408 5.033980000000001
52.65364479223379 5.05271
52.67848674816189 5.03547
52.70352547971946 5.01806
52.72837279155837 5.01432
52.753222773982785 4.99554
52.778075429022984 4.99346
52.80312495150885 4.99925
52.827982978797436 4.97957
52.85284368481815 4.95293
52.87770707160767 4.93658
52.90276741793998 4.9539800000000005
52.92763619336701 4.93064
52.952507655698504 4.91988
52.977381806977576 4.9092400000000005
53.00245301017842 4.92155
53.02733256653592 4.91236
53.052214817996074 4.93358
53.077099766608484 4.91678
53.102181859804446 4.88425
53.127072229988265 4.8633
53.15196530349892 4.82702
53.17686108239249 4.8473
53.20195409881522 4.81915
53.22685531582556 4.7975900000000005
53.25175924441303 4.77473
53.27666588664027 4.777
53.30176985962693 4.78946
53.3266819565689 4.79335
53.35159677336455 4.73899
53.376514312083096 4.77079
53.40162927507703 4.78231
53.42655228516116 4.72686
53.45147802340193 4.7302800000000005
53.47660125628886 4.75405
53.50153247842639 4.74066
53.52646643496923 4.68527
53.55140312799818 4.70594
53.576537409691696 4.71316
53.60147960336152 4.67861
53.626424539786164 4.66169
53.65137222105307 4.61687
53.67651758529126 4.657769999999999
53.70147078399681 4.60309
53.72642673383343 4.57557
53.75138543689533 4.56471
53.776541917524526 4.61026
53.801506154876755 4.58545
53.826473151763246 4.59276
53.851442910284916 4.55748
53.87661054126026 4.54379
53.9015858509782 4.55019
53.92656392866066 4.54741
53.95154477641532 4.54991
53.976723591801296 4.48897
54.00171000771266 4.494219999999999
54.02669920004598 4.48979
54.051691170915745 4.45303
54.076881204886796 4.44347
54.101878760928514 4.44917
54.12687910187696 4.455080000000001
54.152077577768296 4.43422
54.1770835166946 4.405880000000001
54.20209224691339 4.37536
54.22710377055121 4.3960099999999995
54.25231352511594 4.39714
54.27733066384342 4.37597
54.30235060239643 4.35949
54.32737334290836 4.35421
54.35259441062629 4.2378
54.377622783395324 4.28568
54.40265396455061 4.3057300000000005
54.42768795623251 4.2846
54.45292037169559 4.25744
54.477960012857906 4.255330000000001
54.50300247099511 4.20085
54.52804774825457 4.208069999999999
54.55329154616743 4.197780000000001
54.57834249018678 4.20638
54.6033962597977 4.182230000000001
54.6284528571545 4.15874
54.653708072335164 4.13451
54.67877035378786 4.1142199999999995
54.70383546947698 4.10465
54.72890342156389 4.12893
54.7541700889442 4.06111
54.77924374251975 4.07089
54.8043202390049 4.05992
54.82959552413022 4.03647
54.8546777351945 4.0143699999999995
54.87976279569621 4.02006
54.90485070780914 4.03835
54.930137506558005 3.96821
54.95523115074295 3.96579
54.98032765308844 3.9225
55.005427015775496 3.8927099999999997
55.03072536339621 3.90268
55.05583047570572 3.91742
55.080938454927676 3.8902400000000004
55.10604930325027 3.8761900000000002
55.131359235107396 3.86931
55.15647585066083 3.86341
55.181595341907496 3.8246800000000003
55.20671771104285 3.7889
55.232039262617704 3.77141
55.25716741665048 3.73101
55.28229845518636 3.73811
55.30743238042802 3.69935
55.33276558731939 3.69429
55.357905315183636 3.68589
55.383047936390035 3.6468199999999995
55.40819345314859 3.6093300000000004
55.433538351073295 3.62315
55.458689688238415 3.61921
55.483843927614096 3.55853
55.509197623043605 3.54158
55.53435769621134 3.54333
55.55952067826466 3.51366
55.5846865714265 3.51416
55.61005202069737 3.5244699999999995
55.63522376553902 3.5623099999999996
55.66039842818645 3.50774
55.68557601087004 3.46688
55.7109532500271 3.44385
55.73613670233794 3.4568800000000004
