TT I
1.2716486653135266 8.02915
1.2939594142134223 7.19107
1.3162702121660406 6.834569999999999
1.3385810600174564 6.5149099999999995
1.3608919586137629 6.84932
1.383202908801069 6.70477
1.405513911425503 6.28235
1.4278249673332093 6.39961
1.4501343378461518 6.7539
1.4724455028545926 5.9833
1.4947567236847858 6.58145
1.517068001182951 6.599060000000001
1.5393793361953272 6.848839999999999
1.5616907295681737 6.06837
1.5840021821477681 5.46353
1.60631369478041 5.55661
1.6286252683124185 5.68906
1.6509369035901333 4.7136
1.6732468618895553 4.72393
1.695558623192809 4.8990800000000005
1.7178704487808514 5.075130000000001
1.7401823395001077 5.37701
1.7625012545597203 5.053
1.7848028405262486 5.3733699999999995
1.8071218901122095 4.93583
1.8294236121921872 4.99338
1.8517427996910911 4.7599
1.8740620574440425 5.1100699999999994
1.8963639900671978 4.969609999999999
1.9186833908139995 5.19415
1.9409854680117449 4.71831
1.9633050151394713 4.80532
1.9856246367570705 4.313219999999999
2.0079269371922672 4.72325
2.03024671027244 4.581259999999999
2.0525491637446027 4.46335
2.074869091674931 4.56094
2.097171701569106 4.54775
2.1194917877373847 4.66676
2.141811954326636 4.621569999999999
2.164114805233074 4.96499
2.186435135143035 4.63344
2.208738150935709 7.531460000000001
2.231058647554722 14.1444
2.2533792288321184 11.2188
2.275682498336085 6.75747
2.298003251406138 5.33552
2.3203066942619714 4.78322
2.3426276225136022 4.55427
2.3649486396617507 5.64624
2.387252348930071 5.19032
2.4095735463442893 4.97556
2.4318774374315884 5.460780000000001
2.4541988185014043 5.74408
2.476502894794693 5.7668
2.498824462909887 6.52482
2.521146125856138 6.29194
2.5434504863470337 6.10084
2.5657723414244717 6.21565
2.588076895590662 6.88135
2.610398946189713 7.67212
2.6327210958598384 7.115989999999999
2.6550259469304716 6.36786
2.6773482972090137 6.42279
2.6996533504259 7.0780899999999995
2.7219759047039602 7.19221
2.744298562293959 7.5182
2.7666039251246595 7.30403
2.7889267918020164 7.44159
2.8112323652516555 7.91375
2.833555444408179 7.9718800000000005
2.8558786311183852 8.31677
2.8781845268938557 8.40254
2.9005079311721484 8.2086
2.9228140460410397 8.71229
2.9451376712799635 8.84377
2.967444008632326 9.10657
2.9897678582247247 9.43689
3.0120918213106695 9.96687
3.0343984987899373 10.8223
3.0567226913198637 10.9112
3.079029599759726 11.0664
3.101354025127254 12.0485
3.123678568232338 12.7684
3.145985829517914 13.0044
3.16831061055229 13.1109
3.1906181112775593 14.1547
3.212943133635653 14.8834
3.2352682779763207 15.0211
3.2575761442691227 15.1656
3.2799015350264273 15.6026
3.302209649240067 16.3101
3.3245352898092655 16.7003
3.3468436553365257 17.3522
3.369169549113219 17.5251
3.3914955708171384 18.7134
3.413804319727358 18.9906
3.4361305997334863 19.0054
3.4584396084414553 19.6176
3.4807661501462652 20.3997
3.503092824025881 20.7968
3.5254022288463154 20.9451
3.5477291695206588 21.6332
3.5700388426251948 22.2022
3.5923660534916446 23.2863
3.6146934007816114 29.5485
3.637003482731501 50.7801
3.6593311053109985 54.1532
3.681641464033634 37.2613
3.7039693653009733 27.0514
3.726297407241705 25.6548
3.7486081875460804 25.698
3.7709365132734978 26.383000000000003
3.793247578841633 26.5211
3.8155761917550093 27.0774
3.8378875459837216 27.424
3.8602164494827234 28.0543
3.882545499606844 28.996
3.9048572932539183 28.9775
3.9271866390645718 29.2791
3.9494987298666713 29.896
3.971828374764527 30.7309
3.9941581705403255 31.5525
4.016470713506008 31.8655
4.038800813471445 32.2541
4.061113662089144 33.0417
4.0834440696459176 33.4024
4.105774632334751 34.3762
4.128087945865126 34.8605
4.150418821249301 35.6747
4.172732448931298 36.7164
4.195063640413578 37.7268
4.2173775856475215 40.0954
4.239709096631102 53.913999999999994
4.262040768704612 119.46600000000001
4.284355196706267 153.266
4.306687193387355 108.419
4.329001947444346 58.286
4.35133427213731 45.2297
4.373666762177566 44.4606
4.395982011761091 44.7148
4.418314834921175 45.9269
4.44063041906622 49.4966
4.4629635787515625 54.9831
4.4852969080429785 54.9223
4.5076130004776225 52.8049
4.529946671403969 53.8342
4.552263106909177 54.3913
4.574597122877047 54.0321
4.596931312711224 53.5649
4.619248269273446 54.57
4.6415828092605835 56.1249
4.663900117405352 57.2276
4.686235010953232 58.7504
4.708552674085913 59.9957
4.730887924602802 61.4345
4.753223354952695 63.2049
4.775541557023902 65.362
4.797877349456786 66.8969
4.820195915032126 68.6151
4.842532072957498 69.939
4.864868414979744 72.3508
4.88718753227192 75.0521
4.909524244902505 76.7065
4.931843734218147 78.5968
4.954180820867835 81.1744
4.976518095879839 83.7967
4.998838149695359 87.9163
5.021175803844231 92.0041
5.043496238205739 95.5949
5.065834274903528 100.476
5.088172504230693 106.975
5.1104935158799565 115.22
5.132832132875765 135.395
5.155153533596801 169.217
5.1774925416746225 242.078
5.199814334878411 621.528
5.2221537374521505 1637.56
5.244493338631803 3710.16
5.266815727034316 7478.93
5.289155727832427 11289.4
5.311478517248165 8588.53
5.333818921080011 3248.54
5.356159527788849 703.395
5.3784829252032536 221.459
5.400823940070432 162.151
5.423147747031976 139.717
5.445489173474152 127.25299999999999
5.467830807066149 122.52600000000001
5.490155234831516 117.988
5.512497285125229 112.56299999999999
5.534822130975162 109.186
5.557164601388673 106.7
5.579489868738879 103.831
5.601832762690846 102.01700000000001
5.6241758697774475 100.762
5.646501775867269 100.156
5.668845311622074 98.5711
5.691171647754637 98.302
5.713515615597765 97.2164
5.735859800852677 96.8028
5.758186788542988 96.2643
5.780531411018185 98.4414
5.802858837297399 97.8993
5.825203900414495 98.1436
5.8475491852224 99.6909
5.869877275883075 99.4118
5.892223006467101 100.01700000000001
5.914551544266608 101.926
5.936897724049891 106.404
5.959244129804903 117.45299999999999
5.981573344815301 161.114
6.0039202049061 333.727
6.026249875609095 690.1360000000001
6.04859719346037 1294.82
6.070927323278297 2352.58
6.093275102315365 4067.38
6.115623113320588 4979.72
6.137953938319995 3334.22
6.160302415650845 1131.38
6.182633708324452 280.942
6.2049826554078376 126.419
6.227331838745022 99.2845
6.249663839443684 90.1038
6.27201349767565 85.2563
6.294345974611799 85.1519
6.316696111167083 88.1825
6.339046488263839 84.9925
6.361379686074702 77.6097
6.383730546639482 73.4027
6.406064229255215 71.3021
6.428415576718203 71.132
6.450749747566656 69.7454
6.47310158535871 68.1049
6.495453669698332 67.0205
6.517788579421056 66.472
6.540141159237969 65.1948
6.562476565766648 64.4765
6.5848296444934045 64.1993
6.607182974060425 63.92100000000001
6.6295191323281015 63.5342
6.651872965955752 64.3089
6.6742096296068985 74.1731
6.6965639707294615 92.3864
6.71891856698715 92.6659
6.741255995248479 75.1006
6.763611104154477 63.8269
6.785949046381137 60.2026
6.808304671371482 60.1418
6.8306605557940046 59.7116
6.852999275508618 58.946999999999996
6.875355681171544 58.4917
6.897694923437771 57.6447
6.92005185377892 57.3629
6.9423916220322655 57.1209
6.964749080490181 56.5528
6.987106804399774 57.0475
7.009447368180821 56.9236
7.031805625367033 56.526
7.054146723727803 56.3525
7.076505517631004 55.9569
7.098864581288365 55.9875
7.121206488070854 56.0918
7.143566093607822 56.0937
7.165908543567245 56.3845
7.188268694426048 56.2295
7.2106291193438095 55.922
7.232972390625943 56.4319
7.255333366030969 61.6711
7.277677189091925 82.8003
7.300038718428332 102.694
7.322400526130865 92.4219
7.344745183422596 69.4608
7.367107550224791 58.5555
7.389452767901992 56.273
7.411815697249891 55.8798
7.434161478756298 55.0925
7.456524974096713 55.103
7.478888753837185 55.2176
7.501235387657368 55.2534
7.523599738562711 55.5269
7.545946944825532 55.8394
7.568311870344528 56.1078
7.5906770845765665 56.1287
7.613025156078678 57.0117
7.635390950099687 57.8267
7.657739602662809 57.4807
7.680105979923558 56.9392
7.702472650212829 57.375
7.724822180948224 57.2056
7.747189439655568 57.6747
7.769539560075357 57.4478
7.791907410653562 57.9096
7.81425812420825 57.5034
7.836626570110925 58.2223
7.858995315087906 59.076
7.881346924933401 59.2422
7.903716270417482 59.6316
7.926068482028405 60.225
7.948438431475253 60.4788
7.9708086843180235 61.2387
7.993161805171116 61.8117
8.015532667162402 62.2644
8.037886398416653 63.3106
8.060257873014221 64.0957
8.082629655331942 64.8035
8.104984308787587 65.3682
8.127356708900503 67.5488
8.149711981398308 71.2445
8.172085002766314 72.6812
8.194458336181368 71.4397
8.216814543847752 70.5501
8.23918850371002 71.3282
8.26154533906492 72.6923
8.283919928836452 74.271
8.306277395339652 75.2099
8.328652618483376 76.7686
8.351028159736202 78.9331
8.373386579575245 81.4551
8.395762759396959 83.6974
8.418121819038275 87.9485
8.440498640894003 96.2203
8.462875785192262 110.624
8.485235811156207 147.197
8.507613602688501 230.68599999999998
8.529974277114228 350.9
8.552352719347912 508.64599999999996
8.574731488360351 772.052
8.59709314210385 1195.64
8.619472567021075 1728.31
8.64183487789147 2089.36
8.664214962183097 1826.35
8.686577933647762 1028.67
8.708958680784317 410.356
8.731339760774953 179.704
8.753703729764451 118.271
8.77608547780821 103.84700000000001
8.798450116065078 99.6392
8.820832535634787 96.1407
8.843215292401656 95.1751
8.865580941199045 93.3896
8.887964374703538 92.1809
8.910330701447199 92.01700000000001
8.932714815164482 92.285
8.955099270424924 90.8621
8.977466620733543 89.0849
8.999851761421976 87.6361
9.022219798361645 86.3521
9.04460562795561 86.6266
9.066991803441677 86.0941
9.089360876979615 85.6172
9.111747746589993 85.1057
9.13411751544971 84.8129
9.156505082664324 84.5102
9.178875550323522 84.3285
9.20126381862328 84.3743
9.223652438908596 84.6066
9.246023961427412 84.7137
9.26841328802173 84.2584
9.290785518039224 84.7492
9.313175554425882 86.0299
9.335565947154315 86.5306
9.357939245086508 86.6538
9.380330352834827 86.1408
9.40270436697103 86.5505
9.425096193225055 86.0658
9.447488380180165 87.3201
9.469863475295412 86.7335
9.492256385987508 87.1988
9.514632206018318 88.0048
9.537025843935714 88.2433
9.559402392368193 89.0925
9.581796761000229 90.7769
9.604191496441521 91.781
9.626569144158516 94.0976
9.648964615551032 95.9557
9.671343000390081 96.4657
9.693739211225699 96.2224
9.716135793237463 95.561
9.738515290448102 96.1823
9.760912617143402 97.479
9.783292860202891 99.4637
9.805690935076182 100.93700000000001
9.828089385495742 101.81200000000001
9.850470754023561 103.824
9.872869957865444 108.161
9.89525208097539 116.087
9.917652041736662 124.615
9.940052382417589 136.268
9.962435644102392 174.976
9.984836746950979 241.39
10.007220771957746 327.433
10.029622640473708 448.73400000000004
10.052007432299963 630.31
10.074410069984072 874.942
10.096813093716005 1217.71
10.119199042482517 1597.94
10.141602840636468 1849.48
10.163989564971628 1606.65
10.186394141051062 987.9730000000001
10.208799107559706 451.58
10.231187001965623 205.515
10.253592751657669 134.268
10.275981430388155 117.727
10.298387966769793 114.416
10.320794897965431 113.836
10.343184759907361 112.663
10.36559248305461 109.51799999999999
10.387983138083852 110.057
10.410391656691655 120.39200000000001
10.432800574501677 138.49200000000002
10.455192425893369 159.704
10.47760214443012 189.799
10.499994797678786 233.213
10.522405320453982 301.268
10.54479877906917 391.11
10.567210109595656 482.139
10.5896218454736 552.002
10.612016518879773 510.785
10.634429067781074 361.227
10.656824555333241 209.692
10.679237920773568 128.249
10.701651695961992 99.4607
10.724048411481384 92.0873
10.746463008485165 89.3314
10.768860546937125 87.7563
10.791275969274796 85.6969
10.81369180576079 84.5091
10.836090585366925 83.1808
10.858507252467449 82.1367
10.88090686379991 80.9271
10.903324365036394 80.3789
10.925724811614439 79.2145
10.948143150509463 80.1128
10.970561909719066 79.4146
10.992963615930844 77.8567
11.015383218085756 76.2509
11.037785768347074 75.0129
11.06020621697282 74.4339
11.082627090322113 74.0703
11.105030913430326 73.5546
11.12745263854165 73.2018
11.149857314510728 73.9836
11.172279894912576 76.6551
11.194702904450653 76.4842
11.217108866490921 74.5487
11.239532736615194 72.3444
11.26193956033512 71.035
11.284364294577085 70.5242
11.306789462371718 69.3402
11.329197585398376 68.8394
11.351623622610898 68.2773
11.37403261614354 67.4278
11.396459526308487 67.6387
11.418869393879497 67.1461
11.441297180532617 66.89399999999999
11.463725406927658 66.4109
11.486136592353875 66.1593
11.508565700543707 66.1439
11.530977768845315 66.6134
11.553407762368774 67.2065
11.575838200059769 66.9483
11.598251599479612 65.8307
11.620682927815501 65.1393
11.64309721895548 65.389
11.665529441478206 64.914
11.687962112597958 64.5645
11.710377748130886 64.643
11.732811318753434 64.2006
11.755227854859067 64.1133
11.777662328529495 64.1879
11.800079768750786 64.2934
11.822515149015453 64.1721
11.844950984084935 64.048
11.867369787303163 63.9677
11.889806534289491 64.1897
11.912226250487029 64.4241
11.934663912939751 64.7623
11.9571020346363 64.9289
11.979523127133968 64.9858
12.001962169624331 66.5652
12.024384183972964 69.0149
12.046824150809913 74.2496
12.069264581333726 80.4412
12.091687985297767 87.2043
12.11412934550045 96.6562
12.136553680195208 110.28
12.158995973632788 129.418
12.181438735204349 152.05200000000002
12.20386447284199 177.46099999999998
12.226308172985636 202.918
12.24873485024193 202.57
12.271179492516982 171.582
12.293607112949127 130.007
12.316052700916226 94.2744
12.338498763250042 76.8255
12.360927805303868 69.3811
12.383374818673879 66.979
12.405804812803074 66.0253
12.428252780773262 65.8672
12.45070122756722 65.9774
12.473132656675375 65.6957
12.49558206341869 66.098
12.518014453510101 66.0655
12.540464823770117 66.1271
12.562915677315177 66.2445
12.58534951575545 66.8902
12.607801338171472 67.5664
12.630236146511358 69.8147
12.652688941369085 72.1409
12.675124723177234 72.7815
12.697578494048786 71.7674
12.720032754458185 70.0305
12.742470003354093 69.4344
12.764925245138771 69.5854
12.787363476431278 69.8749
12.809819703166806 70.2573
12.83227642391173 71.297
12.854716135692716 71.6859
12.877173846755147 72.8376
12.899614549869717 73.6041
12.9220732548287 74.2236
12.94453245827299 74.9215
12.966974655289818 75.6756
12.989434858002571 76.7203
13.011878055298721 77.512
13.034339260862497 78.742
13.056800969391883 80.1998
13.079245674017244 83.3558
13.101708390774869 88.79
13.12415410463411 100.721
13.146617833206086 115.134
13.169064559883248 128.889
13.191529303857127 145.528
13.213994557076367 169.97099999999998
13.236442809902437 204.447
13.258909083908291 248.04
13.28135835851934 295.973
13.30382565690295 352.055
13.326293469022952 400.538
13.348744283242008 420.66
13.371213125129904 367.05199999999996
13.39366497011003 275.11400000000003
13.416134845360597 185.06599999999997
13.438605238843131 131.732
13.46105863690397 116.715
13.483530069144786 119.148
13.505984506951902 126.007
13.528456981549432 137.713
13.550929978879088 153.143
13.573385983253365 175.88
13.595860028340867 206.595
13.618317081455832 245.69299999999998
13.64079217790333 290.807
13.663250283359057 334.148
13.685726434770173 362.465
13.708203115221277 343.75300000000004
13.730662806148091 276.118
13.75314054697177 197.75799999999998
13.775601299246777 135.25799999999998
13.798080104050406 101.84100000000001
13.820559442405358 88.4183
13.843021793671388 84.4882
13.865502201420897 82.79799999999999
13.887965623051947 81.9427
13.910447103807167 80.9673
13.932929122629764 79.1458
13.955394156785959 78.8921
13.977877254034569 77.8866
14.000343367582113 76.9075
14.022827546871707 76.4657
14.045294743423524 75.709
14.06778000837062 75.0777
14.090265817715476 74.9333
14.112734645763819 74.834
14.13522154619454 74.0751
14.157691466286913 73.8933
14.180179461423874 73.8173
14.202668005486178 73.22399999999999
14.22513957064374 73.0047
14.247629214846473 72.4174
14.270101881097517 72.0723
14.29259262906496 71.9756
14.315083930490205 72.2499
14.337558255389705 72.2608
14.360050666019726 72.2158
14.382526101071944 71.5864
14.405019624534942 71.3047
14.427513705993134 70.8651
14.449990813291825 70.8784
14.47248601302899 70.3871
14.49496423954951 70.7725
14.517460561197822 70.8585
14.539939910570322 70.7751
14.562437357763558 70.8944
14.58493536931253 71.5153
14.607416409993311 72.1327
14.62991555254159 72.453
14.652397725157423 72.5485
14.674898002342799 72.5914
14.697398848433282 72.6468
14.719882725991326 74.411
14.74238471217934 77.5377
14.764869730765593 82.4108
14.787372860692983 86.8702
14.809876564079925 92.4406
14.83236330125751 99.1141
14.854868153850365 108.036
14.877356041159485 120.63600000000001
14.899862046604186 136.296
14.922351087688757 155.528
14.944858249632887 177.72099999999998
14.967365991421232 200.331
14.989856770231246 216.641
15.012365673994204 216.80700000000002
15.03485761569738 193.72299999999998
15.05736768508665 152.463
15.07987833888692 118.315
15.102372032001655 93.5994
15.124883856909658 79.3737
15.14737872204565 74.3345
15.169891721717274 72.7005
15.192405310371893 72.4311
15.214901940621196 72.1517
15.237416709527137 71.8261
15.259914520936249 71.6056
15.282430473753607 70.8918
15.304947020131227 69.8785
15.327446610371178 69.5311
15.349964346154254 68.6813
15.372465126703139 68.7159
15.394984055556009 68.5518
15.417486030076159 68.3302
15.44000615566487 67.9074
15.462526881230803 67.9457
15.485030653812652 67.9818
15.507552581617434 67.6854
15.530057557334603 67.9537
15.55258069104857 67.9806
15.575104429329837 68.0798
15.597611216864632 68.1474
15.620136166564563 69.2261
15.6426441664095 71.595
15.665170331202765 75.3354
15.687697105158826 78.9819
15.710206930593545 83.1413
15.732734925158933 88.0656
15.755245972089478 94.6519
15.77777519094324 103.711
15.800287463046663 115.264
15.822817909869592 130.114
15.84534897229804 145.295
15.867863089299354 164.38
15.890395385222186 180.924
15.912910736597423 190.945
15.935444269699861 185.975
15.957978423016485 160.998
15.980495633101265 130.04
16.003031029129367 101.176
16.02554948280019 79.7042
16.048086125229432 69.6399
16.070623392487107 66.3457
16.09314371869582 65.1759
16.11568223789321 64.1069
16.13820381691126 63.3124
16.160743591742527 62.486999999999995
16.183283996022084 61.9629
16.205807461423195 61.0557
16.228349126881973 60.4013
16.25087385432698 60.3897
16.27341678466365 59.7113
16.29594277784926 59.617
16.31848697676433 59.5273
16.341031811604868 59.2063
16.36355971058487 59.2811
16.3861058195587 59.0085
16.40863499352978 58.4933
16.431182380342005 57.9567
16.453730407713202 57.4013
16.476261501364792 57.1792
16.498810812136167 57.1109
16.52134319004079 57.0717
16.54389378792203 56.9869
16.566445031001553 56.8692
16.588979342490088 56.5315
16.61153187824822 56.2238
16.634067483263312 56.2278
16.656621315414416 56.2104
16.679175797408888 55.9256
16.701713349928728 55.888000000000005
16.72426913389191 56.2206
16.74680798922351 56.2216
16.76936507887444 56.1263
16.791905240734874 56.2495
16.814463639794468 56.007
16.837022695210294 56.1303
16.859564824093756 56.3053
16.882125194503903 56.7727
16.904668639217885 56.9667
16.927230328348003 57.068999999999996
16.949792678493612 57.2121
16.972338104193863 57.0658
16.994901778652235 56.9896
17.017448529496576 57.2828
17.040013531998152 57.7969
17.06257920018044 58.6367
17.0851279459922 59.4887
17.107694947817667 60.559
17.130245028099072 61.5927
17.15281336730298 62.9455
17.17536478578733 64.8219
17.19793446610687 66.95100000000001
17.220504818648422 69.2515
17.243058251703697 71.6458
17.265629950971032 75.0385
17.288184731571736 78.7143
17.310757781306908 82.8497
17.33333150794385 84.9601
17.355888317140174 83.5036
17.37846339986244 79.3538
17.401021565958885 72.9477
17.42359800851343 67.803
17.44617513265564 64.2194
17.468735341390783 62.0544
17.491261035594565 60.8728
17.51396340099364 60.5009
17.536490463869136 60.7281
17.559018209820174 60.7467
17.58154663977963 60.9069
17.604251766089718 61.0346
17.626781572227713 61.3211
17.64931206518155 61.5777
17.671843245885103 61.95399999999999
17.69455114821572 62.2896
17.717083712612634 62.4548
17.739616967569667 62.7971
17.762150914021706 63.2557
17.78486160749854 63.4683
17.807396945166804 64.6527
17.829932977143503 66.6447
17.85246970436452 68.8159
17.875183204129467 70.7237
17.897721330097664 73.2994
17.920260154126645 75.9649
17.942799677153296 79.3693
17.9655159983646 83.1616
17.988056927677544 88.3183
18.010598558807683 95.2123
18.033140892692916 102.679
18.05586005052525 110.844
18.07840379824407 119.875
18.10094825154059 130.278
18.12366954819864 139.316
18.146215420998306 142.185
18.16876200220057 136.533
18.191309292745153 123.98899999999999
18.214033452627167 110.251
18.236582170236648 96.9161
18.259131600016456 90.9064
18.281681742907335 89.6431
18.304408781233683 91.6899
18.32696035875955 95.3203
18.349512652227624 99.0667
18.372065662579683 103.695
18.394795594587553 105.911
18.41735004715306 103.94200000000001
18.43990521943684 97.6323
18.46246111238171 88.554
18.485193953325208 78.7707
18.507751296070428 71.5454
18.530309362314178 67.507
18.552868153000343 65.2979
18.57560391815056 63.873000000000005
18.59816416623245 63.5179
18.620725141597372 62.8849
18.643286845190268 62.4805
18.666025549835414 62.0332
18.688588718427933 61.415
18.711152618092243 61.3911
18.73389353884365 60.9857
18.75645890921984 60.6246
18.77902501351406 60.3022
18.801591852673102 60.2898
18.824335739722738 59.8163
18.846904057212626 59.8017
18.8694731124168 59.1877
18.89204290628315 59.2664
18.914789774966803 59.1407
18.937361054791623 58.8383
18.959933076131318 58.7267
18.982505839934877 58.6213
19.00525570560582 58.4849
19.027829963004184 58.4203
19.05040496572238 58.6301
19.072980714710468 58.9927
19.095733592739563 59.0678
19.11831084296757 59.4889
19.140888842324735 59.8101
19.16346759176222 60.2528
19.18622349753803 60.7826
19.208803755869358 61.6931
19.231384767143577 62.7433
19.253966532312948 64.1678
19.276725481241822 65.9712
19.29930876296784 67.8223
19.3218928014549 69.8714
19.34465404436217 72.2028
19.36723960516257 74.726
19.389825925592426 76.8496
19.412413006605938 76.4421
19.43517731967805 74.0331
19.457765930683355 69.9026
19.48035530514408 65.1811
19.50294544401556 61.1801
19.525712842708348 58.4202
19.54830451925909 56.8901
19.570896963095727 55.8771
19.593490175174704 55.5374
19.616260674962184 55.2825
19.638855432416964 55.048
19.661450960992624 55.3416
19.68404726164677 54.9499
19.706820878021247 54.7909
19.729418731756834 55.0088
19.752017360452857 54.8719
19.77461676506804 55.3166
19.797393513540218 55.5821
19.819994478951667 55.996
19.84259622316767 56.3443
19.8651987471481 57.0113
19.887978643247177 57.1147
19.91058273574792 57.5648
19.933187610901943 58.317
19.955969879466828 59.6989
19.97857632894404 60.8762
20.00118356396599 62.4478
20.023791585494575 64.104
20.046577028914875 66.3354
20.069186632506966 68.2523
20.091797025500632 70.2224
20.114408208858933 71.389
20.137196842715273 71.8591
20.159809615886765 70.5721
20.18242318232135 68.2687
20.20503754298326 65.9422
20.227829382875154 64.1965
20.250445341109344 63.4002
20.27306209647285 63.5548
20.29567964993108 64.4799
20.31847471147704 65.5113
20.34109387027612 66.6986
20.363713830075454 66.7946
20.386334591841646 65.8567
20.409132890679302 63.3733
20.431755265564437 60.0243
20.454378445325528 57.0699
20.477002430930366 55.0372
20.499803982716553 53.698
20.522429589228004 52.7299
20.54505600449589 52.1671
20.567683229489194 51.9216
20.590488049900088 51.7821
20.61311690359731 51.4519
20.63574656993626 51.3962
20.658553853717297 50.9048
20.681185154618298 50.8893
20.703817271080066 50.7694
20.72645020407368 50.6722
20.749260783967177 50.2728
20.771895359337133 50.3106
20.794530754161617 50.2933
20.817166969412938 50.2056
20.83998086114876 50.0606
20.86261872660049 50.0265
20.885257415405402 50.2466
20.90789692853701 50.0905
20.930714147864748 49.8481
20.953355319030678 49.8695
20.97599731745334 50.147
20.99864014410749 49.9652
21.021460706796564 49.9072
21.044105199328826 50.2988
21.06675052302631 50.4717
21.089396678865015 50.6868
21.112220600704806 50.9536
21.134868430275347 51.2188
21.15751709492456 51.3991
21.180166595629693 51.5529
21.202993892429635 52.0378
21.22564507473034 52.5268
21.24829709602816 52.805
21.27112693608965 52.8538
21.293780644891275 53.1153
21.316435195634053 52.2863
21.339090589297417 51.56100000000001
21.361923832041875 51.0409
21.384580921090404 50.2112
21.407238856007325 49.8821
21.429897637773326 49.8338
21.45273429906592 49.8431
21.475394784108598 49.8926
21.498056118951983 49.9421
21.520718304578022 50.1344
21.543558400304388 50.331
21.566222297108816 50.5599
21.58888704765135 50.9872
21.61155265291521 51.1774
21.63439619898156 51.7013
21.657063523335786 51.9821
21.67973170537063 52.443000000000005
21.7024007460706 52.8126
21.72524775840385 53.7481
21.747918526116475 54.6819
21.770590155457388 55.934
21.79326264741238 57.2102
21.816113141960237 58.8404
21.838787368860547 60.2264
21.861462461341976 61.5583
21.884315579735777 63.6243
21.90699241312273 65.0746
21.92967011506078 66.0098
21.95234868653799 66.212
21.9752053151131 65.3224
21.997885635446785 63.5799
22.020566828293532 61.3446
22.04324889464272 59.1972
22.066109049404666 57.663999999999994
22.088792872571794 57.0993
22.111477572219204 57.0415
22.1341631493376 57.4631
22.157026846313123 57.4406
22.179714188221507 56.9264
22.202402410582668 55.9126
22.22509151438863 54.5292
22.24795876962584 52.9392
22.270649646204486 51.9886
22.293341407213727 51.294
22.316034053646906 50.6805
22.338904883215342 50.4792
22.36159931041458 50.3562
22.38429462602756 50.3742
22.40699083104897 49.9488
22.429865251039757 49.9494
22.452563244831367 50.1369
22.47526213102522 50.1553
22.49813925616515 50.1397
22.520839937143307 49.9401
22.543541513520587 50.0712
22.56624398629403 50.0207
22.589124730075895 49.9674
22.611829005656723 50.1936
22.63453418063466 50.2988
22.657240256008077 50.5285
22.680124634582935 50.8726
22.70283252079775 50.9957
22.725541310413075 51.4396
22.74825100442868 51.5885
22.771139033969575 52.0419
22.79385054687155 52.4407
22.81656296718292 52.9715
22.83927629590484 53.7983
22.862167992606945 54.4565
22.88488314827121 55.3693
22.907599215359284 56.1692
22.93031619487366 57.013999999999996
22.953211574954405 57.9395
22.975930389478226 58.8605
22.998650119445763 59.2778
23.02137076586092 58.7151
23.044269845560063 57.5903
23.06699233506288 56.1708
23.089715744034912 54.28
23.112617610931565 52.5484
23.135342869061212 51.5272
23.158069049684816 50.6571
23.1807961538087 50.3524
23.20370174880544 50.3656
23.226430710184808 50.4818
23.249160598093425 50.6533
23.271891413539002 50.4337
23.294800752937697 50.6228
23.31753343374794 50.8656
23.340267045128353 50.8991
23.36300158808808 51.1587
23.38591468821339 51.7055
23.408651104658304 52.1405
23.431388455719986 52.698
23.454126742409 53.3751
23.4770436196085 54.1044
23.499783787914662 54.9451
23.522524894889884 55.701
23.54526694154616 56.5346
23.56818761219047 57.783
23.59093154860734 58.4125
23.613676427751283 59.2233
23.636422250635754 58.667
23.659346731118656 57.1728
23.68209445191868 55.3512
23.704843119509587 53.0266
23.72759273490623 51.214
23.750521041644767 49.632
23.77327256312355 48.5447
23.796025035462787 47.9089
23.818956224555475 47.4043
23.841710609113413 47.2466
23.86446594758979 47.0899
23.887222241002014 46.7133
23.910157285144578 46.3814
23.932915498962537 46.5008
23.955674670778713 46.3074
23.978434801611975 46.1436
24.001373717286125 45.8606
24.024135776723917 45.8197
24.046898798245582 45.6734
24.06966278287146 45.7046
24.092605586582614 45.358000000000004
24.115371508023642 45.2409
24.1381383956401 45.2514
24.16090625045381 45.1816
24.183852958731244 45.0605
24.206622758582608 44.9564
24.229393528706886 44.7901
24.252165270127392 44.9441
24.27511589952438 44.934
24.297889594216997 44.5755
24.32066426328598 44.5859
24.34343990775613 44.5182
24.36639447485003 44.3165
24.38917208083877 44.2786
24.41195066531332 44.1772
24.43490819850244 44.361000000000004
24.457688750692377 44.1663
24.48047028445616 44.1818
24.503252800821233 44.2989
24.526214300784112 44.1763
24.548998793132213 44.1567
24.57178427117417 44.0094
24.59457073593893 44.2081
24.617536219319863 44.1424
24.64032466834748 43.9786
24.663114107195035 44.0005
24.685904536893013 43.7604
24.708874020360852 43.6876
24.731666442613744 43.7036
24.754459858818787 43.5862
24.777254270007962 43.5712
24.80022777025625 43.4087
24.82302418230472 43.5249
24.845821592443674 43.5212
24.86862000170663 43.5932
24.891597535453727 43.4699
24.914397953892728 43.6309
24.93719937456671 43.7071
24.96000179851076 43.6402
24.98298338249997 43.8233
25.00578782394922 44.1181
25.028593271784167 44.2893
25.05157790644186 44.4877
25.07438537804115 44.5793
25.097193859145293 44.833
25.120003350792075 45.0203
25.142992065061257 45.3029
25.165803588823465 45.5773
25.18861612625217 45.8902
25.211429678386736 45.8971
25.234422489079968 45.9696
25.257238081693636 45.9355
25.280054692141732 45.8178
25.3028723214652 45.7948
25.325869245420463 45.968
25.348688923599397 46.0956
25.371509623787006 46.0227
25.394331347025812 45.86600000000001
25.41733240110666 45.4534
25.440156181590016 44.6634
25.46298098826268 44.2987
25.48580682216873 43.7182
25.50881202326435 43.2603
25.53163992281684 42.6165
25.55446885274561 42.2169
25.577298814096377 42.0305
25.600308179121807 41.9591
25.623140214533745 42.0641
25.64597328451537 41.9549
25.66898578564376 41.6361
25.691820936010206 41.7102
25.714657124097695 41.6601
25.737494350954734 41.6641
25.760511045684957 41.6679
25.783350361364224 41.7019
25.806190718969255 41.4769
25.82903211955018 41.7162
25.852053024868923 41.8265
25.874896522722523 41.865
25.897741066713106 41.7786
25.920586657892454 41.9215
25.943611790812668 41.9093
25.966459487728237 41.9626
25.989308234998564 42.0689
26.01215803367705 42.4958
26.03518741123814 42.4346
26.05803932412957 42.5325
26.080892291600094 42.6382
26.10374631470478 42.5279
26.12677995397268 42.7155
26.14963609978026 42.9878
26.172493304397875 42.5965
26.19535156888223 42.2928
26.218389486949604 41.9353
26.241249882640123 41.7934
26.26411134137826 41.5497
26.28715248187403 41.3972
26.31001607820869 41.3999
26.3328807407756 41.1675
26.35574647063438 41.3917
26.37879191991473 41.3225
26.401659795896734 41.3792
26.424528742360263 41.5613
26.447398760366614 41.7538
26.470448535598294 41.755
26.49332070826805 41.8858
26.516193955675355 42.2345
26.53906827888316 42.3555
26.562122397260108 42.4534
26.584998883685063 42.7161
26.607876449110325 42.888000000000005
26.63075509460056 43.0457
26.65381357334404 43.1268
26.67669439061878 43.3441
26.699576291163382 43.2095
26.722459276044212 43.0679
26.745522132402975 42.961000000000006
26.768407297649354 42.6663
26.791293550442003 42.2405
26.814180891848974 42.0595
26.837248143099337 41.6712
26.860137673466657 41.5592
26.88302829566349 41.21
26.90592001075963 41.1801
26.92899167420566 41.0262
26.951885586870763 40.6292
26.974780595655517 40.378
26.99785558178161 40.4045
27.020752794605112 40.1301
27.043651106772522 39.9226
27.06655051935668 40.0765
27.089629948036183 39.9315
27.112531573292053 39.8231
27.135434302194138 39.8538
27.158338135817015 39.5732
27.181422024430987 39.7055
27.204328079372566 39.5684
27.22723524226965 39.6769
27.250143514198573 39.7077
27.273231880156334 39.5401
27.296142382065014 39.4032
27.319053996245536 39.3932
27.341966723775965 39.4826
27.365059584515222 39.6848
27.38797455070062 39.6677
27.410890633481237 39.4499
27.433807833936918 39.361
27.456905206923906 39.5014
27.47982465472398 39.4773
27.502745223449743 39.5479
27.525666914182825 39.6531
27.548768816912457 39.7145
27.571692763693633 39.4837
27.59461783573812 39.4732
27.617723149491244 39.3282
27.640650484125285 39.4171
27.66357894728264 39.2167
27.686508540048052 39.1912
27.709618414237887 39.0929
27.732550278321757 38.9519
27.755483275279115 38.8493
27.778417406196485 38.9581
27.801531858397514 39.0179
27.824468269376716 38.821
27.847405817586786 38.9437
27.870344504116094 39.2055
27.893463551932008 39.1914
27.916404527281053 39.2818
27.93934664422563 39.3417
27.962289903855886 39.4886
27.98541356491974 39.5761
28.00835912214229 39.6391
28.03130582533231 39.9615
28.054253675581805 40.148
28.077381967556104 40.0098
28.100332124185126 40.0223
28.123283431160893 39.9492
28.146235889577238 39.7357
28.169368830154156 39.6111
28.192323603752033 39.4946
28.215279532083304 39.168
28.238415973016764 38.9527
28.261374223145094 38.8607
28.284333631303806 38.6266
28.307294198589954 38.5271
28.330435319167677 38.2721
28.353398217078915 37.8931
28.376362277420153 37.6407
28.39932750129032 37.4282
28.422473319286713 37.4249
28.44544088262495 37.368
28.468409612800283 37.3068
28.491379510913497 37.1172
28.51453004413313 36.9786
28.53750229057244 36.9075
28.56047570826344 36.8977
28.583450298308804 36.8877
28.606605564586562 36.5948
28.629582511831156 36.6337
28.65256063474956 36.5538
28.675539934446338 36.6155
28.698699951647605 36.4984
28.72168161743193 36.4539
28.74466446331978 36.4856
28.767648490417624 36.3858
28.790813276438353 36.254
28.813799678527303 36.3278
28.836787265157085 36.2954
28.859955641890075 36.361999999999995
28.882945610203045 36.3814
28.905936766392035 36.1068
28.928929111566863 36.1623
28.952102288520145 36.2264
28.975097024308607 36.0491
28.998092952423807 35.976
29.021090073977508 35.9297
29.04426806913204 35.7257
29.067267590245258 35.6119
29.090268308143695 35.6273
29.11327022394099 35.55
29.13645305530891 35.3369
29.159457379627167 35.3088
29.18246290519685 35.3618
29.20546963313352 35.2644
29.22865731875826 35.2946
29.25166646419296 35.2698
29.27467681535305 35.0532
29.29768837335608 35.1437
29.320880931312562 35.1729
29.34389491580634 35.0508
29.366910110507334 35.0446
29.38992651653503 35.1475
29.41312396492981 35.167
29.436142806456754 35.0602
29.45916286268059 34.9411
29.48236399319994 34.8559
29.50538649169417 34.6823
29.528410208259935 34.6242
29.55143514402014 34.4492
29.574641196749695 34.3072
29.597668583816574 34.1642
29.6206971934585 34.0345
29.64372702680042 34.1316
29.666938019934474 33.8729
29.689970313635285 33.9564
29.713003834422636 33.8831
29.73603858342347 33.811
29.759254535188578 33.7613
29.78229175361658 33.6621
29.80533020365064 33.757
29.82836988641968 33.7659
29.85159081507472 33.7046
29.874632976355343 33.562
29.89767637376955 33.7154
29.920721008448314 33.6768
29.9439469322847 33.5216
29.96699405457564 33.4924
29.9900424175358 33.5
30.013092022298157 33.4046
30.03632295963995 33.3389
30.059375061131373 33.3585
30.08242840783577 33.3415
30.105483000888153 33.2764
30.128718970092244 33.2609
30.151776069006917 33.0897
30.17483441768648 33.2942
30.198074175317235 33.3359
30.221135036724256 33.311
30.24419715131772 33.2119
30.267260520236203 33.0993
30.290505341942243 33.174
30.313571232750228 33.2424
30.336638381310948 33.2885
30.35970678876503 33.1599
30.38295669299435 33.1755
30.40602763151657 33.1258
30.429099832366074 33.0625
30.452173296685572 32.9665
30.47542830191959 32.9338
30.498504306502497 32.9132
30.521581577995562 33.0058
30.544660117543582 32.991
30.56792024229725 32.9506
30.59100133132069 33.0303
30.614083691845494 32.9993
30.637167325018545 33.0929
30.660432587840603 33.0654
30.683518779717886 33.0139
30.70660624769615 33.1084
30.729694992924372 32.9913
30.75296541239743 33.126999999999995
30.77605672557558 33.045
30.799149319462742 32.8857
30.8224236211637 32.8834
30.845518789950724 32.8095
30.868615242910597 32.6831
30.891712981195973 32.4869
30.91499247215866 32.5188
30.938092794619365 32.3801
30.96119440587579 32.385
30.984297307082752 32.2164
31.00758200598383 32.1509
31.030687500658694 32.0104
31.053794288760695 32.0307
31.076902371446767 31.9653
31.100192296997445 31.9059
31.12330298246119 32.0101
31.14641496599209 31.831999999999997
31.169528248749216 31.8269
31.19282341969534 31.888
31.215939314557186 31.9024
31.239056512134788 31.8378
31.262175013589378 31.8671
31.28547544871168 31.7699
31.30859657161541 31.753
31.331719001892175 31.666
31.35484274070538 31.8067
31.378148458819545 31.7193
31.401274828443725 31.5416
31.424402510106933 31.7345
31.447712205419993 31.822
31.470842524931633 31.6218
31.493974159989783 31.688000000000002
31.51710711176168 31.6981
31.54042212308802 31.6309
31.563557722100917 31.5332
31.586694641341655 31.5268
31.609832881979628 31.4358
31.63315322823208 31.2711
31.656294125521327 31.2436
31.679436347728515 31.1521
31.70257989602529 31.0666
31.725905596152327 30.96
31.74905181052835 30.9992
31.772199354521323 31.0324
31.79534822930507 30.9452
31.818679302290967 30.9916
31.84183085259981 30.8902
31.864983737233473 30.9811
31.88813795736804 30.8796
31.911474422233013 30.805
31.934631327356435 30.9563
31.9577895715215 30.7826
31.980949155906522 30.8827
32.004291031706956 30.8059
32.027453310562606 30.7495
32.05061693318573 30.607
32.07396288236386 30.608
32.09712920658542 30.6356
32.12029687812702 30.4276
32.14346589817093 30.3219
32.166817291729984 30.3198
32.18998902288583 30.2661
32.21316210610336 30.1786
32.23633654256711 30.0754
32.259693399663725 29.9606
32.282870556771144 29.9374
32.30604907069099 29.9482
32.329228942610065 29.9403
32.35259128243769 29.7037
32.375773884550505 29.704
32.398957848235646 29.6492
32.422143174682176 29.5692
32.445511016471215 29.5503
32.468699082679954 29.5424
32.49188851523011 29.5074
32.51507931531304 29.3975
32.538452678331 29.3676
32.56164622776311 29.2764
32.58484114831493 29.2678
32.60803744118015 29.3433
32.631416344731896 29.2919
32.654615396551876 29.2642
32.67781582427913 29.2058
32.701198898634416 29.0984
32.72440209253756 29.0589
32.747606665947124 29.0302
32.77081262006088 28.8416
32.79420126883317 28.8202
32.81740999876112 28.9311
32.840620112999424 28.7901
32.86383161274818 28.6959
32.88722585534586 28.7854
32.91044014056596 28.8058
32.933655814909734 28.7409
32.95687287957963 28.8304
32.98027273544904 28.6892
33.00349259526636 28.6296
33.026713849030116 28.7446
33.04993649794511 28.6327
33.073341986570746 28.5826
33.09656744032826 28.5017
33.11979429286444 28.4996
33.14302254538647 28.480999999999998
33.166433686291185 28.4666
33.18966475336992 28.3863
33.212897224069096 28.265
33.23613109959831 28.2802
33.259547912343415 28.3076
33.2827846121627 28.3182
33.306022720453775 28.1911
33.32926223842861 28.1258
33.352684742614166 28.08
33.37592709463173 28.1847
33.399170859982064 28.0836
33.422597648419426 28.0115
33.44584425514446 27.7856
33.46909227885668 27.8915
33.4923417207723 27.6665
33.51577423505344 27.7871
33.539026528130385 27.5816
33.56228024307245 27.5819
33.585535381098246 27.4813
33.60897364093058 27.4455
33.63223163992385 27.4714
33.6554910656699 27.4258
33.678751919389796 27.3545
33.702195944520106 27.3126
33.72545966903325 27.2455
33.74872482519663 27.2195
33.771991414233746 27.1819
33.79544122444841 27.1804
33.81871069412428 27.0241
33.84198160035767 27.1038
33.86525394437455 27.14
33.88870955949969 26.9839
33.911984794020626 26.9847
33.93526147001624 26.9468
33.958539588715006 26.8668
33.98200102861669 26.8676
34.0052820477047 26.8045
34.02856451319451 26.7664
34.05203033759056 26.64
34.07531571090147 26.6877
34.09860253431845 26.6246
34.121890809074316 26.6294
34.145362493118924 26.6039
34.16865368561615 26.5007
34.191946333164054 26.4895
34.21524043699793 26.4686
34.23871800066799 26.4376
34.26201503218366 26.3138
34.28531352370466 26.2491
34.30861347646881 26.1868
34.33209693978188 26.3064
34.3553998301885 26.188000000000002
34.378704185565205 26.0764
34.402010007152356 26.0436
34.42549939016683 26.0958
34.44880815937748 26.0059
34.472118398533134 25.995
34.49543010887669 25.8829
34.51892543169198 25.7541
34.54224009966052 25.7525
34.56555624255917 25.8271
34.58887386163339 25.7658
34.61237514439016 25.7184
34.6356957311114 25.7184
34.65901779775809 25.6048
34.68252356662995 25.4898
34.705848608458616 25.4879
34.72917513396849 25.4507
34.75250314440949 25.4186
34.77601490857862 25.3327
34.799345904259795 25.3335
34.82267838863559 25.4193
34.846012362958525 25.2748
34.869530142679984 25.2106
34.89286711232212 25.2056
34.91620557568269 25.1222
34.93954553401677 25.1474
34.9630693495876 25.0823
34.986412313340814 25.1014
35.00975677584668 25.1187
35.033102738362956 25.0337
35.05663261012228 24.904
35.0799815881786 24.9905
35.10333207003229 24.9593
35.12668405694369 24.9391
35.150220005273056 24.8912
35.17357501786656 24.8823
35.19693153931268 24.8326
35.220289570874385 24.8267
35.24383161619786 24.8372
35.267192683604904 24.7449
35.290555264930376 24.6667
35.314101899412165 24.6151
35.33746752422433 24.7336
35.36083466676374 24.6152
35.38420332829803 24.5571
35.407756095629054 24.5957
35.43112781085063 24.663
35.45450104888391 24.6175
35.477875810999194 24.5336
35.50143473172161 24.4797
35.52481255774625 24.4823
35.54819191167777 24.393
35.57157279478914 24.3932
35.595137889488406 24.4093
35.61852184675279 24.2625
35.641907337029984 24.1491
35.665294361595684 24.2106
35.68886565090076 24.147
35.7122557598848 24.1596
35.73564740699838 24.1162
35.759040593519934 24.0762
35.78261809810353 24.0155
35.80601437933051 23.9054
35.829412203814705 23.9071
35.85281157283719 23.7596
35.876395313415884 23.836
35.8997977874528 23.8131
35.92320180988546 23.7919
35.946790244133936 23.7426
35.97019737933222 23.68
35.993606066789866 23.7014
36.01701630779276 23.6639
36.04061101440684 23.5854
36.06402437852291 23.6139
36.08743930005611 23.5826
36.1108557802951 23.5213
36.13445678011326 23.5378
36.15787639383515 23.545
36.18129757014299 23.4559
36.20472031032821 23.3639
36.22832762423364 23.3107
36.25175350829375 23.2592
36.275180960119776 23.2501
36.298609981005924 23.2056
36.32222362992669 23.2329
36.34565580510207 23.2957
36.36908955323448 23.1618
36.39252487562093 23.0389
36.416144880530226 23.0263
36.43958336764275 23.0491
36.463023432914625 23.0702
36.486465077645676 23.0207
36.51009145956204 23.0402
36.53353627947859 22.9381
36.55698268276811 22.8915
36.58043067073321 22.8854
36.60406345072071 22.7433
36.62751462435344 22.7327
36.65096738658405 22.8051
36.67460498210655 22.6681
36.69806093788647 22.6195
36.72151848619297 22.5391
36.744977628333636 22.603
36.76862165890998 22.4624
36.79208400512205 22.6072
36.81554794910557 22.5632
36.83901349217101 22.406999999999996
36.862663978991606 22.4013
36.88613273667352 22.3783
36.90960309738324 22.3519
36.933075062434064 22.2999
36.95673202673572 22.3189
36.98020721697122 22.3437
37.003684015502365 22.2338
37.027162423645365 22.116999999999997
37.050825886711465 22.0898
37.07430753063053 22.0317
37.09779078812467 22.0019
37.121275660513014 22.0519
37.144945643673694 22.0448
37.16843376245278 22.0231
37.19192350009803 21.9696
37.215414857931435 21.9927
37.239091382563885 21.8223
37.262585997426164 21.8223
37.28608223645736 21.8368
37.309763684451696 21.7866
37.33326318851098 21.7443
37.356764320726555 21.6854
37.380267082425526 21.7025
37.40395510942588 21.7036
37.42746114683234 21.6075
37.45096881771841 21.5136
37.474478123414166 21.5553
37.49817275092816 21.4754
37.52168534303452 21.4655
37.54519957395567 21.3773
37.568715445024665 21.3621
37.592416694607714 21.3424
37.61593586281424 21.3488
37.63945667518264 21.3338
37.66297913304891 21.2233
37.68668702630454 21.2146
37.710212792059274 21.1399
37.733740207334854 21.1821
37.757269273470364 21.0889
37.780983832050374 21.0746
37.80451621684926 21.1045
37.82805025654007 20.9826
37.851585952464795 20.921999999999997
37.8753071980695 20.8844
37.89884622345676 20.8618
37.92238690911902 20.8443
37.94611318753442 20.7847
37.969657210779765 20.8054
37.99320289834801 20.7238
38.016750251586465 20.7645
38.04048325513017 20.6888
38.06403395679343 20.6567
38.087586328183946 20.612
38.11114037065203 20.6273
38.13488012115898 20.6225
38.1584375229181 20.5537
38.181996599821 20.5044
38.205557353221124 20.4353
38.229303872575656 20.4519
38.2528679961576 20.3815
38.27643380031219 20.3571
38.30000128639589 20.296
38.32375459653193 20.3244
38.34732546371299 20.303
38.37089801690786 20.2496
38.39447225747609 20.1796
38.418232380377425 20.145
38.441810012983396 20.2331
38.46538933705673 20.1701
38.488970353960084 20.0757
38.51273731166058 20.0
38.536321731567014 19.9845
38.55990784840681 19.9847
38.58367995004091 19.9872
38.60726947812959 19.8791
38.63086070726198 19.8816
38.654453638806274 19.8968
38.678232613930824 19.8006
38.70182896773327 19.7483
38.72542702806741 19.7843
38.7490267963045 19.7639
38.77281266709232 19.6823
38.79641586862214 19.680999999999997
38.8200207821842 19.5733
38.843627409152944 19.6615
38.86742019782782 19.5587
38.891030269149255 19.4939
38.914642058016156 19.5423
38.938255565806124 19.5269
38.96205529464307 19.4793
38.98567225787121 19.4187
39.00929094417078 19.3745
39.03291135492255 19.4126
39.05671804624804 19.3851
39.080341923549106 19.2903
39.103967529460334 19.2516
39.127594865365744 19.2313
39.15140854155791 19.1797
39.17503935514948 19.1166
39.19867190290282 19.165
39.22249083587951 19.1661
39.24612686969409 19.1532
39.269764641845306 19.1121
39.293404153722804 19.0624
39.317230110864074 18.9349
39.34087311998506 18.9312
39.36451787301696 18.9171
39.388164371352595 18.8982
39.41199737518003 18.8355
39.43564738196752 18.8098
39.45929913825317 18.8278
39.48295264543308 18.8076
39.506792718520884 18.794
39.530449745387216 18.6569
39.55410852735203 18.6343
39.57776906581474 18.6792
39.60161623079 18.597
39.625280300200025 18.6026
39.64894613032202 18.5557
39.67261372255866 18.5552
39.6964680021016 18.5087
39.72013913657293 18.504
39.74381203738292 18.4851
39.76748670593756 18.4324
39.79134812278169 18.4916
39.81502634488497 18.355
39.83870633896685 18.3474
39.862388106436654 18.3145
39.88625668336918 18.3055
39.90994201572829 18.2745
39.933629125719285 18.2049
39.957503091207826 18.1564
39.9811937746168 18.2741
40.00488623990914 18.1916
40.02858048850006 18.1184
40.05246165409549 18.0905
40.076159487492085 18.0475
40.099859108448875 18.0551
40.123560518384345 17.9812
40.1474489070226 17.9844
40.171153913178564 17.8633
40.194860712584955 17.894000000000002
40.2185693066637 17.8607
40.242464941335314 17.8199
40.26617714307655 17.8504
40.289891143772046 17.8201
40.3136069448471 17.7369
40.33750984859743 17.7499
40.3612292688043 17.6913
40.3849504936829 17.6584
40.40867352466194 17.660999999999998
40.43258372059144 17.6487
40.45631038219906 17.6402
40.48003885420956 17.5763
40.503769138055105 17.5614
40.52768664931955 17.5578
40.55142057531802 17.5893
40.57515631746428 17.4796
40.599079334038514 17.4272
40.62281872700477 17.4018
40.64655994043941 17.3286
40.67030297578061 17.3542
40.69423334835778 17.3225
40.71798004609188 17.2324
40.74172857006355 17.2667
40.76547892171441 17.3277
40.7894166736039 17.2648
40.813170699248566 17.2063
40.83692655691388 17.1327
40.86068424804498 17.16
40.884629402612525 17.1148
40.908390779366385 17.1383
40.932153993938 17.0736
40.95591904777605 17.0012
40.979871628443995 17.0165
41.003640379561936 16.9444
41.02741097430883 16.9755
41.05118341413683 16.865
41.075143444384416 16.8847
41.098919593177826 16.89
41.1226975914255 16.8253
41.14647744058318 16.749000000000002
41.170444943946755 16.7217
41.19422851378379 16.8095
41.218013938914645 16.719
41.24198706625173 16.7206
41.26577622087193 16.6973
41.289567235177785 16.6095
41.31336011063129 16.5935
41.337340752422875 16.5731
41.361137369129835 16.5309
41.38493585138705 16.5386
41.40873620066004 16.5335
41.43272438060107 16.4726
41.45652848292052 16.4423
41.48033445666918 16.3883
41.50414230331616 16.3519
41.528138045159764 16.3528
41.551949656675205 16.2274
41.575763145513235 16.285999999999998
41.59957851314666 16.284000000000002
41.62358184070442 16.1984
41.64740098505737 16.197
41.6712220126409 16.2137
41.69504492493139 16.1838
41.71905586207357 16.1533
41.74288256296395 16.1122
41.766711153007456 16.1041
41.79054163368412 16.0249
41.814560204340054 16.018
41.838394485526365 15.9658
41.86223066180303 15.9348
41.88625497706819 15.9763
41.910094962812 15.9996
41.93393684811168 15.8694
41.95778063445365 15.8124
41.981812625263366 15.7989
42.00566023303407 15.8206
42.029509746323676 15.7453
42.05336116662236 15.7397
42.077400857069705 15.7211
42.10125611078846 15.7124
42.12511327600405 15.6737
42.14897235421036 15.6189
42.173019768448455 15.6288
42.19688269209613 15.5878
42.22074753323349 15.5499
42.24461429335818 15.5345
42.268669455600495 15.5252
42.292540073217886 15.5171
42.31641261433284 15.4426
42.34028708044675 15.4741
42.36435001496739 15.4341
42.38822835065557 15.4292
42.41210861586426 15.3042
42.4359908120986 15.3714
42.46006154323262 15.2868
42.48394762115317 15.3063
42.507835634632315 15.3027
42.531912233047436 15.2129
42.55580413732265 15.1746
42.579697981698 15.2458
42.60359376768525 15.2223
42.62767820545945 15.1423
42.65157789440821 15.0944
42.67547952952185 15.0894
42.699383112316 15.0779
42.72347541395347 15.0335
42.74738291190531 14.9921
42.771292362102166 14.9886
42.795203766063516 14.9707
42.819303956130405 14.9335
42.843219287476536 14.866
42.86713657716324 14.8661
42.89105582671383 14.8554
42.91516392983864 14.8347
42.939087119032166 14.8158
42.963012272677304 14.7895
42.98693939230129 14.7422
43.01105543317513 14.7205
43.034986504731386 14.6846
43.05891954686589 14.6836
43.08285456110972 14.7014
43.10697856448665 14.6275
43.130917542983475 14.5483
43.15485849820081 14.5888
43.17880143167367 14.5433
43.20293342237094 14.5278
43.226880332449 14.5079
43.25082922540554 14.4658
43.27496722682525 14.4601
43.29892010567796 14.4051
43.32287497204102 14.4137
43.34683182745632 14.38
43.370977859791836 14.3548
43.39493871351105 14.3318
43.41890156092628 14.3144
43.44286640358341 14.265
43.46702049182749 14.2774
43.49098934522816 14.1909
43.51496019852649 14.2053
43.5389330532723 14.1395
43.56309522248204 14.1062
43.58707210044314 14.162
43.61105098451946 14.0939
43.63503187626491 14.0845
43.659202151562134 14.0309
43.68318707902681 14.0041
43.70717401884041 13.9279
43.731162972560874 13.9504
43.75534137913236 13.9073
43.779334381108384 13.9364
43.803329401683186 13.953
43.82732644241872 13.9024
43.8515130055166 13.8802
43.87551410707659 13.8535
43.89951723350145 13.8465
43.923709934595614 13.8104
43.94771713129917 13.8259
43.97172635758096 13.7785
43.99573761501002 13.7339
44.0199385169922 13.7091
44.04395385732619 13.684000000000001
44.067971233533086 13.6773
44.09199064718605 13.6536
44.11619977548961 13.6178
44.14022328470671 13.5564
44.16424883610785 13.6208
44.18827643127035 13.5725
44.21249381139513 13.583
44.236525514814076 13.4843
44.26055926674478 13.4905
44.28459506876863 13.5089
44.3088207262813 13.4569
44.33286064928722 13.3677
44.35690262714919 13.3701
44.38094666145278 13.3632
44.4051806219871 13.354000000000001
44.42922879003185 13.2935
44.45327901929361 13.2746
44.477331311362136 13.2458
44.501573600619416 13.2234
44.525630039221795 13.1968
44.54968854541895 13.2051
44.573937102200176 13.1026
44.5979997645541 13.1211
44.622064499300315 13.124
44.64613130803592 13.1017
44.67038823869318 13.0815
44.69445921643748 13.0524
44.718532272981385 13.0661
44.742607409926194 12.9825
44.76687274034801 13.0068
44.79095205918753 12.9246
44.81503346325094 12.885
44.839116954143876 12.8902
44.86339071028742 12.9606
44.88747839599524 12.890999999999998
44.91156817336837 12.8446
44.93566004401666 12.8194
44.959942251908146 12.8025
44.984038330325966 12.8178
45.00813650686762 12.7666
45.03223678314731 12.6999
45.05652746888232 12.6705
45.08063196592069 12.6678
45.104738567558705 12.6146
45.128847275414856 12.6567
45.15314646515866 12.5663
45.17725940679741 12.5922
45.20137445952892 12.5378
45.22568004865265 12.5284
45.24979934496396 12.5214
45.27392075725247 12.5226
45.29804428714431 12.4538
45.322358426247604 12.4557
45.346486212804315 12.4298
45.370616121861914 12.4435
45.39474815505086 12.4173
45.41907087049246 12.3677
45.4432071734666 12.3326
45.46734560548283 12.3716
45.49148616817604 12.34
45.51581748638564 12.2611
45.5399623320197 12.2748
45.56410931325473 12.277999999999999
45.58825843173002 12.2102
45.61259837920865 12.177
45.636751793816 12.2414
45.66090735060093 12.1522
45.68506505120716 12.1321
45.7094136545275 12.1393
45.73357566449271 12.0721
45.75773982322992 12.0669
45.78190613238733 12.0348
45.806263418194064 12.0115
45.83043404997326 11.9752
45.85460683713677 12.0257
45.87897065658495 12.0123
45.90314777634752 11.9542
45.92732705646868 11.8893
45.9515084986045 11.8734
45.97588104735473 11.869000000000002
46.00006683541565 11.8474
46.02425479047904 11.8353
46.04844491420549 11.8198
46.0728262191024 11.8087
46.09702070211635 11.7783
46.12121735879483 11.7635
46.14541619080294 11.7846
46.169806278764455 11.7268
46.194009483459034 11.6808
46.21821486849841 11.6743
46.24242243555223 11.6883
46.266821333570014 11.6353
46.29103328674601 11.5531
46.31524742696538 11.6125
46.33946375590237 11.5927
46.36387149104216 11.5453
46.38809221957392 11.5283
46.41231514186606 11.5344
46.436540259597464 11.4482
46.460956858999374 11.4371
46.48518638983522 11.4868
46.509418121166966 11.4207
46.533652054678114 11.3749
46.55807754555709 11.3403
46.58231590571962 11.3623
46.60655647313217 11.3536
46.630988654873654 11.3035
46.655233659129024 11.285
46.67948087571551 11.2577
46.70373030632484 11.2404
46.72817142736393 11.2389
46.752425308428684 11.2019
46.77668140861147 11.2033
46.80093972960865 11.1666
46.82538981736788 11.1113
46.849652602470904 11.1013
46.87391761349769 11.1247
46.8981848521493 11.0652
46.9226439341274 11.0346
46.946915650573224 11.0369
46.97118959976749 11.0438
46.99546578341598 10.9743
47.019933887188216 10.9742
47.04421456235744 10.9449
47.06849747711879 10.9599
47.09278263318286 10.9662
47.11725978640143 10.8715
47.14154944775105 10.8338
47.165841355555656 10.8703
47.1901355115306 10.82
47.214621741924994 10.8185
47.23892041698887 10.812999999999999
47.26322134538975 10.7726
47.28771440635075 10.7576
47.31201986422527 10.7559
47.33632758061436 10.713
47.360637557241866 10.6789
47.38513974410611 10.675
47.40945426407847 10.645
47.43377104948137 10.6511
47.45809010204344 10.6094
47.48260144275502 10.613
47.506925052572285 10.6005
47.53125093475548 10.5491
47.55557909103813 10.5401
47.58009961361992 10.5347
47.60443234110732 10.5109
47.62876734791564 10.4875
47.65310463578333 10.4479
47.6776343683373 10.4426
47.7019762413987 10.4001
47.72632040075572 10.3633
47.75066684815169 10.3815
47.77520581885936 10.3495
47.799556865477655 10.343
47.823910205386 10.2906
47.84826584033272 10.282
47.87281407745551 10.2302
47.89717432569297 10.2513
47.92153687423484 10.2909
47.94609208429692 10.2165
47.97045925671401 10.219
47.99482873471275 10.1875
48.01920052005013 10.1974
48.04376504619224 10.1653
48.068141469543484 10.1357
48.09252020552573 10.1738
48.11690125590099 10.1069
48.1414751266064 10.0963
48.16586082917454 10.0723
48.19024885144316 10.0483
48.2146391951793 10.0673
48.239222439012764 10.0375
48.26361744916137 10.0164
48.28801478610016 9.990689999999999
48.31241445160131 9.98588
48.337007097209366 9.94567
48.36141144338331 9.91452
48.38581812345755 9.94586
48.41022713920929 9.89776
48.434829215320704 9.87777
48.45924292604658 9.88535
48.48365897780325 9.844510000000001
48.50807737237308 9.80438
48.532688907799276 9.86104
48.55711201168574 9.82395
48.581537463754074 9.7827
48.60615611725119 9.76787
48.63058628942721 9.75795
48.65501881516546 9.7086
48.6794536962573 9.72011
48.70408185970339 9.64
48.72852147531801 9.65665
48.75296345168211 9.62726
48.77740779059232 9.61777
48.80204549302823 9.61068
48.82649458091802 9.59914
48.85094603676547 9.56795
48.87539986237231 9.549560000000001
48.90004713292306 9.56392
48.92450572200832 9.56763
48.94896668628025 9.458919999999999
48.97343002754588 9.4663
48.99808689542115 9.46686
49.02255501470614 9.47712
49.04702551642794 9.45715
49.0714984023988 9.399339999999999
49.096164896893235 9.33175
49.120642575466796 9.3714
49.145122643748394 9.36312
49.16960510355558 9.31981
49.19428125404938 9.34233
49.2187685210852 9.33389
49.243258185121555 9.29641
49.26794160167084 9.255360000000001
49.2924360839405 9.23044
49.31693296869764 9.21664
49.34143225776915 9.21223
49.36612538195438 9.18454
49.39062950396021 9.19327
49.41513603578346 9.16645
49.4396449792564 9.153839999999999
49.46434784069503 9.14167
49.488861631846454 9.11774
49.513377840166804 9.10193
49.537896467493745 9.086
49.56260909589029 9.04898
49.587132585683285 9.03476
49.611658500018365 9.09243
49.636186840738596 9.00324
49.66090926588511 8.979560000000001
49.685442483902584 8.93145
49.70997813385706 8.93193
49.734516217597076 8.917710000000001
49.75924846937352 8.93989
49.7837914452858 8.935139999999999
49.80833686055187 8.8509
49.83288471702571 8.85865
49.85762682540054 8.858369999999999
49.882179588965734 8.79687
49.9067347993235 8.80079
49.93129245833333 8.77582
49.95604445336378 8.79014
49.98060703442832 8.72457
50.005172069746266 8.71441
50.02993150438364 8.74905
50.05450147301533 8.71391
50.07907390151433 8.71544
50.10364879174981 8.699810000000001
50.12841816587289 8.64573
50.1529980044635 8.6301
50.17758031042124 8.59707
50.20216508562089 8.59639
50.22694442953363 8.56737
50.25153416817468 8.5647
50.27612638170508 8.52852
50.300721072005196 8.51642
50.325510416102105 8.5125
50.350110084975064 8.51177
50.37471223628208 8.49688
50.39931687190919 8.44801
50.424116246675766 8.43667
50.44872587605249 8.42627
50.47333799543065 8.39931
50.49795260670191 8.41255
50.52276204271512 8.4024
50.54738166295838 8.37711
50.57200378079314 8.374460000000001
50.596628398116835 8.31542
50.62144792604559 8.30839
50.646077567609396 8.30833
50.670709714377715 8.3169
50.69553683636198 8.30068
50.72017401885922 8.2759
50.7448137122895 8.25876
50.76945591856022 8.26336
50.79429318636823 8.21978
50.818940443716784 8.19696
50.84359021965163 8.20054
50.868242516085964 8.166089999999999
50.893089960641895 8.143139999999999
50.917747323549435 8.13793
50.94240721271973 8.1062
50.96706963007175 8.08758
50.99192728239342 8.07094
51.01659478166073 8.09395
51.04126481489051 8.051680000000001
51.06593738400761 8.0445
51.090805275207074 8.039539999999999
51.11548294172845 8.01479
51.14016314993547 7.9995899999999995
51.164845901758845 8.01021
51.18972406304274 7.96215
51.21441192780656 7.91363
51.23910234200271 7.9228
51.2637953075678 7.9372
51.288683770237945 7.91516
51.31338186432707 7.87246
51.33808251561888 7.87197
51.362978729967345 7.8705
51.387684521509755 7.8472800000000005
51.41239287610203 7.8456
51.437103795691165 7.82194
51.46201036644977 7.80163
51.486726441956634 7.78131
51.51144508832545 7.76881
51.536166307509156 7.73337
51.56108326624387 7.710160000000001
51.58580965706056 7.67051
51.61053862657523 7.68625
51.635270176746864 7.6662
51.66019755512065 7.658939999999999
51.68493429268881 7.64278
51.70967361681515 7.6439699999999995
51.73441552946465 7.63345
51.759353359237934 7.606739999999999
51.7841004750961 7.566730000000001
51.80885018539685 7.54736
51.833602492111254 7.49295
51.8585508051424 7.518680000000001
51.883308330926425 7.50748
51.90806845906181 7.52712
51.932831191525715 7.4824
51.95779001977161 7.45644
51.98255798721516 7.455189999999999
52.00732856494335 7.431089999999999
52.03229530577543 7.3832699999999996
52.057071130455945 7.38443
52.081849571391054 7.37747
52.106630630568695 7.38081
52.13160794279417 7.337960000000001
52.15639426492067 7.37453
52.18118321127822 7.35503
52.205974783860896 7.313969999999999
52.23096269971011 7.286630000000001
52.255759551287994 7.27937
52.280559035098186 7.239910000000001
52.30536115314103 7.25212
52.33035970494467 7.2271600000000005
52.35516711807904 7.2488600000000005
52.37997717147198 7.1947600000000005
52.40478986713005 7.19258
52.42979908731974 7.2136
52.454617094216 7.15917
52.47943774942214 7.13616
52.50426105495102 7.10663
52.529280976059844 7.127839999999999
52.554109609024096 7.13357
52.57894089837482 7.0911800000000005
52.60377484613117 7.08144
52.62880550079408 7.0837699999999995
52.65364479223379 7.060410000000001
52.67848674816189 7.04771
52.70352547971946 7.06332
52.72837279155837 7.01405
52.753222773982785 6.99667
52.778075429022984 6.98787
52.80312495150885 6.95903
52.827982978797436 6.95016
52.85284368481815 6.908189999999999
52.87770707160767 6.895510000000001
52.90276741793998 6.8761399999999995
52.92763619336701 6.848730000000001
52.952507655698504 6.87465
52.977381806977576 6.83045
53.00245301017842 6.81843
53.02733256653592 6.8520199999999996
53.052214817996074 6.8092
53.077099766608484 6.78575
53.102181859804446 6.74688
53.127072229988265 6.77605
53.15196530349892 6.79587
53.17686108239249 6.733219999999999
53.20195409881522 6.7043800000000005
53.22685531582556 6.740539999999999
53.25175924441303 6.72099
53.27666588664027 6.67625
53.30176985962693 6.647060000000001
53.3266819565689 6.6505600000000005
53.35159677336455 6.63743
53.376514312083096 6.64487
53.40162927507703 6.61388
53.42655228516116 6.58772
53.45147802340193 6.56325
53.47660125628886 6.54066
53.50153247842639 6.54676
53.52646643496923 6.54972
53.55140312799818 6.52121
53.576537409691696 6.53746
53.60147960336152 6.4753
53.626424539786164 6.47837
53.65137222105307 6.4711099999999995
53.67651758529126 6.43847
53.70147078399681 6.40791
53.72642673383343 6.45838
53.75138543689533 6.4166
53.776541917524526 6.38172
53.801506154876755 6.38743
53.826473151763246 6.363169999999999
53.851442910284916 6.33056
53.87661054126026 6.33407
53.9015858509782 6.28273
53.92656392866066 6.3111
53.95154477641532 6.3216
53.976723591801296 6.2900599999999995
54.00171000771266 6.28331
54.02669920004598 6.2535
54.051691170915745 6.25812
54.076881204886796 6.2808
54.101878760928514 6.2371099999999995
54.12687910187696 6.19937
54.152077577768296 6.1961
54.1770835166946 6.17816
54.20209224691339 6.1798
54.22710377055121 6.13176
54.25231352511594 6.11625
54.27733066384342 6.09934
54.30235060239643 6.09051
54.32737334290836 6.11763
54.35259441062629 6.06154
54.377622783395324 5.98077
54.40265396455061 5.99648
54.42768795623251 6.03156
54.45292037169559 5.96753
54.477960012857906 5.966
54.50300247099511 5.9519400000000005
54.52804774825457 5.95315
54.55329154616743 5.9210199999999995
54.57834249018678 5.86109
54.6033962597977 5.81922
54.6284528571545 5.79435
54.653708072335164 5.81605
54.67877035378786 5.80655
54.70383546947698 5.80234
54.72890342156389 5.77944
54.7541700889442 5.77536
54.77924374251975 5.71991
54.8043202390049 5.71466
54.82959552413022 5.69725
54.8546777351945 5.70423
54.87976279569621 5.6548099999999994
54.90485070780914 5.68475
54.930137506558005 5.61811
54.95523115074295 5.6368
54.98032765308844 5.56835
55.005427015775496 5.58
55.03072536339621 5.59333
55.05583047570572 5.495769999999999
55.080938454927676 5.53417
55.10604930325027 5.46937
55.131359235107396 5.5010900000000005
55.15647585066083 5.46584
55.181595341907496 5.40672
55.20671771104285 5.3573699999999995
55.232039262617704 5.37783
55.25716741665048 5.32667
55.28229845518636 5.31038
55.30743238042802 5.3006
55.33276558731939 5.30746
55.357905315183636 5.222180000000001
55.383047936390035 5.211880000000001
55.40819345314859 5.1341
55.433538351073295 5.2141
55.458689688238415 5.19295
55.483843927614096 5.15729
55.509197623043605 5.12175
55.53435769621134 5.051069999999999
55.55952067826466 5.09211
55.5846865714265 5.021059999999999
55.61005202069737 5.01655
55.63522376553902 5.0093
55.66039842818645 4.94855
55.68557601087004 5.02346
55.7109532500271 4.92596
55.73613670233794 4.95299
