TT I
1.2716486653135266 7.45684
1.2939594142134223 7.477180000000001
1.3162702121660406 7.21305
1.3385810600174564 6.9997300000000005
1.3608919586137629 6.712999999999999
1.383202908801069 6.45955
1.405513911425503 5.86194
1.4278249673332093 6.13357
1.4501343378461518 5.762519999999999
1.4724455028545926 5.89235
1.4947567236847858 6.08857
1.517068001182951 6.50737
1.5393793361953272 5.897959999999999
1.5616907295681737 5.85696
1.5840021821477681 5.75159
1.60631369478041 4.9755400000000005
1.6286252683124185 5.277419999999999
1.6509369035901333 5.14613
1.6732468618895553 5.19624
1.695558623192809 4.95328
1.7178704487808514 5.5762599999999996
1.7401823395001077 4.918880000000001
1.7625012545597203 4.540369999999999
1.7848028405262486 4.82734
1.8071218901122095 4.96709
1.8294236121921872 4.25176
1.8517427996910911 4.78705
1.8740620574440425 4.880719999999999
1.8963639900671978 5.16069
1.9186833908139995 5.07306
1.9409854680117449 4.88935
1.9633050151394713 4.5001
1.9856246367570705 4.83663
2.0079269371922672 4.67274
2.03024671027244 4.70034
2.0525491637446027 4.47502
2.074869091674931 4.82752
2.097171701569106 4.61123
2.1194917877373847 5.20288
2.141811954326636 5.22535
2.164114805233074 4.3428
2.186435135143035 6.28451
2.208738150935709 17.197
2.231058647554722 38.1829
2.2533792288321184 29.6073
2.275682498336085 12.5483
2.298003251406138 6.55141
2.3203066942619714 5.19728
2.3426276225136022 5.72536
2.3649486396617507 5.613569999999999
2.387252348930071 6.31849
2.4095735463442893 5.6145
2.4318774374315884 6.08861
2.4541988185014043 6.44247
2.476502894794693 6.8093699999999995
2.498824462909887 6.910939999999999
2.521146125856138 7.507460000000001
2.5434504863470337 7.50235
2.5657723414244717 8.69867
2.588076895590662 8.92863
2.610398946189713 8.0786
2.6327210958598384 8.12138
2.6550259469304716 7.80655
2.6773482972090137 8.09935
2.6996533504259 8.36616
2.7219759047039602 8.19864
2.744298562293959 7.70074
2.7666039251246595 7.939019999999999
2.7889267918020164 7.86672
2.8112323652516555 8.34957
2.833555444408179 8.39439
2.8558786311183852 8.66905
2.8781845268938557 8.84735
2.9005079311721484 9.14078
2.9228140460410397 9.18892
2.9451376712799635 9.42093
2.967444008632326 9.586039999999999
2.9897678582247247 9.90199
3.0120918213106695 10.8971
3.0343984987899373 11.0153
3.0567226913198637 11.3408
3.079029599759726 11.5244
3.101354025127254 12.527000000000001
3.123678568232338 12.3848
3.145985829517914 12.9384
3.16831061055229 13.540999999999999
3.1906181112775593 14.7554
3.212943133635653 15.2138
3.2352682779763207 15.3296
3.2575761442691227 15.4162
3.2799015350264273 15.9484
3.302209649240067 16.1982
3.3245352898092655 16.5348
3.3468436553365257 16.8402
3.369169549113219 17.419
3.3914955708171384 18.5386
3.413804319727358 19.4281
3.4361305997334863 19.3319
3.4584396084414553 19.9511
3.4807661501462652 20.6902
3.503092824025881 20.9273
3.5254022288463154 20.8433
3.5477291695206588 21.9656
3.5700388426251948 22.8064
3.5923660534916446 24.2477
3.6146934007816114 43.8191
3.637003482731501 115.93
3.6593311053109985 131.842
3.681641464033634 72.0778
3.7039693653009733 33.2952
3.726297407241705 26.5659
3.7486081875460804 25.6349
3.7709365132734978 26.2503
3.793247578841633 26.719
3.8155761917550093 26.7565
3.8378875459837216 27.1263
3.8602164494827234 27.9346
3.882545499606844 28.4541
3.9048572932539183 28.7004
3.9271866390645718 29.0997
3.9494987298666713 29.9789
3.971828374764527 30.5705
3.9941581705403255 31.1311
4.016470713506008 31.1579
4.038800813471445 32.1471
4.061113662089144 33.2255
4.0834440696459176 34.2009
4.105774632334751 34.4234
4.128087945865126 35.4032
4.150418821249301 36.088
4.172732448931298 37.2342
4.195063640413578 39.3532
4.2173775856475215 44.5802
4.239709096631102 84.5615
4.262040768704612 313.606
4.284355196706267 444.01800000000003
4.306687193387355 284.251
4.329001947444346 99.3431
4.35133427213731 50.7382
4.373666762177566 45.4513
4.395982011761091 44.5497
4.418314834921175 45.7048
4.44063041906622 56.2801
4.4629635787515625 72.2265
4.4852969080429785 71.8138
4.5076130004776225 56.7276
4.529946671403969 50.1934
4.552263106909177 49.882
4.574597122877047 50.6848
4.596931312711224 51.4214
4.619248269273446 53.0016
4.6415828092605835 53.7668
4.663900117405352 54.778
4.686235010953232 56.3074
4.708552674085913 57.8324
4.730887924602802 58.8694
4.753223354952695 60.4567
4.775541557023902 61.7259
4.797877349456786 62.8778
4.820195915032126 64.656
4.842532072957498 66.4141
4.864868414979744 68.4216
4.88718753227192 70.6833
4.909524244902505 72.1432
4.931843734218147 74.0289
4.954180820867835 76.3248
4.976518095879839 79.0359
4.998838149695359 81.4681
5.021175803844231 85.0004
5.043496238205739 88.0965
5.065834274903528 91.9145
5.088172504230693 96.8514
5.1104935158799565 102.65899999999999
5.132832132875765 127.59100000000001
5.155153533596801 182.197
5.1774925416746225 215.21
5.199814334878411 301.33
5.2221537374521505 797.316
5.244493338631803 2378.69
5.266815727034316 7207.6
5.289155727832427 12839.9
5.311478517248165 9371.87
5.333818921080011 3099.69
5.356159527788849 594.578
5.3784829252032536 189.018
5.400823940070432 144.434
5.423147747031976 128.00799999999998
5.445489173474152 118.075
5.467830807066149 112.344
5.490155234831516 107.759
5.512497285125229 104.479
5.534822130975162 102.904
5.557164601388673 100.995
5.579489868738879 98.1928
5.601832762690846 97.5646
5.6241758697774475 96.745
5.646501775867269 95.4219
5.668845311622074 93.7707
5.691171647754637 92.76700000000001
5.713515615597765 91.6409
5.735859800852677 90.9297
5.758186788542988 89.9937
5.780531411018185 89.9552
5.802858837297399 89.3202
5.825203900414495 88.9749
5.8475491852224 89.3289
5.869877275883075 89.7215
5.892223006467101 90.5857
5.914551544266608 91.4633
5.936897724049891 93.2152
5.959244129804903 97.6653
5.981573344815301 109.875
6.0039202049061 176.657
6.026249875609095 375.995
6.04859719346037 815.671
6.070927323278297 1931.72
6.093275102315365 4179.92
6.115623113320588 5275.84
6.137953938319995 3343.77
6.160302415650845 1032.69
6.182633708324452 244.032
6.2049826554078376 114.98299999999999
6.227331838745022 92.7932
6.249663839443684 85.2632
6.27201349767565 83.3622
6.294345974611799 92.5747
6.316696111167083 110.96
6.339046488263839 104.28399999999999
6.361379686074702 83.7812
6.383730546639482 72.2635
6.406064229255215 68.6721
6.428415576718203 67.226
6.450749747566656 66.778
6.47310158535871 65.5916
6.495453669698332 65.2999
6.517788579421056 64.9276
6.540141159237969 63.7943
6.562476565766648 63.5753
6.5848296444934045 62.6117
6.607182974060425 62.5294
6.6295191323281015 62.9551
6.651872965955752 67.6433
6.6742096296068985 102.59
6.6965639707294615 170.463
6.71891856698715 173.805
6.741255995248479 111.48100000000001
6.763611104154477 72.6447
6.785949046381137 61.7139
6.808304671371482 59.0014
6.8306605557940046 58.4095
6.852999275508618 57.4062
6.875355681171544 57.4683
6.897694923437771 57.1098
6.92005185377892 56.7029
6.9423916220322655 56.5786
6.964749080490181 55.8834
6.987106804399774 56.1236
7.009447368180821 55.6942
7.031805625367033 55.5916
7.054146723727803 55.7193
7.076505517631004 55.4915
7.098864581288365 55.1578
7.121206488070854 55.2444
7.143566093607822 55.1772
7.165908543567245 55.6892
7.188268694426048 55.4642
7.2106291193438095 55.8778
7.232972390625943 57.9443
7.255333366030969 73.9395
7.277677189091925 149.754
7.300038718428332 224.14
7.322400526130865 185.854
7.344745183422596 105.34299999999999
7.367107550224791 65.5228
7.389452767901992 57.456
7.411815697249891 55.9229
7.434161478756298 54.601000000000006
7.456524974096713 54.5463
7.478888753837185 54.3514
7.501235387657368 54.8529
7.523599738562711 54.7708
7.545946944825532 55.0024
7.568311870344528 55.2721
7.5906770845765665 55.8612
7.613025156078678 57.5983
7.635390950099687 59.3973
7.657739602662809 57.9047
7.680105979923558 56.1722
7.702472650212829 56.2504
7.724822180948224 55.9745
7.747189439655568 56.15
7.769539560075357 55.8877
7.791907410653562 56.2029
7.81425812420825 56.3631
7.836626570110925 56.7241
7.858995315087906 57.7123
7.881346924933401 57.6217
7.903716270417482 58.1708
7.926068482028405 58.28
7.948438431475253 59.1545
7.9708086843180235 59.2469
7.993161805171116 60.2469
8.015532667162402 60.9213
8.037886398416653 61.6677
8.060257873014221 61.5729
8.082629655331942 62.537
8.104984308787587 64.024
8.127356708900503 67.6671
8.149711981398308 75.1577
8.172085002766314 78.7734
8.194458336181368 73.7392
8.216814543847752 69.2423
8.23918850371002 68.9523
8.26154533906492 69.6006
8.283919928836452 71.1632
8.306277395339652 72.0749
8.328652618483376 73.4135
8.351028159736202 75.2742
8.373386579575245 77.2352
8.395762759396959 78.9323
8.418121819038275 84.4069
8.440498640894003 101.265
8.462875785192262 118.87100000000001
8.485235811156207 125.963
8.507613602688501 149.578
8.529974277114228 219.62099999999998
8.552352719347912 337.19699999999995
8.574731488360351 582.909
8.59709314210385 1078.1
8.619472567021075 1762.25
8.64183487789147 2197.37
8.664214962183097 1870.05
8.686577933647762 1045.75
8.708958680784317 394.45599999999996
8.731339760774953 171.62099999999998
8.753703729764451 112.654
8.77608547780821 99.1337
8.798450116065078 95.0369
8.820832535634787 91.6431
8.843215292401656 90.3414
8.865580941199045 88.8829
8.887964374703538 87.7657
8.910330701447199 89.9786
8.932714815164482 93.8807
8.955099270424924 93.2763
8.977466620733543 88.8057
8.999851761421976 85.0944
9.022219798361645 82.7996
9.04460562795561 82.67299999999999
9.066991803441677 81.9446
9.089360876979615 82.1599
9.111747746589993 81.4731
9.13411751544971 80.9177
9.156505082664324 81.0342
9.178875550323522 81.2581
9.20126381862328 82.0148
9.223652438908596 82.6201
9.246023961427412 82.2722
9.26841328802173 81.1855
9.290785518039224 80.9429
9.313175554425882 81.4143
9.335565947154315 81.3688
9.357939245086508 81.7256
9.380330352834827 82.2085
9.40270436697103 82.4577
9.425096193225055 82.33200000000001
9.447488380180165 83.2
9.469863475295412 83.1642
9.492256385987508 83.6906
9.514632206018318 84.1168
9.537025843935714 84.7473
9.559402392368193 85.2474
9.581796761000229 86.3949
9.604191496441521 87.2064
9.626569144158516 91.7409
9.648964615551032 97.7917
9.671343000390081 100.363
9.693739211225699 97.428
9.716135793237463 93.5726
9.738515290448102 92.2466
9.760912617143402 92.8259
9.783292860202891 93.7594
9.805690935076182 95.0087
9.828089385495742 96.316
9.850470754023561 98.9359
9.872869957865444 108.11200000000001
9.89525208097539 128.168
9.917652041736662 145.929
9.940052382417589 142.778
9.962435644102392 137.342
9.984836746950979 158.392
10.007220771957746 209.021
10.029622640473708 297.302
10.052007432299963 459.199
10.074410069984072 732.613
10.096813093716005 1190.19
10.119199042482517 1700.7
10.141602840636468 2017.38
10.163989564971628 1661.09
10.186394141051062 934.45
10.208799107559706 410.32199999999995
10.231187001965623 192.14700000000002
10.253592751657669 126.999
10.275981430388155 113.135
10.298387966769793 113.898
10.320794897965431 118.005
10.343184759907361 117.53
10.36559248305461 110.13600000000001
10.387983138083852 103.90799999999999
10.410391656691655 104.21
10.432800574501677 112.06299999999999
10.455192425893369 126.588
10.47760214443012 148.27
10.499994797678786 188.019
10.522405320453982 261.155
10.54479877906917 381.381
10.567210109595656 514.88
10.5896218454736 577.569
10.612016518879773 524.377
10.634429067781074 368.92400000000004
10.656824555333241 210.66
10.679237920773568 128.08
10.701651695961992 96.9579
10.724048411481384 89.1154
10.746463008485165 86.096
10.768860546937125 84.3556
10.791275969274796 82.3068
10.81369180576079 81.3737
10.836090585366925 80.6621
10.858507252467449 79.5283
10.88090686379991 78.5695
10.903324365036394 78.2097
10.925724811614439 78.2432
10.948143150509463 80.2649
10.970561909719066 79.7113
10.992963615930844 77.3205
11.015383218085756 74.7107
11.037785768347074 72.9734
11.06020621697282 72.2591
11.082627090322113 72.0214
11.105030913430326 71.4879
11.12745263854165 72.5757
11.149857314510728 77.6345
11.172279894912576 86.3182
11.194702904450653 88.3416
11.217108866490921 82.7054
11.239532736615194 76.4595
11.26193956033512 73.3844
11.284364294577085 70.8967
11.306789462371718 68.6216
11.329197585398376 67.1015
11.351623622610898 66.501
11.37403261614354 65.8686
11.396459526308487 65.8367
11.418869393879497 65.2521
11.441297180532617 64.9198
11.463725406927658 64.3427
11.486136592353875 64.1658
11.508565700543707 65.2836
11.530977768845315 68.0964
11.553407762368774 69.5435
11.575838200059769 68.7914
11.598251599479612 66.2819
11.620682927815501 64.1574
11.64309721895548 63.3889
11.665529441478206 62.952
11.687962112597958 62.5026
11.710377748130886 62.6813
11.732811318753434 62.7866
11.755227854859067 62.9864
11.777662328529495 62.7824
11.800079768750786 62.3237
11.822515149015453 61.8881
11.844950984084935 62.1871
11.867369787303163 62.0327
11.889806534289491 62.1721
11.912226250487029 62.6226
11.934663912939751 62.5045
11.9571020346363 62.5155
11.979523127133968 62.2461
12.001962169624331 62.8726
12.024384183972964 63.6008
12.046824150809913 65.8651
12.069264581333726 70.3155
12.091687985297767 75.695
12.11412934550045 84.2124
12.136553680195208 97.7177
12.158995973632788 118.742
12.181438735204349 145.387
12.20386447284199 184.745
12.226308172985636 210.653
12.24873485024193 206.06900000000002
12.271179492516982 176.615
12.293607112949127 133.02100000000002
12.316052700916226 102.069
12.338498763250042 82.9893
12.360927805303868 72.2047
12.383374818673879 67.1016
12.405804812803074 64.5529
12.428252780773262 64.0814
12.45070122756722 64.0305
12.473132656675375 63.8181
12.49558206341869 64.1007
12.518014453510101 63.9614
12.540464823770117 64.0479
12.562915677315177 64.2939
12.58534951575545 65.1841
12.607801338171472 67.8904
12.630236146511358 74.9056
12.652688941369085 82.1715
12.675124723177234 83.0251
12.697578494048786 77.1087
12.720032754458185 70.7403
12.742470003354093 67.9685
12.764925245138771 67.5245
12.787363476431278 67.6994
12.809819703166806 67.6106
12.83227642391173 68.2232
12.854716135692716 69.0486
12.877173846755147 70.1129
12.899614549869717 70.2265
12.9220732548287 70.8185
12.94453245827299 71.3149
12.966974655289818 72.3572
12.989434858002571 73.1078
13.011878055298721 73.9126
13.034339260862497 74.7049
13.056800969391883 75.8411
13.079245674017244 77.48899999999999
13.101708390774869 78.9648
13.12415410463411 84.3821
13.146617833206086 95.0043
13.169064559883248 105.7
13.191529303857127 118.321
13.213994557076367 138.475
13.236442809902437 171.84
13.258909083908291 222.326
13.28135835851934 288.973
13.30382565690295 360.055
13.326293469022952 424.191
13.348744283242008 437.995
13.371213125129904 380.01099999999997
13.39366497011003 282.20599999999996
13.416134845360597 184.171
13.438605238843131 127.39200000000001
13.46105863690397 104.861
13.483530069144786 101.98299999999999
13.505984506951902 105.719
13.528456981549432 113.404
13.550929978879088 126.34100000000001
13.573385983253365 147.39700000000002
13.595860028340867 183.46400000000003
13.618317081455832 232.701
13.64079217790333 290.23400000000004
13.663250283359057 344.01800000000003
13.685726434770173 372.106
13.708203115221277 348.653
13.730662806148091 274.762
13.75314054697177 192.113
13.775601299246777 132.352
13.798080104050406 98.7583
13.820559442405358 85.3232
13.843021793671388 81.4674
13.865502201420897 79.5301
13.887965623051947 79.0279
13.910447103807167 77.8232
13.932929122629764 76.3724
13.955394156785959 76.2609
13.977877254034569 75.3565
14.000343367582113 74.4481
14.022827546871707 73.8063
14.045294743423524 73.1363
14.06778000837062 72.3363
14.090265817715476 72.2279
14.112734645763819 72.2094
14.13522154619454 72.1688
14.157691466286913 72.416
14.180179461423874 72.1238
14.202668005486178 71.2205
14.22513957064374 70.2082
14.247629214846473 69.704
14.270101881097517 69.7048
14.29259262906496 70.2233
14.315083930490205 71.2576
14.337558255389705 71.7227
14.360050666019726 71.4533
14.382526101071944 70.0838
14.405019624534942 69.0878
14.427513705993134 68.4818
14.449990813291825 68.0253
14.47248601302899 67.9733
14.49496423954951 68.452
14.517460561197822 68.4928
14.539939910570322 68.0561
14.562437357763558 68.3177
14.58493536931253 69.6641
14.607416409993311 71.2569
14.62991555254159 72.2318
14.652397725157423 71.8211
14.674898002342799 70.83
14.697398848433282 69.7661
14.719882725991326 70.1154
14.74238471217934 70.3454
14.764869730765593 72.6485
14.787372860692983 75.7863
14.809876564079925 79.9315
14.83236330125751 84.8166
14.854868153850365 92.3481
14.877356041159485 104.46
14.899862046604186 121.374
14.922351087688757 145.012
14.944858249632887 173.317
14.967365991421232 202.71099999999998
14.989856770231246 221.49200000000002
15.012365673994204 221.489
15.03485761569738 194.019
15.05736768508665 152.477
15.07987833888692 118.402
15.102372032001655 92.243
15.124883856909658 77.7463
15.14737872204565 72.4
15.169891721717274 70.2609
15.192405310371893 70.0082
15.214901940621196 70.9468
15.237416709527137 71.2349
15.259914520936249 71.8959
15.282430473753607 70.7385
15.304947020131227 69.1243
15.327446610371178 68.0307
15.349964346154254 67.0121
15.372465126703139 66.5352
15.394984055556009 66.2105
15.417486030076159 65.9285
15.44000615566487 65.47800000000001
15.462526881230803 65.4798
15.485030653812652 65.7511
15.507552581617434 65.8514
15.530057557334603 66.0477
15.55258069104857 65.8525
15.575104429329837 65.6257
15.597611216864632 65.2398
15.620136166564563 65.0046
15.6426441664095 65.6954
15.665170331202765 67.1981
15.687697105158826 69.9044
15.710206930593545 73.125
15.732734925158933 76.5712
15.755245972089478 81.9193
15.77777519094324 90.1594
15.800287463046663 101.76799999999999
15.822817909869592 119.927
15.84534897229804 141.026
15.867863089299354 163.69899999999998
15.890395385222186 183.801
15.912910736597423 193.78
15.935444269699861 186.377
15.957978423016485 160.67700000000002
15.980495633101265 127.911
16.003031029129367 98.7277
16.02554948280019 78.3837
16.048086125229432 68.7283
16.070623392487107 66.031
16.09314371869582 65.139
16.11568223789321 64.4831
16.13820381691126 63.1066
16.160743591742527 61.7203
16.183283996022084 60.5328
16.205807461423195 59.2286
16.228349126881973 58.7376
16.25087385432698 58.6382
16.27341678466365 58.2743
16.29594277784926 58.0604
16.31848697676433 58.5129
16.341031811604868 59.4129
16.36355971058487 59.9777
16.3861058195587 59.7075
16.40863499352978 58.1748
16.431182380342005 57.0031
16.453730407713202 56.2759
16.476261501364792 55.5822
16.498810812136167 55.174
16.52134319004079 55.243
16.54389378792203 55.048
16.566445031001553 54.8019
16.588979342490088 54.7283
16.61153187824822 54.6295
16.634067483263312 54.4597
16.656621315414416 54.5922
16.679175797408888 54.2257
16.701713349928728 54.1857
16.72426913389191 54.4124
16.74680798922351 54.6886
16.76936507887444 54.571000000000005
16.791905240734874 54.6292
16.814463639794468 54.4651
16.837022695210294 54.5874
16.859564824093756 55.108999999999995
16.882125194503903 55.9104
16.904668639217885 57.0555
16.927230328348003 57.2722
16.949792678493612 57.458
16.972338104193863 56.5299
16.994901778652235 55.5307
17.017448529496576 55.2279
17.040013531998152 55.2761
17.06257920018044 55.6415
17.0851279459922 56.352
17.107694947817667 56.9998
17.130245028099072 57.9127
17.15281336730298 58.9641
17.17536478578733 60.6105
17.19793446610687 62.6133
17.220504818648422 65.5117
17.243058251703697 68.4627
17.265629950971032 73.0054
17.288184731571736 78.1146
17.310757781306908 82.296
17.33333150794385 83.6311
17.355888317140174 82.8514
17.37846339986244 78.2032
17.401021565958885 70.9901
17.42359800851343 65.6526
17.44617513265564 61.7649
17.468735341390783 59.7258
17.491261035594565 58.7402
17.51396340099364 58.4612
17.536490463869136 58.6886
17.559018209820174 58.7847
17.58154663977963 58.8217
17.604251766089718 58.9377
17.626781572227713 59.0585
17.64931206518155 59.2471
17.671843245885103 59.7475
17.69455114821572 60.1422
17.717083712612634 60.6294
17.739616967569667 60.5583
17.762150914021706 60.6999
17.78486160749854 60.7357
17.807396945166804 61.1931
17.829932977143503 61.677
17.85246970436452 62.7758
17.875183204129467 64.5161
17.897721330097664 66.8144
17.920260154126645 68.7913
17.942799677153296 71.5577
17.9655159983646 74.9038
17.988056927677544 79.7247
18.010598558807683 86.2814
18.033140892692916 95.4456
18.05586005052525 106.273
18.07840379824407 118.181
18.10094825154059 129.648
18.12366954819864 138.792
18.146215420998306 140.24200000000002
18.16876200220057 132.893
18.191309292745153 118.655
18.214033452627167 104.316
18.236582170236648 91.8681
18.259131600016456 85.6884
18.281681742907335 84.751
18.304408781233683 88.4039
18.32696035875955 93.5682
18.349512652227624 98.6094
18.372065662579683 103.98299999999999
18.394795594587553 106.52799999999999
18.41735004715306 103.60600000000001
18.43990521943684 97.5226
18.46246111238171 88.4868
18.485193953325208 78.688
18.507751296070428 70.9141
18.530309362314178 66.188
18.552868153000343 63.43
18.57560391815056 61.8304
18.59816416623245 61.3451
18.620725141597372 60.8984
18.643286845190268 60.3556
18.666025549835414 60.1185
18.688588718427933 59.3301
18.711152618092243 59.2769
18.73389353884365 58.8632
18.75645890921984 58.5897
18.77902501351406 58.3017
18.801591852673102 58.093
18.824335739722738 57.5799
18.846904057212626 57.4424
18.8694731124168 57.3634
18.89204290628315 57.3143
18.914789774966803 57.1457
18.937361054791623 56.6565
18.959933076131318 56.6214
18.982505839934877 56.6122
19.00525570560582 56.7131
19.027829963004184 56.6352
19.05040496572238 56.5964
19.072980714710468 56.4065
19.095733592739563 56.5977
19.11831084296757 56.7769
19.140888842324735 57.3953
19.16346759176222 57.876999999999995
19.18622349753803 58.2701
19.208803755869358 58.8742
19.231384767143577 59.7868
19.253966532312948 60.8729
19.276725481241822 62.8701
19.29930876296784 65.1419
19.3218928014549 68.2225
19.34465404436217 71.9777
19.36723960516257 74.9449
19.389825925592426 76.7123
19.412413006605938 75.8771
19.43517731967805 72.7963
19.457765930683355 68.4439
19.48035530514408 63.4437
19.50294544401556 59.497
19.525712842708348 56.6756
19.54830451925909 55.0583
19.570896963095727 53.8585
19.593490175174704 53.5849
19.616260674962184 53.4717
19.638855432416964 53.1675
19.661450960992624 53.2002
19.68404726164677 53.1572
19.706820878021247 52.8849
19.729418731756834 53.1012
19.752017360452857 53.0023
19.77461676506804 53.0326
19.797393513540218 53.0234
19.819994478951667 53.2463
19.84259622316767 53.8099
19.8651987471481 54.2964
19.887978643247177 54.5933
19.91058273574792 54.8375
19.933187610901943 55.3802
19.955969879466828 56.5134
19.97857632894404 57.8712
20.00118356396599 59.3243
20.023791585494575 61.1418
20.046577028914875 63.885
20.069186632506966 66.128
20.091797025500632 68.0515
20.114408208858933 69.4175
20.137196842715273 69.5697
20.159809615886765 68.2647
20.18242318232135 65.3374
20.20503754298326 62.9864
20.227829382875154 61.7222
20.250445341109344 61.3644
20.27306209647285 61.7052
20.29567964993108 62.982
20.31847471147704 64.1641
20.34109387027612 65.4957
20.363713830075454 65.6223
20.386334591841646 64.6419
20.409132890679302 62.0808
20.431755265564437 58.7344
20.454378445325528 55.9391
20.477002430930366 53.6958
20.499803982716553 52.4079
20.522429589228004 51.6094
20.54505600449589 51.0329
20.567683229489194 50.7852
20.590488049900088 50.2744
20.61311690359731 50.0698
20.63574656993626 49.7202
20.658553853717297 49.3832
20.681185154618298 49.5087
20.703817271080066 49.2287
20.72645020407368 48.9344
20.749260783967177 48.8233
20.771895359337133 48.7116
20.794530754161617 48.5473
20.817166969412938 48.6022
20.83998086114876 48.5065
20.86261872660049 48.3957
20.885257415405402 48.2613
20.90789692853701 48.466
20.930714147864748 48.3196
20.953355319030678 48.2465
20.97599731745334 48.3742
20.99864014410749 48.1093
21.021460706796564 48.2565
21.044105199328826 48.4576
21.06675052302631 48.5831
21.089396678865015 48.7628
21.112220600704806 48.9417
21.134868430275347 49.3557
21.15751709492456 49.5933
21.180166595629693 49.8828
21.202993892429635 50.3894
21.22564507473034 50.7045
21.24829709602816 51.0729
21.27112693608965 50.8443
21.293780644891275 51.0278
21.316435195634053 50.4679
21.339090589297417 49.8548
21.361923832041875 49.3872
21.384580921090404 48.7936
21.407238856007325 48.324
21.429897637773326 48.1807
21.45273429906592 48.216
21.475394784108598 48.0739
21.498056118951983 47.9261
21.520718304578022 48.1018
21.543558400304388 48.1532
21.566222297108816 48.3597
21.58888704765135 48.3991
21.61155265291521 48.5905
21.63439619898156 48.9683
21.657063523335786 49.2787
21.67973170537063 49.7754
21.7024007460706 50.0905
21.72524775840385 50.8001
21.747918526116475 51.7419
21.770590155457388 52.9225
21.79326264741238 54.3163
21.816113141960237 55.9959
21.838787368860547 57.9533
21.861462461341976 59.8606
21.884315579735777 61.8173
21.90699241312273 63.2757
21.92967011506078 64.2849
21.95234868653799 64.286
21.9752053151131 63.3103
21.997885635446785 61.2678
22.020566828293532 59.4856
22.04324889464272 57.7433
22.066109049404666 56.4632
22.088792872571794 55.7819
22.111477572219204 55.8148
22.1341631493376 55.9156
22.157026846313123 55.8909
22.179714188221507 55.151
22.202402410582668 53.9764
22.22509151438863 52.6856
22.24795876962584 51.3691
22.270649646204486 50.4006
22.293341407213727 49.6668
22.316034053646906 49.1159
22.338904883215342 48.8249
22.36159931041458 48.7884
22.38429462602756 48.6488
22.40699083104897 48.7179
22.429865251039757 48.6954
22.452563244831367 48.7122
22.47526213102522 48.7688
22.49813925616515 48.5738
22.520839937143307 48.2175
22.543541513520587 48.0523
22.56624398629403 48.1192
22.589124730075895 48.0488
22.611829005656723 48.1749
22.63453418063466 48.2282
22.657240256008077 48.3914
22.680124634582935 48.4951
22.70283252079775 48.6379
22.725541310413075 48.9864
22.74825100442868 49.24100000000001
22.771139033969575 49.6258
22.79385054687155 49.839
22.81656296718292 50.528999999999996
22.83927629590484 51.3045
22.862167992606945 52.3128
22.88488314827121 53.3117
22.907599215359284 54.4198
22.93031619487366 55.6552
22.953211574954405 56.6983
22.975930389478226 57.7067
22.998650119445763 58.0713
23.02137076586092 57.4198
23.044269845560063 56.222
23.06699233506288 54.5756
23.089715744034912 52.7156
23.112617610931565 51.1697
23.135342869061212 49.8124
23.158069049684816 49.0027
23.1807961538087 48.5752
23.20370174880544 48.2747
23.226430710184808 48.3398
23.249160598093425 48.455
23.271891413539002 48.506
23.294800752937697 48.4899
23.31753343374794 48.5071
23.340267045128353 48.6414
23.36300158808808 48.8564
23.38591468821339 49.0912
23.408651104658304 49.4974
23.431388455719986 50.0986
23.454126742409 50.8603
23.4770436196085 51.9731
23.499783787914662 53.1115
23.522524894889884 54.0108
23.54526694154616 55.3069
23.56818761219047 56.5743
23.59093154860734 57.1708
23.613676427751283 57.8065
23.636422250635754 56.99100000000001
23.659346731118656 55.5722
23.68209445191868 53.7281
23.704843119509587 51.7272
23.72759273490623 49.755
23.750521041644767 48.2344
23.77327256312355 47.0421
23.796025035462787 46.3936
23.818956224555475 45.9415
23.841710609113413 45.7202
23.86446594758979 45.4314
23.887222241002014 45.1923
23.910157285144578 44.8801
23.932915498962537 45.0594
23.955674670778713 44.9467
23.978434801611975 44.4784
24.001373717286125 44.5219
24.024135776723917 44.3853
24.046898798245582 44.2764
24.06966278287146 44.1702
24.092605586582614 43.9435
24.115371508023642 43.8882
24.1381383956401 43.7775
24.16090625045381 43.818000000000005
24.183852958731244 43.9346
24.206622758582608 43.5607
24.229393528706886 43.3789
24.252165270127392 43.324
24.27511589952438 43.398
24.297889594216997 43.2268
24.32066426328598 43.0568
24.34343990775613 43.0961
24.36639447485003 42.9604
24.38917208083877 42.9934
24.41195066531332 42.8779
24.43490819850244 42.79600000000001
24.457688750692377 42.6289
24.48047028445616 42.6138
24.503252800821233 42.75899999999999
24.526214300784112 42.7426
24.548998793132213 42.7884
24.57178427117417 42.6631
24.59457073593893 42.7392
24.617536219319863 42.6453
24.64032466834748 42.7141
24.663114107195035 42.6009
24.685904536893013 42.3525
24.708874020360852 42.2133
24.731666442613744 42.351000000000006
24.754459858818787 42.117
24.777254270007962 42.007
24.80022777025625 42.0185
24.82302418230472 41.9443
24.845821592443674 41.8047
24.86862000170663 41.88
24.891597535453727 41.7112
24.914397953892728 42.0447
24.93719937456671 41.8541
24.96000179851076 41.9184
24.98298338249997 42.0502
25.00578782394922 42.2692
25.028593271784167 42.3093
25.05157790644186 42.6797
25.07438537804115 42.8417
25.097193859145293 43.1648
25.120003350792075 43.3035
25.142992065061257 43.7551
25.165803588823465 44.1404
25.18861612625217 44.2886
25.211429678386736 44.2933
25.234422489079968 44.4302
25.257238081693636 44.4969
25.280054692141732 44.6475
25.3028723214652 44.5918
25.325869245420463 44.6808
25.348688923599397 44.7567
25.371509623787006 44.7796
25.394331347025812 44.5024
25.41733240110666 44.1728
25.440156181590016 43.4651
25.46298098826268 42.8692
25.48580682216873 42.213
25.50881202326435 41.6971
25.53163992281684 41.3394
25.55446885274561 40.9788
25.577298814096377 40.6526
25.600308179121807 40.5722
25.623140214533745 40.5852
25.64597328451537 40.4991
25.66898578564376 40.4609
25.691820936010206 40.389
25.714657124097695 40.3423
25.737494350954734 40.2998
25.760511045684957 40.0697
25.783350361364224 40.2194
25.806190718969255 40.3145
25.82903211955018 40.3606
25.852053024868923 40.3722
25.874896522722523 40.5037
25.897741066713106 40.3747
25.920586657892454 40.4214
25.943611790812668 40.5411
25.966459487728237 40.748000000000005
25.989308234998564 40.6763
26.01215803367705 40.9182
26.03518741123814 41.013000000000005
26.05803932412957 41.3069
26.080892291600094 41.3311
26.10374631470478 41.3498
26.12677995397268 41.4191
26.14963609978026 41.4857
26.172493304397875 41.1881
26.19535156888223 40.9486
26.218389486949604 40.5506
26.241249882640123 40.2412
26.26411134137826 40.0756
26.28715248187403 39.9039
26.31001607820869 39.8543
26.3328807407756 39.7136
26.35574647063438 39.7991
26.37879191991473 39.7584
26.401659795896734 39.7846
26.424528742360263 39.9564
26.447398760366614 40.0831
26.470448535598294 40.0635
26.49332070826805 40.3864
26.516193955675355 40.8152
26.53906827888316 40.9393
26.562122397260108 41.0186
26.584998883685063 41.2828
26.607876449110325 41.5114
26.63075509460056 41.7527
26.65381357334404 41.8846
26.67669439061878 42.0364
26.699576291163382 42.027
26.722459276044212 41.8464
26.745522132402975 41.3822
26.768407297649354 41.2281
26.791293550442003 40.7036
26.814180891848974 40.5399
26.837248143099337 40.3364
26.860137673466657 40.2443
26.88302829566349 39.9338
26.90592001075963 39.8051
26.92899167420566 39.7027
26.951885586870763 39.262
26.974780595655517 39.1404
26.99785558178161 38.9357
27.020752794605112 38.9334
27.043651106772522 38.8009
27.06655051935668 38.7306
27.089629948036183 38.5025
27.112531573292053 38.4489
27.135434302194138 38.4946
27.158338135817015 38.3122
27.181422024430987 38.3685
27.204328079372566 38.2351
27.22723524226965 38.1788
27.250143514198573 38.2883
27.273231880156334 38.1957
27.296142382065014 38.2003
27.319053996245536 38.2704
27.341966723775965 38.1587
27.365059584515222 38.1602
27.38797455070062 38.3628
27.410890633481237 38.1597
27.433807833936918 38.1344
27.456905206923906 38.336999999999996
27.47982465472398 38.1423
27.502745223449743 38.3072
27.525666914182825 38.4626
27.548768816912457 38.407
27.571692763693633 38.2225
27.59461783573812 38.185
27.617723149491244 37.9824
27.640650484125285 37.7824
27.66357894728264 37.8732
27.686508540048052 37.8492
27.709618414237887 37.7217
27.732550278321757 37.5569
27.755483275279115 37.5615
27.778417406196485 37.5784
27.801531858397514 37.5465
27.824468269376716 37.5231
27.847405817586786 37.438
27.870344504116094 37.763000000000005
27.893463551932008 37.9
27.916404527281053 37.9902
27.93934664422563 38.0893
27.962289903855886 38.1378
27.98541356491974 38.4155
28.00835912214229 38.4434
28.03130582533231 38.5573
28.054253675581805 38.7883
28.077381967556104 38.8207
28.100332124185126 38.7832
28.123283431160893 38.7549
28.146235889577238 38.545
28.169368830154156 38.4106
28.192323603752033 38.1791
28.215279532083304 37.8807
28.238415973016764 37.7641
28.261374223145094 37.6521
28.284333631303806 37.4487
28.307294198589954 37.3027
28.330435319167677 36.976
28.353398217078915 36.702
28.376362277420153 36.4503
28.39932750129032 36.387
28.422473319286713 36.0502
28.44544088262495 36.1345
28.468409612800283 36.0408
28.491379510913497 35.8139
28.51453004413313 35.6904
28.53750229057244 35.7099
28.56047570826344 35.7314
28.583450298308804 35.6913
28.606605564586562 35.5338
28.629582511831156 35.5243
28.65256063474956 35.3778
28.675539934446338 35.4943
28.698699951647605 35.5415
28.72168161743193 35.2222
28.74466446331978 35.2898
28.767648490417624 35.1981
28.790813276438353 35.168
28.813799678527303 35.2829
28.836787265157085 35.3489
28.859955641890075 35.2059
28.882945610203045 35.2491
28.905936766392035 35.0921
28.928929111566863 35.1806
28.952102288520145 35.0641
28.975097024308607 35.0131
28.998092952423807 34.8528
29.021090073977508 34.819
29.04426806913204 34.6046
29.067267590245258 34.5724
29.090268308143695 34.4367
29.11327022394099 34.3474
29.13645305530891 34.3333
29.159457379627167 34.2369
29.18246290519685 34.0596
29.20546963313352 34.0755
29.22865731875826 34.1573
29.25166646419296 34.1829
29.27467681535305 34.007
29.29768837335608 34.1189
29.320880931312562 34.0528
29.34389491580634 34.0438
29.366910110507334 34.0987
29.38992651653503 34.0409
29.41312396492981 34.0703
29.436142806456754 33.986
29.45916286268059 33.9292
29.48236399319994 33.8479
29.50538649169417 33.6351
29.528410208259935 33.5765
29.55143514402014 33.3706
29.574641196749695 33.2818
29.597668583816574 33.0136
29.6206971934585 32.8999
29.64372702680042 33.0019
29.666938019934474 32.888000000000005
29.689970313635285 32.8372
29.713003834422636 32.8397
29.73603858342347 32.8501
29.759254535188578 32.741
29.78229175361658 32.652
29.80533020365064 32.7498
29.82836988641968 32.7383
29.85159081507472 32.681999999999995
29.874632976355343 32.5805
29.89767637376955 32.6145
29.920721008448314 32.5223
29.9439469322847 32.4807
29.96699405457564 32.4844
29.9900424175358 32.3364
30.013092022298157 32.2449
30.03632295963995 32.2872
30.059375061131373 32.3571
30.08242840783577 32.4486
30.105483000888153 32.2843
30.128718970092244 32.1147
30.151776069006917 32.215
30.17483441768648 32.248000000000005
30.198074175317235 32.1591
30.221135036724256 32.3365
30.24419715131772 32.1849
30.267260520236203 32.1055
30.290505341942243 32.1376
30.313571232750228 32.1896
30.336638381310948 32.1667
30.35970678876503 32.0447
30.38295669299435 32.0151
30.40602763151657 31.9731
30.429099832366074 31.9528
30.452173296685572 31.840999999999998
30.47542830191959 31.8895
30.498504306502497 31.7879
30.521581577995562 31.9048
30.544660117543582 31.9342
30.56792024229725 32.0125
30.59100133132069 31.979
30.614083691845494 31.9029
30.637167325018545 32.0869
30.660432587840603 32.157
30.683518779717886 31.9977
30.70660624769615 32.0071
30.729694992924372 32.0665
30.75296541239743 32.1392
30.77605672557558 31.9586
30.799149319462742 31.9427
30.8224236211637 31.8158
30.845518789950724 31.7181
30.868615242910597 31.691
30.891712981195973 31.5567
30.91499247215866 31.4607
30.938092794619365 31.3474
30.96119440587579 31.3265
30.984297307082752 31.2108
31.00758200598383 31.0955
31.030687500658694 31.057
31.053794288760695 31.0453
31.076902371446767 30.8569
31.100192296997445 30.944000000000003
31.12330298246119 30.924
31.14641496599209 30.7331
31.169528248749216 30.7752
31.19282341969534 30.6414
31.215939314557186 30.7039
31.239056512134788 30.8877
31.262175013589378 30.7012
31.28547544871168 30.6466
31.30859657161541 30.6365
31.331719001892175 30.7927
31.35484274070538 30.8331
31.378148458819545 30.7552
31.401274828443725 30.7008
31.424402510106933 30.7122
31.447712205419993 30.8264
31.470842524931633 30.6037
31.493974159989783 30.6575
31.51710711176168 30.648000000000003
31.54042212308802 30.6534
31.563557722100917 30.6435
31.586694641341655 30.4249
31.609832881979628 30.3078
31.63315322823208 30.3853
31.656294125521327 30.2218
31.679436347728515 30.2035
31.70257989602529 30.1304
31.725905596152327 30.0433
31.74905181052835 29.8735
31.772199354521323 30.0121
31.79534822930507 29.9651
31.818679302290967 29.8854
31.84183085259981 29.9879
31.864983737233473 29.9364
31.88813795736804 29.9645
31.911474422233013 29.9206
31.934631327356435 29.8508
31.9577895715215 29.8632
31.980949155906522 29.8571
32.004291031706956 29.8304
32.027453310562606 29.7268
32.05061693318573 29.6164
32.07396288236386 29.5968
32.09712920658542 29.5924
32.12029687812702 29.4243
32.14346589817093 29.3574
32.166817291729984 29.4671
32.18998902288583 29.1927
32.21316210610336 29.1769
32.23633654256711 29.1261
32.259693399663725 29.2367
32.282870556771144 29.123
32.30604907069099 28.9922
32.329228942610065 28.8807
32.35259128243769 28.6499
32.375773884550505 28.774
32.398957848235646 28.7499
32.422143174682176 28.6693
32.445511016471215 28.5981
32.468699082679954 28.6525
32.49188851523011 28.4986
32.51507931531304 28.451999999999998
32.538452678331 28.3697
32.56164622776311 28.3782
32.58484114831493 28.3293
32.60803744118015 28.3766
32.631416344731896 28.3333
32.654615396551876 28.2465
32.67781582427913 28.2674
32.701198898634416 28.2507
32.72440209253756 28.2145
32.747606665947124 28.1584
32.77081262006088 28.0743
32.79420126883317 27.9215
32.81740999876112 28.0009
32.840620112999424 27.8527
32.86383161274818 27.7222
32.88722585534586 27.7976
32.91044014056596 27.9782
32.933655814909734 27.9245
32.95687287957963 27.8596
32.98027273544904 27.7908
33.00349259526636 27.7371
33.026713849030116 27.7858
33.04993649794511 27.6636
33.073341986570746 27.6544
33.09656744032826 27.5838
33.11979429286444 27.6848
33.14302254538647 27.5706
33.166433686291185 27.5759
33.18966475336992 27.5231
33.212897224069096 27.3871
33.23613109959831 27.4157
33.259547912343415 27.4016
33.2827846121627 27.4721
33.306022720453775 27.3779
33.32926223842861 27.2318
33.352684742614166 27.2264
33.37592709463173 27.2878
33.399170859982064 27.1708
33.422597648419426 27.1495
33.44584425514446 26.9899
33.46909227885668 26.999000000000002
33.4923417207723 26.8507
33.51577423505344 26.9063
33.539026528130385 26.8124
33.56228024307245 26.7255
33.585535381098246 26.6242
33.60897364093058 26.5835
33.63223163992385 26.5263
33.6554910656699 26.5555
33.678751919389796 26.555999999999997
33.702195944520106 26.5218
33.72545966903325 26.4277
33.74872482519663 26.2872
33.771991414233746 26.3904
33.79544122444841 26.3576
33.81871069412428 26.2419
33.84198160035767 26.176
33.86525394437455 26.2696
33.88870955949969 26.2013
33.911984794020626 26.195999999999998
33.93526147001624 26.1214
33.958539588715006 26.114
33.98200102861669 26.0136
34.0052820477047 25.8803
34.02856451319451 25.8673
34.05203033759056 25.8191
34.07531571090147 25.8187
34.09860253431845 25.8208
34.121890809074316 25.7252
34.145362493118924 25.6837
34.16865368561615 25.6725
34.191946333164054 25.6766
34.21524043699793 25.6216
34.23871800066799 25.5958
34.26201503218366 25.5184
34.28531352370466 25.5365
34.30861347646881 25.3756
34.33209693978188 25.3756
34.3553998301885 25.3981
34.378704185565205 25.3037
34.402010007152356 25.2551
34.42549939016683 25.3514
34.44880815937748 25.1746
34.472118398533134 25.1791
34.49543010887669 25.1822
34.51892543169198 25.0537
34.54224009966052 25.0673
34.56555624255917 25.0044
34.58887386163339 24.9458
34.61237514439016 24.8899
34.6356957311114 24.8327
34.65901779775809 24.7651
34.68252356662995 24.6989
34.705848608458616 24.8058
34.72917513396849 24.6902
34.75250314440949 24.6239
34.77601490857862 24.6504
34.799345904259795 24.6215
34.82267838863559 24.6183
34.846012362958525 24.5792
34.869530142679984 24.5374
34.89286711232212 24.4958
34.91620557568269 24.3874
34.93954553401677 24.3942
34.9630693495876 24.3067
34.986412313340814 24.3127
35.00975677584668 24.3305
35.033102738362956 24.29
35.05663261012228 24.2153
35.0799815881786 24.2067
35.10333207003229 24.1938
35.12668405694369 24.2126
35.150220005273056 24.1284
35.17357501786656 24.1209
35.19693153931268 24.1363
35.220289570874385 24.0405
35.24383161619786 24.0593
35.267192683604904 24.0803
35.290555264930376 24.0053
35.314101899412165 23.9831
35.33746752422433 23.8847
35.36083466676374 23.8783
35.38420332829803 23.7979
35.407756095629054 23.846
35.43112781085063 23.8403
35.45450104888391 23.8501
35.477875810999194 23.8973
35.50143473172161 23.7282
35.52481255774625 23.7601
35.54819191167777 23.7067
35.57157279478914 23.6964
35.595137889488406 23.6619
35.61852184675279 23.5878
35.641907337029984 23.5198
35.665294361595684 23.506999999999998
35.68886565090076 23.4352
35.7122557598848 23.4358
35.73564740699838 23.373
35.759040593519934 23.3835
35.78261809810353 23.3167
35.80601437933051 23.2037
35.829412203814705 23.2548
35.85281157283719 23.204
35.876395313415884 23.1982
35.8997977874528 23.0944
35.92320180988546 23.0102
35.946790244133936 22.9825
35.97019737933222 23.0517
35.993606066789866 22.9818
36.01701630779276 23.0001
36.04061101440684 22.9147
36.06402437852291 22.866
36.08743930005611 22.8794
36.1108557802951 22.7858
36.13445678011326 22.8567
36.15787639383515 22.71
36.18129757014299 22.7273
36.20472031032821 22.5795
36.22832762423364 22.5779
36.25175350829375 22.6204
36.275180960119776 22.6115
36.298609981005924 22.5471
36.32222362992669 22.4882
36.34565580510207 22.5423
36.36908955323448 22.4439
36.39252487562093 22.3737
36.416144880530226 22.3254
36.43958336764275 22.3686
36.463023432914625 22.3643
36.486465077645676 22.1817
36.51009145956204 22.2963
36.53353627947859 22.2591
36.55698268276811 22.2403
36.58043067073321 22.1555
36.60406345072071 22.1357
36.62751462435344 22.1307
36.65096738658405 22.1025
36.67460498210655 21.9791
36.69806093788647 21.9909
36.72151848619297 21.8638
36.744977628333636 21.8737
36.76862165890998 21.8699
36.79208400512205 21.9081
36.81554794910557 21.8809
36.83901349217101 21.726
36.862663978991606 21.6942
36.88613273667352 21.7428
36.90960309738324 21.6721
36.933075062434064 21.6599
36.95673202673572 21.6081
36.98020721697122 21.5799
37.003684015502365 21.5212
37.027162423645365 21.5615
37.050825886711465 21.4997
37.07430753063053 21.3581
37.09779078812467 21.4424
37.121275660513014 21.3477
37.144945643673694 21.4031
37.16843376245278 21.2929
37.19192350009803 21.3142
37.215414857931435 21.2371
37.239091382563885 21.2123
37.262585997426164 21.2114
37.28608223645736 21.2131
37.309763684451696 21.1436
37.33326318851098 21.0687
37.356764320726555 20.9823
37.380267082425526 20.9156
37.40395510942588 20.9826
37.42746114683234 20.941999999999997
37.45096881771841 20.9029
37.474478123414166 20.9142
37.49817275092816 20.8703
37.52168534303452 20.8078
37.54519957395567 20.6984
37.568715445024665 20.7075
37.592416694607714 20.6692
37.61593586281424 20.7299
37.63945667518264 20.7885
37.66297913304891 20.6892
37.68668702630454 20.6457
37.710212792059274 20.5381
37.733740207334854 20.5023
37.757269273470364 20.4918
37.780983832050374 20.4637
37.80451621684926 20.4706
37.82805025654007 20.3393
37.851585952464795 20.3455
37.8753071980695 20.332
37.89884622345676 20.2923
37.92238690911902 20.2768
37.94611318753442 20.1916
37.969657210779765 20.1657
37.99320289834801 20.1457
38.016750251586465 20.0681
38.04048325513017 20.0773
38.06403395679343 20.0546
38.087586328183946 19.9911
38.11114037065203 20.066
38.13488012115898 20.0118
38.1584375229181 19.9286
38.181996599821 19.8473
38.205557353221124 19.8542
38.229303872575656 19.7197
38.2528679961576 19.7378
38.27643380031219 19.7601
38.30000128639589 19.7559
38.32375459653193 19.7361
38.34732546371299 19.6933
38.37089801690786 19.6579
38.39447225747609 19.5504
38.418232380377425 19.590999999999998
38.441810012983396 19.5768
38.46538933705673 19.5439
38.488970353960084 19.5145
38.51273731166058 19.4161
38.536321731567014 19.408
38.55990784840681 19.3746
38.58367995004091 19.3395
38.60726947812959 19.3127
38.63086070726198 19.3404
38.654453638806274 19.2928
38.678232613930824 19.2715
38.70182896773327 19.1897
38.72542702806741 19.1643
38.7490267963045 19.1774
38.77281266709232 19.092
38.79641586862214 19.0562
38.8200207821842 19.0279
38.843627409152944 19.0066
38.86742019782782 18.9956
38.891030269149255 18.9158
38.914642058016156 18.9223
38.938255565806124 18.8688
38.96205529464307 18.8375
38.98567225787121 18.9259
39.00929094417078 18.881
39.03291135492255 18.8553
39.05671804624804 18.8469
39.080341923549106 18.772000000000002
39.103967529460334 18.7423
39.127594865365744 18.6642
39.15140854155791 18.6517
39.17503935514948 18.632
39.19867190290282 18.611
39.22249083587951 18.5498
39.24612686969409 18.6091
39.269764641845306 18.5719
39.293404153722804 18.4511
39.317230110864074 18.4118
39.34087311998506 18.3707
39.36451787301696 18.4234
39.388164371352595 18.3452
39.41199737518003 18.3096
39.43564738196752 18.2572
39.45929913825317 18.2285
39.48295264543308 18.2198
39.506792718520884 18.1635
39.530449745387216 18.1764
39.55410852735203 18.169
39.57776906581474 18.1106
39.60161623079 18.0838
39.625280300200025 18.0562
39.64894613032202 17.9978
39.67261372255866 17.9907
39.6964680021016 17.9584
39.72013913657293 17.9911
39.74381203738292 17.9151
39.76748670593756 17.945999999999998
39.79134812278169 17.9426
39.81502634488497 17.8443
39.83870633896685 17.8319
39.862388106436654 17.71
39.88625668336918 17.6943
39.90994201572829 17.7667
39.933629125719285 17.73
39.957503091207826 17.6682
39.9811937746168 17.7045
40.00488623990914 17.62
40.02858048850006 17.5174
40.05246165409549 17.5326
40.076159487492085 17.4602
40.099859108448875 17.4909
40.123560518384345 17.5004
40.1474489070226 17.4297
40.171153913178564 17.349
40.194860712584955 17.3539
40.2185693066637 17.3344
40.242464941335314 17.3854
40.26617714307655 17.2583
40.289891143772046 17.3023
40.3136069448471 17.2805
40.33750984859743 17.2284
40.3612292688043 17.1515
40.3849504936829 17.1716
40.40867352466194 17.1331
40.43258372059144 17.0668
40.45631038219906 17.0654
40.48003885420956 17.0458
40.503769138055105 16.994
40.52768664931955 16.9744
40.55142057531802 17.0239
40.57515631746428 16.9472
40.599079334038514 16.9243
40.62281872700477 16.8482
40.64655994043941 16.8285
40.67030297578061 16.8109
40.69423334835778 16.8219
40.71798004609188 16.7525
40.74172857006355 16.7627
40.76547892171441 16.724
40.7894166736039 16.6967
40.813170699248566 16.6764
40.83692655691388 16.6934
40.86068424804498 16.7064
40.884629402612525 16.6525
40.908390779366385 16.6331
40.932153993938 16.5714
40.95591904777605 16.588
40.979871628443995 16.5337
41.003640379561936 16.4798
41.02741097430883 16.4281
41.05118341413683 16.4483
41.075143444384416 16.4022
41.098919593177826 16.3993
41.1226975914255 16.3578
41.14647744058318 16.3139
41.170444943946755 16.2656
41.19422851378379 16.2971
41.218013938914645 16.226
41.24198706625173 16.201
41.26577622087193 16.1652
41.289567235177785 16.1181
41.31336011063129 16.1323
41.337340752422875 16.15
41.361137369129835 16.0479
41.38493585138705 16.0714
41.40873620066004 15.9878
41.43272438060107 16.0062
41.45652848292052 15.9297
41.48033445666918 15.9275
41.50414230331616 15.9017
41.528138045159764 15.9235
41.551949656675205 15.8168
41.575763145513235 15.8261
41.59957851314666 15.8468
41.62358184070442 15.7882
41.64740098505737 15.749
41.6712220126409 15.6776
41.69504492493139 15.6716
41.71905586207357 15.7031
41.74288256296395 15.6235
41.766711153007456 15.6474
41.79054163368412 15.5952
41.814560204340054 15.5992
41.838394485526365 15.5772
41.86223066180303 15.5378
41.88625497706819 15.4818
41.910094962812 15.4877
41.93393684811168 15.4225
41.95778063445365 15.3726
41.981812625263366 15.337
42.00566023303407 15.3432
42.029509746323676 15.347000000000001
42.05336116662236 15.3298
42.077400857069705 15.2866
42.10125611078846 15.2676
42.12511327600405 15.2061
42.14897235421036 15.2073
42.173019768448455 15.1641
42.19688269209613 15.1313
42.22074753323349 15.1597
42.24461429335818 15.057
42.268669455600495 15.0884
42.292540073217886 15.0775
42.31641261433284 15.078
42.34028708044675 14.9912
42.36435001496739 14.9957
42.38822835065557 14.9619
42.41210861586426 14.9436
42.4359908120986 14.9252
42.46006154323262 14.8933
42.48394762115317 14.8206
42.507835634632315 14.8427
42.531912233047436 14.7648
42.55580413732265 14.7767
42.579697981698 14.7421
42.60359376768525 14.7447
42.62767820545945 14.7458
42.65157789440821 14.7144
42.67547952952185 14.6906
42.699383112316 14.642000000000001
42.72347541395347 14.625
42.74738291190531 14.5848
42.771292362102166 14.5715
42.795203766063516 14.5045
42.819303956130405 14.5038
42.843219287476536 14.4496
42.86713657716324 14.4197
42.89105582671383 14.3855
42.91516392983864 14.4308
42.939087119032166 14.4249
42.963012272677304 14.3171
42.98693939230129 14.2735
43.01105543317513 14.3062
43.034986504731386 14.3245
43.05891954686589 14.2762
43.08285456110972 14.2984
43.10697856448665 14.2142
43.130917542983475 14.1888
43.15485849820081 14.1512
43.17880143167367 14.126
43.20293342237094 14.1071
43.226880332449 14.0608
43.25082922540554 14.1038
43.27496722682525 14.0877
43.29892010567796 14.0421
43.32287497204102 14.050999999999998
43.34683182745632 13.9432
43.370977859791836 13.9454
43.39493871351105 13.9365
43.41890156092628 13.9547
43.44286640358341 13.8462
43.46702049182749 13.857999999999999
43.49098934522816 13.8146
43.51496019852649 13.7729
43.5389330532723 13.8356
43.56309522248204 13.8004
43.58707210044314 13.720999999999998
43.61105098451946 13.7002
43.63503187626491 13.7108
43.659202151562134 13.6519
43.68318707902681 13.6656
43.70717401884041 13.6591
43.731162972560874 13.5484
43.75534137913236 13.5736
43.779334381108384 13.5686
43.803329401683186 13.509
43.82732644241872 13.4607
43.8515130055166 13.4584
43.87551410707659 13.4707
43.89951723350145 13.4858
43.923709934595614 13.4084
43.94771713129917 13.3724
43.97172635758096 13.3915
43.99573761501002 13.3752
44.0199385169922 13.3459
44.04395385732619 13.2862
44.067971233533086 13.2459
44.09199064718605 13.2464
44.11619977548961 13.269
44.14022328470671 13.219000000000001
44.16424883610785 13.2136
44.18827643127035 13.1974
44.21249381139513 13.1625
44.236525514814076 13.0948
44.26055926674478 13.0614
44.28459506876863 13.0805
44.3088207262813 13.0859
44.33286064928722 13.0497
44.35690262714919 13.0518
44.38094666145278 12.9434
44.4051806219871 12.9426
44.42922879003185 12.9507
44.45327901929361 12.9073
44.477331311362136 12.8847
44.501573600619416 12.8796
44.525630039221795 12.8455
44.54968854541895 12.8217
44.573937102200176 12.8198
44.5979997645541 12.8119
44.622064499300315 12.7811
44.64613130803592 12.7759
44.67038823869318 12.7021
44.69445921643748 12.6611
44.718532272981385 12.6332
44.742607409926194 12.6806
44.76687274034801 12.652999999999999
44.79095205918753 12.622
44.81503346325094 12.5663
44.839116954143876 12.5142
44.86339071028742 12.5247
44.88747839599524 12.4889
44.91156817336837 12.4577
44.93566004401666 12.4598
44.959942251908146 12.4565
44.984038330325966 12.4138
45.00813650686762 12.3581
45.03223678314731 12.3404
45.05652746888232 12.3487
45.08063196592069 12.328
45.104738567558705 12.2947
45.128847275414856 12.2961
45.15314646515866 12.2175
45.17725940679741 12.2209
45.20137445952892 12.2381
45.22568004865265 12.2204
45.24979934496396 12.1646
45.27392075725247 12.1422
45.29804428714431 12.145
45.322358426247604 12.1484
45.346486212804315 12.0981
45.370616121861914 12.0835
45.39474815505086 12.0029
45.41907087049246 11.9907
45.4432071734666 12.0083
45.46734560548283 11.9759
45.49148616817604 12.0023
45.51581748638564 11.9173
45.5399623320197 11.9144
45.56410931325473 11.856
45.58825843173002 11.9047
45.61259837920865 11.8481
45.636751793816 11.8641
45.66090735060093 11.7821
45.68506505120716 11.7812
45.7094136545275 11.7756
45.73357566449271 11.7631
45.75773982322992 11.7316
45.78190613238733 11.7147
45.806263418194064 11.6852
45.83043404997326 11.7098
45.85460683713677 11.6427
45.87897065658495 11.5713
45.90314777634752 11.5851
45.92732705646868 11.562999999999999
45.9515084986045 11.5538
45.97588104735473 11.4998
46.00006683541565 11.5093
46.02425479047904 11.5258
46.04844491420549 11.463
46.0728262191024 11.463
46.09702070211635 11.4486
46.12121735879483 11.4282
46.14541619080294 11.3921
46.169806278764455 11.3766
46.194009483459034 11.3483
46.21821486849841 11.3251
46.24242243555223 11.3288
46.266821333570014 11.3074
46.29103328674601 11.2942
46.31524742696538 11.2569
46.33946375590237 11.2464
46.36387149104216 11.2101
46.38809221957392 11.1478
46.41231514186606 11.1541
46.436540259597464 11.1803
46.460956858999374 11.1082
46.48518638983522 11.08
46.509418121166966 11.0655
46.533652054678114 11.0423
46.55807754555709 11.0431
46.58231590571962 11.062000000000001
46.60655647313217 11.024000000000001
46.630988654873654 11.020999999999999
46.655233659129024 10.9668
46.67948087571551 10.9731
46.70373030632484 10.9498
46.72817142736393 10.9456
46.752425308428684 10.9169
46.77668140861147 10.8861
46.80093972960865 10.7787
46.82538981736788 10.7843
46.849652602470904 10.7626
46.87391761349769 10.7947
46.8981848521493 10.7838
46.9226439341274 10.7646
46.946915650573224 10.72
46.97118959976749 10.7442
46.99546578341598 10.7066
47.019933887188216 10.6473
47.04421456235744 10.6584
47.06849747711879 10.6306
47.09278263318286 10.5951
47.11725978640143 10.5577
47.14154944775105 10.5508
47.165841355555656 10.5404
47.1901355115306 10.5441
47.214621741924994 10.4846
47.23892041698887 10.5076
47.26322134538975 10.4713
47.28771440635075 10.4516
47.31201986422527 10.417
47.33632758061436 10.4103
47.360637557241866 10.3725
47.38513974410611 10.3948
47.40945426407847 10.3596
47.43377104948137 10.3044
47.45809010204344 10.3452
47.48260144275502 10.3196
47.506925052572285 10.3087
47.53125093475548 10.2576
47.55557909103813 10.2585
47.58009961361992 10.2178
47.60443234110732 10.2234
47.62876734791564 10.1953
47.65310463578333 10.1568
47.6776343683373 10.1483
47.7019762413987 10.1176
47.72632040075572 10.0784
47.75066684815169 10.0925
47.77520581885936 10.0979
47.799556865477655 10.0524
47.823910205386 10.0525
47.84826584033272 10.0293
47.87281407745551 9.99567
47.89717432569297 9.975769999999999
47.92153687423484 9.95515
47.94609208429692 9.97105
47.97045925671401 9.94854
47.99482873471275 9.90232
48.01920052005013 9.894039999999999
48.04376504619224 9.90572
48.068141469543484 9.877130000000001
48.09252020552573 9.8427
48.11690125590099 9.846060000000001
48.1414751266064 9.795689999999999
48.16586082917454 9.79451
48.19024885144316 9.76131
48.2146391951793 9.773019999999999
48.239222439012764 9.78324
48.26361744916137 9.70298
48.28801478610016 9.69641
48.31241445160131 9.683580000000001
48.337007097209366 9.64092
48.36141144338331 9.634780000000001
48.38581812345755 9.6012
48.41022713920929 9.58585
48.434829215320704 9.59731
48.45924292604658 9.622630000000001
48.48365897780325 9.58912
48.50807737237308 9.53855
48.532688907799276 9.55105
48.55711201168574 9.54001
48.581537463754074 9.51476
48.60615611725119 9.503160000000001
48.63058628942721 9.47268
48.65501881516546 9.47758
48.6794536962573 9.436639999999999
48.70408185970339 9.40268
48.72852147531801 9.340710000000001
48.75296345168211 9.35564
48.77740779059232 9.3689
48.80204549302823 9.38509
48.82649458091802 9.3166
48.85094603676547 9.29813
48.87539986237231 9.27275
48.90004713292306 9.24029
48.92450572200832 9.25187
48.94896668628025 9.22492
48.97343002754588 9.215010000000001
48.99808689542115 9.19663
49.02255501470614 9.18487
49.04702551642794 9.16882
49.0714984023988 9.16878
49.096164896893235 9.124360000000001
49.120642575466796 9.10895
49.145122643748394 9.076130000000001
49.16960510355558 9.07729
49.19428125404938 9.03788
49.2187685210852 9.05229
49.243258185121555 9.00801
49.26794160167084 8.967039999999999
49.2924360839405 8.96635
49.31693296869764 8.965110000000001
49.34143225776915 8.966439999999999
49.36612538195438 8.93411
49.39062950396021 8.91867
49.41513603578346 8.89371
49.4396449792564 8.88
49.46434784069503 8.88995
49.488861631846454 8.86921
49.513377840166804 8.85674
49.537896467493745 8.86161
49.56260909589029 8.80676
49.587132585683285 8.81733
49.611658500018365 8.77317
49.636186840738596 8.73427
49.66090926588511 8.7271
49.685442483902584 8.71198
49.70997813385706 8.68411
49.734516217597076 8.69571
49.75924846937352 8.66886
49.7837914452858 8.63823
49.80833686055187 8.607000000000001
49.83288471702571 8.637089999999999
49.85762682540054 8.60714
49.882179588965734 8.57437
49.9067347993235 8.58667
49.93129245833333 8.56925
49.95604445336378 8.57053
49.98060703442832 8.53125
50.005172069746266 8.52737
50.02993150438364 8.49537
50.05450147301533 8.49802
50.07907390151433 8.43853
50.10364879174981 8.42918
50.12841816587289 8.3923
50.1529980044635 8.39974
50.17758031042124 8.35877
50.20216508562089 8.39135
50.22694442953363 8.34795
50.25153416817468 8.3794
50.27612638170508 8.35181
50.300721072005196 8.3258
50.325510416102105 8.29487
50.350110084975064 8.27482
50.37471223628208 8.26907
50.39931687190919 8.2623
50.424116246675766 8.24677
50.44872587605249 8.25126
50.47333799543065 8.2065
50.49795260670191 8.18388
50.52276204271512 8.14662
50.54738166295838 8.14068
50.57200378079314 8.1015
50.596628398116835 8.1268
50.62144792604559 8.09515
50.646077567609396 8.126330000000001
50.670709714377715 8.07527
50.69553683636198 8.02046
50.72017401885922 8.069510000000001
50.7448137122895 8.067110000000001
50.76945591856022 8.03164
50.79429318636823 8.00775
50.818940443716784 8.0151
50.84359021965163 7.94045
50.868242516085964 7.95176
50.893089960641895 7.9419
50.917747323549435 7.921889999999999
50.94240721271973 7.93735
50.96706963007175 7.87172
50.99192728239342 7.82654
51.01659478166073 7.86905
51.04126481489051 7.86706
51.06593738400761 7.87047
51.090805275207074 7.81827
51.11548294172845 7.780010000000001
51.14016314993547 7.78345
51.164845901758845 7.7897300000000005
51.18972406304274 7.75845
51.21441192780656 7.7587399999999995
51.23910234200271 7.707999999999999
51.2637953075678 7.69265
51.288683770237945 7.69592
51.31338186432707 7.68721
51.33808251561888 7.617719999999999
51.362978729967345 7.63607
51.387684521509755 7.62979
51.41239287610203 7.604769999999999
51.437103795691165 7.576230000000001
51.46201036644977 7.594180000000001
51.486726441956634 7.5613
51.51144508832545 7.5522
51.536166307509156 7.554189999999999
51.56108326624387 7.505439999999999
51.58580965706056 7.51651
51.61053862657523 7.472189999999999
51.635270176746864 7.43986
51.66019755512065 7.50025
51.68493429268881 7.47525
51.70967361681515 7.43403
51.73441552946465 7.398680000000001
51.759353359237934 7.39412
51.7841004750961 7.3623899999999995
51.80885018539685 7.36907
51.833602492111254 7.294239999999999
51.8585508051424 7.28712
51.883308330926425 7.30806
51.90806845906181 7.29511
51.932831191525715 7.26898
51.95779001977161 7.28667
51.98255798721516 7.26855
52.00732856494335 7.25903
52.03229530577543 7.203239999999999
52.057071130455945 7.202539999999999
52.081849571391054 7.17213
52.106630630568695 7.18734
52.13160794279417 7.1395100000000005
52.15639426492067 7.144769999999999
52.18118321127822 7.116639999999999
52.205974783860896 7.0936
52.23096269971011 7.10652
52.255759551287994 7.08241
52.280559035098186 7.06353
52.30536115314103 7.00403
52.33035970494467 7.037489999999999
52.35516711807904 7.0784199999999995
52.37997717147198 7.049189999999999
52.40478986713005 6.988389999999999
52.42979908731974 6.96842
52.454617094216 6.96033
52.47943774942214 6.9479999999999995
52.50426105495102 6.93115
52.529280976059844 6.92842
52.554109609024096 6.9301
52.57894089837482 6.93412
52.60377484613117 6.89659
52.62880550079408 6.83702
52.65364479223379 6.8169
52.67848674816189 6.831180000000001
52.70352547971946 6.81549
52.72837279155837 6.82695
52.753222773982785 6.82147
52.778075429022984 6.8059
52.80312495150885 6.77809
52.827982978797436 6.7615300000000005
52.85284368481815 6.751639999999999
52.87770707160767 6.70573
52.90276741793998 6.683839999999999
52.92763619336701 6.66136
52.952507655698504 6.644589999999999
52.977381806977576 6.68052
53.00245301017842 6.66245
53.02733256653592 6.66113
53.052214817996074 6.64548
53.077099766608484 6.62223
53.102181859804446 6.59054
53.127072229988265 6.597
53.15196530349892 6.56106
53.17686108239249 6.587860000000001
53.20195409881522 6.54265
53.22685531582556 6.53686
53.25175924441303 6.487480000000001
53.27666588664027 6.49793
53.30176985962693 6.45782
53.3266819565689 6.45871
53.35159677336455 6.45941
53.376514312083096 6.45909
53.40162927507703 6.46073
53.42655228516116 6.45865
53.45147802340193 6.4148
53.47660125628886 6.38604
53.50153247842639 6.36146
53.52646643496923 6.3564
53.55140312799818 6.34287
53.576537409691696 6.3774
53.60147960336152 6.3564
53.626424539786164 6.31065
53.65137222105307 6.31617
53.67651758529126 6.2994900000000005
53.70147078399681 6.24545
53.72642673383343 6.23263
53.75138543689533 6.270519999999999
53.776541917524526 6.22559
53.801506154876755 6.2281
53.826473151763246 6.206119999999999
53.851442910284916 6.14119
53.87661054126026 6.17472
53.9015858509782 6.17103
53.92656392866066 6.15267
53.95154477641532 6.1667
53.976723591801296 6.13681
54.00171000771266 6.12407
54.02669920004598 6.11308
54.051691170915745 6.05992
54.076881204886796 6.04092
54.101878760928514 6.0913900000000005
54.12687910187696 6.05835
54.152077577768296 6.08219
54.1770835166946 6.02703
54.20209224691339 5.9543800000000005
54.22710377055121 5.97245
54.25231352511594 5.9421800000000005
54.27733066384342 5.968719999999999
54.30235060239643 5.99592
54.32737334290836 5.91861
54.35259441062629 5.88315
54.377622783395324 5.84226
54.40265396455061 5.86034
54.42768795623251 5.88141
54.45292037169559 5.8388
54.477960012857906 5.81578
54.50300247099511 5.82955
54.52804774825457 5.76963
54.55329154616743 5.74812
54.57834249018678 5.73655
54.6033962597977 5.72981
54.6284528571545 5.70282
54.653708072335164 5.68555
54.67877035378786 5.70148
54.70383546947698 5.66631
54.72890342156389 5.65728
54.7541700889442 5.63363
54.77924374251975 5.58263
54.8043202390049 5.57538
54.82959552413022 5.52301
54.8546777351945 5.47438
54.87976279569621 5.450740000000001
54.90485070780914 5.52
54.930137506558005 5.4650099999999995
54.95523115074295 5.4875
54.98032765308844 5.4497800000000005
55.005427015775496 5.41858
55.03072536339621 5.4246
55.05583047570572 5.405480000000001
55.080938454927676 5.369759999999999
55.10604930325027 5.33175
55.131359235107396 5.33252
55.15647585066083 5.28228
55.181595341907496 5.2823
55.20671771104285 5.26044
55.232039262617704 5.207409999999999
55.25716741665048 5.20076
55.28229845518636 5.1998
55.30743238042802 5.13541
55.33276558731939 5.12784
55.357905315183636 5.12986
55.383047936390035 5.11686
55.40819345314859 5.06973
55.433538351073295 5.0517
55.458689688238415 5.02931
55.483843927614096 4.97283
55.509197623043605 5.00002
55.53435769621134 4.96497
55.55952067826466 4.90379
55.5846865714265 4.8889
55.61005202069737 4.8469
55.63522376553902 4.86457
55.66039842818645 4.84334
55.68557601087004 4.84249
55.7109532500271 4.733969999999999
55.73613670233794 4.7922400000000005
