TT I
1.2716486653135266 7.59094
1.2939594142134223 6.8669199999999995
1.3162702121660406 6.92545
1.3385810600174564 6.88352
1.3608919586137629 7.40756
1.383202908801069 6.15535
1.405513911425503 5.70739
1.4278249673332093 5.96039
1.4501343378461518 6.31323
1.4724455028545926 6.1666
1.4947567236847858 6.10489
1.517068001182951 5.66032
1.5393793361953272 6.134580000000001
1.5616907295681737 5.5122599999999995
1.5840021821477681 5.157430000000001
1.60631369478041 5.21429
1.6286252683124185 4.7064
1.6509369035901333 5.89405
1.6732468618895553 5.36241
1.695558623192809 5.02456
1.7178704487808514 5.28224
1.7401823395001077 4.5846599999999995
1.7625012545597203 4.30704
1.7848028405262486 4.76706
1.8071218901122095 5.37246
1.8294236121921872 4.70831
1.8517427996910911 4.91036
1.8740620574440425 4.83784
1.8963639900671978 4.74425
1.9186833908139995 4.99525
1.9409854680117449 5.23181
1.9633050151394713 4.80906
1.9856246367570705 4.42189
2.0079269371922672 4.43374
2.03024671027244 4.19165
2.0525491637446027 4.48118
2.074869091674931 4.7703
2.097171701569106 4.91018
2.1194917877373847 5.2042
2.141811954326636 4.80129
2.164114805233074 4.88087
2.186435135143035 6.00569
2.208738150935709 11.6914
2.231058647554722 22.656999999999996
2.2533792288321184 17.5131
2.275682498336085 9.30821
2.298003251406138 6.32929
2.3203066942619714 6.22547
2.3426276225136022 5.72198
2.3649486396617507 5.528
2.387252348930071 6.540769999999999
2.4095735463442893 5.95287
2.4318774374315884 6.554989999999999
2.4541988185014043 6.59605
2.476502894794693 8.203710000000001
2.498824462909887 7.039560000000001
2.521146125856138 7.48066
2.5434504863470337 7.89531
2.5657723414244717 8.1963
2.588076895590662 8.865089999999999
2.610398946189713 8.45465
2.6327210958598384 7.8096
2.6550259469304716 8.10707
2.6773482972090137 8.55283
2.6996533504259 9.257660000000001
2.7219759047039602 8.46872
2.744298562293959 8.854230000000001
2.7666039251246595 8.42143
2.7889267918020164 8.5714
2.8112323652516555 8.94152
2.833555444408179 8.60282
2.8558786311183852 8.12047
2.8781845268938557 8.83958
2.9005079311721484 9.58405
2.9228140460410397 9.09762
2.9451376712799635 9.200330000000001
2.967444008632326 9.765889999999999
2.9897678582247247 10.3436
3.0120918213106695 10.863
3.0343984987899373 10.9167
3.0567226913198637 11.5555
3.079029599759726 12.197000000000001
3.101354025127254 13.1968
3.123678568232338 13.4726
3.145985829517914 13.3237
3.16831061055229 13.8362
3.1906181112775593 14.4026
3.212943133635653 14.6843
3.2352682779763207 15.2981
3.2575761442691227 15.8245
3.2799015350264273 16.2389
3.302209649240067 16.2336
3.3245352898092655 16.5591
3.3468436553365257 17.4394
3.369169549113219 17.9954
3.3914955708171384 18.6007
3.413804319727358 18.933
3.4361305997334863 19.0457
3.4584396084414553 19.4173
3.4807661501462652 20.1159
3.503092824025881 21.103
3.5254022288463154 21.3079
3.5477291695206588 21.7139
3.5700388426251948 22.4464
3.5923660534916446 23.6858
3.6146934007816114 35.8583
3.637003482731501 73.6678
3.6593311053109985 80.2013
3.681641464033634 48.8489
3.7039693653009733 29.3267
3.726297407241705 25.7581
3.7486081875460804 25.7148
3.7709365132734978 25.855
3.793247578841633 26.1622
3.8155761917550093 26.6749
3.8378875459837216 26.8916
3.8602164494827234 26.7259
3.882545499606844 27.7682
3.9048572932539183 28.7931
3.9271866390645718 29.0086
3.9494987298666713 29.3353
3.971828374764527 29.8973
3.9941581705403255 30.441
4.016470713506008 31.3215
4.038800813471445 31.8587
4.061113662089144 32.1105
4.0834440696459176 32.963
4.105774632334751 33.209
4.128087945865126 34.2599
4.150418821249301 34.7153
4.172732448931298 36.0916
4.195063640413578 38.19
4.2173775856475215 41.5052
4.239709096631102 68.5172
4.262040768704612 194.308
4.284355196706267 254.762
4.306687193387355 168.46400000000003
4.329001947444346 72.0816
4.35133427213731 47.0184
4.373666762177566 44.3364
4.395982011761091 43.8974
4.418314834921175 45.1922
4.44063041906622 51.0245
4.4629635787515625 59.6228
4.4852969080429785 60.01
4.5076130004776225 52.7869
4.529946671403969 51.3627
4.552263106909177 51.9127
4.574597122877047 52.1347
4.596931312711224 52.5821
4.619248269273446 52.7876
4.6415828092605835 53.8101
4.663900117405352 54.9124
4.686235010953232 56.1937
4.708552674085913 57.1714
4.730887924602802 59.052
4.753223354952695 60.79
4.775541557023902 61.9584
4.797877349456786 64.1729
4.820195915032126 65.8323
4.842532072957498 66.7397
4.864868414979744 68.6877
4.88718753227192 71.3775
4.909524244902505 72.9031
4.931843734218147 74.4564
4.954180820867835 76.4644
4.976518095879839 78.9986
4.998838149695359 81.7695
5.021175803844231 85.4079
5.043496238205739 88.5688
5.065834274903528 92.8201
5.088172504230693 96.9009
5.1104935158799565 102.787
5.132832132875765 122.09700000000001
5.155153533596801 158.02200000000002
5.1774925416746225 183.33599999999998
5.199814334878411 294.319
5.2221537374521505 805.672
5.244493338631803 2551.78
5.266815727034316 7782.43
5.289155727832427 13399.8
5.311478517248165 8957.1
5.333818921080011 2788.72
5.356159527788849 515.865
5.3784829252032536 177.09900000000002
5.400823940070432 141.16
5.423147747031976 125.00399999999999
5.445489173474152 116.07799999999999
5.467830807066149 112.417
5.490155234831516 109.807
5.512497285125229 105.65100000000001
5.534822130975162 102.899
5.557164601388673 100.49799999999999
5.579489868738879 97.4727
5.601832762690846 96.5454
5.6241758697774475 95.4898
5.646501775867269 94.8424
5.668845311622074 93.3966
5.691171647754637 92.9433
5.713515615597765 91.6405
5.735859800852677 90.8971
5.758186788542988 90.6489
5.780531411018185 91.2313
5.802858837297399 91.1426
5.825203900414495 90.45700000000001
5.8475491852224 92.0771
5.869877275883075 92.0822
5.892223006467101 91.5469
5.914551544266608 91.6011
5.936897724049891 93.4441
5.959244129804903 97.9194
5.981573344815301 111.12200000000001
6.0039202049061 182.50599999999997
6.026249875609095 386.586
6.04859719346037 846.748
6.070927323278297 2163.59
6.093275102315365 4538.27
6.115623113320588 5235.22
6.137953938319995 3113.62
6.160302415650845 901.055
6.182633708324452 214.852
6.2049826554078376 107.553
6.227331838745022 88.4651
6.249663839443684 82.5873
6.27201349767565 80.1757
6.294345974611799 84.7659
6.316696111167083 93.1938
6.339046488263839 88.2055
6.361379686074702 76.4647
6.383730546639482 70.6646
6.406064229255215 68.0455
6.428415576718203 67.6499
6.450749747566656 66.9237
6.47310158535871 65.5246
6.495453669698332 64.512
6.517788579421056 63.8025
6.540141159237969 63.0129
6.562476565766648 62.4919
6.5848296444934045 61.8965
6.607182974060425 61.7852
6.6295191323281015 61.9552
6.651872965955752 65.1369
6.6742096296068985 85.2644
6.6965639707294615 120.204
6.71891856698715 118.88799999999999
6.741255995248479 85.4392
6.763611104154477 65.2417
6.785949046381137 59.236000000000004
6.808304671371482 58.04600000000001
6.8306605557940046 57.8829
6.852999275508618 57.1951
6.875355681171544 56.5845
6.897694923437771 56.0982
6.92005185377892 55.9015
6.9423916220322655 55.96
6.964749080490181 55.1819
6.987106804399774 55.1122
7.009447368180821 55.2962
7.031805625367033 54.8764
7.054146723727803 54.7195
7.076505517631004 54.3444
7.098864581288365 54.5954
7.121206488070854 54.196000000000005
7.143566093607822 54.137
7.165908543567245 54.8749
7.188268694426048 54.9332
7.2106291193438095 54.9507
7.232972390625943 55.8207
7.255333366030969 66.5131
7.277677189091925 109.493
7.300038718428332 143.748
7.322400526130865 121.125
7.344745183422596 80.0302
7.367107550224791 59.5524
7.389452767901992 55.1939
7.411815697249891 54.3542
7.434161478756298 53.7333
7.456524974096713 53.6098
7.478888753837185 53.8237
7.501235387657368 54.113
7.523599738562711 54.0321
7.545946944825532 54.4115
7.568311870344528 54.4333
7.5906770845765665 54.468999999999994
7.613025156078678 55.7555
7.635390950099687 56.7664
7.657739602662809 55.9973
7.680105979923558 55.3342
7.702472650212829 55.2294
7.724822180948224 55.1295
7.747189439655568 55.2369
7.769539560075357 55.4811
7.791907410653562 55.6963
7.81425812420825 55.648999999999994
7.836626570110925 55.8589
7.858995315087906 56.8524
7.881346924933401 56.9623
7.903716270417482 57.5407
7.926068482028405 58.0738
7.948438431475253 58.4141
7.9708086843180235 59.0469
7.993161805171116 59.5517
8.015532667162402 60.0227
8.037886398416653 61.1115
8.060257873014221 61.717
8.082629655331942 61.9179
8.104984308787587 62.9461
8.127356708900503 66.0962
8.149711981398308 70.7954
8.172085002766314 72.4837
8.194458336181368 70.4494
8.216814543847752 68.4448
8.23918850371002 68.4268
8.26154533906492 69.3838
8.283919928836452 70.652
8.306277395339652 71.4094
8.328652618483376 72.7416
8.351028159736202 74.5551
8.373386579575245 76.8407
8.395762759396959 78.6985
8.418121819038275 83.2596
8.440498640894003 93.8141
8.462875785192262 104.855
8.485235811156207 114.339
8.507613602688501 146.982
8.529974277114228 222.605
8.552352719347912 349.566
8.574731488360351 603.057
8.59709314210385 1177.24
8.619472567021075 1891.75
8.64183487789147 2204.17
8.664214962183097 1747.35
8.686577933647762 910.6419999999999
8.708958680784317 340.235
8.731339760774953 154.39600000000002
8.753703729764451 107.695
8.77608547780821 96.6396
8.798450116065078 93.6204
8.820832535634787 91.1443
8.843215292401656 89.6953
8.865580941199045 88.7202
8.887964374703538 87.8947
8.910330701447199 89.0756
8.932714815164482 90.3622
8.955099270424924 89.2727
8.977466620733543 86.3794
8.999851761421976 84.1252
9.022219798361645 82.6336
9.04460562795561 82.571
9.066991803441677 81.8682
9.089360876979615 82.1546
9.111747746589993 81.525
9.13411751544971 80.8543
9.156505082664324 80.9608
9.178875550323522 80.9256
9.20126381862328 80.8868
9.223652438908596 81.4134
9.246023961427412 81.124
9.26841328802173 80.5884
9.290785518039224 80.7589
9.313175554425882 81.7948
9.335565947154315 81.8601
9.357939245086508 82.5344
9.380330352834827 82.609
9.40270436697103 82.6363
9.425096193225055 82.3486
9.447488380180165 82.8445
9.469863475295412 83.0271
9.492256385987508 83.4067
9.514632206018318 83.8365
9.537025843935714 84.2005
9.559402392368193 85.1783
9.581796761000229 86.4096
9.604191496441521 87.5571
9.626569144158516 90.8029
9.648964615551032 94.1073
9.671343000390081 95.2874
9.693739211225699 93.5797
9.716135793237463 92.0479
9.738515290448102 91.8177
9.760912617143402 92.4955
9.783292860202891 93.7208
9.805690935076182 95.3589
9.828089385495742 96.2744
9.850470754023561 98.2111
9.872869957865444 104.689
9.89525208097539 116.656
9.917652041736662 126.03
9.940052382417589 125.669
9.962435644102392 132.144
9.984836746950979 161.506
10.007220771957746 217.66
10.029622640473708 314.704
10.052007432299963 494.51599999999996
10.074410069984072 793.985
10.096813093716005 1281.31
10.119199042482517 1792.95
10.141602840636468 1956.59
10.163989564971628 1554.69
10.186394141051062 843.477
10.208799107559706 359.199
10.231187001965623 176.137
10.253592751657669 122.01299999999999
10.275981430388155 109.971
10.298387966769793 109.425
10.320794897965431 110.97399999999999
10.343184759907361 109.677
10.36559248305461 105.456
10.387983138083852 101.959
10.410391656691655 103.833
10.432800574501677 113.09299999999999
10.455192425893369 127.25299999999999
10.47760214443012 152.45
10.499994797678786 197.171
10.522405320453982 278.863
10.54479877906917 411.57800000000003
10.567210109595656 528.665
10.5896218454736 583.072
10.612016518879773 494.01
10.634429067781074 334.68
10.656824555333241 191.92700000000002
10.679237920773568 118.889
10.701651695961992 94.044
10.724048411481384 87.5274
10.746463008485165 84.9478
10.768860546937125 83.4707
10.791275969274796 81.6353
10.81369180576079 80.5847
10.836090585366925 79.5949
10.858507252467449 78.2894
10.88090686379991 77.5957
10.903324365036394 77.1181
10.925724811614439 76.9607
10.948143150509463 77.8964
10.970561909719066 77.1532
10.992963615930844 75.5313
11.015383218085756 73.5183
11.037785768347074 72.4089
11.06020621697282 71.7482
11.082627090322113 71.1837
11.105030913430326 70.8447
11.12745263854165 71.0808
11.149857314510728 73.7007
11.172279894912576 78.2397
11.194702904450653 78.3304
11.217108866490921 74.6021
11.239532736615194 71.5605
11.26193956033512 69.8054
11.284364294577085 68.5005
11.306789462371718 66.9432
11.329197585398376 66.0562
11.351623622610898 65.9853
11.37403261614354 65.3489
11.396459526308487 64.9051
11.418869393879497 64.6079
11.441297180532617 64.0746
11.463725406927658 63.4933
11.486136592353875 63.4989
11.508565700543707 64.1568
11.530977768845315 65.7096
11.553407762368774 66.0132
11.575838200059769 65.5926
11.598251599479612 64.0048
11.620682927815501 62.943000000000005
11.64309721895548 62.6849
11.665529441478206 62.1967
11.687962112597958 61.763000000000005
11.710377748130886 62.1309
11.732811318753434 62.1086
11.755227854859067 61.7937
11.777662328529495 61.8584
11.800079768750786 61.9176
11.822515149015453 61.3965
11.844950984084935 61.6076
11.867369787303163 61.3122
11.889806534289491 61.3453
11.912226250487029 61.8068
11.934663912939751 61.9219
11.9571020346363 61.9358
11.979523127133968 61.8639
12.001962169624331 62.3102
12.024384183972964 63.2733
12.046824150809913 65.9256
12.069264581333726 70.1649
12.091687985297767 75.9438
12.11412934550045 85.0959
12.136553680195208 100.195
12.158995973632788 126.494
12.181438735204349 156.526
12.20386447284199 189.132
12.226308172985636 203.572
12.24873485024193 195.22099999999998
12.271179492516982 160.437
12.293607112949127 120.35600000000001
12.316052700916226 92.6247
12.338498763250042 75.165
12.360927805303868 67.8692
12.383374818673879 64.8033
12.405804812803074 63.239
12.428252780773262 63.0523
12.45070122756722 63.1552
12.473132656675375 63.2547
12.49558206341869 63.3098
12.518014453510101 63.1795
12.540464823770117 63.3278
12.562915677315177 63.7011
12.58534951575545 64.5526
12.607801338171472 66.0785
12.630236146511358 70.6095
12.652688941369085 74.0611
12.675124723177234 74.056
12.697578494048786 71.0372
12.720032754458185 67.9537
12.742470003354093 66.6016
12.764925245138771 66.4697
12.787363476431278 66.8795
12.809819703166806 67.1971
12.83227642391173 67.881
12.854716135692716 68.5797
12.877173846755147 69.7284
12.899614549869717 69.8159
12.9220732548287 70.6209
12.94453245827299 71.2179
12.966974655289818 72.0794
12.989434858002571 72.8649
13.011878055298721 73.4444
13.034339260862497 74.4666
13.056800969391883 75.6155
13.079245674017244 78.1759
13.101708390774869 79.3607
13.12415410463411 84.8623
13.146617833206086 95.1145
13.169064559883248 105.7
13.191529303857127 119.98
13.213994557076367 142.291
13.236442809902437 179.895
13.258909083908291 239.44400000000002
13.28135835851934 310.971
13.30382565690295 384.39300000000003
13.326293469022952 428.98
13.348744283242008 421.785
13.371213125129904 347.756
13.39366497011003 246.579
13.416134845360597 164.62
13.438605238843131 118.36
13.46105863690397 101.569
13.483530069144786 101.007
13.505984506951902 105.522
13.528456981549432 114.615
13.550929978879088 129.69899999999998
13.573385983253365 153.463
13.595860028340867 195.97299999999998
13.618317081455832 253.451
13.64079217790333 313.176
13.663250283359057 360.06699999999995
13.685726434770173 371.295
13.708203115221277 323.026
13.730662806148091 249.829
13.75314054697177 176.782
13.775601299246777 123.35700000000001
13.798080104050406 94.7227
13.820559442405358 83.5539
13.843021793671388 79.94
13.865502201420897 78.6178
13.887965623051947 78.1833
13.910447103807167 77.0974
13.932929122629764 75.6864
13.955394156785959 75.3892
13.977877254034569 74.5972
14.000343367582113 73.8291
14.022827546871707 73.1449
14.045294743423524 72.4442
14.06778000837062 71.8414
14.090265817715476 71.7481
14.112734645763819 71.2236
14.13522154619454 70.9057
14.157691466286913 70.9139
14.180179461423874 70.6918
14.202668005486178 70.2291
14.22513957064374 69.4799
14.247629214846473 69.1846
14.270101881097517 69.1127
14.29259262906496 69.2804
14.315083930490205 69.7535
14.337558255389705 69.9144
14.360050666019726 69.5322
14.382526101071944 68.8418
14.405019624534942 68.1376
14.427513705993134 67.6103
14.449990813291825 67.5616
14.47248601302899 67.4642
14.49496423954951 67.7647
14.517460561197822 67.5809
14.539939910570322 67.381
14.562437357763558 68.0374
14.58493536931253 68.7873
14.607416409993311 69.4404
14.62991555254159 69.9805
14.652397725157423 69.7736
14.674898002342799 69.1625
14.697398848433282 69.0239
14.719882725991326 69.5394
14.74238471217934 70.3645
14.764869730765593 72.9233
14.787372860692983 76.0171
14.809876564079925 80.0743
14.83236330125751 85.7703
14.854868153850365 94.3318
14.877356041159485 108.24700000000001
14.899862046604186 127.936
14.922351087688757 156.178
14.944858249632887 187.83900000000003
14.967365991421232 215.355
14.989856770231246 226.43099999999998
15.012365673994204 215.71599999999998
15.03485761569738 182.207
15.05736768508665 143.672
15.07987833888692 109.585
15.102372032001655 86.8678
15.124883856909658 74.7469
15.14737872204565 70.8513
15.169891721717274 69.1079
15.192405310371893 69.0982
15.214901940621196 69.2153
15.237416709527137 69.1141
15.259914520936249 69.4163
15.282430473753607 68.4616
15.304947020131227 67.452
15.327446610371178 66.527
15.349964346154254 65.8641
15.372465126703139 65.4435
15.394984055556009 65.1851
15.417486030076159 65.1943
15.44000615566487 65.0787
15.462526881230803 64.8436
15.485030653812652 64.8363
15.507552581617434 64.7644
15.530057557334603 64.8622
15.55258069104857 64.8394
15.575104429329837 64.991
15.597611216864632 64.5819
15.620136166564563 64.4737
15.6426441664095 65.3909
15.665170331202765 67.1058
15.687697105158826 69.759
15.710206930593545 72.9531
15.732734925158933 77.1095
15.755245972089478 83.1582
15.77777519094324 92.53399999999999
15.800287463046663 106.26299999999999
15.822817909869592 127.039
15.84534897229804 150.732
15.867863089299354 175.32299999999998
15.890395385222186 190.69
15.912910736597423 192.74200000000002
15.935444269699861 178.752
15.957978423016485 148.153
15.980495633101265 117.289
16.003031029129367 91.8924
16.02554948280019 74.8365
16.048086125229432 66.5416
16.070623392487107 63.7685
16.09314371869582 62.8558
16.11568223789321 61.8645
16.13820381691126 60.9777
16.160743591742527 60.0422
16.183283996022084 59.4186
16.205807461423195 58.3842
16.228349126881973 57.9082
16.25087385432698 57.6497
16.27341678466365 57.1052
16.29594277784926 57.0359
16.31848697676433 57.4169
16.341031811604868 57.4806
16.36355971058487 57.6404
16.3861058195587 57.3423
16.40863499352978 56.3899
16.431182380342005 55.5973
16.453730407713202 54.9629
16.476261501364792 54.742
16.498810812136167 54.4633
16.52134319004079 54.5236
16.54389378792203 54.5471
16.566445031001553 54.1264
16.588979342490088 54.1137
16.61153187824822 54.0596
16.634067483263312 53.9017
16.656621315414416 53.8299
16.679175797408888 53.6847
16.701713349928728 53.7897
16.72426913389191 53.9085
16.74680798922351 53.8828
16.76936507887444 53.9738
16.791905240734874 54.1036
16.814463639794468 53.9248
16.837022695210294 53.9592
16.859564824093756 54.1557
16.882125194503903 54.7994
16.904668639217885 55.2948
16.927230328348003 55.398999999999994
16.949792678493612 55.5121
16.972338104193863 54.9032
16.994901778652235 54.5068
17.017448529496576 54.4272
17.040013531998152 54.5302
17.06257920018044 55.0904
17.0851279459922 55.9426
17.107694947817667 56.5691
17.130245028099072 57.1278
17.15281336730298 58.5472
17.17536478578733 60.3867
17.19793446610687 62.5153
17.220504818648422 65.7344
17.243058251703697 69.4461
17.265629950971032 74.7435
17.288184731571736 79.1737
17.310757781306908 82.8255
17.33333150794385 82.6686
17.355888317140174 79.9522
17.37846339986244 74.4741
17.401021565958885 68.8439
17.42359800851343 63.6852
17.44617513265564 60.611999999999995
17.468735341390783 58.7564
17.491261035594565 58.0952
17.51396340099364 57.787
17.536490463869136 58.0439
17.559018209820174 58.1062
17.58154663977963 58.2169
17.604251766089718 58.5835
17.626781572227713 58.6974
17.64931206518155 58.7967
17.671843245885103 59.1379
17.69455114821572 59.4553
17.717083712612634 59.8703
17.739616967569667 59.8664
17.762150914021706 60.0883
17.78486160749854 60.0761
17.807396945166804 60.8368
17.829932977143503 61.5124
17.85246970436452 62.6595
17.875183204129467 64.2404
17.897721330097664 66.32
17.920260154126645 68.4814
17.942799677153296 71.3324
17.9655159983646 75.0938
17.988056927677544 80.7034
18.010598558807683 88.7335
18.033140892692916 99.6359
18.05586005052525 111.625
18.07840379824407 122.82700000000001
18.10094825154059 131.782
18.12366954819864 136.719
18.146215420998306 133.705
18.16876200220057 124.837
18.191309292745153 111.863
18.214033452627167 99.4575
18.236582170236648 88.9472
18.259131600016456 84.5183
18.281681742907335 85.3405
18.304408781233683 90.1749
18.32696035875955 95.8598
18.349512652227624 100.899
18.372065662579683 104.311
18.394795594587553 104.71600000000001
18.41735004715306 99.2408
18.43990521943684 93.0024
18.46246111238171 83.4635
18.485193953325208 74.7203
18.507751296070428 68.3247
18.530309362314178 64.4625
18.552868153000343 62.2762
18.57560391815056 60.81
18.59816416623245 60.6069
18.620725141597372 60.2556
18.643286845190268 59.6691
18.666025549835414 59.1813
18.688588718427933 58.6577
18.711152618092243 58.5314
18.73389353884365 58.3608
18.75645890921984 57.8441
18.77902501351406 57.5695
18.801591852673102 57.5351
18.824335739722738 57.1721
18.846904057212626 57.216
18.8694731124168 56.7654
18.89204290628315 56.6517
18.914789774966803 56.494
18.937361054791623 56.398999999999994
18.959933076131318 56.0809
18.982505839934877 56.138999999999996
19.00525570560582 56.2215
19.027829963004184 55.6597
19.05040496572238 55.8229
19.072980714710468 55.9865
19.095733592739563 56.0087
19.11831084296757 56.178999999999995
19.140888842324735 56.5527
19.16346759176222 56.7664
19.18622349753803 57.4426
19.208803755869358 58.1648
19.231384767143577 59.1567
19.253966532312948 61.0341
19.276725481241822 63.2063
19.29930876296784 65.9024
19.3218928014549 68.8692
19.34465404436217 71.5032
19.36723960516257 74.0439
19.389825925592426 74.1586
19.412413006605938 72.9665
19.43517731967805 69.5171
19.457765930683355 65.5976
19.48035530514408 61.301
19.50294544401556 57.998000000000005
19.525712842708348 55.3896
19.54830451925909 54.167
19.570896963095727 53.327
19.593490175174704 53.033
19.616260674962184 52.9788
19.638855432416964 52.6516
19.661450960992624 52.7379
19.68404726164677 52.6155
19.706820878021247 52.364
19.729418731756834 52.6433
19.752017360452857 52.2628
19.77461676506804 52.5804
19.797393513540218 52.4952
19.819994478951667 52.922
19.84259622316767 53.291000000000004
19.8651987471481 53.6197
19.887978643247177 53.8317
19.91058273574792 54.3375
19.933187610901943 55.1422
19.955969879466828 56.3139
19.97857632894404 57.6714
20.00118356396599 59.8255
20.023791585494575 61.7315
20.046577028914875 64.5856
20.069186632506966 66.9435
20.091797025500632 68.2782
20.114408208858933 68.4886
20.137196842715273 67.7252
20.159809615886765 66.1129
20.18242318232135 63.773999999999994
20.20503754298326 62.3276
20.227829382875154 61.3295
20.250445341109344 61.4872
20.27306209647285 62.5078
20.29567964993108 63.7612
20.31847471147704 64.4967
20.34109387027612 64.8381
20.363713830075454 64.4224
20.386334591841646 62.3443
20.409132890679302 59.6813
20.431755265564437 56.8795
20.454378445325528 54.5305
20.477002430930366 52.4745
20.499803982716553 51.5101
20.522429589228004 50.5431
20.54505600449589 50.2155
20.567683229489194 49.9827
20.590488049900088 49.5953
20.61311690359731 49.282
20.63574656993626 49.0155
20.658553853717297 48.7292
20.681185154618298 48.7518
20.703817271080066 48.6735
20.72645020407368 48.3781
20.749260783967177 48.2264
20.771895359337133 48.0852
20.794530754161617 48.1009
20.817166969412938 47.9686
20.83998086114876 47.8916
20.86261872660049 47.9212
20.885257415405402 47.7606
20.90789692853701 47.746
20.930714147864748 47.7131
20.953355319030678 47.7191
20.97599731745334 47.7564
20.99864014410749 47.5337
21.021460706796564 47.7876
21.044105199328826 47.9441
21.06675052302631 48.2105
21.089396678865015 48.1721
21.112220600704806 48.3881
21.134868430275347 48.9752
21.15751709492456 49.3813
21.180166595629693 49.8149
21.202993892429635 50.0098
21.22564507473034 50.3445
21.24829709602816 50.5713
21.27112693608965 50.4802
21.293780644891275 50.4066
21.316435195634053 49.733000000000004
21.339090589297417 49.042
21.361923832041875 48.5944
21.384580921090404 47.9926
21.407238856007325 47.6058
21.429897637773326 47.7291
21.45273429906592 47.4947
21.475394784108598 47.5749
21.498056118951983 47.3544
21.520718304578022 47.6218
21.543558400304388 47.6657
21.566222297108816 47.8034
21.58888704765135 47.9428
21.61155265291521 48.2853
21.63439619898156 48.7055
21.657063523335786 48.8453
21.67973170537063 49.2179
21.7024007460706 49.7773
21.72524775840385 50.6088
21.747918526116475 51.6439
21.770590155457388 53.0611
21.79326264741238 54.5822
21.816113141960237 56.5691
21.838787368860547 58.4744
21.861462461341976 60.6081
21.884315579735777 62.31399999999999
21.90699241312273 63.2288
21.92967011506078 63.2052
21.95234868653799 62.8553
21.9752053151131 61.3456
21.997885635446785 59.6534
22.020566828293532 58.0176
22.04324889464272 56.6921
22.066109049404666 55.7698
22.088792872571794 55.3039
22.111477572219204 55.2029
22.1341631493376 55.2464
22.157026846313123 54.78
22.179714188221507 54.0204
22.202402410582668 52.9237
22.22509151438863 51.5816
22.24795876962584 50.5211
22.270649646204486 49.7523
22.293341407213727 48.9163
22.316034053646906 48.3577
22.338904883215342 48.1766
22.36159931041458 48.3078
22.38429462602756 48.0992
22.40699083104897 47.7844
22.429865251039757 47.9379
22.452563244831367 47.9314
22.47526213102522 47.8124
22.49813925616515 47.7723
22.520839937143307 47.6282
22.543541513520587 47.696999999999996
22.56624398629403 47.6046
22.589124730075895 47.5834
22.611829005656723 47.81100000000001
22.63453418063466 47.6378
22.657240256008077 47.8806
22.680124634582935 47.9568
22.70283252079775 48.3844
22.725541310413075 48.5625
22.74825100442868 48.6771
22.771139033969575 49.0314
22.79385054687155 49.1891
22.81656296718292 50.0376
22.83927629590484 51.0879
22.862167992606945 52.1238
22.88488314827121 53.3771
22.907599215359284 54.5901
22.93031619487366 55.7487
22.953211574954405 56.2961
22.975930389478226 56.9249
22.998650119445763 56.7883
23.02137076586092 55.989
23.044269845560063 54.7844
23.06699233506288 53.2999
23.089715744034912 51.5014
23.112617610931565 50.0158
23.135342869061212 49.0228
23.158069049684816 48.3788
23.1807961538087 47.8917
23.20370174880544 47.7589
23.226430710184808 47.7819
23.249160598093425 47.8652
23.271891413539002 47.9045
23.294800752937697 47.8627
23.31753343374794 48.0639
23.340267045128353 48.1652
23.36300158808808 48.4623
23.38591468821339 48.7144
23.408651104658304 49.2309
23.431388455719986 49.9207
23.454126742409 50.7728
23.4770436196085 52.0129
23.499783787914662 53.3432
23.522524894889884 54.3732
23.54526694154616 55.5068
23.56818761219047 56.4701
23.59093154860734 56.8179
23.613676427751283 56.881
23.636422250635754 55.8548
23.659346731118656 54.1477
23.68209445191868 52.4064
23.704843119509587 50.5339
23.72759273490623 48.6315
23.750521041644767 47.2825
23.77327256312355 46.271
23.796025035462787 45.733000000000004
23.818956224555475 45.4106
23.841710609113413 45.1464
23.86446594758979 45.1245
23.887222241002014 44.7707
23.910157285144578 44.3942
23.932915498962537 44.4473
23.955674670778713 44.2945
23.978434801611975 44.0091
24.001373717286125 43.973
24.024135776723917 43.7587
24.046898798245582 43.7816
24.06966278287146 43.5459
24.092605586582614 43.4875
24.115371508023642 43.4166
24.1381383956401 43.2945
24.16090625045381 43.2306
24.183852958731244 43.2751
24.206622758582608 43.0546
24.229393528706886 42.8864
24.252165270127392 42.8975
24.27511589952438 42.8483
24.297889594216997 42.793
24.32066426328598 42.5681
24.34343990775613 42.6405
24.36639447485003 42.5962
24.38917208083877 42.4453
24.41195066531332 42.3122
24.43490819850244 42.286
24.457688750692377 42.2657
24.48047028445616 42.1486
24.503252800821233 42.4079
24.526214300784112 42.4358
24.548998793132213 42.3314
24.57178427117417 42.2479
24.59457073593893 42.2878
24.617536219319863 42.0894
24.64032466834748 42.1335
24.663114107195035 42.0351
24.685904536893013 41.8105
24.708874020360852 41.7091
24.731666442613744 41.6637
24.754459858818787 41.7341
24.777254270007962 41.6219
24.80022777025625 41.5198
24.82302418230472 41.4925
24.845821592443674 41.5274
24.86862000170663 41.5179
24.891597535453727 41.4111
24.914397953892728 41.6296
24.93719937456671 41.3736
24.96000179851076 41.6065
24.98298338249997 41.7154
25.00578782394922 42.0229
25.028593271784167 42.0228
25.05157790644186 42.5329
25.07438537804115 42.544
25.097193859145293 42.9101
25.120003350792075 43.0722
25.142992065061257 43.4158
25.165803588823465 43.533
25.18861612625217 43.9325
25.211429678386736 43.9003
25.234422489079968 43.8642
25.257238081693636 44.0
25.280054692141732 44.2299
25.3028723214652 44.2872
25.325869245420463 44.3779
25.348688923599397 44.2345
25.371509623787006 44.0604
25.394331347025812 43.7525
25.41733240110666 43.2445
25.440156181590016 42.7026
25.46298098826268 42.151
25.48580682216873 41.6598
25.50881202326435 41.028
25.53163992281684 40.7108
25.55446885274561 40.3557
25.577298814096377 40.2338
25.600308179121807 39.966
25.623140214533745 40.2096
25.64597328451537 40.0534
25.66898578564376 39.694
25.691820936010206 39.7759
25.714657124097695 39.6183
25.737494350954734 39.7113
25.760511045684957 39.6874
25.783350361364224 39.7815
25.806190718969255 39.7021
25.82903211955018 39.9239
25.852053024868923 39.9128
25.874896522722523 39.8601
25.897741066713106 39.849000000000004
25.920586657892454 40.0875
25.943611790812668 40.0965
25.966459487728237 40.2192
25.989308234998564 40.459
26.01215803367705 40.7575
26.03518741123814 40.8098
26.05803932412957 41.0018
26.080892291600094 40.9036
26.10374631470478 41.0257
26.12677995397268 40.9147
26.14963609978026 40.8489
26.172493304397875 40.5315
26.19535156888223 40.3434
26.218389486949604 39.966
26.241249882640123 39.8391
26.26411134137826 39.5598
26.28715248187403 39.6383
26.31001607820869 39.3337
26.3328807407756 39.2605
26.35574647063438 39.4716
26.37879191991473 39.3836
26.401659795896734 39.3781
26.424528742360263 39.5266
26.447398760366614 39.6209
26.470448535598294 39.7429
26.49332070826805 40.0677
26.516193955675355 40.4401
26.53906827888316 40.5844
26.562122397260108 40.8962
26.584998883685063 41.1974
26.607876449110325 41.4425
26.63075509460056 41.4846
26.65381357334404 41.5419
26.67669439061878 41.4449
26.699576291163382 41.2487
26.722459276044212 41.1191
26.745522132402975 40.8709
26.768407297649354 40.6507
26.791293550442003 40.3779
26.814180891848974 40.1499
26.837248143099337 39.8334
26.860137673466657 39.7192
26.88302829566349 39.5006
26.90592001075963 39.3143
26.92899167420566 39.1423
26.951885586870763 38.6744
26.974780595655517 38.579
26.99785558178161 38.4577
27.020752794605112 38.346
27.043651106772522 38.1579
27.06655051935668 38.2261
27.089629948036183 38.11
27.112531573292053 37.9328
27.135434302194138 38.0669
27.158338135817015 37.8383
27.181422024430987 37.7951
27.204328079372566 37.7783
27.22723524226965 37.9219
27.250143514198573 37.9359
27.273231880156334 37.9333
27.296142382065014 37.719
27.319053996245536 37.6879
27.341966723775965 37.7153
27.365059584515222 37.7446
27.38797455070062 37.6753
27.410890633481237 37.7429
27.433807833936918 37.7441
27.456905206923906 37.8593
27.47982465472398 37.7385
27.502745223449743 37.8426
27.525666914182825 37.9395
27.548768816912457 37.8483
27.571692763693633 37.7685
27.59461783573812 37.6399
27.617723149491244 37.5092
27.640650484125285 37.5017
27.66357894728264 37.3838
27.686508540048052 37.4138
27.709618414237887 37.3325
27.732550278321757 37.0939
27.755483275279115 37.2518
27.778417406196485 37.2167
27.801531858397514 37.153
27.824468269376716 37.016999999999996
27.847405817586786 37.135
27.870344504116094 37.3748
27.893463551932008 37.4924
27.916404527281053 37.5676
27.93934664422563 37.7595
27.962289903855886 37.7512
27.98541356491974 37.9914
28.00835912214229 38.0315
28.03130582533231 38.3245
28.054253675581805 38.4375
28.077381967556104 38.2916
28.100332124185126 38.2516
28.123283431160893 38.2542
28.146235889577238 38.1578
28.169368830154156 38.0987
28.192323603752033 37.9687
28.215279532083304 37.4785
28.238415973016764 37.2892
28.261374223145094 37.1435
28.284333631303806 36.8963
28.307294198589954 36.7339
28.330435319167677 36.4526
28.353398217078915 36.2667
28.376362277420153 36.0741
28.39932750129032 35.9738
28.422473319286713 35.8711
28.44544088262495 35.7195
28.468409612800283 35.5257
28.491379510913497 35.3221
28.51453004413313 35.3202
28.53750229057244 35.3127
28.56047570826344 35.0865
28.583450298308804 35.231
28.606605564586562 35.071999999999996
28.629582511831156 35.1025
28.65256063474956 34.887
28.675539934446338 35.0048
28.698699951647605 34.9748
28.72168161743193 34.8889
28.74466446331978 34.955
28.767648490417624 34.9192
28.790813276438353 34.9271
28.813799678527303 34.8219
28.836787265157085 34.8061
28.859955641890075 34.8556
28.882945610203045 34.8032
28.905936766392035 34.6205
28.928929111566863 34.7508
28.952102288520145 34.6815
28.975097024308607 34.5299
28.998092952423807 34.4088
29.021090073977508 34.3177
29.04426806913204 34.1856
29.067267590245258 34.2048
29.090268308143695 34.0128
29.11327022394099 33.9149
29.13645305530891 33.8444
29.159457379627167 33.7588
29.18246290519685 33.7532
29.20546963313352 33.7466
29.22865731875826 33.777
29.25166646419296 33.817
29.27467681535305 33.5549
29.29768837335608 33.7674
29.320880931312562 33.7949
29.34389491580634 33.7563
29.366910110507334 33.6242
29.38992651653503 33.6146
29.41312396492981 33.5847
29.436142806456754 33.6182
29.45916286268059 33.4493
29.48236399319994 33.3359
29.50538649169417 33.2336
29.528410208259935 33.1165
29.55143514402014 32.9567
29.574641196749695 32.8886
29.597668583816574 32.786
29.6206971934585 32.5104
29.64372702680042 32.5187
29.666938019934474 32.4287
29.689970313635285 32.3859
29.713003834422636 32.36
29.73603858342347 32.4413
29.759254535188578 32.2506
29.78229175361658 32.1798
29.80533020365064 32.3815
29.82836988641968 32.3877
29.85159081507472 32.3002
29.874632976355343 32.2527
29.89767637376955 32.2602
29.920721008448314 32.1572
29.9439469322847 32.022
29.96699405457564 32.0083
29.9900424175358 32.0648
30.013092022298157 31.9903
30.03632295963995 31.8941
30.059375061131373 31.8658
30.08242840783577 31.9976
30.105483000888153 32.0135
30.128718970092244 31.8772
30.151776069006917 31.8694
30.17483441768648 31.9494
30.198074175317235 31.9183
30.221135036724256 31.8889
30.24419715131772 31.754
30.267260520236203 31.7725
30.290505341942243 31.8278
30.313571232750228 31.8228
30.336638381310948 31.7536
30.35970678876503 31.75
30.38295669299435 31.5734
30.40602763151657 31.6948
30.429099832366074 31.6697
30.452173296685572 31.5707
30.47542830191959 31.5961
30.498504306502497 31.456
30.521581577995562 31.6296
30.544660117543582 31.5765
30.56792024229725 31.6389
30.59100133132069 31.5478
30.614083691845494 31.6522
30.637167325018545 31.7005
30.660432587840603 31.6687
30.683518779717886 31.6973
30.70660624769615 31.7019
30.729694992924372 31.6217
30.75296541239743 31.7251
30.77605672557558 31.5879
30.799149319462742 31.5028
30.8224236211637 31.4313
30.845518789950724 31.4793
30.868615242910597 31.2524
30.891712981195973 31.0387
30.91499247215866 31.0174
30.938092794619365 31.0313
30.96119440587579 31.0073
30.984297307082752 30.8583
31.00758200598383 30.7577
31.030687500658694 30.7054
31.053794288760695 30.671
31.076902371446767 30.4487
31.100192296997445 30.6571
31.12330298246119 30.6284
31.14641496599209 30.4092
31.169528248749216 30.3275
31.19282341969534 30.3786
31.215939314557186 30.4781
31.239056512134788 30.4798
31.262175013589378 30.351999999999997
31.28547544871168 30.2978
31.30859657161541 30.2602
31.331719001892175 30.413
31.35484274070538 30.4253
31.378148458819545 30.4708
31.401274828443725 30.2999
31.424402510106933 30.3928
31.447712205419993 30.4712
31.470842524931633 30.2685
31.493974159989783 30.3378
31.51710711176168 30.2472
31.54042212308802 30.2759
31.563557722100917 30.211
31.586694641341655 30.1376
31.609832881979628 29.978
31.63315322823208 29.9581
31.656294125521327 29.8522
31.679436347728515 29.8021
31.70257989602529 29.736
31.725905596152327 29.7008
31.74905181052835 29.6293
31.772199354521323 29.6878
31.79534822930507 29.6257
31.818679302290967 29.4985
31.84183085259981 29.6145
31.864983737233473 29.6719
31.88813795736804 29.6723
31.911474422233013 29.4839
31.934631327356435 29.6415
31.9577895715215 29.6121
31.980949155906522 29.5749
32.004291031706956 29.5087
32.027453310562606 29.3432
32.05061693318573 29.1883
32.07396288236386 29.3604
32.09712920658542 29.269000000000002
32.12029687812702 29.0589
32.14346589817093 28.9641
32.166817291729984 29.0089
32.18998902288583 29.0603
32.21316210610336 29.0221
32.23633654256711 28.838
32.259693399663725 28.8243
32.282870556771144 28.7067
32.30604907069099 28.663
32.329228942610065 28.6201
32.35259128243769 28.4472
32.375773884550505 28.3583
32.398957848235646 28.4053
32.422143174682176 28.3657
32.445511016471215 28.2882
32.468699082679954 28.2889
32.49188851523011 28.2073
32.51507931531304 28.1456
32.538452678331 28.1489
32.56164622776311 28.1451
32.58484114831493 27.9225
32.60803744118015 28.0641
32.631416344731896 28.1047
32.654615396551876 27.9932
32.67781582427913 27.9029
32.701198898634416 27.8743
32.72440209253756 27.8167
32.747606665947124 27.7913
32.77081262006088 27.6382
32.79420126883317 27.6016
32.81740999876112 27.7016
32.840620112999424 27.5732
32.86383161274818 27.6074
32.88722585534586 27.531
32.91044014056596 27.6498
32.933655814909734 27.5049
32.95687287957963 27.5063
32.98027273544904 27.3779
33.00349259526636 27.3299
33.026713849030116 27.3622
33.04993649794511 27.3814
33.073341986570746 27.3684
33.09656744032826 27.2847
33.11979429286444 27.2821
33.14302254538647 27.3062
33.166433686291185 27.2913
33.18966475336992 27.1292
33.212897224069096 27.0435
33.23613109959831 27.1146
33.259547912343415 27.1746
33.2827846121627 27.1681
33.306022720453775 27.0813
33.32926223842861 26.9829
33.352684742614166 26.9731
33.37592709463173 26.9589
33.399170859982064 26.8364
33.422597648419426 26.8174
33.44584425514446 26.6243
33.46909227885668 26.6053
33.4923417207723 26.5361
33.51577423505344 26.5491
33.539026528130385 26.6022
33.56228024307245 26.4249
33.585535381098246 26.2531
33.60897364093058 26.2617
33.63223163992385 26.3232
33.6554910656699 26.2094
33.678751919389796 26.2519
33.702195944520106 26.0331
33.72545966903325 26.079
33.74872482519663 26.0519
33.771991414233746 26.0846
33.79544122444841 26.0006
33.81871069412428 25.9829
33.84198160035767 25.9558
33.86525394437455 25.9156
33.88870955949969 25.916999999999998
33.911984794020626 25.8829
33.93526147001624 25.8379
33.958539588715006 25.8013
33.98200102861669 25.6946
34.0052820477047 25.6135
34.02856451319451 25.559
34.05203033759056 25.5692
34.07531571090147 25.569000000000003
34.09860253431845 25.5575
34.121890809074316 25.4481
34.145362493118924 25.4057
34.16865368561615 25.4567
34.191946333164054 25.344
34.21524043699793 25.3302
34.23871800066799 25.2894
34.26201503218366 25.1209
34.28531352370466 25.2079
34.30861347646881 25.1917
34.33209693978188 25.1606
34.3553998301885 25.0733
34.378704185565205 25.0833
34.402010007152356 25.1082
34.42549939016683 24.9776
34.44880815937748 24.9055
34.472118398533134 24.8025
34.49543010887669 24.7972
34.51892543169198 24.6637
34.54224009966052 24.6653
34.56555624255917 24.671
34.58887386163339 24.6184
34.61237514439016 24.6071
34.6356957311114 24.6023
34.65901779775809 24.4843
34.68252356662995 24.4324
34.705848608458616 24.4907
34.72917513396849 24.3961
34.75250314440949 24.3774
34.77601490857862 24.401
34.799345904259795 24.2177
34.82267838863559 24.3049
34.846012362958525 24.3006
34.869530142679984 24.2138
34.89286711232212 24.1695
34.91620557568269 24.1345
34.93954553401677 24.0758
34.9630693495876 24.1309
34.986412313340814 24.0721
35.00975677584668 24.1106
35.033102738362956 23.9382
35.05663261012228 23.8915
35.0799815881786 23.91
35.10333207003229 23.8398
35.12668405694369 23.8921
35.150220005273056 23.8603
35.17357501786656 23.8207
35.19693153931268 23.8282
35.220289570874385 23.8491
35.24383161619786 23.7021
35.267192683604904 23.7306
35.290555264930376 23.6467
35.314101899412165 23.6781
35.33746752422433 23.6118
35.36083466676374 23.6581
35.38420332829803 23.6164
35.407756095629054 23.6773
35.43112781085063 23.5866
35.45450104888391 23.5599
35.477875810999194 23.5629
35.50143473172161 23.4824
35.52481255774625 23.5269
35.54819191167777 23.4791
35.57157279478914 23.4261
35.595137889488406 23.4057
35.61852184675279 23.2664
35.641907337029984 23.2482
35.665294361595684 23.1741
35.68886565090076 23.1496
35.7122557598848 23.1877
35.73564740699838 23.1559
35.759040593519934 23.1089
35.78261809810353 23.0504
35.80601437933051 22.9976
35.829412203814705 22.9188
35.85281157283719 22.8811
35.876395313415884 23.0127
35.8997977874528 22.8099
35.92320180988546 22.7627
35.946790244133936 22.6749
35.97019737933222 22.7637
35.993606066789866 22.7012
36.01701630779276 22.6714
36.04061101440684 22.5866
36.06402437852291 22.7037
36.08743930005611 22.6163
36.1108557802951 22.5514
36.13445678011326 22.526
36.15787639383515 22.4371
36.18129757014299 22.426
36.20472031032821 22.3749
36.22832762423364 22.3136
36.25175350829375 22.3218
36.275180960119776 22.3022
36.298609981005924 22.3419
36.32222362992669 22.3344
36.34565580510207 22.226
36.36908955323448 22.1626
36.39252487562093 22.0362
36.416144880530226 22.1513
36.43958336764275 22.0999
36.463023432914625 22.0796
36.486465077645676 21.9944
36.51009145956204 22.0473
36.53353627947859 22.076
36.55698268276811 21.98
36.58043067073321 21.9269
36.60406345072071 21.8172
36.62751462435344 21.8562
36.65096738658405 21.7806
36.67460498210655 21.7999
36.69806093788647 21.726999999999997
36.72151848619297 21.6675
36.744977628333636 21.6766
36.76862165890998 21.6395
36.79208400512205 21.6402
36.81554794910557 21.5946
36.83901349217101 21.4905
36.862663978991606 21.4813
36.88613273667352 21.482
36.90960309738324 21.4342
36.933075062434064 21.3438
36.95673202673572 21.3178
36.98020721697122 21.3197
37.003684015502365 21.285999999999998
37.027162423645365 21.2092
37.050825886711465 21.2174
37.07430753063053 21.12
37.09779078812467 21.0821
37.121275660513014 21.1056
37.144945643673694 21.0584
37.16843376245278 21.0242
37.19192350009803 21.0766
37.215414857931435 20.9203
37.239091382563885 20.8057
37.262585997426164 20.906999999999996
37.28608223645736 20.8894
37.309763684451696 20.8634
37.33326318851098 20.7469
37.356764320726555 20.7784
37.380267082425526 20.7543
37.40395510942588 20.7612
37.42746114683234 20.6562
37.45096881771841 20.5882
37.474478123414166 20.6216
37.49817275092816 20.5974
37.52168534303452 20.5729
37.54519957395567 20.4535
37.568715445024665 20.4968
37.592416694607714 20.4705
37.61593586281424 20.5342
37.63945667518264 20.5034
37.66297913304891 20.4098
37.68668702630454 20.3643
37.710212792059274 20.254
37.733740207334854 20.2581
37.757269273470364 20.2216
37.780983832050374 20.1797
37.80451621684926 20.1606
37.82805025654007 20.0782
37.851585952464795 20.0876
37.8753071980695 20.0833
37.89884622345676 19.9913
37.92238690911902 19.965999999999998
37.94611318753442 19.9786
37.969657210779765 19.9377
37.99320289834801 19.9159
38.016750251586465 19.8512
38.04048325513017 19.7971
38.06403395679343 19.7595
38.087586328183946 19.7018
38.11114037065203 19.7082
38.13488012115898 19.6645
38.1584375229181 19.6876
38.181996599821 19.6555
38.205557353221124 19.6195
38.229303872575656 19.5622
38.2528679961576 19.5717
38.27643380031219 19.5118
38.30000128639589 19.4555
38.32375459653193 19.4619
38.34732546371299 19.5472
38.37089801690786 19.4185
38.39447225747609 19.2944
38.418232380377425 19.249000000000002
38.441810012983396 19.2924
38.46538933705673 19.289
38.488970353960084 19.2761
38.51273731166058 19.2192
38.536321731567014 19.2602
38.55990784840681 19.1714
38.58367995004091 19.1288
38.60726947812959 19.0882
38.63086070726198 19.1644
38.654453638806274 19.0996
38.678232613930824 19.0763
38.70182896773327 18.9728
38.72542702806741 18.9156
38.7490267963045 18.9539
38.77281266709232 18.884
38.79641586862214 18.9017
38.8200207821842 18.8256
38.843627409152944 18.8147
38.86742019782782 18.8192
38.891030269149255 18.7393
38.914642058016156 18.7206
38.938255565806124 18.6734
38.96205529464307 18.6631
38.98567225787121 18.6933
39.00929094417078 18.6019
39.03291135492255 18.6492
39.05671804624804 18.5326
39.080341923549106 18.4937
39.103967529460334 18.4331
39.127594865365744 18.3822
39.15140854155791 18.4175
39.17503935514948 18.3474
39.19867190290282 18.3692
39.22249083587951 18.3866
39.24612686969409 18.3796
39.269764641845306 18.3051
39.293404153722804 18.1858
39.317230110864074 18.1427
39.34087311998506 18.1459
39.36451787301696 18.0512
39.388164371352595 18.0859
39.41199737518003 18.0696
39.43564738196752 18.0997
39.45929913825317 18.0194
39.48295264543308 17.9786
39.506792718520884 17.9504
39.530449745387216 17.9191
39.55410852735203 17.8982
39.57776906581474 17.8967
39.60161623079 17.8285
39.625280300200025 17.8521
39.64894613032202 17.79
39.67261372255866 17.7253
39.6964680021016 17.7515
39.72013913657293 17.7739
39.74381203738292 17.682000000000002
39.76748670593756 17.6807
39.79134812278169 17.692
39.81502634488497 17.643
39.83870633896685 17.5811
39.862388106436654 17.5464
39.88625668336918 17.5458
39.90994201572829 17.5588
39.933629125719285 17.4884
39.957503091207826 17.4235
39.9811937746168 17.4361
40.00488623990914 17.4107
40.02858048850006 17.4128
40.05246165409549 17.3277
40.076159487492085 17.3056
40.099859108448875 17.2507
40.123560518384345 17.2356
40.1474489070226 17.2275
40.171153913178564 17.197
40.194860712584955 17.1289
40.2185693066637 17.1235
40.242464941335314 17.0877
40.26617714307655 17.0647
40.289891143772046 17.0689
40.3136069448471 17.0914
40.33750984859743 17.032
40.3612292688043 16.996
40.3849504936829 16.9779
40.40867352466194 16.9728
40.43258372059144 16.8635
40.45631038219906 16.8705
40.48003885420956 16.8068
40.503769138055105 16.7727
40.52768664931955 16.8554
40.55142057531802 16.8253
40.57515631746428 16.7842
40.599079334038514 16.6842
40.62281872700477 16.6779
40.64655994043941 16.6843
40.67030297578061 16.6597
40.69423334835778 16.5886
40.71798004609188 16.5674
40.74172857006355 16.5603
40.76547892171441 16.5175
40.7894166736039 16.5447
40.813170699248566 16.4295
40.83692655691388 16.4412
40.86068424804498 16.4447
40.884629402612525 16.3697
40.908390779366385 16.395
40.932153993938 16.3643
40.95591904777605 16.3367
40.979871628443995 16.3281
41.003640379561936 16.3158
41.02741097430883 16.2668
41.05118341413683 16.2413
41.075143444384416 16.2378
41.098919593177826 16.2249
41.1226975914255 16.1262
41.14647744058318 16.1096
41.170444943946755 16.0901
41.19422851378379 16.081
41.218013938914645 16.0148
41.24198706625173 15.9164
41.26577622087193 15.9914
41.289567235177785 15.9587
41.31336011063129 15.9216
41.337340752422875 15.8722
41.361137369129835 15.8364
41.38493585138705 15.8147
41.40873620066004 15.8342
41.43272438060107 15.8771
41.45652848292052 15.7349
41.48033445666918 15.6439
41.50414230331616 15.6816
41.528138045159764 15.7221
41.551949656675205 15.6252
41.575763145513235 15.5954
41.59957851314666 15.6357
41.62358184070442 15.5908
41.64740098505737 15.5134
41.6712220126409 15.5166
41.69504492493139 15.5153
41.71905586207357 15.472999999999999
41.74288256296395 15.424000000000001
41.766711153007456 15.4266
41.79054163368412 15.3967
41.814560204340054 15.4251
41.838394485526365 15.3284
41.86223066180303 15.2696
41.88625497706819 15.3029
41.910094962812 15.2518
41.93393684811168 15.2466
41.95778063445365 15.1299
41.981812625263366 15.1605
42.00566023303407 15.1392
42.029509746323676 15.1695
42.05336116662236 15.0494
42.077400857069705 15.0901
42.10125611078846 15.0795
42.12511327600405 15.0607
42.14897235421036 15.0102
42.173019768448455 14.9525
42.19688269209613 14.9247
42.22074753323349 14.9317
42.24461429335818 14.8801
42.268669455600495 14.8665
42.292540073217886 14.8913
42.31641261433284 14.8178
42.34028708044675 14.7759
42.36435001496739 14.7991
42.38822835065557 14.8184
42.41210861586426 14.7534
42.4359908120986 14.7728
42.46006154323262 14.6883
42.48394762115317 14.6618
42.507835634632315 14.663
42.531912233047436 14.6209
42.55580413732265 14.6162
42.579697981698 14.6002
42.60359376768525 14.5459
42.62767820545945 14.4991
42.65157789440821 14.4439
42.67547952952185 14.4718
42.699383112316 14.4848
42.72347541395347 14.4121
42.74738291190531 14.3835
42.771292362102166 14.4344
42.795203766063516 14.3798
42.819303956130405 14.3738
42.843219287476536 14.3047
42.86713657716324 14.2951
42.89105582671383 14.218
42.91516392983864 14.190999999999999
42.939087119032166 14.2499
42.963012272677304 14.1838
42.98693939230129 14.0982
43.01105543317513 14.1483
43.034986504731386 14.1164
43.05891954686589 14.1007
43.08285456110972 14.0897
43.10697856448665 14.0301
43.130917542983475 13.9744
43.15485849820081 13.9751
43.17880143167367 13.9475
43.20293342237094 13.9201
43.226880332449 13.9146
43.25082922540554 13.9322
43.27496722682525 13.9031
43.29892010567796 13.8607
43.32287497204102 13.8424
43.34683182745632 13.774000000000001
43.370977859791836 13.7559
43.39493871351105 13.7275
43.41890156092628 13.6975
43.44286640358341 13.7056
43.46702049182749 13.6756
43.49098934522816 13.6557
43.51496019852649 13.5972
43.5389330532723 13.6553
43.56309522248204 13.6308
43.58707210044314 13.5621
43.61105098451946 13.5239
43.63503187626491 13.4814
43.659202151562134 13.4485
43.68318707902681 13.4508
43.70717401884041 13.4429
43.731162972560874 13.4295
43.75534137913236 13.373
43.779334381108384 13.3473
43.803329401683186 13.3328
43.82732644241872 13.2939
43.8515130055166 13.3052
43.87551410707659 13.2509
43.89951723350145 13.2723
43.923709934595614 13.2368
43.94771713129917 13.2231
43.97172635758096 13.2301
43.99573761501002 13.1529
44.0199385169922 13.1736
44.04395385732619 13.1462
44.067971233533086 13.1188
44.09199064718605 13.0623
44.11619977548961 13.0693
44.14022328470671 13.0625
44.16424883610785 13.0358
44.18827643127035 13.0155
44.21249381139513 12.9687
44.236525514814076 12.9146
44.26055926674478 12.9093
44.28459506876863 12.9041
44.3088207262813 12.8483
44.33286064928722 12.8634
44.35690262714919 12.8027
44.38094666145278 12.7576
44.4051806219871 12.7663
44.42922879003185 12.7384
44.45327901929361 12.7126
44.477331311362136 12.7159
44.501573600619416 12.6765
44.525630039221795 12.6201
44.54968854541895 12.6594
44.573937102200176 12.6501
44.5979997645541 12.6566
44.622064499300315 12.6013
44.64613130803592 12.5798
44.67038823869318 12.57
44.69445921643748 12.5321
44.718532272981385 12.4961
44.742607409926194 12.4515
44.76687274034801 12.4004
44.79095205918753 12.4285
44.81503346325094 12.4258
44.839116954143876 12.3917
44.86339071028742 12.4034
44.88747839599524 12.3715
44.91156817336837 12.3344
44.93566004401666 12.2769
44.959942251908146 12.2883
44.984038330325966 12.2841
45.00813650686762 12.2319
45.03223678314731 12.2469
45.05652746888232 12.1967
45.08063196592069 12.2068
45.104738567558705 12.1356
45.128847275414856 12.1297
45.15314646515866 12.050999999999998
45.17725940679741 12.0695
45.20137445952892 12.0412
45.22568004865265 12.0239
45.24979934496396 12.0022
45.27392075725247 11.975
45.29804428714431 11.9958
45.322358426247604 11.9482
45.346486212804315 11.8773
45.370616121861914 11.8697
45.39474815505086 11.9298
45.41907087049246 11.8608
45.4432071734666 11.8129
45.46734560548283 11.8235
45.49148616817604 11.8188
45.51581748638564 11.7953
45.5399623320197 11.744000000000002
45.56410931325473 11.6982
45.58825843173002 11.755999999999998
45.61259837920865 11.6991
45.636751793816 11.6998
45.66090735060093 11.6281
45.68506505120716 11.6136
45.7094136545275 11.5596
45.73357566449271 11.5663
45.75773982322992 11.5775
45.78190613238733 11.5774
45.806263418194064 11.5208
45.83043404997326 11.5124
45.85460683713677 11.504000000000001
45.87897065658495 11.4703
45.90314777634752 11.4407
45.92732705646868 11.4291
45.9515084986045 11.4109
45.97588104735473 11.3976
46.00006683541565 11.3512
46.02425479047904 11.3672
46.04844491420549 11.3647
46.0728262191024 11.3458
46.09702070211635 11.3373
46.12121735879483 11.2934
46.14541619080294 11.2669
46.169806278764455 11.2916
46.194009483459034 11.215
46.21821486849841 11.172
46.24242243555223 11.2093
46.266821333570014 11.1578
46.29103328674601 11.1384
46.31524742696538 11.0801
46.33946375590237 11.095
46.36387149104216 11.0893
46.38809221957392 11.0388
46.41231514186606 11.0475
46.436540259597464 11.0239
46.460956858999374 11.0189
46.48518638983522 10.9639
46.509418121166966 10.9276
46.533652054678114 10.9542
46.55807754555709 10.899000000000001
46.58231590571962 10.9221
46.60655647313217 10.8775
46.630988654873654 10.8628
46.655233659129024 10.8592
46.67948087571551 10.7993
46.70373030632484 10.8078
46.72817142736393 10.7936
46.752425308428684 10.7547
46.77668140861147 10.7736
46.80093972960865 10.7032
46.82538981736788 10.6637
46.849652602470904 10.7109
46.87391761349769 10.6287
46.8981848521493 10.6404
46.9226439341274 10.6189
46.946915650573224 10.5581
46.97118959976749 10.5744
46.99546578341598 10.5657
47.019933887188216 10.5539
47.04421456235744 10.5394
47.06849747711879 10.509
47.09278263318286 10.455
47.11725978640143 10.3918
47.14154944775105 10.3936
47.165841355555656 10.4359
47.1901355115306 10.3609
47.214621741924994 10.392000000000001
47.23892041698887 10.3677
47.26322134538975 10.3649
47.28771440635075 10.317
47.31201986422527 10.309000000000001
47.33632758061436 10.2531
47.360637557241866 10.2072
47.38513974410611 10.2342
47.40945426407847 10.2125
47.43377104948137 10.193
47.45809010204344 10.1747
47.48260144275502 10.1603
47.506925052572285 10.1925
47.53125093475548 10.0968
47.55557909103813 10.1076
47.58009961361992 10.0777
47.60443234110732 10.0863
47.62876734791564 10.0368
47.65310463578333 9.99479
47.6776343683373 9.95928
47.7019762413987 9.986360000000001
47.72632040075572 9.96153
47.75066684815169 9.93241
47.77520581885936 9.916960000000001
47.799556865477655 9.91014
47.823910205386 9.92341
47.84826584033272 9.911769999999999
47.87281407745551 9.846639999999999
47.89717432569297 9.885689999999999
47.92153687423484 9.87422
47.94609208429692 9.81215
47.97045925671401 9.79643
47.99482873471275 9.7947
48.01920052005013 9.7942
48.04376504619224 9.76136
48.068141469543484 9.71146
48.09252020552573 9.69634
48.11690125590099 9.65875
48.1414751266064 9.70802
48.16586082917454 9.65447
48.19024885144316 9.62383
48.2146391951793 9.60592
48.239222439012764 9.593910000000001
48.26361744916137 9.585510000000001
48.28801478610016 9.61933
48.31241445160131 9.5774
48.337007097209366 9.53
48.36141144338331 9.5434
48.38581812345755 9.50943
48.41022713920929 9.49889
48.434829215320704 9.46923
48.45924292604658 9.4467
48.48365897780325 9.471039999999999
48.50807737237308 9.42881
48.532688907799276 9.42835
48.55711201168574 9.383339999999999
48.581537463754074 9.36865
48.60615611725119 9.3675
48.63058628942721 9.35619
48.65501881516546 9.32292
48.6794536962573 9.307360000000001
48.70408185970339 9.32045
48.72852147531801 9.26505
48.75296345168211 9.22379
48.77740779059232 9.243739999999999
48.80204549302823 9.26581
48.82649458091802 9.199
48.85094603676547 9.1466
48.87539986237231 9.16947
48.90004713292306 9.158610000000001
48.92450572200832 9.12664
48.94896668628025 9.09928
48.97343002754588 9.09694
48.99808689542115 9.107439999999999
49.02255501470614 9.042819999999999
49.04702551642794 9.00872
49.0714984023988 9.0214
49.096164896893235 8.98981
49.120642575466796 9.01887
49.145122643748394 9.00987
49.16960510355558 8.95322
49.19428125404938 8.97826
49.2187685210852 8.94936
49.243258185121555 8.91254
49.26794160167084 8.84497
49.2924360839405 8.86468
49.31693296869764 8.84108
49.34143225776915 8.81737
49.36612538195438 8.811580000000001
49.39062950396021 8.81476
49.41513603578346 8.76441
49.4396449792564 8.77477
49.46434784069503 8.72567
49.488861631846454 8.72056
49.513377840166804 8.73393
49.537896467493745 8.70534
49.56260909589029 8.68117
49.587132585683285 8.68852
49.611658500018365 8.69062
49.636186840738596 8.60595
49.66090926588511 8.64454
49.685442483902584 8.58256
49.70997813385706 8.57549
49.734516217597076 8.56949
49.75924846937352 8.554219999999999
49.7837914452858 8.54467
49.80833686055187 8.49813
49.83288471702571 8.51736
49.85762682540054 8.491610000000001
49.882179588965734 8.47245
49.9067347993235 8.42618
49.93129245833333 8.42354
49.95604445336378 8.44932
49.98060703442832 8.4122
50.005172069746266 8.39668
50.02993150438364 8.35792
50.05450147301533 8.36239
50.07907390151433 8.34607
50.10364879174981 8.35126
50.12841816587289 8.32344
50.1529980044635 8.29154
50.17758031042124 8.29062
50.20216508562089 8.27678
50.22694442953363 8.233039999999999
50.25153416817468 8.213280000000001
50.27612638170508 8.240260000000001
50.300721072005196 8.19483
50.325510416102105 8.21485
50.350110084975064 8.16178
50.37471223628208 8.143369999999999
50.39931687190919 8.145710000000001
50.424116246675766 8.11501
50.44872587605249 8.1051
50.47333799543065 8.11064
50.49795260670191 8.06361
50.52276204271512 8.014619999999999
50.54738166295838 8.03985
50.57200378079314 8.012839999999999
50.596628398116835 7.9782399999999996
50.62144792604559 7.989210000000001
50.646077567609396 7.994730000000001
50.670709714377715 7.98986
50.69553683636198 7.9618199999999995
50.72017401885922 7.94607
50.7448137122895 7.949910000000001
50.76945591856022 7.88582
50.79429318636823 7.849239999999999
50.818940443716784 7.8898399999999995
50.84359021965163 7.86565
50.868242516085964 7.81205
50.893089960641895 7.82937
50.917747323549435 7.80377
50.94240721271973 7.807289999999999
50.96706963007175 7.7561
50.99192728239342 7.76117
51.01659478166073 7.772010000000001
51.04126481489051 7.77226
51.06593738400761 7.741619999999999
51.090805275207074 7.70285
51.11548294172845 7.70419
51.14016314993547 7.65405
51.164845901758845 7.67565
51.18972406304274 7.68332
51.21441192780656 7.60845
51.23910234200271 7.611610000000001
51.2637953075678 7.5688699999999995
51.288683770237945 7.5774300000000006
51.31338186432707 7.57625
51.33808251561888 7.55285
51.362978729967345 7.517860000000001
51.387684521509755 7.5243199999999995
51.41239287610203 7.531680000000001
51.437103795691165 7.509289999999999
51.46201036644977 7.461410000000001
51.486726441956634 7.4309
51.51144508832545 7.43739
51.536166307509156 7.444560000000001
51.56108326624387 7.421139999999999
51.58580965706056 7.38705
51.61053862657523 7.3955
51.635270176746864 7.39094
51.66019755512065 7.37142
51.68493429268881 7.30848
51.70967361681515 7.32442
51.73441552946465 7.32115
51.759353359237934 7.29873
51.7841004750961 7.28446
51.80885018539685 7.25818
51.833602492111254 7.269139999999999
51.8585508051424 7.22288
51.883308330926425 7.22023
51.90806845906181 7.2058100000000005
51.932831191525715 7.198639999999999
51.95779001977161 7.1946699999999995
51.98255798721516 7.15072
52.00732856494335 7.1523699999999995
52.03229530577543 7.11379
52.057071130455945 7.1079
52.081849571391054 7.097860000000001
52.106630630568695 7.106210000000001
52.13160794279417 7.06257
52.15639426492067 7.0556600000000005
52.18118321127822 7.04483
52.205974783860896 7.0116
52.23096269971011 7.010460000000001
52.255759551287994 6.98477
52.280559035098186 6.964169999999999
52.30536115314103 6.94855
52.33035970494467 7.009710000000001
52.35516711807904 6.95655
52.37997717147198 6.924060000000001
52.40478986713005 6.90044
52.42979908731974 6.87166
52.454617094216 6.86981
52.47943774942214 6.86435
52.50426105495102 6.81873
52.529280976059844 6.82406
52.554109609024096 6.793769999999999
52.57894089837482 6.7942800000000005
52.60377484613117 6.8037399999999995
52.62880550079408 6.81089
52.65364479223379 6.81248
52.67848674816189 6.744669999999999
52.70352547971946 6.71179
52.72837279155837 6.71427
52.753222773982785 6.70047
52.778075429022984 6.68785
52.80312495150885 6.68929
52.827982978797436 6.67375
52.85284368481815 6.64588
52.87770707160767 6.64152
52.90276741793998 6.63167
52.92763619336701 6.6047899999999995
52.952507655698504 6.58597
52.977381806977576 6.568219999999999
53.00245301017842 6.576060000000001
53.02733256653592 6.6116600000000005
53.052214817996074 6.575410000000001
53.077099766608484 6.53263
53.102181859804446 6.50556
53.127072229988265 6.51877
53.15196530349892 6.47582
53.17686108239249 6.47208
53.20195409881522 6.484380000000001
53.22685531582556 6.46735
53.25175924441303 6.37402
53.27666588664027 6.41412
53.30176985962693 6.39659
53.3266819565689 6.42517
53.35159677336455 6.38736
53.376514312083096 6.36101
53.40162927507703 6.36355
53.42655228516116 6.34219
53.45147802340193 6.3331800000000005
53.47660125628886 6.32346
53.50153247842639 6.34411
53.52646643496923 6.26431
53.55140312799818 6.274380000000001
53.576537409691696 6.26834
53.60147960336152 6.25282
53.626424539786164 6.23219
53.65137222105307 6.18719
53.67651758529126 6.186319999999999
53.70147078399681 6.2007900000000005
53.72642673383343 6.19219
53.75138543689533 6.18609
53.776541917524526 6.16363
53.801506154876755 6.12381
53.826473151763246 6.09386
53.851442910284916 6.08357
53.87661054126026 6.09359
53.9015858509782 6.08761
53.92656392866066 6.0258
53.95154477641532 6.041980000000001
53.976723591801296 6.02033
54.00171000771266 6.02492
54.02669920004598 6.04469
54.051691170915745 6.00485
54.076881204886796 5.98428
54.101878760928514 5.96929
54.12687910187696 5.96494
54.152077577768296 5.94002
54.1770835166946 5.94651
54.20209224691339 5.8976
54.22710377055121 5.9158599999999995
54.25231352511594 5.88601
54.27733066384342 5.86223
54.30235060239643 5.8783900000000004
54.32737334290836 5.84098
54.35259441062629 5.8097199999999996
54.377622783395324 5.83111
54.40265396455061 5.8214
54.42768795623251 5.77384
54.45292037169559 5.79022
54.477960012857906 5.75891
54.50300247099511 5.72406
54.52804774825457 5.745019999999999
54.55329154616743 5.68646
54.57834249018678 5.67794
54.6033962597977 5.6323099999999995
54.6284528571545 5.67246
54.653708072335164 5.62847
54.67877035378786 5.58138
54.70383546947698 5.5573
54.72890342156389 5.5931
54.7541700889442 5.51893
54.77924374251975 5.54403
54.8043202390049 5.46161
54.82959552413022 5.44499
54.8546777351945 5.43764
54.87976279569621 5.3975800000000005
54.90485070780914 5.437880000000001
54.930137506558005 5.39029
54.95523115074295 5.377730000000001
54.98032765308844 5.372999999999999
55.005427015775496 5.3657900000000005
55.03072536339621 5.3331
55.05583047570572 5.30495
55.080938454927676 5.2342900000000006
55.10604930325027 5.24655
55.131359235107396 5.30561
55.15647585066083 5.21807
55.181595341907496 5.20022
55.20671771104285 5.19763
55.232039262617704 5.16216
55.25716741665048 5.100630000000001
55.28229845518636 5.10808
55.30743238042802 5.07679
55.33276558731939 5.0789599999999995
55.357905315183636 5.05676
55.383047936390035 5.02313
55.40819345314859 5.00801
55.433538351073295 4.97891
55.458689688238415 4.98778
55.483843927614096 4.95158
55.509197623043605 4.9019900000000005
55.53435769621134 4.85429
55.55952067826466 4.8276699999999995
55.5846865714265 4.84411
55.61005202069737 4.81117
55.63522376553902 4.7866
55.66039842818645 4.78101
55.68557601087004 4.77533
55.7109532500271 4.66384
55.73613670233794 4.774859999999999
