TT I
1.2716486653135266 8.128260000000001
1.2939594142134223 7.6857
1.3162702121660406 7.25175
1.3385810600174564 7.1784
1.3608919586137629 7.211239999999999
1.383202908801069 6.886089999999999
1.405513911425503 6.607469999999999
1.4278249673332093 6.07052
1.4501343378461518 6.59002
1.4724455028545926 6.07855
1.4947567236847858 5.83446
1.517068001182951 6.24735
1.5393793361953272 6.03132
1.5616907295681737 6.1201
1.5840021821477681 5.5556
1.60631369478041 5.04334
1.6286252683124185 5.09989
1.6509369035901333 5.17586
1.6732468618895553 5.281280000000001
1.695558623192809 5.35426
1.7178704487808514 5.22905
1.7401823395001077 5.2473
1.7625012545597203 5.12588
1.7848028405262486 4.85961
1.8071218901122095 4.971769999999999
1.8294236121921872 5.12801
1.8517427996910911 5.14462
1.8740620574440425 5.07714
1.8963639900671978 5.24374
1.9186833908139995 5.0898
1.9409854680117449 5.48271
1.9633050151394713 5.1119699999999995
1.9856246367570705 5.194780000000001
2.0079269371922672 4.90625
2.03024671027244 4.91141
2.0525491637446027 4.515680000000001
2.074869091674931 4.77379
2.097171701569106 5.10018
2.1194917877373847 4.67632
2.141811954326636 4.58369
2.164114805233074 5.3191
2.186435135143035 5.08632
2.208738150935709 9.2911
2.231058647554722 15.6441
2.2533792288321184 12.7644
2.275682498336085 7.59965
2.298003251406138 4.966080000000001
2.3203066942619714 5.3701
2.3426276225136022 5.10257
2.3649486396617507 4.87076
2.387252348930071 5.32619
2.4095735463442893 5.03346
2.4318774374315884 4.86356
2.4541988185014043 4.784269999999999
2.476502894794693 4.70682
2.498824462909887 5.176
2.521146125856138 5.35887
2.5434504863470337 5.128830000000001
2.5657723414244717 5.87747
2.588076895590662 6.44452
2.610398946189713 6.13215
2.6327210958598384 6.691910000000001
2.6550259469304716 6.53299
2.6773482972090137 6.927060000000001
2.6996533504259 6.13274
2.7219759047039602 7.2371
2.744298562293959 7.340089999999999
2.7666039251246595 7.2367
2.7889267918020164 7.7365699999999995
2.8112323652516555 7.701630000000001
2.833555444408179 7.57339
2.8558786311183852 7.57539
2.8781845268938557 8.858189999999999
2.9005079311721484 8.3204
2.9228140460410397 8.575389999999999
2.9451376712799635 8.96058
2.967444008632326 9.6165
2.9897678582247247 9.53336
3.0120918213106695 9.980839999999999
3.0343984987899373 10.7701
3.0567226913198637 11.3189
3.079029599759726 12.0641
3.101354025127254 12.6208
3.123678568232338 12.7099
3.145985829517914 12.8235
3.16831061055229 13.5966
3.1906181112775593 14.0731
3.212943133635653 14.7476
3.2352682779763207 15.1436
3.2575761442691227 15.8008
3.2799015350264273 16.213
3.302209649240067 16.6942
3.3245352898092655 17.0649
3.3468436553365257 18.0874
3.369169549113219 17.7083
3.3914955708171384 18.7563
3.413804319727358 18.6181
3.4361305997334863 19.3279
3.4584396084414553 20.2606
3.4807661501462652 20.8426
3.503092824025881 21.4595
3.5254022288463154 21.3959
3.5477291695206588 21.7165
3.5700388426251948 22.576999999999998
3.5923660534916446 23.8475
3.6146934007816114 31.3397
3.637003482731501 54.3912
3.6593311053109985 58.9625
3.681641464033634 39.8833
3.7039693653009733 27.9546
3.726297407241705 26.2159
3.7486081875460804 26.0727
3.7709365132734978 26.4593
3.793247578841633 26.863000000000003
3.8155761917550093 27.1726
3.8378875459837216 27.2876
3.8602164494827234 27.7482
3.882545499606844 28.8489
3.9048572932539183 29.3179
3.9271866390645718 29.5785
3.9494987298666713 30.3434
3.971828374764527 31.6031
3.9941581705403255 31.5606
4.016470713506008 32.1503
4.038800813471445 33.0768
4.061113662089144 33.4238
4.0834440696459176 33.7322
4.105774632334751 34.7897
4.128087945865126 35.5312
4.150418821249301 36.4862
4.172732448931298 37.4381
4.195063640413578 39.0198
4.2173775856475215 42.001000000000005
4.239709096631102 58.559
4.262040768704612 134.164
4.284355196706267 171.68400000000003
4.306687193387355 120.088
4.329001947444346 62.7027
4.35133427213731 47.1288
4.373666762177566 45.5158
4.395982011761091 45.2648
4.418314834921175 46.7599
4.44063041906622 50.7838
4.4629635787515625 56.5002
4.4852969080429785 56.6299
4.5076130004776225 53.3148
4.529946671403969 53.2928
4.552263106909177 54.0873
4.574597122877047 54.0959
4.596931312711224 54.6954
4.619248269273446 55.6409
4.6415828092605835 56.6308
4.663900117405352 57.7539
4.686235010953232 59.5918
4.708552674085913 60.9298
4.730887924602802 62.6269
4.753223354952695 64.2029
4.775541557023902 66.1045
4.797877349456786 67.9909
4.820195915032126 69.844
4.842532072957498 71.1358
4.864868414979744 73.3195
4.88718753227192 76.3363
4.909524244902505 78.1889
4.931843734218147 80.0141
4.954180820867835 83.2506
4.976518095879839 87.0801
4.998838149695359 90.6917
5.021175803844231 94.9
5.043496238205739 99.1461
5.065834274903528 104.70700000000001
5.088172504230693 110.944
5.1104935158799565 119.86200000000001
5.132832132875765 141.485
5.155153533596801 176.227
5.1774925416746225 235.87400000000002
5.199814334878411 580.879
5.2221537374521505 1732.35
5.244493338631803 3815.97
5.266815727034316 7060.03
5.289155727832427 10658.8
5.311478517248165 9568.18
5.333818921080011 4216.19
5.356159527788849 1007.26
5.3784829252032536 277.809
5.400823940070432 181.083
5.423147747031976 151.96200000000002
5.445489173474152 136.32299999999998
5.467830807066149 128.16299999999998
5.490155234831516 122.514
5.512497285125229 116.626
5.534822130975162 113.874
5.557164601388673 111.616
5.579489868738879 107.79899999999999
5.601832762690846 105.766
5.6241758697774475 104.12899999999999
5.646501775867269 103.211
5.668845311622074 102.29899999999999
5.691171647754637 101.415
5.713515615597765 100.546
5.735859800852677 99.5826
5.758186788542988 99.2865
5.780531411018185 100.363
5.802858837297399 99.5572
5.825203900414495 100.348
5.8475491852224 101.868
5.869877275883075 102.417
5.892223006467101 103.279
5.914551544266608 105.98200000000001
5.936897724049891 110.38600000000001
5.959244129804903 120.492
5.981573344815301 153.719
6.0039202049061 300.80400000000003
6.026249875609095 696.275
6.04859719346037 1331.17
6.070927323278297 2255.14
6.093275102315365 3650.29
6.115623113320588 4577.84
6.137953938319995 3756.78
6.160302415650845 1456.47
6.182633708324452 377.639
6.2049826554078376 151.444
6.227331838745022 109.566
6.249663839443684 95.9806
6.27201349767565 90.3863
6.294345974611799 89.9952
6.316696111167083 92.8366
6.339046488263839 88.7498
6.361379686074702 80.4589
6.383730546639482 75.5483
6.406064229255215 73.4514
6.428415576718203 72.5447
6.450749747566656 71.1028
6.47310158535871 69.8104
6.495453669698332 68.5757
6.517788579421056 67.7341
6.540141159237969 67.035
6.562476565766648 66.2469
6.5848296444934045 65.559
6.607182974060425 64.8774
6.6295191323281015 65.5273
6.651872965955752 66.5494
6.6742096296068985 78.1954
6.6965639707294615 99.7813
6.71891856698715 99.6614
6.741255995248479 79.15100000000001
6.763611104154477 66.0893
6.785949046381137 61.8864
6.808304671371482 60.9027
6.8306605557940046 60.8448
6.852999275508618 59.8309
6.875355681171544 59.6455
6.897694923437771 58.7618
6.92005185377892 58.6906
6.9423916220322655 58.8066
6.964749080490181 57.6803
6.987106804399774 57.6823
7.009447368180821 57.8567
7.031805625367033 57.2052
7.054146723727803 57.513999999999996
7.076505517631004 57.2468
7.098864581288365 57.1678
7.121206488070854 57.04600000000001
7.143566093607822 57.413999999999994
7.165908543567245 57.4883
7.188268694426048 57.4086
7.2106291193438095 56.9526
7.232972390625943 57.8173
7.255333366030969 64.4081
7.277677189091925 89.8287
7.300038718428332 112.23100000000001
7.322400526130865 99.3938
7.344745183422596 73.5993
7.367107550224791 60.3717
7.389452767901992 57.711999999999996
7.411815697249891 56.9111
7.434161478756298 56.263999999999996
7.456524974096713 56.2054
7.478888753837185 56.3073
7.501235387657368 56.6196
7.523599738562711 56.7485
7.545946944825532 56.9356
7.568311870344528 56.9088
7.5906770845765665 57.0664
7.613025156078678 58.0073
7.635390950099687 58.6872
7.657739602662809 58.3142
7.680105979923558 57.7974
7.702472650212829 58.5455
7.724822180948224 58.2915
7.747189439655568 58.4037
7.769539560075357 58.515
7.791907410653562 59.4415
7.81425812420825 59.0404
7.836626570110925 59.1295
7.858995315087906 60.1792
7.881346924933401 60.2904
7.903716270417482 60.8499
7.926068482028405 60.9671
7.948438431475253 61.6462
7.9708086843180235 62.541000000000004
7.993161805171116 63.2579
8.015532667162402 63.542
8.037886398416653 64.6923
8.060257873014221 64.994
8.082629655331942 65.6099
8.104984308787587 66.9601
8.127356708900503 69.0842
8.149711981398308 72.8019
8.172085002766314 74.2267
8.194458336181368 72.9018
8.216814543847752 71.9052
8.23918850371002 72.6636
8.26154533906492 73.8114
8.283919928836452 75.3864
8.306277395339652 76.7246
8.328652618483376 78.4052
8.351028159736202 80.6413
8.373386579575245 83.1244
8.395762759396959 85.4991
8.418121819038275 89.6735
8.440498640894003 99.0765
8.462875785192262 110.624
8.485235811156207 133.07299999999998
8.507613602688501 203.97299999999998
8.529974277114228 352.065
8.552352719347912 535.453
8.574731488360351 769.706
8.59709314210385 1119.98
8.619472567021075 1549.3
8.64183487789147 1965.91
8.664214962183097 1912.89
8.686577933647762 1245.11
8.708958680784317 559.919
8.731339760774953 233.097
8.753703729764451 133.885
8.77608547780821 110.831
8.798450116065078 103.876
8.820832535634787 99.618
8.843215292401656 97.5683
8.865580941199045 95.8061
8.887964374703538 94.69200000000001
8.910330701447199 94.6044
8.932714815164482 94.8741
8.955099270424924 93.2187
8.977466620733543 91.0897
8.999851761421976 89.8083
9.022219798361645 88.507
9.04460562795561 88.0296
9.066991803441677 87.6986
9.089360876979615 87.5853
9.111747746589993 87.111
9.13411751544971 86.6377
9.156505082664324 86.208
9.178875550323522 86.0039
9.20126381862328 86.1548
9.223652438908596 86.4286
9.246023961427412 86.4976
9.26841328802173 86.4742
9.290785518039224 86.7224
9.313175554425882 87.7751
9.335565947154315 87.56299999999999
9.357939245086508 87.6779
9.380330352834827 87.9278
9.40270436697103 87.7682
9.425096193225055 87.6094
9.447488380180165 88.4977
9.469863475295412 88.5395
9.492256385987508 88.9467
9.514632206018318 89.2182
9.537025843935714 89.9375
9.559402392368193 91.1225
9.581796761000229 92.3248
9.604191496441521 93.6486
9.626569144158516 95.5498
9.648964615551032 97.8825
9.671343000390081 98.706
9.693739211225699 98.3431
9.716135793237463 97.6593
9.738515290448102 98.3875
9.760912617143402 99.6066
9.783292860202891 101.04799999999999
9.805690935076182 102.647
9.828089385495742 103.361
9.850470754023561 105.56200000000001
9.872869957865444 111.074
9.89525208097539 119.89
9.917652041736662 127.818
9.940052382417589 133.083
9.962435644102392 155.577
9.984836746950979 217.41
10.007220771957746 330.19
10.029622640473708 477.36199999999997
10.052007432299963 642.195
10.074410069984072 833.76
10.096813093716005 1110.95
10.119199042482517 1445.6
10.141602840636468 1740.06
10.163989564971628 1695.23
10.186394141051062 1202.21
10.208799107559706 598.029
10.231187001965623 270.508
10.253592751657669 153.71
10.275981430388155 125.31200000000001
10.298387966769793 119.613
10.320794897965431 118.65
10.343184759907361 116.92399999999999
10.36559248305461 112.81700000000001
10.387983138083852 110.73899999999999
10.410391656691655 116.62799999999999
10.432800574501677 133.708
10.455192425893369 162.649
10.47760214443012 198.98
10.499994797678786 237.46599999999998
10.522405320453982 289.927
10.54479877906917 361.67199999999997
10.567210109595656 444.978
10.5896218454736 525.595
10.612016518879773 526.4680000000001
10.634429067781074 419.131
10.656824555333241 271.85400000000004
10.679237920773568 166.02700000000002
10.701651695961992 111.198
10.724048411481384 96.3382
10.746463008485165 92.0542
10.768860546937125 89.8657
10.791275969274796 87.6435
10.81369180576079 86.4136
10.836090585366925 85.3538
10.858507252467449 84.29899999999999
10.88090686379991 83.0939
10.903324365036394 82.3758
10.925724811614439 81.1385
10.948143150509463 81.8466
10.970561909719066 80.9786
10.992963615930844 79.5187
11.015383218085756 77.9572
11.037785768347074 76.8859
11.06020621697282 76.2186
11.082627090322113 75.6024
11.105030913430326 75.0302
11.12745263854165 75.0873
11.149857314510728 76.0482
11.172279894912576 79.0156
11.194702904450653 78.7572
11.217108866490921 76.4032
11.239532736615194 74.1378
11.26193956033512 72.9597
11.284364294577085 71.9293
11.306789462371718 70.8928
11.329197585398376 70.1453
11.351623622610898 69.9364
11.37403261614354 69.335
11.396459526308487 68.9908
11.418869393879497 68.48100000000001
11.441297180532617 68.2132
11.463725406927658 67.7344
11.486136592353875 67.3651
11.508565700543707 67.3193
11.530977768845315 68.3649
11.553407762368774 68.4706
11.575838200059769 68.4064
11.598251599479612 67.2327
11.620682927815501 66.6367
11.64309721895548 66.3435
11.665529441478206 65.8679
11.687962112597958 65.7658
11.710377748130886 66.0028
11.732811318753434 65.8127
11.755227854859067 65.5269
11.777662328529495 65.684
11.800079768750786 65.611
11.822515149015453 65.3812
11.844950984084935 65.6106
11.867369787303163 65.2047
11.889806534289491 65.3333
11.912226250487029 65.7299
11.934663912939751 65.8872
11.9571020346363 65.9199
11.979523127133968 65.9717
12.001962169624331 67.0874
12.024384183972964 68.4627
12.046824150809913 73.1164
12.069264581333726 81.3424
12.091687985297767 90.2678
12.11412934550045 99.6473
12.136553680195208 111.211
12.158995973632788 125.32700000000001
12.181438735204349 143.656
12.20386447284199 166.503
12.226308172985636 191.12099999999998
12.24873485024193 204.25900000000001
12.271179492516982 186.416
12.293607112949127 151.827
12.316052700916226 110.494
12.338498763250042 85.4248
12.360927805303868 73.2356
12.383374818673879 69.194
12.405804812803074 67.5873
12.428252780773262 67.3825
12.45070122756722 67.4393
12.473132656675375 67.1871
12.49558206341869 67.3894
12.518014453510101 67.1629
12.540464823770117 67.2052
12.562915677315177 67.3543
12.58534951575545 67.9957
12.607801338171472 69.0695
12.630236146511358 71.6141
12.652688941369085 74.3215
12.675124723177234 74.6673
12.697578494048786 73.3731
12.720032754458185 71.295
12.742470003354093 70.491
12.764925245138771 70.6098
12.787363476431278 70.9806
12.809819703166806 71.4622
12.83227642391173 72.2227
12.854716135692716 73.0428
12.877173846755147 74.1642
12.899614549869717 74.3107
12.9220732548287 75.2911
12.94453245827299 75.6568
12.966974655289818 76.8366
12.989434858002571 77.4328
13.011878055298721 78.2445
13.034339260862497 79.625
13.056800969391883 81.0899
13.079245674017244 83.5276
13.101708390774869 86.55799999999999
13.12415410463411 95.6639
13.146617833206086 112.302
13.169064559883248 131.954
13.191529303857127 153.165
13.213994557076367 174.947
13.236442809902437 200.46599999999998
13.258909083908291 236.13
13.28135835851934 278.83799999999997
13.30382565690295 326.009
13.326293469022952 379.164
13.348744283242008 411.964
13.371213125129904 387.615
13.39366497011003 317.129
13.416134845360597 219.782
13.438605238843131 150.893
13.46105863690397 120.87200000000001
13.483530069144786 118.685
13.505984506951902 128.836
13.528456981549432 144.49
13.550929978879088 160.054
13.573385983253365 176.625
13.595860028340867 200.775
13.618317081455832 232.93400000000003
13.64079217790333 270.455
13.663250283359057 308.509
13.685726434770173 346.023
13.708203115221277 356.209
13.730662806148091 309.459
13.75314054697177 236.425
13.775601299246777 165.274
13.798080104050406 115.786
13.820559442405358 93.90799999999999
13.843021793671388 87.2381
13.865502201420897 84.7785
13.887965623051947 83.948
13.910447103807167 82.448
13.932929122629764 81.0486
13.955394156785959 80.6249
13.977877254034569 79.6125
14.000343367582113 78.9018
14.022827546871707 78.1555
14.045294743423524 77.1962
14.06778000837062 76.4874
14.090265817715476 76.4884
14.112734645763819 76.0162
14.13522154619454 75.5718
14.157691466286913 75.5126
14.180179461423874 75.2756
14.202668005486178 74.5173
14.22513957064374 74.1553
14.247629214846473 73.9394
14.270101881097517 73.6126
14.29259262906496 73.4795
14.315083930490205 73.6609
14.337558255389705 73.8118
14.360050666019726 73.7022
14.382526101071944 73.0919
14.405019624534942 72.7062
14.427513705993134 72.0273
14.449990813291825 72.3043
14.47248601302899 72.2185
14.49496423954951 72.093
14.517460561197822 72.0499
14.539939910570322 71.8849
14.562437357763558 72.378
14.58493536931253 73.0059
14.607416409993311 73.4773
14.62991555254159 73.9547
14.652397725157423 73.8686
14.674898002342799 74.0225
14.697398848433282 73.5872
14.719882725991326 74.7588
14.74238471217934 76.1997
14.764869730765593 80.6594
14.787372860692983 86.5715
14.809876564079925 94.2051
14.83236330125751 103.147
14.854868153850365 110.991
14.877356041159485 120.369
14.899862046604186 132.446
14.922351087688757 148.158
14.944858249632887 166.387
14.967365991421232 186.673
14.989856770231246 206.195
15.012365673994204 215.679
15.03485761569738 205.778
15.05736768508665 174.67700000000002
15.07987833888692 137.934
15.102372032001655 106.061
15.124883856909658 85.6903
15.14737872204565 77.8128
15.169891721717274 74.5637
15.192405310371893 73.9187
15.214901940621196 73.7079
15.237416709527137 73.2415
15.259914520936249 73.2249
15.282430473753607 72.0619
15.304947020131227 71.4358
15.327446610371178 70.6193
15.349964346154254 70.139
15.372465126703139 70.0076
15.394984055556009 69.5299
15.417486030076159 69.5076
15.44000615566487 69.2122
15.462526881230803 68.993
15.485030653812652 69.0966
15.507552581617434 69.2467
15.530057557334603 69.204
15.55258069104857 69.0955
15.575104429329837 69.3828
15.597611216864632 69.1971
15.620136166564563 69.3749
15.6426441664095 70.4851
15.665170331202765 73.9249
15.687697105158826 78.7586
15.710206930593545 85.0659
15.732734925158933 91.6813
15.755245972089478 98.0385
15.77777519094324 104.631
15.800287463046663 113.21700000000001
15.822817909869592 124.645
15.84534897229804 138.06799999999998
15.867863089299354 154.586
15.890395385222186 170.171
15.912910736597423 185.12599999999998
15.935444269699861 186.55700000000002
15.957978423016485 172.736
15.980495633101265 145.638
16.003031029129367 115.795
16.02554948280019 89.1055
16.048086125229432 74.8697
16.070623392487107 69.0604
16.09314371869582 66.9103
16.11568223789321 65.6293
16.13820381691126 64.9169
16.160743591742527 63.9042
16.183283996022084 63.2654
16.205807461423195 62.1966
16.228349126881973 61.6071
16.25087385432698 61.5836
16.27341678466365 61.0971
16.29594277784926 60.8073
16.31848697676433 60.7452
16.341031811604868 60.5954
16.36355971058487 60.6064
16.3861058195587 60.4626
16.40863499352978 59.6037
16.431182380342005 59.0176
16.453730407713202 58.5705
16.476261501364792 58.2696
16.498810812136167 58.0083
16.52134319004079 58.0041
16.54389378792203 57.7802
16.566445031001553 57.7507
16.588979342490088 57.5697
16.61153187824822 57.2225
16.634067483263312 57.2284
16.656621315414416 57.1936
16.679175797408888 57.0131
16.701713349928728 56.8924
16.72426913389191 57.1618
16.74680798922351 57.0765
16.76936507887444 57.1944
16.791905240734874 57.3062
16.814463639794468 57.0516
16.837022695210294 57.0998
16.859564824093756 57.4203
16.882125194503903 57.7774
16.904668639217885 58.1455
16.927230328348003 58.144
16.949792678493612 58.174
16.972338104193863 58.2389
16.994901778652235 57.8789
17.017448529496576 58.155
17.040013531998152 58.2766
17.06257920018044 59.1894
17.0851279459922 60.1644
17.107694947817667 61.5264
17.130245028099072 62.8254
17.15281336730298 64.2952
17.17536478578733 65.5688
17.19793446610687 67.1247
17.220504818648422 69.0911
17.243058251703697 71.2434
17.265629950971032 74.2803
17.288184731571736 77.5315
17.310757781306908 81.5412
17.33333150794385 83.8024
17.355888317140174 84.7814
17.37846339986244 82.7117
17.401021565958885 77.7152
17.42359800851343 71.8042
17.44617513265564 67.1779
17.468735341390783 64.0591
17.491261035594565 62.4526
17.51396340099364 61.6995
17.536490463869136 61.7104
17.559018209820174 62.1032
17.58154663977963 61.8885
17.604251766089718 61.958
17.626781572227713 62.2684
17.64931206518155 62.6237
17.671843245885103 62.821999999999996
17.69455114821572 63.1742
17.717083712612634 63.412
17.739616967569667 63.6816
17.762150914021706 63.9434
17.78486160749854 64.1828
17.807396945166804 64.9374
17.829932977143503 65.958
17.85246970436452 68.0996
17.875183204129467 70.7755
17.897721330097664 74.3412
17.920260154126645 78.1981
17.942799677153296 81.9028
17.9655159983646 85.0287
17.988056927677544 88.6546
18.010598558807683 93.475
18.033140892692916 100.064
18.05586005052525 107.061
18.07840379824407 114.693
18.10094825154059 124.898
18.12366954819864 134.773
18.146215420998306 142.054
18.16876200220057 141.519
18.191309292745153 133.882
18.214033452627167 120.655
18.236582170236648 106.061
18.259131600016456 95.8543
18.281681742907335 91.1591
18.304408781233683 91.3589
18.32696035875955 93.8736
18.349512652227624 96.8641
18.372065662579683 101.811
18.394795594587553 104.82799999999999
18.41735004715306 105.505
18.43990521943684 101.709
18.46246111238171 94.4196
18.485193953325208 85.0108
18.507751296070428 76.4897
18.530309362314178 71.0728
18.552868153000343 67.5705
18.57560391815056 65.6362
18.59816416623245 65.0406
18.620725141597372 64.2075
18.643286845190268 63.6452
18.666025549835414 63.3679
18.688588718427933 62.6508
18.711152618092243 62.4917
18.73389353884365 62.1591
18.75645890921984 61.8582
18.77902501351406 61.4642
18.801591852673102 61.358000000000004
18.824335739722738 60.7121
18.846904057212626 60.7062
18.8694731124168 60.479
18.89204290628315 60.4259
18.914789774966803 60.2581
18.937361054791623 59.8263
18.959933076131318 59.9044
18.982505839934877 59.711999999999996
19.00525570560582 59.6735
19.027829963004184 59.3901
19.05040496572238 59.4695
19.072980714710468 59.4776
19.095733592739563 59.9355
19.11831084296757 60.1156
19.140888842324735 60.9789
19.16346759176222 61.4628
19.18622349753803 62.3652
19.208803755869358 63.2895
19.231384767143577 63.7005
19.253966532312948 64.8383
19.276725481241822 66.2204
19.29930876296784 67.7998
19.3218928014549 69.4792
19.34465404436217 71.7833
19.36723960516257 74.3635
19.389825925592426 76.184
19.412413006605938 77.1221
19.43517731967805 76.0511
19.457765930683355 73.0051
19.48035530514408 68.7563
19.50294544401556 64.7472
19.525712842708348 60.9259
19.54830451925909 58.5981
19.570896963095727 57.0311
19.593490175174704 56.5549
19.616260674962184 56.4649
19.638855432416964 56.001000000000005
19.661450960992624 56.1388
19.68404726164677 55.9576
19.706820878021247 55.8062
19.729418731756834 55.9401
19.752017360452857 55.728
19.77461676506804 56.0658
19.797393513540218 56.0728
19.819994478951667 56.4322
19.84259622316767 57.0991
19.8651987471481 58.003
19.887978643247177 58.4903
19.91058273574792 59.0573
19.933187610901943 59.4912
19.955969879466828 60.2189
19.97857632894404 61.4544
20.00118356396599 62.4497
20.023791585494575 63.7744
20.046577028914875 65.7071
20.069186632506966 67.6535
20.091797025500632 69.7822
20.114408208858933 71.7585
20.137196842715273 72.9244
20.159809615886765 72.8343
20.18242318232135 70.4836
20.20503754298326 68.3251
20.227829382875154 66.3727
20.250445341109344 65.0634
20.27306209647285 64.2674
20.29567964993108 64.7387
20.31847471147704 65.3309
20.34109387027612 66.4259
20.363713830075454 67.3645
20.386334591841646 66.918
20.409132890679302 65.0671
20.431755265564437 62.2715
20.454378445325528 59.7169
20.477002430930366 57.0071
20.499803982716553 55.4306
20.522429589228004 54.006
20.54505600449589 53.456
20.567683229489194 53.2094
20.590488049900088 52.865
20.61311690359731 52.4409
20.63574656993626 52.3074
20.658553853717297 51.8746
20.681185154618298 51.8763
20.703817271080066 51.7559
20.72645020407368 51.4308
20.749260783967177 51.2473
20.771895359337133 51.1466
20.794530754161617 51.1806
20.817166969412938 51.11
20.83998086114876 50.9028
20.86261872660049 50.9667
20.885257415405402 50.9976
20.90789692853701 50.8853
20.930714147864748 50.9211
20.953355319030678 50.8094
20.97599731745334 51.1225
20.99864014410749 50.8815
21.021460706796564 50.9263
21.044105199328826 51.1921
21.06675052302631 51.2307
21.089396678865015 51.5333
21.112220600704806 51.6934
21.134868430275347 51.9987
21.15751709492456 51.9828
21.180166595629693 52.2779
21.202993892429635 52.6798
21.22564507473034 52.8076
21.24829709602816 53.08
21.27112693608965 53.4384
21.293780644891275 53.6683
21.316435195634053 53.3233
21.339090589297417 52.7205
21.361923832041875 52.36600000000001
21.384580921090404 51.3851
21.407238856007325 50.6804
21.429897637773326 50.7764
21.45273429906592 50.6959
21.475394784108598 50.6467
21.498056118951983 50.5511
21.520718304578022 50.7601
21.543558400304388 50.9646
21.566222297108816 51.0993
21.58888704765135 51.3584
21.61155265291521 51.7336
21.63439619898156 52.3679
21.657063523335786 52.7972
21.67973170537063 53.4086
21.7024007460706 54.1534
21.72524775840385 54.5231
21.747918526116475 55.3275
21.770590155457388 56.2586
21.79326264741238 57.2708
21.816113141960237 58.5151
21.838787368860547 59.9801
21.861462461341976 61.3731
21.884315579735777 63.2123
21.90699241312273 64.7832
21.92967011506078 66.1407
21.95234868653799 66.8255
21.9752053151131 66.6803
21.997885635446785 65.3739
22.020566828293532 63.5498
22.04324889464272 61.3019
22.066109049404666 59.3193
22.088792872571794 58.1153
22.111477572219204 57.6822
22.1341631493376 57.756
22.157026846313123 57.9477
22.179714188221507 57.9115
22.202402410582668 57.3992
22.22509151438863 55.9143
22.24795876962584 54.7768
22.270649646204486 53.7644
22.293341407213727 52.7338
22.316034053646906 51.8774
22.338904883215342 51.3491
22.36159931041458 51.3021
22.38429462602756 51.1239
22.40699083104897 50.9208
22.429865251039757 51.1523
22.452563244831367 50.9545
22.47526213102522 50.9
22.49813925616515 50.8648
22.520839937143307 50.8445
22.543541513520587 50.7965
22.56624398629403 50.6468
22.589124730075895 50.7381
22.611829005656723 50.9549
22.63453418063466 51.0217
22.657240256008077 51.1751
22.680124634582935 51.4837
22.70283252079775 51.8552
22.725541310413075 52.3702
22.74825100442868 52.5693
22.771139033969575 52.9055
22.79385054687155 53.0363
22.81656296718292 53.4845
22.83927629590484 54.1178
22.862167992606945 54.9619
22.88488314827121 55.565
22.907599215359284 56.2506
22.93031619487366 57.0131
22.953211574954405 57.6294
22.975930389478226 58.8103
22.998650119445763 59.5419
23.02137076586092 59.5295
23.044269845560063 59.1001
23.06699233506288 58.0134
23.089715744034912 56.3926
23.112617610931565 54.6888
23.135342869061212 53.2217
23.158069049684816 52.0309
23.1807961538087 51.2431
23.20370174880544 51.0693
23.226430710184808 51.2231
23.249160598093425 51.1423
23.271891413539002 51.2332
23.294800752937697 51.4075
23.31753343374794 51.8662
23.340267045128353 52.0426
23.36300158808808 52.2969
23.38591468821339 52.4973
23.408651104658304 52.6483
23.431388455719986 53.2268
23.454126742409 53.6138
23.4770436196085 54.2869
23.499783787914662 55.1248
23.522524894889884 55.6506
23.54526694154616 56.4469
23.56818761219047 57.5295
23.59093154860734 58.2126
23.613676427751283 59.3465
23.636422250635754 59.2695
23.659346731118656 58.6241
23.68209445191868 57.3805
23.704843119509587 55.3483
23.72759273490623 53.3298
23.750521041644767 51.5711
23.77327256312355 50.1956
23.796025035462787 49.1855
23.818956224555475 48.4954
23.841710609113413 48.2554
23.86446594758979 47.9246
23.887222241002014 47.5524
23.910157285144578 47.3237
23.932915498962537 47.3438
23.955674670778713 47.089
23.978434801611975 46.7941
24.001373717286125 46.8174
24.024135776723917 46.67100000000001
24.046898798245582 46.5758
24.06966278287146 46.4341
24.092605586582614 46.1177
24.115371508023642 46.1097
24.1381383956401 46.0873
24.16090625045381 45.9629
24.183852958731244 45.8841
24.206622758582608 45.6915
24.229393528706886 45.3857
24.252165270127392 45.5016
24.27511589952438 45.5778
24.297889594216997 45.3539
24.32066426328598 45.2302
24.34343990775613 45.3263
24.36639447485003 45.1773
24.38917208083877 45.1219
24.41195066531332 45.0149
24.43490819850244 45.071000000000005
24.457688750692377 44.9834
24.48047028445616 44.878
24.503252800821233 44.9152
24.526214300784112 44.9498
24.548998793132213 44.8808
24.57178427117417 44.716
24.59457073593893 44.8063
24.617536219319863 44.7362
24.64032466834748 44.8229
24.663114107195035 44.6784
24.685904536893013 44.5559
24.708874020360852 44.4028
24.731666442613744 44.3634
24.754459858818787 44.1832
24.777254270007962 44.1895
24.80022777025625 44.1489
24.82302418230472 44.1979
24.845821592443674 44.0708
24.86862000170663 44.2335
24.891597535453727 44.0629
24.914397953892728 44.2381
24.93719937456671 44.2118
24.96000179851076 44.3742
24.98298338249997 44.5041
25.00578782394922 44.6469
25.028593271784167 44.6977
25.05157790644186 45.1162
25.07438537804115 45.0727
25.097193859145293 45.3747
25.120003350792075 45.6082
25.142992065061257 45.7843
25.165803588823465 46.1702
25.18861612625217 46.3376
25.211429678386736 46.3431
25.234422489079968 46.5899
25.257238081693636 46.6268
25.280054692141732 46.6386
25.3028723214652 46.3176
25.325869245420463 46.44
25.348688923599397 46.4042
25.371509623787006 46.5884
25.394331347025812 46.4926
25.41733240110666 46.2886
25.440156181590016 45.7438
25.46298098826268 45.3958
25.48580682216873 44.8089
25.50881202326435 44.0839
25.53163992281684 43.5588
25.55446885274561 43.1783
25.577298814096377 42.8622
25.600308179121807 42.6742
25.623140214533745 42.625
25.64597328451537 42.6739
25.66898578564376 42.2773
25.691820936010206 42.5488
25.714657124097695 42.3717
25.737494350954734 42.4152
25.760511045684957 42.2345
25.783350361364224 42.3904
25.806190718969255 42.3272
25.82903211955018 42.5121
25.852053024868923 42.5004
25.874896522722523 42.3532
25.897741066713106 42.3442
25.920586657892454 42.5138
25.943611790812668 42.5224
25.966459487728237 42.5191
25.989308234998564 42.4834
26.01215803367705 42.7849
26.03518741123814 42.9451
26.05803932412957 43.0547
26.080892291600094 42.9875
26.10374631470478 43.137
26.12677995397268 43.3772
26.14963609978026 43.5518
26.172493304397875 43.2562
26.19535156888223 43.0813
26.218389486949604 42.8996
26.241249882640123 42.6052
26.26411134137826 42.2074
26.28715248187403 42.1293
26.31001607820869 42.0946
26.3328807407756 41.8349
26.35574647063438 42.097
26.37879191991473 42.0098
26.401659795896734 42.0167
26.424528742360263 42.1774
26.447398760366614 42.4953
26.470448535598294 42.2984
26.49332070826805 42.4698
26.516193955675355 42.7011
26.53906827888316 42.8245
26.562122397260108 42.9006
26.584998883685063 43.1924
26.607876449110325 43.4122
26.63075509460056 43.5982
26.65381357334404 43.6287
26.67669439061878 43.7687
26.699576291163382 43.7775
26.722459276044212 43.8576
26.745522132402975 43.6896
26.768407297649354 43.3478
26.791293550442003 43.0146
26.814180891848974 42.8201
26.837248143099337 42.4478
26.860137673466657 42.2685
26.88302829566349 41.8821
26.90592001075963 41.7717
26.92899167420566 41.6887
26.951885586870763 41.4197
26.974780595655517 41.1622
26.99785558178161 41.0459
27.020752794605112 40.9083
27.043651106772522 40.763000000000005
27.06655051935668 40.6027
27.089629948036183 40.4899
27.112531573292053 40.4239
27.135434302194138 40.3863
27.158338135817015 40.3088
27.181422024430987 40.3195
27.204328079372566 40.2108
27.22723524226965 40.2164
27.250143514198573 40.3615
27.273231880156334 40.2785
27.296142382065014 40.0887
27.319053996245536 40.0793
27.341966723775965 40.1498
27.365059584515222 40.1656
27.38797455070062 40.1642
27.410890633481237 39.9766
27.433807833936918 40.0192
27.456905206923906 40.1665
27.47982465472398 40.1692
27.502745223449743 40.2611
27.525666914182825 40.1767
27.548768816912457 40.2555
27.571692763693633 40.1751
27.59461783573812 40.1389
27.617723149491244 39.7994
27.640650484125285 39.954
27.66357894728264 39.8577
27.686508540048052 39.8732
27.709618414237887 39.8137
27.732550278321757 39.6102
27.755483275279115 39.594
27.778417406196485 39.6732
27.801531858397514 39.5729
27.824468269376716 39.6091
27.847405817586786 39.4068
27.870344504116094 39.6198
27.893463551932008 39.6821
27.916404527281053 39.9235
27.93934664422563 39.9878
27.962289903855886 39.9486
27.98541356491974 40.138000000000005
28.00835912214229 40.2294
28.03130582533231 40.3145
28.054253675581805 40.5736
28.077381967556104 40.4781
28.100332124185126 40.5998
28.123283431160893 40.5547
28.146235889577238 40.5335
28.169368830154156 40.4667
28.192323603752033 40.1935
28.215279532083304 39.8835
28.238415973016764 39.7296
28.261374223145094 39.5554
28.284333631303806 39.3394
28.307294198589954 39.1578
28.330435319167677 39.0019
28.353398217078915 38.7069
28.376362277420153 38.4828
28.39932750129032 38.2566
28.422473319286713 38.1391
28.44544088262495 38.0305
28.468409612800283 37.9962
28.491379510913497 37.7389
28.51453004413313 37.562
28.53750229057244 37.4858
28.56047570826344 37.4422
28.583450298308804 37.6087
28.606605564586562 37.3088
28.629582511831156 37.4253
28.65256063474956 37.105
28.675539934446338 37.0773
28.698699951647605 37.1343
28.72168161743193 37.0973
28.74466446331978 37.0647
28.767648490417624 36.9733
28.790813276438353 36.9839
28.813799678527303 37.0159
28.836787265157085 36.9231
28.859955641890075 36.939
28.882945610203045 37.0041
28.905936766392035 36.9634
28.928929111566863 36.8716
28.952102288520145 36.7964
28.975097024308607 36.6726
28.998092952423807 36.5387
29.021090073977508 36.5003
29.04426806913204 36.4773
29.067267590245258 36.1908
29.090268308143695 36.18
29.11327022394099 36.1628
29.13645305530891 35.9402
29.159457379627167 35.9574
29.18246290519685 35.7933
29.20546963313352 35.857
29.22865731875826 35.8925
29.25166646419296 35.8666
29.27467681535305 35.6341
29.29768837335608 35.7498
29.320880931312562 35.8151
29.34389491580634 35.7205
29.366910110507334 35.6191
29.38992651653503 35.6245
29.41312396492981 35.6533
29.436142806456754 35.6335
29.45916286268059 35.4914
29.48236399319994 35.5238
29.50538649169417 35.3467
29.528410208259935 35.3201
29.55143514402014 35.0848
29.574641196749695 34.9135
29.597668583816574 34.8907
29.6206971934585 34.6276
29.64372702680042 34.7371
29.666938019934474 34.4248
29.689970313635285 34.4821
29.713003834422636 34.4276
29.73603858342347 34.4811
29.759254535188578 34.4536
29.78229175361658 34.3643
29.80533020365064 34.3428
29.82836988641968 34.4175
29.85159081507472 34.3189
29.874632976355343 34.2102
29.89767637376955 34.1797
29.920721008448314 34.0751
29.9439469322847 34.0049
29.96699405457564 34.0316
29.9900424175358 34.06
30.013092022298157 34.0206
30.03632295963995 33.9026
30.059375061131373 33.9057
30.08242840783577 33.8974
30.105483000888153 33.8604
30.128718970092244 33.7179
30.151776069006917 33.7392
30.17483441768648 33.7725
30.198074175317235 33.7909
30.221135036724256 33.8113
30.24419715131772 33.7782
30.267260520236203 33.7502
30.290505341942243 33.7951
30.313571232750228 33.8269
30.336638381310948 33.8028
30.35970678876503 33.7597
30.38295669299435 33.6704
30.40602763151657 33.6588
30.429099832366074 33.6259
30.452173296685572 33.523
30.47542830191959 33.5353
30.498504306502497 33.5006
30.521581577995562 33.4397
30.544660117543582 33.5805
30.56792024229725 33.4593
30.59100133132069 33.4534
30.614083691845494 33.4625
30.637167325018545 33.5819
30.660432587840603 33.5583
30.683518779717886 33.52
30.70660624769615 33.5506
30.729694992924372 33.446
30.75296541239743 33.5358
30.77605672557558 33.4695
30.799149319462742 33.4624
30.8224236211637 33.449
30.845518789950724 33.3371
30.868615242910597 33.3105
30.891712981195973 33.0452
30.91499247215866 32.983000000000004
30.938092794619365 32.9262
30.96119440587579 33.021
30.984297307082752 32.8074
31.00758200598383 32.7053
31.030687500658694 32.6593
31.053794288760695 32.6125
31.076902371446767 32.4506
31.100192296997445 32.475
31.12330298246119 32.4088
31.14641496599209 32.2488
31.169528248749216 32.3211
31.19282341969534 32.3157
31.215939314557186 32.3207
31.239056512134788 32.3045
31.262175013589378 32.3054
31.28547544871168 32.2863
31.30859657161541 32.1908
31.331719001892175 32.2485
31.35484274070538 32.1674
31.378148458819545 32.2633
31.401274828443725 32.155
31.424402510106933 32.1082
31.447712205419993 32.3131
31.470842524931633 32.1223
31.493974159989783 32.0272
31.51710711176168 31.9841
31.54042212308802 32.1626
31.563557722100917 32.0557
31.586694641341655 31.9896
31.609832881979628 31.8698
31.63315322823208 31.779
31.656294125521327 31.7475
31.679436347728515 31.741999999999997
31.70257989602529 31.6857
31.725905596152327 31.5943
31.74905181052835 31.4804
31.772199354521323 31.5431
31.79534822930507 31.4428
31.818679302290967 31.4823
31.84183085259981 31.5483
31.864983737233473 31.419
31.88813795736804 31.4318
31.911474422233013 31.3161
31.934631327356435 31.3325
31.9577895715215 31.2868
31.980949155906522 31.3051
32.004291031706956 31.2575
32.027453310562606 31.1718
32.05061693318573 31.0222
32.07396288236386 31.0977
32.09712920658542 30.9635
32.12029687812702 30.9683
32.14346589817093 30.8711
32.166817291729984 30.8635
32.18998902288583 30.8145
32.21316210610336 30.7544
32.23633654256711 30.6305
32.259693399663725 30.5027
32.282870556771144 30.438000000000002
32.30604907069099 30.502
32.329228942610065 30.4798
32.35259128243769 30.2972
32.375773884550505 30.2435
32.398957848235646 30.166999999999998
32.422143174682176 30.1624
32.445511016471215 30.0438
32.468699082679954 30.0222
32.49188851523011 29.9875
32.51507931531304 29.8848
32.538452678331 29.9492
32.56164622776311 29.7744
32.58484114831493 29.66
32.60803744118015 29.6879
32.631416344731896 29.6889
32.654615396551876 29.7178
32.67781582427913 29.7108
32.701198898634416 29.5375
32.72440209253756 29.5682
32.747606665947124 29.6038
32.77081262006088 29.3985
32.79420126883317 29.4251
32.81740999876112 29.5092
32.840620112999424 29.3386
32.86383161274818 29.2555
32.88722585534586 29.2404
32.91044014056596 29.3334
32.933655814909734 29.3201
32.95687287957963 29.2237
32.98027273544904 29.1467
33.00349259526636 29.1171
33.026713849030116 29.1874
33.04993649794511 28.9322
33.073341986570746 28.974
33.09656744032826 28.9168
33.11979429286444 28.9112
33.14302254538647 29.0025
33.166433686291185 28.8936
33.18966475336992 28.8961
33.212897224069096 28.814
33.23613109959831 28.791999999999998
33.259547912343415 28.7435
33.2827846121627 28.7161
33.306022720453775 28.5881
33.32926223842861 28.6365
33.352684742614166 28.64
33.37592709463173 28.5137
33.399170859982064 28.4434
33.422597648419426 28.4784
33.44584425514446 28.2078
33.46909227885668 28.2516
33.4923417207723 28.1514
33.51577423505344 28.2278
33.539026528130385 28.215
33.56228024307245 28.1243
33.585535381098246 27.8447
33.60897364093058 27.8531
33.63223163992385 27.9263
33.6554910656699 27.8208
33.678751919389796 27.8462
33.702195944520106 27.7762
33.72545966903325 27.7418
33.74872482519663 27.6056
33.771991414233746 27.6209
33.79544122444841 27.611
33.81871069412428 27.5185
33.84198160035767 27.5223
33.86525394437455 27.5521
33.88870955949969 27.463
33.911984794020626 27.3944
33.93526147001624 27.4101
33.958539588715006 27.3152
33.98200102861669 27.2942
34.0052820477047 27.2322
34.02856451319451 27.1771
34.05203033759056 27.1263
34.07531571090147 27.1504
34.09860253431845 27.1487
34.121890809074316 27.0264
34.145362493118924 27.0652
34.16865368561615 26.9638
34.191946333164054 26.8956
34.21524043699793 26.8197
34.23871800066799 26.8188
34.26201503218366 26.7541
34.28531352370466 26.7465
34.30861347646881 26.6311
34.33209693978188 26.6403
34.3553998301885 26.6868
34.378704185565205 26.5807
34.402010007152356 26.5486
34.42549939016683 26.5396
34.44880815937748 26.456
34.472118398533134 26.4355
34.49543010887669 26.3975
34.51892543169198 26.2413
34.54224009966052 26.2579
34.56555624255917 26.221999999999998
34.58887386163339 26.1546
34.61237514439016 26.0982
34.6356957311114 26.0633
34.65901779775809 26.1011
34.68252356662995 25.9948
34.705848608458616 26.0711
34.72917513396849 25.8659
34.75250314440949 25.8372
34.77601490857862 25.843000000000004
34.799345904259795 25.7547
34.82267838863559 25.7887
34.846012362958525 25.7438
34.869530142679984 25.6884
34.89286711232212 25.6473
34.91620557568269 25.729
34.93954553401677 25.6648
34.9630693495876 25.534000000000002
34.986412313340814 25.5902
35.00975677584668 25.5504
35.033102738362956 25.5321
35.05663261012228 25.5107
35.0799815881786 25.4966
35.10333207003229 25.3469
35.12668405694369 25.3542
35.150220005273056 25.3015
35.17357501786656 25.3272
35.19693153931268 25.2384
35.220289570874385 25.2117
35.24383161619786 25.1204
35.267192683604904 25.1858
35.290555264930376 25.1043
35.314101899412165 25.0907
35.33746752422433 25.0431
35.36083466676374 25.0961
35.38420332829803 25.079
35.407756095629054 25.0763
35.43112781085063 25.0422
35.45450104888391 24.9214
35.477875810999194 24.9062
35.50143473172161 24.8885
35.52481255774625 24.9437
35.54819191167777 24.8259
35.57157279478914 24.859
35.595137889488406 24.8031
35.61852184675279 24.7373
35.641907337029984 24.6987
35.665294361595684 24.6665
35.68886565090076 24.5714
35.7122557598848 24.4894
35.73564740699838 24.4918
35.759040593519934 24.5413
35.78261809810353 24.491999999999997
35.80601437933051 24.3369
35.829412203814705 24.2892
35.85281157283719 24.2794
35.876395313415884 24.3219
35.8997977874528 24.2688
35.92320180988546 24.2002
35.946790244133936 24.1649
35.97019737933222 24.1201
35.993606066789866 24.02
36.01701630779276 24.0458
36.04061101440684 23.9537
36.06402437852291 23.9311
36.08743930005611 24.0258
36.1108557802951 23.8579
36.13445678011326 23.8751
36.15787639383515 23.8029
36.18129757014299 23.7343
36.20472031032821 23.7141
36.22832762423364 23.7026
36.25175350829375 23.6737
36.275180960119776 23.578000000000003
36.298609981005924 23.6436
36.32222362992669 23.6826
36.34565580510207 23.6874
36.36908955323448 23.5301
36.39252487562093 23.4419
36.416144880530226 23.4105
36.43958336764275 23.3395
36.463023432914625 23.3805
36.486465077645676 23.3344
36.51009145956204 23.459
36.53353627947859 23.4694
36.55698268276811 23.3563
36.58043067073321 23.2264
36.60406345072071 23.1996
36.62751462435344 23.1419
36.65096738658405 23.1083
36.67460498210655 23.138
36.69806093788647 23.0699
36.72151848619297 23.063000000000002
36.744977628333636 23.0486
36.76862165890998 22.9247
36.79208400512205 22.8827
36.81554794910557 22.9057
36.83901349217101 22.8492
36.862663978991606 22.8441
36.88613273667352 22.7151
36.90960309738324 22.7138
36.933075062434064 22.6147
36.95673202673572 22.6208
36.98020721697122 22.5687
37.003684015502365 22.5315
37.027162423645365 22.4599
37.050825886711465 22.5018
37.07430753063053 22.4419
37.09779078812467 22.4511
37.121275660513014 22.33
37.144945643673694 22.3908
37.16843376245278 22.3773
37.19192350009803 22.3574
37.215414857931435 22.2189
37.239091382563885 22.2121
37.262585997426164 22.2135
37.28608223645736 22.168000000000003
37.309763684451696 22.1077
37.33326318851098 22.0221
37.356764320726555 22.0068
37.380267082425526 22.0905
37.40395510942588 22.0405
37.42746114683234 21.9699
37.45096881771841 21.8873
37.474478123414166 21.912
37.49817275092816 21.8723
37.52168534303452 21.8677
37.54519957395567 21.7132
37.568715445024665 21.748
37.592416694607714 21.7628
37.61593586281424 21.7547
37.63945667518264 21.6873
37.66297913304891 21.6616
37.68668702630454 21.6178
37.710212792059274 21.5545
37.733740207334854 21.4757
37.757269273470364 21.4769
37.780983832050374 21.3886
37.80451621684926 21.4729
37.82805025654007 21.4655
37.851585952464795 21.3325
37.8753071980695 21.2528
37.89884622345676 21.2232
37.92238690911902 21.1883
37.94611318753442 21.1611
37.969657210779765 21.1231
37.99320289834801 21.1492
38.016750251586465 21.1208
38.04048325513017 21.0828
38.06403395679343 21.0152
38.087586328183946 20.9833
38.11114037065203 20.9975
38.13488012115898 20.9488
38.1584375229181 20.9079
38.181996599821 20.8544
38.205557353221124 20.8449
38.229303872575656 20.8019
38.2528679961576 20.7454
38.27643380031219 20.7266
38.30000128639589 20.6545
38.32375459653193 20.6877
38.34732546371299 20.7
38.37089801690786 20.6339
38.39447225747609 20.5786
38.418232380377425 20.6073
38.441810012983396 20.4874
38.46538933705673 20.4798
38.488970353960084 20.4791
38.51273731166058 20.3852
38.536321731567014 20.4067
38.55990784840681 20.3383
38.58367995004091 20.2708
38.60726947812959 20.2338
38.63086070726198 20.2452
38.654453638806274 20.2419
38.678232613930824 20.2207
38.70182896773327 20.0786
38.72542702806741 20.1349
38.7490267963045 20.1154
38.77281266709232 20.0557
38.79641586862214 20.0215
38.8200207821842 19.9465
38.843627409152944 20.0187
38.86742019782782 19.887999999999998
38.891030269149255 19.8706
38.914642058016156 19.9153
38.938255565806124 19.7721
38.96205529464307 19.7719
38.98567225787121 19.7962
39.00929094417078 19.7323
39.03291135492255 19.7357
39.05671804624804 19.6848
39.080341923549106 19.6217
39.103967529460334 19.5611
39.127594865365744 19.5743
39.15140854155791 19.4897
39.17503935514948 19.5428
39.19867190290282 19.5473
39.22249083587951 19.4699
39.24612686969409 19.4223
39.269764641845306 19.3677
39.293404153722804 19.334
39.317230110864074 19.2961
39.34087311998506 19.2283
39.36451787301696 19.255
39.388164371352595 19.1774
39.41199737518003 19.1439
39.43564738196752 19.2015
39.45929913825317 19.1229
39.48295264543308 19.1109
39.506792718520884 19.0291
39.530449745387216 19.0332
39.55410852735203 18.98
39.57776906581474 19.0012
39.60161623079 18.9371
39.625280300200025 18.9194
39.64894613032202 18.8187
39.67261372255866 18.8569
39.6964680021016 18.8733
39.72013913657293 18.8448
39.74381203738292 18.8012
39.76748670593756 18.7885
39.79134812278169 18.7997
39.81502634488497 18.7571
39.83870633896685 18.6728
39.862388106436654 18.6155
39.88625668336918 18.5811
39.90994201572829 18.6117
39.933629125719285 18.5757
39.957503091207826 18.5724
39.9811937746168 18.5396
40.00488623990914 18.4742
40.02858048850006 18.3915
40.05246165409549 18.439
40.076159487492085 18.3531
40.099859108448875 18.3387
40.123560518384345 18.2844
40.1474489070226 18.2742
40.171153913178564 18.2488
40.194860712584955 18.2426
40.2185693066637 18.1957
40.242464941335314 18.1848
40.26617714307655 18.1549
40.289891143772046 18.1646
40.3136069448471 18.1028
40.33750984859743 18.0628
40.3612292688043 18.0412
40.3849504936829 17.9688
40.40867352466194 17.989
40.43258372059144 17.9508
40.45631038219906 17.9794
40.48003885420956 17.8392
40.503769138055105 17.8691
40.52768664931955 17.8689
40.55142057531802 17.843
40.57515631746428 17.8
40.599079334038514 17.7538
40.62281872700477 17.7437
40.64655994043941 17.6729
40.67030297578061 17.6289
40.69423334835778 17.6132
40.71798004609188 17.5893
40.74172857006355 17.5619
40.76547892171441 17.6084
40.7894166736039 17.5294
40.813170699248566 17.4662
40.83692655691388 17.4178
40.86068424804498 17.4178
40.884629402612525 17.4198
40.908390779366385 17.393
40.932153993938 17.3517
40.95591904777605 17.3564
40.979871628443995 17.3314
41.003640379561936 17.2831
41.02741097430883 17.2759
41.05118341413683 17.2902
41.075143444384416 17.2089
41.098919593177826 17.2015
41.1226975914255 17.142
41.14647744058318 17.1319
41.170444943946755 17.0285
41.19422851378379 17.0908
41.218013938914645 17.0047
41.24198706625173 16.9697
41.26577622087193 16.9401
41.289567235177785 16.9278
41.31336011063129 16.9249
41.337340752422875 16.9181
41.361137369129835 16.8676
41.38493585138705 16.8226
41.40873620066004 16.8182
41.43272438060107 16.7621
41.45652848292052 16.6657
41.48033445666918 16.6758
41.50414230331616 16.6591
41.528138045159764 16.6668
41.551949656675205 16.589000000000002
41.575763145513235 16.5582
41.59957851314666 16.5653
41.62358184070442 16.5509
41.64740098505737 16.5131
41.6712220126409 16.4975
41.69504492493139 16.4144
41.71905586207357 16.4014
41.74288256296395 16.3735
41.766711153007456 16.325
41.79054163368412 16.3475
41.814560204340054 16.3021
41.838394485526365 16.3148
41.86223066180303 16.2525
41.88625497706819 16.1965
41.910094962812 16.2087
41.93393684811168 16.1876
41.95778063445365 16.069000000000003
41.981812625263366 16.1106
42.00566023303407 16.0771
42.029509746323676 16.0752
42.05336116662236 15.9997
42.077400857069705 16.0549
42.10125611078846 15.9672
42.12511327600405 15.985999999999999
42.14897235421036 15.9072
42.173019768448455 15.9463
42.19688269209613 15.863
42.22074753323349 15.8951
42.24461429335818 15.8758
42.268669455600495 15.8066
42.292540073217886 15.7986
42.31641261433284 15.8179
42.34028708044675 15.7426
42.36435001496739 15.647
42.38822835065557 15.6653
42.41210861586426 15.6438
42.4359908120986 15.6276
42.46006154323262 15.5584
42.48394762115317 15.5758
42.507835634632315 15.5715
42.531912233047436 15.5201
42.55580413732265 15.4867
42.579697981698 15.5322
42.60359376768525 15.4803
42.62767820545945 15.4693
42.65157789440821 15.3515
42.67547952952185 15.3145
42.699383112316 15.3356
42.72347541395347 15.2749
42.74738291190531 15.2705
42.771292362102166 15.2392
42.795203766063516 15.2163
42.819303956130405 15.1998
42.843219287476536 15.1769
42.86713657716324 15.174000000000001
42.89105582671383 15.1782
42.91516392983864 15.1098
42.939087119032166 15.0783
42.963012272677304 15.078
42.98693939230129 15.0119
43.01105543317513 14.9826
43.034986504731386 14.9759
43.05891954686589 14.9836
43.08285456110972 14.9516
43.10697856448665 14.8623
43.130917542983475 14.8712
43.15485849820081 14.9252
43.17880143167367 14.8432
43.20293342237094 14.7597
43.226880332449 14.7249
43.25082922540554 14.7076
43.27496722682525 14.7201
43.29892010567796 14.6775
43.32287497204102 14.6077
43.34683182745632 14.5526
43.370977859791836 14.5634
43.39493871351105 14.5053
43.41890156092628 14.5839
43.44286640358341 14.5274
43.46702049182749 14.5147
43.49098934522816 14.4409
43.51496019852649 14.4461
43.5389330532723 14.4526
43.56309522248204 14.4003
43.58707210044314 14.3587
43.61105098451946 14.3429
43.63503187626491 14.3047
43.659202151562134 14.3105
43.68318707902681 14.2504
43.70717401884041 14.2473
43.731162972560874 14.2212
43.75534137913236 14.1899
43.779334381108384 14.1459
43.803329401683186 14.1296
43.82732644241872 14.1456
43.8515130055166 14.1192
43.87551410707659 14.0678
43.89951723350145 14.0941
43.923709934595614 14.05
43.94771713129917 14.0201
43.97172635758096 14.0232
43.99573761501002 13.9704
44.0199385169922 13.9091
44.04395385732619 13.9032
44.067971233533086 13.9169
44.09199064718605 13.8721
44.11619977548961 13.8517
44.14022328470671 13.7962
44.16424883610785 13.8428
44.18827643127035 13.7767
44.21249381139513 13.7773
44.236525514814076 13.7433
44.26055926674478 13.6812
44.28459506876863 13.6897
44.3088207262813 13.6983
44.33286064928722 13.6457
44.35690262714919 13.6604
44.38094666145278 13.5628
44.4051806219871 13.59
44.42922879003185 13.4966
44.45327901929361 13.4477
44.477331311362136 13.4718
44.501573600619416 13.424000000000001
44.525630039221795 13.3802
44.54968854541895 13.4388
44.573937102200176 13.3788
44.5979997645541 13.3749
44.622064499300315 13.3274
44.64613130803592 13.3526
44.67038823869318 13.324000000000002
44.69445921643748 13.2583
44.718532272981385 13.2521
44.742607409926194 13.24
44.76687274034801 13.2049
44.79095205918753 13.1672
44.81503346325094 13.1753
44.839116954143876 13.1829
44.86339071028742 13.1317
44.88747839599524 13.0745
44.91156817336837 13.0334
44.93566004401666 13.0257
44.959942251908146 13.0263
44.984038330325966 13.0006
45.00813650686762 12.9484
45.03223678314731 12.9275
45.05652746888232 12.9318
45.08063196592069 12.8848
45.104738567558705 12.8378
45.128847275414856 12.8159
45.15314646515866 12.8031
45.17725940679741 12.8153
45.20137445952892 12.7941
45.22568004865265 12.7444
45.24979934496396 12.7249
45.27392075725247 12.7517
45.29804428714431 12.7259
45.322358426247604 12.675
45.346486212804315 12.657
45.370616121861914 12.6208
45.39474815505086 12.6507
45.41907087049246 12.5765
45.4432071734666 12.5582
45.46734560548283 12.5834
45.49148616817604 12.5117
45.51581748638564 12.5001
45.5399623320197 12.4678
45.56410931325473 12.4552
45.58825843173002 12.4593
45.61259837920865 12.3884
45.636751793816 12.3936
45.66090735060093 12.3466
45.68506505120716 12.2978
45.7094136545275 12.2796
45.73357566449271 12.2742
45.75773982322992 12.2872
45.78190613238733 12.2731
45.806263418194064 12.17
45.83043404997326 12.1822
45.85460683713677 12.1629
45.87897065658495 12.1911
45.90314777634752 12.1625
45.92732705646868 12.1205
45.9515084986045 12.0935
45.97588104735473 12.0957
46.00006683541565 12.0567
46.02425479047904 11.9818
46.04844491420549 12.0301
46.0728262191024 12.0406
46.09702070211635 11.9904
46.12121735879483 11.9639
46.14541619080294 11.9697
46.169806278764455 11.8864
46.194009483459034 11.8873
46.21821486849841 11.8529
46.24242243555223 11.8217
46.266821333570014 11.7778
46.29103328674601 11.7951
46.31524742696538 11.817
46.33946375590237 11.7625
46.36387149104216 11.7408
46.38809221957392 11.7072
46.41231514186606 11.7073
46.436540259597464 11.6611
46.460956858999374 11.6572
46.48518638983522 11.6874
46.509418121166966 11.6137
46.533652054678114 11.5582
46.55807754555709 11.5219
46.58231590571962 11.5896
46.60655647313217 11.5029
46.630988654873654 11.4752
46.655233659129024 11.4533
46.67948087571551 11.4387
46.70373030632484 11.419
46.72817142736393 11.4598
46.752425308428684 11.4246
46.77668140861147 11.3737
46.80093972960865 11.324000000000002
46.82538981736788 11.3216
46.849652602470904 11.2905
46.87391761349769 11.2975
46.8981848521493 11.2665
46.9226439341274 11.2076
46.946915650573224 11.2194
46.97118959976749 11.2007
46.99546578341598 11.1653
47.019933887188216 11.1416
47.04421456235744 11.1636
47.06849747711879 11.1293
47.09278263318286 11.0956
47.11725978640143 11.0763
47.14154944775105 11.0423
47.165841355555656 11.058
47.1901355115306 10.9862
47.214621741924994 10.9773
47.23892041698887 10.9849
47.26322134538975 10.9485
47.28771440635075 10.9386
47.31201986422527 10.9545
47.33632758061436 10.8854
47.360637557241866 10.8686
47.38513974410611 10.8703
47.40945426407847 10.8045
47.43377104948137 10.8076
47.45809010204344 10.7818
47.48260144275502 10.7518
47.506925052572285 10.7168
47.53125093475548 10.7035
47.55557909103813 10.7126
47.58009961361992 10.6856
47.60443234110732 10.6331
47.62876734791564 10.6677
47.65310463578333 10.6107
47.6776343683373 10.5978
47.7019762413987 10.5549
47.72632040075572 10.5548
47.75066684815169 10.5337
47.77520581885936 10.5066
47.799556865477655 10.4821
47.823910205386 10.4918
47.84826584033272 10.4779
47.87281407745551 10.4363
47.89717432569297 10.4047
47.92153687423484 10.4188
47.94609208429692 10.3658
47.97045925671401 10.3839
47.99482873471275 10.3269
48.01920052005013 10.3248
48.04376504619224 10.31
48.068141469543484 10.3157
48.09252020552573 10.2773
48.11690125590099 10.2807
48.1414751266064 10.2948
48.16586082917454 10.2453
48.19024885144316 10.2017
48.2146391951793 10.2063
48.239222439012764 10.1823
48.26361744916137 10.141
48.28801478610016 10.155
48.31241445160131 10.1483
48.337007097209366 10.0895
48.36141144338331 10.0894
48.38581812345755 10.066
48.41022713920929 10.0369
48.434829215320704 10.0157
48.45924292604658 10.0007
48.48365897780325 10.0161
48.50807737237308 9.99457
48.532688907799276 9.95399
48.55711201168574 9.94848
48.581537463754074 9.91429
48.60615611725119 9.915510000000001
48.63058628942721 9.90479
48.65501881516546 9.894960000000001
48.6794536962573 9.838989999999999
48.70408185970339 9.83769
48.72852147531801 9.80763
48.75296345168211 9.78133
48.77740779059232 9.778830000000001
48.80204549302823 9.80671
48.82649458091802 9.76202
48.85094603676547 9.72918
48.87539986237231 9.68868
48.90004713292306 9.689680000000001
48.92450572200832 9.68191
48.94896668628025 9.64608
48.97343002754588 9.60295
48.99808689542115 9.58595
49.02255501470614 9.595930000000001
49.04702551642794 9.56756
49.0714984023988 9.55222
49.096164896893235 9.52495
49.120642575466796 9.52983
49.145122643748394 9.52625
49.16960510355558 9.48971
49.19428125404938 9.4861
49.2187685210852 9.45847
49.243258185121555 9.442219999999999
49.26794160167084 9.4187
49.2924360839405 9.37708
49.31693296869764 9.36
49.34143225776915 9.33279
49.36612538195438 9.31855
49.39062950396021 9.28772
49.41513603578346 9.282010000000001
49.4396449792564 9.31
49.46434784069503 9.32413
49.488861631846454 9.22972
49.513377840166804 9.21895
49.537896467493745 9.199539999999999
49.56260909589029 9.188369999999999
49.587132585683285 9.21743
49.611658500018365 9.19867
49.636186840738596 9.15283
49.66090926588511 9.110389999999999
49.685442483902584 9.11394
49.70997813385706 9.06317
49.734516217597076 9.05973
49.75924846937352 9.049
49.7837914452858 9.0253
49.80833686055187 9.00565
49.83288471702571 9.003260000000001
49.85762682540054 9.02004
49.882179588965734 8.97508
49.9067347993235 8.91577
49.93129245833333 8.9473
49.95604445336378 8.9192
49.98060703442832 8.90092
50.005172069746266 8.900730000000001
50.02993150438364 8.897219999999999
50.05450147301533 8.87445
50.07907390151433 8.82499
50.10364879174981 8.810130000000001
50.12841816587289 8.78797
50.1529980044635 8.78773
50.17758031042124 8.794089999999999
50.20216508562089 8.7664
50.22694442953363 8.70448
50.25153416817468 8.68722
50.27612638170508 8.68823
50.300721072005196 8.67602
50.325510416102105 8.665519999999999
50.350110084975064 8.619480000000001
50.37471223628208 8.61841
50.39931687190919 8.60943
50.424116246675766 8.59487
50.44872587605249 8.55592
50.47333799543065 8.59077
50.49795260670191 8.53925
50.52276204271512 8.51828
50.54738166295838 8.50367
50.57200378079314 8.507480000000001
50.596628398116835 8.47446
50.62144792604559 8.46611
50.646077567609396 8.44
50.670709714377715 8.45395
50.69553683636198 8.383510000000001
50.72017401885922 8.39523
50.7448137122895 8.37853
50.76945591856022 8.3593
50.79429318636823 8.34961
50.818940443716784 8.36897
50.84359021965163 8.31634
50.868242516085964 8.28942
50.893089960641895 8.272039999999999
50.917747323549435 8.250589999999999
50.94240721271973 8.24214
50.96706963007175 8.23429
50.99192728239342 8.23831
51.01659478166073 8.2176
51.04126481489051 8.245
51.06593738400761 8.17806
51.090805275207074 8.15399
51.11548294172845 8.13495
51.14016314993547 8.11924
51.164845901758845 8.122069999999999
51.18972406304274 8.128
51.21441192780656 8.082310000000001
51.23910234200271 8.08596
51.2637953075678 8.0501
51.288683770237945 8.05016
51.31338186432707 7.99932
51.33808251561888 7.953989999999999
51.362978729967345 7.98505
51.387684521509755 7.978219999999999
51.41239287610203 7.9383300000000006
51.437103795691165 7.9309
51.46201036644977 7.91408
51.486726441956634 7.86143
51.51144508832545 7.842569999999999
51.536166307509156 7.849639999999999
51.56108326624387 7.867430000000001
51.58580965706056 7.8646899999999995
51.61053862657523 7.805739999999999
51.635270176746864 7.79723
51.66019755512065 7.787660000000001
51.68493429268881 7.744389999999999
51.70967361681515 7.739489999999999
51.73441552946465 7.7587600000000005
51.759353359237934 7.72653
51.7841004750961 7.72098
51.80885018539685 7.6931
51.833602492111254 7.6901600000000006
51.8585508051424 7.64883
51.883308330926425 7.648739999999999
51.90806845906181 7.61839
51.932831191525715 7.591069999999999
51.95779001977161 7.58932
51.98255798721516 7.531569999999999
52.00732856494335 7.5637300000000005
52.03229530577543 7.5163199999999994
52.057071130455945 7.49443
52.081849571391054 7.5357899999999995
52.106630630568695 7.48124
52.13160794279417 7.429130000000001
52.15639426492067 7.450660000000001
52.18118321127822 7.474589999999999
52.205974783860896 7.4328
52.23096269971011 7.4024
52.255759551287994 7.42125
52.280559035098186 7.37179
52.30536115314103 7.3769100000000005
52.33035970494467 7.390689999999999
52.35516711807904 7.370019999999999
52.37997717147198 7.310510000000001
52.40478986713005 7.304589999999999
52.42979908731974 7.30187
52.454617094216 7.297110000000001
52.47943774942214 7.277360000000001
52.50426105495102 7.26628
52.529280976059844 7.24685
52.554109609024096 7.215389999999999
52.57894089837482 7.20162
52.60377484613117 7.14305
52.62880550079408 7.15797
52.65364479223379 7.16642
52.67848674816189 7.15803
52.70352547971946 7.13183
52.72837279155837 7.105760000000001
52.753222773982785 7.08029
52.778075429022984 7.06535
52.80312495150885 7.044110000000001
52.827982978797436 7.057010000000001
52.85284368481815 7.037789999999999
52.87770707160767 7.03225
52.90276741793998 7.0194
52.92763619336701 6.996760000000001
52.952507655698504 6.99671
52.977381806977576 6.986330000000001
53.00245301017842 6.9264
53.02733256653592 6.91759
53.052214817996074 6.919569999999999
53.077099766608484 6.920789999999999
53.102181859804446 6.85002
53.127072229988265 6.87375
53.15196530349892 6.84558
53.17686108239249 6.846
53.20195409881522 6.819719999999999
53.22685531582556 6.832660000000001
53.25175924441303 6.8076300000000005
53.27666588664027 6.7686399999999995
53.30176985962693 6.754410000000001
53.3266819565689 6.78305
53.35159677336455 6.762239999999999
53.376514312083096 6.72508
53.40162927507703 6.693989999999999
53.42655228516116 6.71391
53.45147802340193 6.69285
53.47660125628886 6.66673
53.50153247842639 6.656630000000001
53.52646643496923 6.6371199999999995
53.55140312799818 6.691039999999999
53.576537409691696 6.6303
53.60147960336152 6.586860000000001
53.626424539786164 6.5738
53.65137222105307 6.52027
53.67651758529126 6.556710000000001
53.70147078399681 6.54132
53.72642673383343 6.561030000000001
53.75138543689533 6.57665
53.776541917524526 6.54609
53.801506154876755 6.496169999999999
53.826473151763246 6.44405
53.851442910284916 6.41414
53.87661054126026 6.44676
53.9015858509782 6.41119
53.92656392866066 6.4322
53.95154477641532 6.4175699999999996
53.976723591801296 6.38362
54.00171000771266 6.36143
54.02669920004598 6.4107400000000005
54.051691170915745 6.3106599999999995
54.076881204886796 6.28008
54.101878760928514 6.306369999999999
54.12687910187696 6.307259999999999
54.152077577768296 6.29134
54.1770835166946 6.18993
54.20209224691339 6.221
54.22710377055121 6.20485
54.25231352511594 6.263240000000001
54.27733066384342 6.20573
54.30235060239643 6.177630000000001
54.32737334290836 6.20483
54.35259441062629 6.17606
54.377622783395324 6.11587
54.40265396455061 6.14008
54.42768795623251 6.08448
54.45292037169559 6.09399
54.477960012857906 6.08751
54.50300247099511 6.0679
54.52804774825457 6.03923
54.55329154616743 5.99383
54.57834249018678 5.95761
54.6033962597977 5.940519999999999
54.6284528571545 5.89548
54.653708072335164 5.89911
54.67877035378786 5.88992
54.70383546947698 5.87875
54.72890342156389 5.89182
54.7541700889442 5.805969999999999
54.77924374251975 5.80319
54.8043202390049 5.7992300000000006
54.82959552413022 5.7718
54.8546777351945 5.75516
54.87976279569621 5.66062
54.90485070780914 5.73112
54.930137506558005 5.67256
54.95523115074295 5.66904
54.98032765308844 5.6673800000000005
55.005427015775496 5.63796
55.03072536339621 5.6772599999999995
55.05583047570572 5.60665
55.080938454927676 5.5839
55.10604930325027 5.58234
55.131359235107396 5.55004
55.15647585066083 5.4840599999999995
55.181595341907496 5.45273
55.20671771104285 5.45218
55.232039262617704 5.39808
55.25716741665048 5.38086
55.28229845518636 5.4381
55.30743238042802 5.31243
55.33276558731939 5.3267
55.357905315183636 5.35053
55.383047936390035 5.26115
55.40819345314859 5.28641
55.433538351073295 5.21111
55.458689688238415 5.21807
55.483843927614096 5.16554
55.509197623043605 5.14272
55.53435769621134 5.1468300000000005
55.55952067826466 5.07932
55.5846865714265 5.11493
55.61005202069737 5.0608699999999995
55.63522376553902 5.08363
55.66039842818645 5.00823
55.68557601087004 5.0198
55.7109532500271 4.97997
55.73613670233794 5.031569999999999
