TT I
1.2716486653135266 7.58045
1.2939594142134223 6.87455
1.3162702121660406 7.12105
1.3385810600174564 7.11447
1.3608919586137629 6.79135
1.383202908801069 6.1916199999999995
1.405513911425503 5.72609
1.4278249673332093 6.19883
1.4501343378461518 5.9622
1.4724455028545926 5.89999
1.4947567236847858 6.16389
1.517068001182951 6.28903
1.5393793361953272 6.1433800000000005
1.5616907295681737 5.80743
1.5840021821477681 5.50256
1.60631369478041 4.8632800000000005
1.6286252683124185 4.86682
1.6509369035901333 5.22757
1.6732468618895553 5.7558
1.695558623192809 5.1672199999999995
1.7178704487808514 5.17589
1.7401823395001077 4.93089
1.7625012545597203 4.83505
1.7848028405262486 4.91296
1.8071218901122095 5.13047
1.8294236121921872 4.95049
1.8517427996910911 4.356730000000001
1.8740620574440425 4.58521
1.8963639900671978 4.79156
1.9186833908139995 5.08542
1.9409854680117449 5.28311
1.9633050151394713 4.54514
1.9856246367570705 5.11336
2.0079269371922672 4.8215699999999995
2.03024671027244 4.52671
2.0525491637446027 5.04692
2.074869091674931 5.12266
2.097171701569106 4.9358
2.1194917877373847 5.11193
2.141811954326636 4.55143
2.164114805233074 4.26123
2.186435135143035 5.58007
2.208738150935709 8.90128
2.231058647554722 14.7595
2.2533792288321184 12.439
2.275682498336085 6.7847
2.298003251406138 5.372240000000001
2.3203066942619714 4.80098
2.3426276225136022 4.39016
2.3649486396617507 4.84694
2.387252348930071 5.07789
2.4095735463442893 5.62425
2.4318774374315884 5.67146
2.4541988185014043 5.2925
2.476502894794693 6.161230000000001
2.498824462909887 5.34748
2.521146125856138 6.16038
2.5434504863470337 6.51262
2.5657723414244717 6.76145
2.588076895590662 7.3682300000000005
2.610398946189713 7.47871
2.6327210958598384 7.47894
2.6550259469304716 7.1616100000000005
2.6773482972090137 6.935410000000001
2.6996533504259 6.844869999999999
2.7219759047039602 7.55531
2.744298562293959 7.988860000000001
2.7666039251246595 7.45668
2.7889267918020164 7.12557
2.8112323652516555 7.5727899999999995
2.833555444408179 8.0452
2.8558786311183852 7.665369999999999
2.8781845268938557 8.19096
2.9005079311721484 8.57236
2.9228140460410397 8.41998
2.9451376712799635 8.84169
2.967444008632326 9.180860000000001
2.9897678582247247 9.7191
3.0120918213106695 10.3708
3.0343984987899373 10.4871
3.0567226913198637 11.2037
3.079029599759726 11.3758
3.101354025127254 12.0266
3.123678568232338 12.3678
3.145985829517914 12.7741
3.16831061055229 13.4374
3.1906181112775593 13.7264
3.212943133635653 14.9149
3.2352682779763207 14.5973
3.2575761442691227 15.1009
3.2799015350264273 16.0556
3.302209649240067 16.4495
3.3245352898092655 16.6997
3.3468436553365257 17.2837
3.369169549113219 17.3909
3.3914955708171384 18.6724
3.413804319727358 18.8107
3.4361305997334863 19.1625
3.4584396084414553 19.3688
3.4807661501462652 20.5895
3.503092824025881 21.0357
3.5254022288463154 21.0944
3.5477291695206588 21.4036
3.5700388426251948 22.6343
3.5923660534916446 23.3434
3.6146934007816114 30.6935
3.637003482731501 53.8748
3.6593311053109985 59.0172
3.681641464033634 39.3388
3.7039693653009733 27.2268
3.726297407241705 25.4414
3.7486081875460804 25.6193
3.7709365132734978 26.0395
3.793247578841633 26.5006
3.8155761917550093 27.0162
3.8378875459837216 27.3856
3.8602164494827234 27.7929
3.882545499606844 28.2737
3.9048572932539183 29.3679
3.9271866390645718 29.6429
3.9494987298666713 30.2232
3.971828374764527 30.7379
3.9941581705403255 30.9222
4.016470713506008 31.5124
4.038800813471445 32.4265
4.061113662089144 33.2085
4.0834440696459176 33.9724
4.105774632334751 34.0814
4.128087945865126 34.4461
4.150418821249301 35.7419
4.172732448931298 36.7527
4.195063640413578 37.8858
4.2173775856475215 40.5574
4.239709096631102 56.2987
4.262040768704612 132.05200000000002
4.284355196706267 170.65900000000002
4.306687193387355 118.90899999999999
4.329001947444346 61.6651
4.35133427213731 45.7384
4.373666762177566 44.5644
4.395982011761091 44.9439
4.418314834921175 45.8749
4.44063041906622 49.6766
4.4629635787515625 55.6063
4.4852969080429785 56.4232
4.5076130004776225 52.7234
4.529946671403969 52.8768
4.552263106909177 53.5681
4.574597122877047 53.3906
4.596931312711224 53.7731
4.619248269273446 54.4989
4.6415828092605835 56.1176
4.663900117405352 57.2525
4.686235010953232 58.4863
4.708552674085913 60.1548
4.730887924602802 61.2069
4.753223354952695 62.4647
4.775541557023902 65.0645
4.797877349456786 66.6178
4.820195915032126 68.5631
4.842532072957498 69.2424
4.864868414979744 71.9802
4.88718753227192 74.675
4.909524244902505 76.4891
4.931843734218147 78.1794
4.954180820867835 80.943
4.976518095879839 84.8387
4.998838149695359 88.1768
5.021175803844231 91.8723
5.043496238205739 95.8743
5.065834274903528 100.866
5.088172504230693 107.15100000000001
5.1104935158799565 115.469
5.132832132875765 135.541
5.155153533596801 169.976
5.1774925416746225 241.918
5.199814334878411 611.4540000000001
5.2221537374521505 1616.17
5.244493338631803 3677.73
5.266815727034316 7458.61
5.289155727832427 11416.2
5.311478517248165 8654.3
5.333818921080011 3355.37
5.356159527788849 722.195
5.3784829252032536 220.02700000000002
5.400823940070432 161.357
5.423147747031976 139.171
5.445489173474152 126.69
5.467830807066149 121.68799999999999
5.490155234831516 117.78200000000001
5.512497285125229 111.686
5.534822130975162 109.20299999999999
5.557164601388673 106.554
5.579489868738879 103.55799999999999
5.601832762690846 102.594
5.6241758697774475 100.79799999999999
5.646501775867269 100.116
5.668845311622074 98.9144
5.691171647754637 98.4467
5.713515615597765 97.3789
5.735859800852677 96.9459
5.758186788542988 96.7419
5.780531411018185 97.4963
5.802858837297399 96.3635
5.825203900414495 96.9835
5.8475491852224 98.9548
5.869877275883075 99.4682
5.892223006467101 99.3212
5.914551544266608 101.353
5.936897724049891 106.6
5.959244129804903 117.244
5.981573344815301 158.993
6.0039202049061 327.89300000000003
6.026249875609095 680.148
6.04859719346037 1277.68
6.070927323278297 2334.23
6.093275102315365 4022.29
6.115623113320588 4953.31
6.137953938319995 3425.13
6.160302415650845 1171.09
6.182633708324452 287.283
6.2049826554078376 127.60700000000001
6.227331838745022 99.7018
6.249663839443684 89.904
6.27201349767565 85.7577
6.294345974611799 86.3618
6.316696111167083 90.2856
6.339046488263839 86.5506
6.361379686074702 78.1105
6.383730546639482 73.2196
6.406064229255215 71.1375
6.428415576718203 71.1397
6.450749747566656 69.4287
6.47310158535871 68.0362
6.495453669698332 67.1363
6.517788579421056 66.0782
6.540141159237969 65.2071
6.562476565766648 64.5125
6.5848296444934045 64.3521
6.607182974060425 64.0332
6.6295191323281015 63.5536
6.651872965955752 64.9111
6.6742096296068985 76.0213
6.6965639707294615 97.7149
6.71891856698715 97.8341
6.741255995248479 77.3696
6.763611104154477 64.3441
6.785949046381137 60.6421
6.808304671371482 59.5161
6.8306605557940046 59.7303
6.852999275508618 58.9857
6.875355681171544 58.3091
6.897694923437771 57.9721
6.92005185377892 57.4124
6.9423916220322655 57.5894
6.964749080490181 56.5101
6.987106804399774 56.7244
7.009447368180821 56.8327
7.031805625367033 56.833999999999996
7.054146723727803 56.4855
7.076505517631004 56.3021
7.098864581288365 56.6123
7.121206488070854 56.1739
7.143566093607822 56.1127
7.165908543567245 56.45
7.188268694426048 56.3668
7.2106291193438095 55.9233
7.232972390625943 56.7164
7.255333366030969 62.5405
7.277677189091925 87.1584
7.300038718428332 111.0
7.322400526130865 98.3082
7.344745183422596 72.2833
7.367107550224791 59.1426
7.389452767901992 56.4891
7.411815697249891 55.7906
7.434161478756298 54.9896
7.456524974096713 55.1403
7.478888753837185 55.1555
7.501235387657368 55.5067
7.523599738562711 55.6203
7.545946944825532 55.8136
7.568311870344528 56.4084
7.5906770845765665 56.3885
7.613025156078678 57.0671
7.635390950099687 57.7631
7.657739602662809 57.4623
7.680105979923558 56.893
7.702472650212829 57.4649
7.724822180948224 57.5576
7.747189439655568 57.6563
7.769539560075357 57.3049
7.791907410653562 57.7475
7.81425812420825 57.7076
7.836626570110925 58.1346
7.858995315087906 59.0977
7.881346924933401 59.2212
7.903716270417482 59.8372
7.926068482028405 59.9894
7.948438431475253 60.7697
7.9708086843180235 61.1371
7.993161805171116 62.0815
8.015532667162402 62.3558
8.037886398416653 63.3413
8.060257873014221 64.4069
8.082629655331942 64.7321
8.104984308787587 65.5899
8.127356708900503 67.7554
8.149711981398308 71.3343
8.172085002766314 73.2357
8.194458336181368 71.4987
8.216814543847752 70.5316
8.23918850371002 71.5223
8.26154533906492 72.5896
8.283919928836452 74.3324
8.306277395339652 75.0776
8.328652618483376 76.9895
8.351028159736202 79.0997
8.373386579575245 81.5827
8.395762759396959 83.5411
8.418121819038275 88.1
8.440498640894003 97.4577
8.462875785192262 111.45299999999999
8.485235811156207 146.03799999999998
8.507613602688501 226.56900000000002
8.529974277114228 346.094
8.552352719347912 505.95
8.574731488360351 763.9019999999999
8.59709314210385 1188.27
8.619472567021075 1722.9
8.64183487789147 2093.66
8.664214962183097 1843.74
8.686577933647762 1045.75
8.708958680784317 413.10699999999997
8.731339760774953 180.399
8.753703729764451 118.825
8.77608547780821 104.053
8.798450116065078 99.6523
8.820832535634787 96.2258
8.843215292401656 94.5835
8.865580941199045 93.2071
8.887964374703538 92.055
8.910330701447199 92.0767
8.932714815164482 92.4441
8.955099270424924 91.2675
8.977466620733543 89.1942
8.999851761421976 87.7328
9.022219798361645 86.4084
9.04460562795561 86.0496
9.066991803441677 85.7874
9.089360876979615 85.7083
9.111747746589993 85.6398
9.13411751544971 84.6816
9.156505082664324 84.1977
9.178875550323522 84.4143
9.20126381862328 84.51299999999999
9.223652438908596 84.7457
9.246023961427412 85.0839
9.26841328802173 84.7138
9.290785518039224 84.7522
9.313175554425882 85.9735
9.335565947154315 85.898
9.357939245086508 85.775
9.380330352834827 86.0479
9.40270436697103 85.8145
9.425096193225055 85.7573
9.447488380180165 86.4672
9.469863475295412 86.9747
9.492256385987508 87.1918
9.514632206018318 87.8589
9.537025843935714 88.5903
9.559402392368193 89.1101
9.581796761000229 90.6607
9.604191496441521 91.7705
9.626569144158516 93.5487
9.648964615551032 96.1397
9.671343000390081 96.7605
9.693739211225699 96.3953
9.716135793237463 95.78200000000001
9.738515290448102 96.0191
9.760912617143402 97.5457
9.783292860202891 99.3308
9.805690935076182 100.51899999999999
9.828089385495742 101.141
9.850470754023561 103.488
9.872869957865444 108.65899999999999
9.89525208097539 117.316
9.917652041736662 126.725
9.940052382417589 137.007
9.962435644102392 173.622
9.984836746950979 237.968
10.007220771957746 324.137
10.029622640473708 443.343
10.052007432299963 622.28
10.074410069984072 872.0980000000001
10.096813093716005 1211.98
10.119199042482517 1596.71
10.141602840636468 1851.1
10.163989564971628 1624.89
10.186394141051062 1000.99
10.208799107559706 457.746
10.231187001965623 209.601
10.253592751657669 135.16899999999998
10.275981430388155 118.51700000000001
10.298387966769793 114.771
10.320794897965431 115.04899999999999
10.343184759907361 113.714
10.36559248305461 110.544
10.387983138083852 110.31200000000001
10.410391656691655 120.146
10.432800574501677 137.286
10.455192425893369 158.606
10.47760214443012 188.613
10.499994797678786 232.99200000000002
10.522405320453982 299.278
10.54479877906917 387.56199999999995
10.567210109595656 488.514
10.5896218454736 551.7230000000001
10.612016518879773 523.286
10.634429067781074 367.744
10.656824555333241 217.28900000000002
10.679237920773568 131.187
10.701651695961992 99.9227
10.724048411481384 92.3283
10.746463008485165 89.1888
10.768860546937125 87.6486
10.791275969274796 85.6842
10.81369180576079 84.2744
10.836090585366925 83.2455
10.858507252467449 82.175
10.88090686379991 80.8489
10.903324365036394 80.4812
10.925724811614439 79.7538
10.948143150509463 80.1831
10.970561909719066 79.4284
10.992963615930844 77.8279
11.015383218085756 76.3889
11.037785768347074 75.374
11.06020621697282 74.3897
11.082627090322113 73.7839
11.105030913430326 73.3031
11.12745263854165 73.2626
11.149857314510728 74.5825
11.172279894912576 77.3156
11.194702904450653 77.4137
11.217108866490921 75.0545
11.239532736615194 72.8396
11.26193956033512 71.6602
11.284364294577085 70.7274
11.306789462371718 69.3068
11.329197585398376 68.7963
11.351623622610898 68.7512
11.37403261614354 67.7174
11.396459526308487 67.5528
11.418869393879497 67.1832
11.441297180532617 66.983
11.463725406927658 66.5165
11.486136592353875 66.1465
11.508565700543707 66.3312
11.530977768845315 67.3384
11.553407762368774 67.3806
11.575838200059769 67.0592
11.598251599479612 66.1028
11.620682927815501 65.2358
11.64309721895548 65.2964
11.665529441478206 64.6139
11.687962112597958 64.3168
11.710377748130886 64.7242
11.732811318753434 64.4512
11.755227854859067 64.5029
11.777662328529495 64.3437
11.800079768750786 64.2464
11.822515149015453 64.3829
11.844950984084935 64.2921
11.867369787303163 64.0367
11.889806534289491 64.2967
11.912226250487029 64.4825
11.934663912939751 64.7036
11.9571020346363 64.351
11.979523127133968 65.0948
12.001962169624331 66.4992
12.024384183972964 68.8488
12.046824150809913 73.9513
12.069264581333726 80.1874
12.091687985297767 86.7786
12.11412934550045 96.2714
12.136553680195208 109.762
12.158995973632788 129.35299999999998
12.181438735204349 151.597
12.20386447284199 176.572
12.226308172985636 201.96099999999998
12.24873485024193 203.352
12.271179492516982 171.793
12.293607112949127 131.998
12.316052700916226 96.3984
12.338498763250042 78.0742
12.360927805303868 69.9408
12.383374818673879 67.4132
12.405804812803074 66.0239
12.428252780773262 65.9615
12.45070122756722 65.9787
12.473132656675375 65.8164
12.49558206341869 65.9446
12.518014453510101 66.0295
12.540464823770117 66.1525
12.562915677315177 66.2246
12.58534951575545 67.1498
12.607801338171472 67.9936
12.630236146511358 70.551
12.652688941369085 72.9663
12.675124723177234 73.4424
12.697578494048786 72.1791
12.720032754458185 69.9715
12.742470003354093 69.4593
12.764925245138771 69.5927
12.787363476431278 69.8526
12.809819703166806 70.1695
12.83227642391173 70.982
12.854716135692716 71.7254
12.877173846755147 73.0687
12.899614549869717 73.2421
12.9220732548287 74.1767
12.94453245827299 74.9028
12.966974655289818 75.7722
12.989434858002571 76.7075
13.011878055298721 77.6043
13.034339260862497 78.3351
13.056800969391883 79.9603
13.079245674017244 83.0918
13.101708390774869 88.6304
13.12415410463411 100.266
13.146617833206086 114.46600000000001
13.169064559883248 128.463
13.191529303857127 145.16299999999998
13.213994557076367 168.64700000000002
13.236442809902437 203.012
13.258909083908291 246.42
13.28135835851934 294.082
13.30382565690295 350.82599999999996
13.326293469022952 399.949
13.348744283242008 420.342
13.371213125129904 369.778
13.39366497011003 277.855
13.416134845360597 186.946
13.438605238843131 133.187
13.46105863690397 116.557
13.483530069144786 118.485
13.505984506951902 125.696
13.528456981549432 137.344
13.550929978879088 152.46
13.573385983253365 175.108
13.595860028340867 206.047
13.618317081455832 244.608
13.64079217790333 288.504
13.663250283359057 330.931
13.685726434770173 360.50199999999995
13.708203115221277 344.13800000000003
13.730662806148091 276.267
13.75314054697177 199.16299999999998
13.775601299246777 135.063
13.798080104050406 101.902
13.820559442405358 88.5095
13.843021793671388 84.3969
13.865502201420897 82.3813
13.887965623051947 81.8444
13.910447103807167 80.7708
13.932929122629764 79.3845
13.955394156785959 79.0342
13.977877254034569 78.1213
14.000343367582113 77.2554
14.022827546871707 76.4473
14.045294743423524 75.8785
14.06778000837062 74.9918
14.090265817715476 74.6718
14.112734645763819 74.5203
14.13522154619454 74.1641
14.157691466286913 74.0053
14.180179461423874 73.6671
14.202668005486178 73.0965
14.22513957064374 72.8945
14.247629214846473 72.2764
14.270101881097517 71.9697
14.29259262906496 72.1932
14.315083930490205 72.5035
14.337558255389705 72.4717
14.360050666019726 72.4562
14.382526101071944 71.7311
14.405019624534942 71.2566
14.427513705993134 70.9208
14.449990813291825 70.8775
14.47248601302899 70.6063
14.49496423954951 70.749
14.517460561197822 70.7616
14.539939910570322 70.6661
14.562437357763558 70.9915
14.58493536931253 71.8521
14.607416409993311 72.2871
14.62991555254159 72.827
14.652397725157423 72.8824
14.674898002342799 72.8368
14.697398848433282 72.962
14.719882725991326 74.5144
14.74238471217934 76.9637
14.764869730765593 81.94
14.787372860692983 86.5511
14.809876564079925 91.7484
14.83236330125751 98.5009
14.854868153850365 107.473
14.877356041159485 120.381
14.899862046604186 135.63
14.922351087688757 155.134
14.944858249632887 177.21900000000002
14.967365991421232 199.981
14.989856770231246 217.572
15.012365673994204 217.27200000000002
15.03485761569738 194.549
15.05736768508665 152.869
15.07987833888692 119.402
15.102372032001655 93.7696
15.124883856909658 79.4566
15.14737872204565 74.6087
15.169891721717274 72.5778
15.192405310371893 72.2713
15.214901940621196 72.0925
15.237416709527137 71.7435
15.259914520936249 71.7152
15.282430473753607 70.9413
15.304947020131227 70.1925
15.327446610371178 69.4226
15.349964346154254 68.9091
15.372465126703139 68.5954
15.394984055556009 68.2998
15.417486030076159 68.3334
15.44000615566487 67.9134
15.462526881230803 67.8176
15.485030653812652 67.8889
15.507552581617434 67.7833
15.530057557334603 67.8666
15.55258069104857 67.9489
15.575104429329837 68.1071
15.597611216864632 68.0771
15.620136166564563 68.8739
15.6426441664095 71.2114
15.665170331202765 75.3002
15.687697105158826 78.8793
15.710206930593545 83.0828
15.732734925158933 87.84
15.755245972089478 94.2061
15.77777519094324 103.40100000000001
15.800287463046663 114.742
15.822817909869592 129.311
15.84534897229804 144.91
15.867863089299354 164.077
15.890395385222186 180.945
15.912910736597423 192.771
15.935444269699861 187.388
15.957978423016485 162.256
15.980495633101265 130.852
16.003031029129367 101.448
16.02554948280019 80.3128
16.048086125229432 69.7671
16.070623392487107 66.2869
16.09314371869582 65.1639
16.11568223789321 64.2502
16.13820381691126 63.2501
16.160743591742527 62.6837
16.183283996022084 61.9616
16.205807461423195 61.1439
16.228349126881973 60.6731
16.25087385432698 60.5153
16.27341678466365 59.8543
16.29594277784926 59.7557
16.31848697676433 59.5897
16.341031811604868 59.5288
16.36355971058487 59.2747
16.3861058195587 59.191
16.40863499352978 58.5102
16.431182380342005 57.9676
16.453730407713202 57.6622
16.476261501364792 57.2276
16.498810812136167 57.022
16.52134319004079 57.1555
16.54389378792203 56.922
16.566445031001553 56.8814
16.588979342490088 56.8129
16.61153187824822 56.6285
16.634067483263312 56.5411
16.656621315414416 56.3153
16.679175797408888 56.0924
16.701713349928728 56.2735
16.72426913389191 56.333
16.74680798922351 56.2799
16.76936507887444 56.2353
16.791905240734874 56.2477
16.814463639794468 56.4007
16.837022695210294 56.2426
16.859564824093756 56.538999999999994
16.882125194503903 56.8631
16.904668639217885 57.343
16.927230328348003 57.1691
16.949792678493612 57.442
16.972338104193863 57.3305
16.994901778652235 56.8567
17.017448529496576 57.2875
17.040013531998152 57.9359
17.06257920018044 58.6833
17.0851279459922 59.6501
17.107694947817667 60.3582
17.130245028099072 61.4337
17.15281336730298 62.7726
17.17536478578733 64.5147
17.19793446610687 66.8868
17.220504818648422 69.47
17.243058251703697 71.5366
17.265629950971032 75.208
17.288184731571736 78.8219
17.310757781306908 82.6925
17.33333150794385 84.6655
17.355888317140174 83.8399
17.37846339986244 79.6412
17.401021565958885 73.3119
17.42359800851343 68.0405
17.44617513265564 64.1962
17.468735341390783 61.7551
17.491261035594565 60.8126
17.51396340099364 60.613
17.536490463869136 60.9322
17.559018209820174 60.9405
17.58154663977963 60.9876
17.604251766089718 61.2965
17.626781572227713 61.4111
17.64931206518155 61.5575
17.671843245885103 61.9283
17.69455114821572 62.1884
17.717083712612634 62.3863
17.739616967569667 62.7942
17.762150914021706 63.3316
17.78486160749854 63.4131
17.807396945166804 64.592
17.829932977143503 66.2441
17.85246970436452 68.6172
17.875183204129467 70.6319
17.897721330097664 73.03699999999999
17.920260154126645 75.8076
17.942799677153296 79.2879
17.9655159983646 82.8867
17.988056927677544 88.2605
18.010598558807683 94.8152
18.033140892692916 102.40700000000001
18.05586005052525 110.48299999999999
18.07840379824407 120.26700000000001
18.10094825154059 130.241
18.12366954819864 140.009
18.146215420998306 143.023
18.16876200220057 136.938
18.191309292745153 124.37799999999999
18.214033452627167 110.84200000000001
18.236582170236648 97.3075
18.259131600016456 90.8544
18.281681742907335 89.3766
18.304408781233683 91.975
18.32696035875955 95.3956
18.349512652227624 99.3073
18.372065662579683 104.04899999999999
18.394795594587553 106.10700000000001
18.41735004715306 104.54899999999999
18.43990521943684 98.0501
18.46246111238171 89.1501
18.485193953325208 79.0976
18.507751296070428 71.7898
18.530309362314178 67.5325
18.552868153000343 65.225
18.57560391815056 63.8398
18.59816416623245 63.534
18.620725141597372 63.1218
18.643286845190268 62.4411
18.666025549835414 62.0883
18.688588718427933 61.533
18.711152618092243 61.2576
18.73389353884365 60.8703
18.75645890921984 60.6138
18.77902501351406 60.4787
18.801591852673102 60.3341
18.824335739722738 59.7182
18.846904057212626 59.673
18.8694731124168 59.4706
18.89204290628315 59.4359
18.914789774966803 59.2597
18.937361054791623 58.8616
18.959933076131318 58.5597
18.982505839934877 58.5099
19.00525570560582 58.6195
19.027829963004184 58.5575
19.05040496572238 58.7506
19.072980714710468 58.9318
19.095733592739563 59.1112
19.11831084296757 59.5722
19.140888842324735 59.9778
19.16346759176222 60.2858
19.18622349753803 60.8632
19.208803755869358 61.9119
19.231384767143577 62.8524
19.253966532312948 64.3613
19.276725481241822 66.0092
19.29930876296784 67.6016
19.3218928014549 69.9557
19.34465404436217 72.5333
19.36723960516257 74.6505
19.389825925592426 77.0377
19.412413006605938 76.6863
19.43517731967805 74.3911
19.457765930683355 70.205
19.48035530514408 65.8145
19.50294544401556 61.4796
19.525712842708348 58.5736
19.54830451925909 56.8257
19.570896963095727 55.6873
19.593490175174704 55.4211
19.616260674962184 55.4652
19.638855432416964 55.1178
19.661450960992624 55.2554
19.68404726164677 55.1863
19.706820878021247 54.8207
19.729418731756834 55.1688
19.752017360452857 55.0521
19.77461676506804 55.3478
19.797393513540218 55.4349
19.819994478951667 55.8308
19.84259622316767 56.3506
19.8651987471481 57.0569
19.887978643247177 57.1418
19.91058273574792 57.7038
19.933187610901943 58.4535
19.955969879466828 59.5421
19.97857632894404 61.2575
20.00118356396599 62.5843
20.023791585494575 64.268
20.046577028914875 66.222
20.069186632506966 68.0851
20.091797025500632 70.1154
20.114408208858933 71.3848
20.137196842715273 71.925
20.159809615886765 70.9542
20.18242318232135 68.2511
20.20503754298326 65.9417
20.227829382875154 64.2488
20.250445341109344 63.5549
20.27306209647285 63.6852
20.29567964993108 64.3891
20.31847471147704 65.4611
20.34109387027612 66.4725
20.363713830075454 67.0022
20.386334591841646 65.9046
20.409132890679302 63.5881
20.431755265564437 60.4167
20.454378445325528 57.4302
20.477002430930366 55.0225
20.499803982716553 53.6381
20.522429589228004 52.5398
20.54505600449589 52.2531
20.567683229489194 52.2157
20.590488049900088 51.8084
20.61311690359731 51.6328
20.63574656993626 51.3808
20.658553853717297 51.0023
20.681185154618298 51.089
20.703817271080066 50.9073
20.72645020407368 50.5926
20.749260783967177 50.6062
20.771895359337133 50.5454
20.794530754161617 50.2989
20.817166969412938 50.1601
20.83998086114876 50.0869
20.86261872660049 50.1017
20.885257415405402 50.2678
20.90789692853701 50.0862
20.930714147864748 50.2308
20.953355319030678 50.0041
20.97599731745334 50.2851
20.99864014410749 50.0781
21.021460706796564 50.2882
21.044105199328826 50.3509
21.06675052302631 50.6793
21.089396678865015 50.7251
21.112220600704806 51.0232
21.134868430275347 51.2116
21.15751709492456 51.603
21.180166595629693 51.6773
21.202993892429635 51.9968
21.22564507473034 52.5076
21.24829709602816 52.7935
21.27112693608965 52.9115
21.293780644891275 53.0536
21.316435195634053 52.3263
21.339090589297417 51.6935
21.361923832041875 51.188
21.384580921090404 50.4112
21.407238856007325 49.9611
21.429897637773326 49.873000000000005
21.45273429906592 49.876999999999995
21.475394784108598 49.8507
21.498056118951983 50.0016
21.520718304578022 50.1471
21.543558400304388 50.3935
21.566222297108816 50.6797
21.58888704765135 50.8186
21.61155265291521 51.1648
21.63439619898156 51.5856
21.657063523335786 51.9145
21.67973170537063 52.3946
21.7024007460706 52.9403
21.72524775840385 53.7301
21.747918526116475 54.7252
21.770590155457388 55.8722
21.79326264741238 57.2384
21.816113141960237 58.615
21.838787368860547 60.077
21.861462461341976 61.5728
21.884315579735777 63.3432
21.90699241312273 64.9461
21.92967011506078 66.0528
21.95234868653799 66.3724
21.9752053151131 65.2988
21.997885635446785 63.5725
22.020566828293532 61.5143
22.04324889464272 59.2987
22.066109049404666 57.551
22.088792872571794 57.1036
22.111477572219204 57.1901
22.1341631493376 57.2892
22.157026846313123 57.2829
22.179714188221507 57.0867
22.202402410582668 55.9352
22.22509151438863 54.4239
22.24795876962584 53.1599
22.270649646204486 52.1195
22.293341407213727 51.1473
22.316034053646906 50.7644
22.338904883215342 50.5058
22.36159931041458 50.2512
22.38429462602756 50.2225
22.40699083104897 50.0413
22.429865251039757 50.1711
22.452563244831367 50.1015
22.47526213102522 50.1045
22.49813925616515 50.1265
22.520839937143307 50.1141
22.543541513520587 49.9362
22.56624398629403 49.7785
22.589124730075895 50.0576
22.611829005656723 50.3417
22.63453418063466 50.3406
22.657240256008077 50.8219
22.680124634582935 50.9033
22.70283252079775 51.101000000000006
22.725541310413075 51.4013
22.74825100442868 51.5305
22.771139033969575 51.9805
22.79385054687155 52.2174
22.81656296718292 52.7613
22.83927629590484 53.6206
22.862167992606945 54.4465
22.88488314827121 55.2983
22.907599215359284 56.0522
22.93031619487366 56.965
22.953211574954405 57.8093
22.975930389478226 58.9001
22.998650119445763 59.3787
23.02137076586092 58.8275
23.044269845560063 57.9143
23.06699233506288 56.2587
23.089715744034912 54.2601
23.112617610931565 52.7909
23.135342869061212 51.5129
23.158069049684816 50.8279
23.1807961538087 50.3436
23.20370174880544 50.2299
23.226430710184808 50.3438
23.249160598093425 50.6091
23.271891413539002 50.6274
23.294800752937697 50.5863
23.31753343374794 50.8325
23.340267045128353 50.9617
23.36300158808808 51.3277
23.38591468821339 51.7278
23.408651104658304 52.0954
23.431388455719986 52.5581
23.454126742409 53.4445
23.4770436196085 54.1554
23.499783787914662 55.1542
23.522524894889884 55.5921
23.54526694154616 56.5268
23.56818761219047 57.4899
23.59093154860734 58.2678
23.613676427751283 59.0723
23.636422250635754 58.6145
23.659346731118656 57.3299
23.68209445191868 55.6273
23.704843119509587 53.312
23.72759273490623 51.3326
23.750521041644767 49.8183
23.77327256312355 48.5803
23.796025035462787 47.9926
23.818956224555475 47.4329
23.841710609113413 47.3359
23.86446594758979 46.9838
23.887222241002014 46.8542
23.910157285144578 46.4306
23.932915498962537 46.5052
23.955674670778713 46.3349
23.978434801611975 46.1015
24.001373717286125 46.052
24.024135776723917 45.9472
24.046898798245582 45.7489
24.06966278287146 45.7537
24.092605586582614 45.5285
24.115371508023642 45.3463
24.1381383956401 45.1368
24.16090625045381 45.1033
24.183852958731244 45.0226
24.206622758582608 44.9521
24.229393528706886 44.7575
24.252165270127392 44.8294
24.27511589952438 44.8503
24.297889594216997 44.7719
24.32066426328598 44.5117
24.34343990775613 44.5205
24.36639447485003 44.2566
24.38917208083877 44.2786
24.41195066531332 44.3242
24.43490819850244 44.4206
24.457688750692377 44.1527
24.48047028445616 44.1981
24.503252800821233 44.3037
24.526214300784112 44.2328
24.548998793132213 44.3396
24.57178427117417 44.1243
24.59457073593893 44.1769
24.617536219319863 44.0645
24.64032466834748 44.1192
24.663114107195035 44.0571
24.685904536893013 43.744
24.708874020360852 43.6689
24.731666442613744 43.6711
24.754459858818787 43.588
24.777254270007962 43.5794
24.80022777025625 43.4127
24.82302418230472 43.4092
24.845821592443674 43.5646
24.86862000170663 43.5517
24.891597535453727 43.338
24.914397953892728 43.4488
24.93719937456671 43.5569
24.96000179851076 43.6901
24.98298338249997 44.0192
25.00578782394922 44.0484
25.028593271784167 44.1339
25.05157790644186 44.483000000000004
25.07438537804115 44.6113
25.097193859145293 44.7719
25.120003350792075 44.9286
25.142992065061257 45.2595
25.165803588823465 45.6909
25.18861612625217 45.919
25.211429678386736 45.9002
25.234422489079968 45.9509
25.257238081693636 45.8245
25.280054692141732 45.8795
25.3028723214652 45.7733
25.325869245420463 45.8146
25.348688923599397 45.973
25.371509623787006 46.0679
25.394331347025812 45.8204
25.41733240110666 45.5149
25.440156181590016 44.9023
25.46298098826268 44.324
25.48580682216873 43.7729
25.50881202326435 43.132
25.53163992281684 42.7182
25.55446885274561 42.4696
25.577298814096377 42.1701
25.600308179121807 41.8942
25.623140214533745 41.9699
25.64597328451537 41.882
25.66898578564376 41.7556
25.691820936010206 41.7375
25.714657124097695 41.5741
25.737494350954734 41.744
25.760511045684957 41.5733
25.783350361364224 41.6688
25.806190718969255 41.6467
25.82903211955018 41.8225
25.852053024868923 41.8905
25.874896522722523 41.776
25.897741066713106 41.8255
25.920586657892454 42.0438
25.943611790812668 42.0972
25.966459487728237 42.073
25.989308234998564 42.0978
26.01215803367705 42.3766
26.03518741123814 42.5008
26.05803932412957 42.6204
26.080892291600094 42.6903
26.10374631470478 42.7377
26.12677995397268 42.8377
26.14963609978026 42.8454
26.172493304397875 42.5045
26.19535156888223 42.3111
26.218389486949604 42.1119
26.241249882640123 41.8725
26.26411134137826 41.4717
26.28715248187403 41.4806
26.31001607820869 41.3453
26.3328807407756 41.1545
26.35574647063438 41.3589
26.37879191991473 41.2106
26.401659795896734 41.2425
26.424528742360263 41.5389
26.447398760366614 41.6602
26.470448535598294 41.7358
26.49332070826805 42.0092
26.516193955675355 42.3441
26.53906827888316 42.3354
26.562122397260108 42.4858
26.584998883685063 42.6945
26.607876449110325 42.9844
26.63075509460056 43.1677
26.65381357334404 43.2172
26.67669439061878 43.3169
26.699576291163382 43.2262
26.722459276044212 43.1144
26.745522132402975 42.8505
26.768407297649354 42.5581
26.791293550442003 42.1295
26.814180891848974 41.9461
26.837248143099337 41.5402
26.860137673466657 41.5074
26.88302829566349 41.4173
26.90592001075963 41.1108
26.92899167420566 41.0497
26.951885586870763 40.669000000000004
26.974780595655517 40.4087
26.99785558178161 40.3817
27.020752794605112 40.2817
27.043651106772522 39.941
27.06655051935668 39.9795
27.089629948036183 39.8617
27.112531573292053 39.7385
27.135434302194138 39.8397
27.158338135817015 39.7612
27.181422024430987 39.6516
27.204328079372566 39.6003
27.22723524226965 39.6673
27.250143514198573 39.6657
27.273231880156334 39.733000000000004
27.296142382065014 39.5344
27.319053996245536 39.443000000000005
27.341966723775965 39.548
27.365059584515222 39.5665
27.38797455070062 39.6422
27.410890633481237 39.6461
27.433807833936918 39.5284
27.456905206923906 39.5524
27.47982465472398 39.4181
27.502745223449743 39.5162
27.525666914182825 39.7334
27.548768816912457 39.7685
27.571692763693633 39.5938
27.59461783573812 39.4004
27.617723149491244 39.3308
27.640650484125285 39.1564
27.66357894728264 39.2147
27.686508540048052 39.2135
27.709618414237887 39.086999999999996
27.732550278321757 39.0178
27.755483275279115 39.0016
27.778417406196485 38.9502
27.801531858397514 38.9782
27.824468269376716 38.918
27.847405817586786 38.8914
27.870344504116094 39.0929
27.893463551932008 39.2141
27.916404527281053 39.3374
27.93934664422563 39.3191
27.962289903855886 39.4202
27.98541356491974 39.6938
28.00835912214229 39.733000000000004
28.03130582533231 40.0077
28.054253675581805 40.165
28.077381967556104 40.0577
28.100332124185126 40.2071
28.123283431160893 40.0949
28.146235889577238 39.9771
28.169368830154156 39.7276
28.192323603752033 39.4895
28.215279532083304 39.2047
28.238415973016764 38.999
28.261374223145094 38.7758
28.284333631303806 38.641999999999996
28.307294198589954 38.5313
28.330435319167677 38.1485
28.353398217078915 37.9345
28.376362277420153 37.7155
28.39932750129032 37.6846
28.422473319286713 37.3912
28.44544088262495 37.3818
28.468409612800283 37.225
28.491379510913497 37.0523
28.51453004413313 36.9892
28.53750229057244 37.0189
28.56047570826344 36.9024
28.583450298308804 36.8541
28.606605564586562 36.6268
28.629582511831156 36.7683
28.65256063474956 36.7249
28.675539934446338 36.6376
28.698699951647605 36.5151
28.72168161743193 36.4355
28.74466446331978 36.4606
28.767648490417624 36.4659
28.790813276438353 36.4218
28.813799678527303 36.4014
28.836787265157085 36.3242
28.859955641890075 36.3061
28.882945610203045 36.2366
28.905936766392035 36.1948
28.928929111566863 36.2639
28.952102288520145 36.2496
28.975097024308607 36.1226
28.998092952423807 36.034
29.021090073977508 35.9672
29.04426806913204 35.7435
29.067267590245258 35.6873
29.090268308143695 35.599000000000004
29.11327022394099 35.5846
29.13645305530891 35.3396
29.159457379627167 35.349000000000004
29.18246290519685 35.2881
29.20546963313352 35.2975
29.22865731875826 35.2736
29.25166646419296 35.2578
29.27467681535305 35.1487
29.29768837335608 35.1748
29.320880931312562 35.0893
29.34389491580634 35.1149
29.366910110507334 35.0855
29.38992651653503 35.1102
29.41312396492981 35.168
29.436142806456754 35.209
29.45916286268059 34.9165
29.48236399319994 34.9647
29.50538649169417 34.8425
29.528410208259935 34.7756
29.55143514402014 34.3975
29.574641196749695 34.3327
29.597668583816574 34.1344
29.6206971934585 33.9678
29.64372702680042 34.1084
29.666938019934474 33.9356
29.689970313635285 33.9268
29.713003834422636 33.8962
29.73603858342347 33.8894
29.759254535188578 33.7814
29.78229175361658 33.7989
29.80533020365064 33.7204
29.82836988641968 33.7794
29.85159081507472 33.658
29.874632976355343 33.6157
29.89767637376955 33.6165
29.920721008448314 33.4795
29.9439469322847 33.4912
29.96699405457564 33.4796
29.9900424175358 33.5968
30.013092022298157 33.3535
30.03632295963995 33.2698
30.059375061131373 33.3472
30.08242840783577 33.4039
30.105483000888153 33.3138
30.128718970092244 33.225
30.151776069006917 33.2955
30.17483441768648 33.3087
30.198074175317235 33.2549
30.221135036724256 33.2807
30.24419715131772 33.2795
30.267260520236203 33.0658
30.290505341942243 33.2013
30.313571232750228 33.2642
30.336638381310948 33.1881
30.35970678876503 33.173
30.38295669299435 33.0856
30.40602763151657 33.0534
30.429099832366074 32.976
30.452173296685572 32.8975
30.47542830191959 32.9168
30.498504306502497 32.8807
30.521581577995562 33.0406
30.544660117543582 33.066
30.56792024229725 33.0508
30.59100133132069 33.0318
30.614083691845494 32.934
30.637167325018545 33.0197
30.660432587840603 33.0451
30.683518779717886 32.9555
30.70660624769615 33.1206
30.729694992924372 33.0491
30.75296541239743 33.0958
30.77605672557558 32.9198
30.799149319462742 32.9406
30.8224236211637 32.8724
30.845518789950724 32.7826
30.868615242910597 32.6591
30.891712981195973 32.6077
30.91499247215866 32.5561
30.938092794619365 32.4365
30.96119440587579 32.505
30.984297307082752 32.3643
31.00758200598383 32.2437
31.030687500658694 32.0874
31.053794288760695 32.0025
31.076902371446767 31.9453
31.100192296997445 31.9528
31.12330298246119 31.816999999999997
31.14641496599209 31.8156
31.169528248749216 31.7403
31.19282341969534 31.8367
31.215939314557186 31.7471
31.239056512134788 31.7818
31.262175013589378 31.7659
31.28547544871168 31.7192
31.30859657161541 31.6875
31.331719001892175 31.7515
31.35484274070538 31.7745
31.378148458819545 31.6943
31.401274828443725 31.6775
31.424402510106933 31.7407
31.447712205419993 31.7831
31.470842524931633 31.5517
31.493974159989783 31.6727
31.51710711176168 31.5975
31.54042212308802 31.6739
31.563557722100917 31.5664
31.586694641341655 31.4383
31.609832881979628 31.3613
31.63315322823208 31.331999999999997
31.656294125521327 31.1729
31.679436347728515 31.0884
31.70257989602529 31.1159
31.725905596152327 30.9479
31.74905181052835 30.9069
31.772199354521323 30.9612
31.79534822930507 30.9191
31.818679302290967 30.9692
31.84183085259981 30.9774
31.864983737233473 30.939
31.88813795736804 31.0106
31.911474422233013 30.8123
31.934631327356435 30.8635
31.9577895715215 30.8864
31.980949155906522 30.9109
32.004291031706956 30.8459
32.027453310562606 30.8118
32.05061693318573 30.656999999999996
32.07396288236386 30.6128
32.09712920658542 30.5549
32.12029687812702 30.4534
32.14346589817093 30.3354
32.166817291729984 30.3534
32.18998902288583 30.2584
32.21316210610336 30.2197
32.23633654256711 30.074
32.259693399663725 30.0617
32.282870556771144 29.9487
32.30604907069099 30.0186
32.329228942610065 29.8564
32.35259128243769 29.8086
32.375773884550505 29.7166
32.398957848235646 29.7559
32.422143174682176 29.64
32.445511016471215 29.6178
32.468699082679954 29.6383
32.49188851523011 29.444000000000003
32.51507931531304 29.4031
32.538452678331 29.4447
32.56164622776311 29.2563
32.58484114831493 29.2415
32.60803744118015 29.2109
32.631416344731896 29.2871
32.654615396551876 29.2865
32.67781582427913 29.1973
32.701198898634416 29.0787
32.72440209253756 29.0702
32.747606665947124 28.9873
32.77081262006088 28.807
32.79420126883317 28.921999999999997
32.81740999876112 28.9591
32.840620112999424 28.7963
32.86383161274818 28.7583
32.88722585534586 28.7803
32.91044014056596 28.8233
32.933655814909734 28.7983
32.95687287957963 28.746
32.98027273544904 28.6813
33.00349259526636 28.5707
33.026713849030116 28.7092
33.04993649794511 28.6374
33.073341986570746 28.4872
33.09656744032826 28.5287
33.11979429286444 28.5386
33.14302254538647 28.5375
33.166433686291185 28.4487
33.18966475336992 28.4065
33.212897224069096 28.3758
33.23613109959831 28.3079
33.259547912343415 28.2772
33.2827846121627 28.3243
33.306022720453775 28.2892
33.32926223842861 28.1061
33.352684742614166 28.1016
33.37592709463173 28.1534
33.399170859982064 28.0752
33.422597648419426 27.9391
33.44584425514446 27.7984
33.46909227885668 27.8415
33.4923417207723 27.7843
33.51577423505344 27.8015
33.539026528130385 27.7311
33.56228024307245 27.6078
33.585535381098246 27.5517
33.60897364093058 27.5138
33.63223163992385 27.4391
33.6554910656699 27.4245
33.678751919389796 27.3997
33.702195944520106 27.3834
33.72545966903325 27.24
33.74872482519663 27.2448
33.771991414233746 27.2601
33.79544122444841 27.1916
33.81871069412428 27.1043
33.84198160035767 27.013
33.86525394437455 27.0557
33.88870955949969 27.0146
33.911984794020626 27.0352
33.93526147001624 26.9393
33.958539588715006 26.944000000000003
33.98200102861669 26.8161
34.0052820477047 26.6934
34.02856451319451 26.7906
34.05203033759056 26.7323
34.07531571090147 26.6779
34.09860253431845 26.5563
34.121890809074316 26.5035
34.145362493118924 26.5555
34.16865368561615 26.5865
34.191946333164054 26.4544
34.21524043699793 26.4137
34.23871800066799 26.4431
34.26201503218366 26.2998
34.28531352370466 26.368000000000002
34.30861347646881 26.1698
34.33209693978188 26.1996
34.3553998301885 26.2887
34.378704185565205 26.1364
34.402010007152356 26.0423
34.42549939016683 26.0443
34.44880815937748 25.9645
34.472118398533134 26.0349
34.49543010887669 26.02
34.51892543169198 25.8689
34.54224009966052 25.8216
34.56555624255917 25.8688
34.58887386163339 25.7593
34.61237514439016 25.6779
34.6356957311114 25.705
34.65901779775809 25.6191
34.68252356662995 25.584
34.705848608458616 25.5413
34.72917513396849 25.5069
34.75250314440949 25.5394
34.77601490857862 25.4111
34.799345904259795 25.3215
34.82267838863559 25.3556
34.846012362958525 25.3327
34.869530142679984 25.3276
34.89286711232212 25.2296
34.91620557568269 25.2092
34.93954553401677 25.1994
34.9630693495876 25.1966
34.986412313340814 25.1728
35.00975677584668 25.1009
35.033102738362956 25.0628
35.05663261012228 25.0263
35.0799815881786 25.0417
35.10333207003229 24.9825
35.12668405694369 24.9359
35.150220005273056 24.8938
35.17357501786656 24.901
35.19693153931268 24.8848
35.220289570874385 24.8329
35.24383161619786 24.8363
35.267192683604904 24.7728
35.290555264930376 24.7793
35.314101899412165 24.6889
35.33746752422433 24.6557
35.36083466676374 24.6955
35.38420332829803 24.6046
35.407756095629054 24.7168
35.43112781085063 24.5629
35.45450104888391 24.5633
35.477875810999194 24.6175
35.50143473172161 24.5073
35.52481255774625 24.5551
35.54819191167777 24.4288
35.57157279478914 24.4079
35.595137889488406 24.3504
35.61852184675279 24.3507
35.641907337029984 24.288
35.665294361595684 24.1619
35.68886565090076 24.1841
35.7122557598848 24.182
35.73564740699838 24.1479
35.759040593519934 24.0705
35.78261809810353 24.12
35.80601437933051 23.9353
35.829412203814705 23.9347
35.85281157283719 23.8278
35.876395313415884 23.8662
35.8997977874528 23.7505
35.92320180988546 23.7775
35.946790244133936 23.6589
35.97019737933222 23.7469
35.993606066789866 23.6902
36.01701630779276 23.6285
36.04061101440684 23.6089
36.06402437852291 23.6041
36.08743930005611 23.5522
36.1108557802951 23.5196
36.13445678011326 23.511
36.15787639383515 23.432
36.18129757014299 23.3866
36.20472031032821 23.3157
36.22832762423364 23.2681
36.25175350829375 23.3041
36.275180960119776 23.2309
36.298609981005924 23.2473
36.32222362992669 23.2514
36.34565580510207 23.1949
36.36908955323448 23.1211
36.39252487562093 23.0401
36.416144880530226 23.0876
36.43958336764275 23.0245
36.463023432914625 23.0137
36.486465077645676 22.9009
36.51009145956204 23.0149
36.53353627947859 23.016
36.55698268276811 22.9959
36.58043067073321 22.8604
36.60406345072071 22.8019
36.62751462435344 22.7672
36.65096738658405 22.7557
36.67460498210655 22.7473
36.69806093788647 22.7482
36.72151848619297 22.6032
36.744977628333636 22.6738
36.76862165890998 22.5284
36.79208400512205 22.5529
36.81554794910557 22.6001
36.83901349217101 22.4247
36.862663978991606 22.3718
36.88613273667352 22.3631
36.90960309738324 22.3821
36.933075062434064 22.3497
36.95673202673572 22.2808
36.98020721697122 22.2135
37.003684015502365 22.1579
37.027162423645365 22.1619
37.050825886711465 22.2382
37.07430753063053 22.0847
37.09779078812467 22.0753
37.121275660513014 21.9993
37.144945643673694 21.9848
37.16843376245278 21.9078
37.19192350009803 21.9474
37.215414857931435 21.8908
37.239091382563885 21.9436
37.262585997426164 21.8734
37.28608223645736 21.7916
37.309763684451696 21.7845
37.33326318851098 21.7433
37.356764320726555 21.7183
37.380267082425526 21.6968
37.40395510942588 21.7115
37.42746114683234 21.5862
37.45096881771841 21.5575
37.474478123414166 21.5384
37.49817275092816 21.5066
37.52168534303452 21.4656
37.54519957395567 21.3995
37.568715445024665 21.4229
37.592416694607714 21.3441
37.61593586281424 21.3612
37.63945667518264 21.3487
37.66297913304891 21.2815
37.68668702630454 21.2572
37.710212792059274 21.2011
37.733740207334854 21.1898
37.757269273470364 21.1201
37.780983832050374 21.1094
37.80451621684926 21.045
37.82805025654007 21.0044
37.851585952464795 21.0608
37.8753071980695 20.936999999999998
37.89884622345676 20.9228
37.92238690911902 20.866999999999997
37.94611318753442 20.7772
37.969657210779765 20.7563
37.99320289834801 20.7829
38.016750251586465 20.7611
38.04048325513017 20.7693
38.06403395679343 20.7115
38.087586328183946 20.6478
38.11114037065203 20.6049
38.13488012115898 20.6648
38.1584375229181 20.5597
38.181996599821 20.5374
38.205557353221124 20.5317
38.229303872575656 20.4463
38.2528679961576 20.3823
38.27643380031219 20.3851
38.30000128639589 20.3737
38.32375459653193 20.3047
38.34732546371299 20.3714
38.37089801690786 20.2248
38.39447225747609 20.1296
38.418232380377425 20.1607
38.441810012983396 20.1718
38.46538933705673 20.1444
38.488970353960084 20.1495
38.51273731166058 20.0527
38.536321731567014 20.0087
38.55990784840681 20.0218
38.58367995004091 20.0156
38.60726947812959 19.9702
38.63086070726198 19.8723
38.654453638806274 19.9134
38.678232613930824 19.8572
38.70182896773327 19.7671
38.72542702806741 19.8291
38.7490267963045 19.7436
38.77281266709232 19.7562
38.79641586862214 19.7164
38.8200207821842 19.6656
38.843627409152944 19.6685
38.86742019782782 19.6052
38.891030269149255 19.5443
38.914642058016156 19.5621
38.938255565806124 19.4531
38.96205529464307 19.41
38.98567225787121 19.4589
39.00929094417078 19.4061
39.03291135492255 19.4023
39.05671804624804 19.3482
39.080341923549106 19.3212
39.103967529460334 19.2949
39.127594865365744 19.201
39.15140854155791 19.2102
39.17503935514948 19.2284
39.19867190290282 19.1826
39.22249083587951 19.2091
39.24612686969409 19.1261
39.269764641845306 19.0812
39.293404153722804 19.0499
39.317230110864074 18.9389
39.34087311998506 18.9594
39.36451787301696 18.977999999999998
39.388164371352595 18.8968
39.41199737518003 18.8071
39.43564738196752 18.8645
39.45929913825317 18.7873
39.48295264543308 18.7567
39.506792718520884 18.8171
39.530449745387216 18.7286
39.55410852735203 18.7201
39.57776906581474 18.7037
39.60161623079 18.6415
39.625280300200025 18.6005
39.64894613032202 18.5871
39.67261372255866 18.5842
39.6964680021016 18.5534
39.72013913657293 18.5318
39.74381203738292 18.5274
39.76748670593756 18.4449
39.79134812278169 18.4102
39.81502634488497 18.4232
39.83870633896685 18.3275
39.862388106436654 18.3092
39.88625668336918 18.3193
39.90994201572829 18.2931
39.933629125719285 18.262999999999998
39.957503091207826 18.2264
39.9811937746168 18.230999999999998
40.00488623990914 18.1656
40.02858048850006 18.1563
40.05246165409549 18.1406
40.076159487492085 18.0571
40.099859108448875 18.0108
40.123560518384345 18.0377
40.1474489070226 17.9621
40.171153913178564 17.9516
40.194860712584955 17.9376
40.2185693066637 17.8682
40.242464941335314 17.7944
40.26617714307655 17.8192
40.289891143772046 17.8535
40.3136069448471 17.768
40.33750984859743 17.7391
40.3612292688043 17.7313
40.3849504936829 17.7462
40.40867352466194 17.7046
40.43258372059144 17.6376
40.45631038219906 17.6499
40.48003885420956 17.6192
40.503769138055105 17.6401
40.52768664931955 17.5609
40.55142057531802 17.5458
40.57515631746428 17.5011
40.599079334038514 17.4635
40.62281872700477 17.3735
40.64655994043941 17.3797
40.67030297578061 17.4004
40.69423334835778 17.3697
40.71798004609188 17.3057
40.74172857006355 17.255
40.76547892171441 17.2252
40.7894166736039 17.1907
40.813170699248566 17.1864
40.83692655691388 17.1334
40.86068424804498 17.1917
40.884629402612525 17.1223
40.908390779366385 17.0809
40.932153993938 17.0598
40.95591904777605 16.9964
40.979871628443995 17.0232
41.003640379561936 17.0228
41.02741097430883 16.9666
41.05118341413683 16.9106
41.075143444384416 16.9045
41.098919593177826 16.9143
41.1226975914255 16.8979
41.14647744058318 16.8019
41.170444943946755 16.7957
41.19422851378379 16.7926
41.218013938914645 16.7333
41.24198706625173 16.7
41.26577622087193 16.6902
41.289567235177785 16.705
41.31336011063129 16.6683
41.337340752422875 16.6327
41.361137369129835 16.6237
41.38493585138705 16.5544
41.40873620066004 16.5189
41.43272438060107 16.4885
41.45652848292052 16.3952
41.48033445666918 16.3657
41.50414230331616 16.3414
41.528138045159764 16.4286
41.551949656675205 16.3615
41.575763145513235 16.3042
41.59957851314666 16.3051
41.62358184070442 16.2778
41.64740098505737 16.3028
41.6712220126409 16.212
41.69504492493139 16.1472
41.71905586207357 16.1048
41.74288256296395 16.1628
41.766711153007456 16.129
41.79054163368412 16.0929
41.814560204340054 16.0617
41.838394485526365 16.0773
41.86223066180303 15.9334
41.88625497706819 16.0197
41.910094962812 15.9785
41.93393684811168 15.9345
41.95778063445365 15.8915
41.981812625263366 15.865
42.00566023303407 15.8639
42.029509746323676 15.8183
42.05336116662236 15.7745
42.077400857069705 15.7311
42.10125611078846 15.7
42.12511327600405 15.6691
42.14897235421036 15.6329
42.173019768448455 15.6014
42.19688269209613 15.6412
42.22074753323349 15.6726
42.24461429335818 15.6121
42.268669455600495 15.5688
42.292540073217886 15.5256
42.31641261433284 15.479000000000001
42.34028708044675 15.45
42.36435001496739 15.3878
42.38822835065557 15.4427
42.41210861586426 15.4043
42.4359908120986 15.3777
42.46006154323262 15.3382
42.48394762115317 15.3426
42.507835634632315 15.2874
42.531912233047436 15.2323
42.55580413732265 15.2039
42.579697981698 15.1784
42.60359376768525 15.1456
42.62767820545945 15.1451
42.65157789440821 15.1586
42.67547952952185 15.0764
42.699383112316 15.0865
42.72347541395347 15.0174
42.74738291190531 14.9784
42.771292362102166 15.0202
42.795203766063516 14.9953
42.819303956130405 14.9274
42.843219287476536 14.9355
42.86713657716324 14.9076
42.89105582671383 14.8676
42.91516392983864 14.8197
42.939087119032166 14.8243
42.963012272677304 14.7961
42.98693939230129 14.8293
43.01105543317513 14.749
43.034986504731386 14.6975
43.05891954686589 14.6781
43.08285456110972 14.6727
43.10697856448665 14.6421
43.130917542983475 14.6085
43.15485849820081 14.6046
43.17880143167367 14.5634
43.20293342237094 14.523
43.226880332449 14.4845
43.25082922540554 14.5157
43.27496722682525 14.485999999999999
43.29892010567796 14.4464
43.32287497204102 14.4063
43.34683182745632 14.3688
43.370977859791836 14.3643
43.39493871351105 14.3233
43.41890156092628 14.3457
43.44286640358341 14.3166
43.46702049182749 14.2361
43.49098934522816 14.2371
43.51496019852649 14.2322
43.5389330532723 14.1896
43.56309522248204 14.1853
43.58707210044314 14.1298
43.61105098451946 14.0504
43.63503187626491 14.0562
43.659202151562134 14.1086
43.68318707902681 14.0504
43.70717401884041 14.0366
43.731162972560874 14.0031
43.75534137913236 14.0015
43.779334381108384 13.9289
43.803329401683186 13.9342
43.82732644241872 13.8871
43.8515130055166 13.8431
43.87551410707659 13.8149
43.89951723350145 13.8214
43.923709934595614 13.7778
43.94771713129917 13.7812
43.97172635758096 13.7934
43.99573761501002 13.7243
44.0199385169922 13.7176
44.04395385732619 13.6621
44.067971233533086 13.6907
44.09199064718605 13.6752
44.11619977548961 13.6218
44.14022328470671 13.5853
44.16424883610785 13.5744
44.18827643127035 13.5665
44.21249381139513 13.5234
44.236525514814076 13.4729
44.26055926674478 13.4504
44.28459506876863 13.4816
44.3088207262813 13.408
44.33286064928722 13.3682
44.35690262714919 13.3762
44.38094666145278 13.2874
44.4051806219871 13.3357
44.42922879003185 13.2883
44.45327901929361 13.2668
44.477331311362136 13.2515
44.501573600619416 13.26
44.525630039221795 13.1847
44.54968854541895 13.1724
44.573937102200176 13.1936
44.5979997645541 13.208
44.622064499300315 13.1593
44.64613130803592 13.1067
44.67038823869318 13.1132
44.69445921643748 13.0578
44.718532272981385 13.0006
44.742607409926194 13.0203
44.76687274034801 12.9798
44.79095205918753 12.9556
44.81503346325094 12.9533
44.839116954143876 12.8882
44.86339071028742 12.9016
44.88747839599524 12.8567
44.91156817336837 12.8351
44.93566004401666 12.8152
44.959942251908146 12.7951
44.984038330325966 12.7688
45.00813650686762 12.753
45.03223678314731 12.7057
45.05652746888232 12.6861
45.08063196592069 12.6811
45.104738567558705 12.67
45.128847275414856 12.6615
45.15314646515866 12.5628
45.17725940679741 12.6064
45.20137445952892 12.5824
45.22568004865265 12.5781
45.24979934496396 12.5403
45.27392075725247 12.5102
45.29804428714431 12.4694
45.322358426247604 12.482000000000001
45.346486212804315 12.4098
45.370616121861914 12.4329
45.39474815505086 12.3663
45.41907087049246 12.3726
45.4432071734666 12.3661
45.46734560548283 12.3604
45.49148616817604 12.3615
45.51581748638564 12.3151
45.5399623320197 12.2815
45.56410931325473 12.2254
45.58825843173002 12.2224
45.61259837920865 12.1725
45.636751793816 12.1893
45.66090735060093 12.1839
45.68506505120716 12.1285
45.7094136545275 12.1094
45.73357566449271 12.0781
45.75773982322992 12.1054
45.78190613238733 12.0895
45.806263418194064 12.0115
45.83043404997326 12.0476
45.85460683713677 12.0024
45.87897065658495 11.9352
45.90314777634752 11.9038
45.92732705646868 11.9298
45.9515084986045 11.8868
45.97588104735473 11.9097
46.00006683541565 11.8659
46.02425479047904 11.8516
46.04844491420549 11.8066
46.0728262191024 11.7877
46.09702070211635 11.796
46.12121735879483 11.7834
46.14541619080294 11.7675
46.169806278764455 11.7139
46.194009483459034 11.6902
46.21821486849841 11.672
46.24242243555223 11.6399
46.266821333570014 11.6067
46.29103328674601 11.620999999999999
46.31524742696538 11.6207
46.33946375590237 11.5641
46.36387149104216 11.5453
46.38809221957392 11.5117
46.41231514186606 11.5027
46.436540259597464 11.5366
46.460956858999374 11.4735
46.48518638983522 11.4428
46.509418121166966 11.4234
46.533652054678114 11.4318
46.55807754555709 11.4006
46.58231590571962 11.3759
46.60655647313217 11.3274
46.630988654873654 11.3002
46.655233659129024 11.2391
46.67948087571551 11.2892
46.70373030632484 11.264000000000001
46.72817142736393 11.2602
46.752425308428684 11.209000000000001
46.77668140861147 11.1569
46.80093972960865 11.1491
46.82538981736788 11.1628
46.849652602470904 11.1586
46.87391761349769 11.1342
46.8981848521493 11.1044
46.9226439341274 11.0828
46.946915650573224 11.0328
46.97118959976749 10.9771
46.99546578341598 10.9865
47.019933887188216 11.0169
47.04421456235744 11.0031
47.06849747711879 10.9249
47.09278263318286 10.9196
47.11725978640143 10.8998
47.14154944775105 10.8901
47.165841355555656 10.8494
47.1901355115306 10.8181
47.214621741924994 10.8364
47.23892041698887 10.757
47.26322134538975 10.7176
47.28771440635075 10.7665
47.31201986422527 10.752
47.33632758061436 10.7168
47.360637557241866 10.6947
47.38513974410611 10.6651
47.40945426407847 10.6434
47.43377104948137 10.6731
47.45809010204344 10.5979
47.48260144275502 10.6081
47.506925052572285 10.5821
47.53125093475548 10.5463
47.55557909103813 10.5189
47.58009961361992 10.4972
47.60443234110732 10.4844
47.62876734791564 10.4967
47.65310463578333 10.4613
47.6776343683373 10.4361
47.7019762413987 10.437999999999999
47.72632040075572 10.3993
47.75066684815169 10.4072
47.77520581885936 10.3675
47.799556865477655 10.3832
47.823910205386 10.3552
47.84826584033272 10.3205
47.87281407745551 10.2575
47.89717432569297 10.286
47.92153687423484 10.2563
47.94609208429692 10.26
47.97045925671401 10.231
47.99482873471275 10.1907
48.01920052005013 10.1617
48.04376504619224 10.1875
48.068141469543484 10.1632
48.09252020552573 10.1404
48.11690125590099 10.0884
48.1414751266064 10.1024
48.16586082917454 10.0523
48.19024885144316 10.0451
48.2146391951793 10.0091
48.239222439012764 10.0446
48.26361744916137 10.027000000000001
48.28801478610016 10.0439
48.31241445160131 10.0177
48.337007097209366 9.959539999999999
48.36141144338331 9.90964
48.38581812345755 9.88813
48.41022713920929 9.91715
48.434829215320704 9.904919999999999
48.45924292604658 9.911669999999999
48.48365897780325 9.89321
48.50807737237308 9.83047
48.532688907799276 9.82129
48.55711201168574 9.79385
48.581537463754074 9.788219999999999
48.60615611725119 9.77844
48.63058628942721 9.79519
48.65501881516546 9.71775
48.6794536962573 9.68253
48.70408185970339 9.68522
48.72852147531801 9.64204
48.75296345168211 9.6193
48.77740779059232 9.609119999999999
48.80204549302823 9.60011
48.82649458091802 9.62838
48.85094603676547 9.55037
48.87539986237231 9.57088
48.90004713292306 9.5415
48.92450572200832 9.53768
48.94896668628025 9.52081
48.97343002754588 9.49348
48.99808689542115 9.480830000000001
49.02255501470614 9.45786
49.04702551642794 9.438830000000001
49.0714984023988 9.415460000000001
49.096164896893235 9.38733
49.120642575466796 9.402460000000001
49.145122643748394 9.3903
49.16960510355558 9.32691
49.19428125404938 9.301060000000001
49.2187685210852 9.31408
49.243258185121555 9.3015
49.26794160167084 9.27741
49.2924360839405 9.22483
49.31693296869764 9.24966
49.34143225776915 9.19345
49.36612538195438 9.1718
49.39062950396021 9.1728
49.41513603578346 9.15235
49.4396449792564 9.13649
49.46434784069503 9.13429
49.488861631846454 9.09549
49.513377840166804 9.1118
49.537896467493745 9.06578
49.56260909589029 9.01578
49.587132585683285 9.05555
49.611658500018365 9.02458
49.636186840738596 8.975539999999999
49.66090926588511 8.99874
49.685442483902584 8.954130000000001
49.70997813385706 8.951210000000001
49.734516217597076 8.929910000000001
49.75924846937352 8.93697
49.7837914452858 8.91297
49.80833686055187 8.866389999999999
49.83288471702571 8.85939
49.85762682540054 8.85402
49.882179588965734 8.798689999999999
49.9067347993235 8.786539999999999
49.93129245833333 8.7752
49.95604445336378 8.782789999999999
49.98060703442832 8.7401
50.005172069746266 8.738489999999999
50.02993150438364 8.7621
50.05450147301533 8.70775
50.07907390151433 8.71331
50.10364879174981 8.7058
50.12841816587289 8.65205
50.1529980044635 8.64886
50.17758031042124 8.6431
50.20216508562089 8.6175
50.22694442953363 8.60159
50.25153416817468 8.6018
50.27612638170508 8.564210000000001
50.300721072005196 8.48962
50.325510416102105 8.51543
50.350110084975064 8.50703
50.37471223628208 8.51803
50.39931687190919 8.47792
50.424116246675766 8.4691
50.44872587605249 8.44613
50.47333799543065 8.45633
50.49795260670191 8.418569999999999
50.52276204271512 8.37578
50.54738166295838 8.410910000000001
50.57200378079314 8.3482
50.596628398116835 8.319339999999999
50.62144792604559 8.32131
50.646077567609396 8.34936
50.670709714377715 8.33159
50.69553683636198 8.28094
50.72017401885922 8.279860000000001
50.7448137122895 8.25085
50.76945591856022 8.25588
50.79429318636823 8.26033
50.818940443716784 8.256210000000001
50.84359021965163 8.22355
50.868242516085964 8.17655
50.893089960641895 8.149939999999999
50.917747323549435 8.11813
50.94240721271973 8.1318
50.96706963007175 8.135110000000001
50.99192728239342 8.11589
51.01659478166073 8.06672
51.04126481489051 8.05498
51.06593738400761 8.06662
51.090805275207074 8.010010000000001
51.11548294172845 7.995189999999999
51.14016314993547 7.987310000000001
51.164845901758845 7.97245
51.18972406304274 7.96156
51.21441192780656 7.89545
51.23910234200271 7.901689999999999
51.2637953075678 7.897310000000001
51.288683770237945 7.889010000000001
51.31338186432707 7.84922
51.33808251561888 7.842860000000001
51.362978729967345 7.84708
51.387684521509755 7.8417699999999995
51.41239287610203 7.82516
51.437103795691165 7.7818
51.46201036644977 7.78614
51.486726441956634 7.761080000000001
51.51144508832545 7.75378
51.536166307509156 7.753710000000001
51.56108326624387 7.72958
51.58580965706056 7.696739999999999
51.61053862657523 7.69833
51.635270176746864 7.66012
51.66019755512065 7.66441
51.68493429268881 7.636410000000001
51.70967361681515 7.62252
51.73441552946465 7.60118
51.759353359237934 7.56243
51.7841004750961 7.58075
51.80885018539685 7.58644
51.833602492111254 7.568010000000001
51.8585508051424 7.521789999999999
51.883308330926425 7.5282800000000005
51.90806845906181 7.49966
51.932831191525715 7.50064
51.95779001977161 7.44798
51.98255798721516 7.43187
52.00732856494335 7.44833
52.03229530577543 7.42293
52.057071130455945 7.431080000000001
52.081849571391054 7.38775
52.106630630568695 7.41132
52.13160794279417 7.3414600000000005
52.15639426492067 7.35285
52.18118321127822 7.33493
52.205974783860896 7.32706
52.23096269971011 7.270789999999999
52.255759551287994 7.29712
52.280559035098186 7.29597
52.30536115314103 7.288930000000001
52.33035970494467 7.280460000000001
52.35516711807904 7.234260000000001
52.37997717147198 7.21754
52.40478986713005 7.22823
52.42979908731974 7.22461
52.454617094216 7.1318
52.47943774942214 7.142
52.50426105495102 7.12927
52.529280976059844 7.101660000000001
52.554109609024096 7.0865800000000005
52.57894089837482 7.051810000000001
52.60377484613117 7.08892
52.62880550079408 7.0266
52.65364479223379 7.044160000000001
52.67848674816189 7.0116
52.70352547971946 6.9862
52.72837279155837 6.97585
52.753222773982785 6.983389999999999
52.778075429022984 6.99477
52.80312495150885 6.983389999999999
52.827982978797436 6.92223
52.85284368481815 6.89717
52.87770707160767 6.91448
52.90276741793998 6.90188
52.92763619336701 6.879980000000001
52.952507655698504 6.85847
52.977381806977576 6.8649
53.00245301017842 6.829160000000001
53.02733256653592 6.83126
53.052214817996074 6.81503
53.077099766608484 6.82803
53.102181859804446 6.78464
53.127072229988265 6.81473
53.15196530349892 6.7541
53.17686108239249 6.749969999999999
53.20195409881522 6.72404
53.22685531582556 6.72593
53.25175924441303 6.6899
53.27666588664027 6.6490100000000005
53.30176985962693 6.6532800000000005
53.3266819565689 6.62097
53.35159677336455 6.645169999999999
53.376514312083096 6.6257600000000005
53.40162927507703 6.62615
53.42655228516116 6.58142
53.45147802340193 6.57845
53.47660125628886 6.55232
53.50153247842639 6.54974
53.52646643496923 6.53081
53.55140312799818 6.52498
53.576537409691696 6.54315
53.60147960336152 6.52339
53.626424539786164 6.4695599999999995
53.65137222105307 6.45202
53.67651758529126 6.45067
53.70147078399681 6.4265
53.72642673383343 6.4707300000000005
53.75138543689533 6.42283
53.776541917524526 6.424180000000001
53.801506154876755 6.38701
53.826473151763246 6.36348
53.851442910284916 6.33114
53.87661054126026 6.32367
53.9015858509782 6.3362099999999995
53.92656392866066 6.3337699999999995
53.95154477641532 6.33934
53.976723591801296 6.28512
54.00171000771266 6.30825
54.02669920004598 6.28624
54.051691170915745 6.2201
54.076881204886796 6.23073
54.101878760928514 6.21444
54.12687910187696 6.18971
54.152077577768296 6.1821
54.1770835166946 6.21692
54.20209224691339 6.16236
54.22710377055121 6.11914
54.25231352511594 6.11519
54.27733066384342 6.10133
54.30235060239643 6.12868
54.32737334290836 6.0829
54.35259441062629 6.03365
54.377622783395324 6.03124
54.40265396455061 6.00706
54.42768795623251 6.00765
54.45292037169559 5.99524
54.477960012857906 5.966880000000001
54.50300247099511 5.94057
54.52804774825457 5.95234
54.55329154616743 5.91012
54.57834249018678 5.89444
54.6033962597977 5.888809999999999
54.6284528571545 5.85697
54.653708072335164 5.8311
54.67877035378786 5.83942
54.70383546947698 5.80399
54.72890342156389 5.74975
54.7541700889442 5.70861
54.77924374251975 5.74279
54.8043202390049 5.75025
54.82959552413022 5.68115
54.8546777351945 5.67876
54.87976279569621 5.64088
54.90485070780914 5.65361
54.930137506558005 5.59026
54.95523115074295 5.65073
54.98032765308844 5.5919
55.005427015775496 5.51406
55.03072536339621 5.541580000000001
55.05583047570572 5.4618400000000005
55.080938454927676 5.491280000000001
55.10604930325027 5.51398
55.131359235107396 5.49529
55.15647585066083 5.41346
55.181595341907496 5.38794
55.20671771104285 5.37892
55.232039262617704 5.3827
55.25716741665048 5.3352
55.28229845518636 5.39195
55.30743238042802 5.29318
55.33276558731939 5.29363
55.357905315183636 5.25888
55.383047936390035 5.202719999999999
55.40819345314859 5.18558
55.433538351073295 5.1641
55.458689688238415 5.24303
55.483843927614096 5.1277099999999995
55.509197623043605 5.08986
55.53435769621134 5.0898900000000005
55.55952067826466 5.05631
55.5846865714265 5.057169999999999
55.61005202069737 5.02149
55.63522376553902 5.023280000000001
55.66039842818645 4.99556
55.68557601087004 4.98804
55.7109532500271 4.93288
55.73613670233794 4.95409
