TT I
1.2716486653135266 7.40286
1.2939594142134223 7.227930000000001
1.3162702121660406 6.98785
1.3385810600174564 7.163239999999999
1.3608919586137629 7.162789999999999
1.383202908801069 6.01211
1.405513911425503 6.22313
1.4278249673332093 7.028339999999999
1.4501343378461518 6.859439999999999
1.4724455028545926 6.10479
1.4947567236847858 5.9025099999999995
1.517068001182951 6.0619
1.5393793361953272 5.9303099999999995
1.5616907295681737 5.5332300000000005
1.5840021821477681 6.07759
1.60631369478041 5.80112
1.6286252683124185 5.15246
1.6509369035901333 4.96831
1.6732468618895553 5.41563
1.695558623192809 5.04041
1.7178704487808514 5.40245
1.7401823395001077 4.78268
1.7625012545597203 5.04209
1.7848028405262486 5.44309
1.8071218901122095 5.38018
1.8294236121921872 4.50552
1.8517427996910911 4.81746
1.8740620574440425 4.22879
1.8963639900671978 4.1794199999999995
1.9186833908139995 4.668880000000001
1.9409854680117449 5.09034
1.9633050151394713 5.37615
1.9856246367570705 5.04663
2.0079269371922672 4.78936
2.03024671027244 4.42557
2.0525491637446027 4.63183
2.074869091674931 4.21744
2.097171701569106 4.75315
2.1194917877373847 4.675730000000001
2.141811954326636 4.64745
2.164114805233074 4.69801
2.186435135143035 6.73243
2.208738150935709 18.2486
2.231058647554722 40.111
2.2533792288321184 29.8864
2.275682498336085 12.4429
2.298003251406138 6.8753899999999994
2.3203066942619714 5.80657
2.3426276225136022 4.848
2.3649486396617507 5.47095
2.387252348930071 6.6719800000000005
2.4095735463442893 6.16182
2.4318774374315884 5.83027
2.4541988185014043 6.590889999999999
2.476502894794693 6.73879
2.498824462909887 6.7591
2.521146125856138 6.7953399999999995
2.5434504863470337 7.3280199999999995
2.5657723414244717 7.07335
2.588076895590662 7.461939999999999
2.610398946189713 7.24746
2.6327210958598384 7.936039999999999
2.6550259469304716 7.0058300000000004
2.6773482972090137 7.778760000000001
2.6996533504259 7.8334
2.7219759047039602 7.380310000000001
2.744298562293959 7.90802
2.7666039251246595 7.5208
2.7889267918020164 7.68995
2.8112323652516555 8.30676
2.833555444408179 8.772639999999999
2.8558786311183852 8.75404
2.8781845268938557 9.23361
2.9005079311721484 8.61557
2.9228140460410397 8.76598
2.9451376712799635 8.94162
2.967444008632326 9.82663
2.9897678582247247 9.64579
3.0120918213106695 10.1226
3.0343984987899373 11.1645
3.0567226913198637 10.9427
3.079029599759726 11.9441
3.101354025127254 12.5488
3.123678568232338 13.2971
3.145985829517914 13.2344
3.16831061055229 13.5175
3.1906181112775593 14.5078
3.212943133635653 15.0241
3.2352682779763207 14.9076
3.2575761442691227 15.4533
3.2799015350264273 15.7439
3.302209649240067 16.5562
3.3245352898092655 17.3395
3.3468436553365257 17.7928
3.369169549113219 17.901
3.3914955708171384 18.777
3.413804319727358 19.3141
3.4361305997334863 19.3243
3.4584396084414553 20.13
3.4807661501462652 20.699
3.503092824025881 21.4092
3.5254022288463154 21.7386
3.5477291695206588 22.3527
3.5700388426251948 23.2036
3.5923660534916446 24.8805
3.6146934007816114 45.4901
3.637003482731501 121.333
3.6593311053109985 137.931
3.681641464033634 74.6329
3.7039693653009733 34.3939
3.726297407241705 27.1806
3.7486081875460804 26.4634
3.7709365132734978 26.8583
3.793247578841633 26.8912
3.8155761917550093 27.4553
3.8378875459837216 27.4354
3.8602164494827234 28.1518
3.882545499606844 28.8557
3.9048572932539183 29.6365
3.9271866390645718 29.8844
3.9494987298666713 30.59
3.971828374764527 30.7465
3.9941581705403255 31.4246
4.016470713506008 32.0005
4.038800813471445 32.9549
4.061113662089144 33.5867
4.0834440696459176 34.0283
4.105774632334751 34.5583
4.128087945865126 35.6578
4.150418821249301 36.864000000000004
4.172732448931298 37.9676
4.195063640413578 40.0678
4.2173775856475215 45.5106
4.239709096631102 88.8348
4.262040768704612 327.26599999999996
4.284355196706267 468.704
4.306687193387355 298.79
4.329001947444346 103.31700000000001
4.35133427213731 51.8886
4.373666762177566 46.066
4.395982011761091 45.3791
4.418314834921175 47.1635
4.44063041906622 57.8451
4.4629635787515625 75.2286
4.4852969080429785 73.9889
4.5076130004776225 57.8795
4.529946671403969 51.0674
4.552263106909177 50.4901
4.574597122877047 51.3882
4.596931312711224 52.8487
4.619248269273446 53.3895
4.6415828092605835 54.3421
4.663900117405352 55.888999999999996
4.686235010953232 57.3546
4.708552674085913 58.8162
4.730887924602802 59.7475
4.753223354952695 61.2595
4.775541557023902 62.4261
4.797877349456786 64.1007
4.820195915032126 65.878
4.842532072957498 67.2246
4.864868414979744 69.3641
4.88718753227192 71.7021
4.909524244902505 73.8355
4.931843734218147 75.4284
4.954180820867835 77.8336
4.976518095879839 80.4513
4.998838149695359 83.7995
5.021175803844231 87.0713
5.043496238205739 90.1807
5.065834274903528 94.5667
5.088172504230693 99.9334
5.1104935158799565 106.68700000000001
5.132832132875765 135.495
5.155153533596801 195.28400000000002
5.1774925416746225 234.94400000000002
5.199814334878411 368.775
5.2221537374521505 1000.93
5.244493338631803 2683.88
5.266815727034316 6958.73
5.289155727832427 11878.2
5.311478517248165 9469.0
5.333818921080011 3372.02
5.356159527788849 697.326
5.3784829252032536 210.13
5.400823940070432 152.72299999999998
5.423147747031976 133.181
5.445489173474152 121.595
5.467830807066149 115.729
5.490155234831516 111.053
5.512497285125229 107.374
5.534822130975162 105.53399999999999
5.557164601388673 103.564
5.579489868738879 100.069
5.601832762690846 99.4927
5.6241758697774475 99.2407
5.646501775867269 98.1608
5.668845311622074 96.1353
5.691171647754637 94.9115
5.713515615597765 93.7358
5.735859800852677 92.7927
5.758186788542988 92.3026
5.780531411018185 91.9476
5.802858837297399 91.6348
5.825203900414495 91.5552
5.8475491852224 91.7606
5.869877275883075 92.4841
5.892223006467101 93.5315
5.914551544266608 94.9913
5.936897724049891 97.6352
5.959244129804903 102.625
5.981573344815301 119.662
6.0039202049061 204.62900000000002
6.026249875609095 441.88599999999997
6.04859719346037 932.6039999999999
6.070927323278297 2031.52
6.093275102315365 4064.56
6.115623113320588 5462.8
6.137953938319995 3608.69
6.160302415650845 1199.39
6.182633708324452 285.80400000000003
6.2049826554078376 124.649
6.227331838745022 97.8355
6.249663839443684 88.7312
6.27201349767565 85.7321
6.294345974611799 95.2309
6.316696111167083 114.155
6.339046488263839 107.65799999999999
6.361379686074702 85.9117
6.383730546639482 74.1468
6.406064229255215 70.0669
6.428415576718203 69.5789
6.450749747566656 68.6305
6.47310158535871 66.6415
6.495453669698332 66.4824
6.517788579421056 65.9227
6.540141159237969 65.1868
6.562476565766648 64.4276
6.5848296444934045 64.07600000000001
6.607182974060425 63.687
6.6295191323281015 64.219
6.651872965955752 68.898
6.6742096296068985 106.365
6.6965639707294615 179.329
6.71891856698715 181.27599999999998
6.741255995248479 114.92
6.763611104154477 74.1669
6.785949046381137 62.7708
6.808304671371482 59.9766
6.8306605557940046 59.24100000000001
6.852999275508618 58.053000000000004
6.875355681171544 58.121
6.897694923437771 57.9987
6.92005185377892 57.8842
6.9423916220322655 57.8532
6.964749080490181 57.0386
6.987106804399774 56.6734
7.009447368180821 57.1314
7.031805625367033 56.5058
7.054146723727803 56.6083
7.076505517631004 56.3195
7.098864581288365 56.1543
7.121206488070854 56.1501
7.143566093607822 56.0472
7.165908543567245 56.3771
7.188268694426048 56.9054
7.2106291193438095 57.0594
7.232972390625943 58.8846
7.255333366030969 76.4145
7.277677189091925 156.808
7.300038718428332 233.88299999999998
7.322400526130865 192.725
7.344745183422596 108.95200000000001
7.367107550224791 67.1692
7.389452767901992 58.6491
7.411815697249891 56.5618
7.434161478756298 56.0411
7.456524974096713 55.5782
7.478888753837185 55.4741
7.501235387657368 56.0429
7.523599738562711 56.0389
7.545946944825532 56.2575
7.568311870344528 56.4718
7.5906770845765665 56.9153
7.613025156078678 58.4654
7.635390950099687 60.6881
7.657739602662809 59.5276
7.680105979923558 57.3345
7.702472650212829 56.9684
7.724822180948224 56.5511
7.747189439655568 56.7448
7.769539560075357 56.9432
7.791907410653562 57.6745
7.81425812420825 57.4531
7.836626570110925 57.7054
7.858995315087906 58.3874
7.881346924933401 58.8377
7.903716270417482 59.0991
7.926068482028405 59.5591
7.948438431475253 60.0205
7.9708086843180235 60.4566
7.993161805171116 61.1073
8.015532667162402 61.6659
8.037886398416653 62.7321
8.060257873014221 62.9866
8.082629655331942 63.52
8.104984308787587 64.8081
8.127356708900503 68.9824
8.149711981398308 77.3591
8.172085002766314 80.8026
8.194458336181368 75.5175
8.216814543847752 71.0658
8.23918850371002 70.4266
8.26154533906492 70.9561
8.283919928836452 72.7012
8.306277395339652 73.3196
8.328652618483376 74.6496
8.351028159736202 76.7641
8.373386579575245 79.1642
8.395762759396959 80.5097
8.418121819038275 86.6105
8.440498640894003 104.88
8.462875785192262 124.20100000000001
8.485235811156207 133.60299999999998
8.507613602688501 165.843
8.529974277114228 247.062
8.552352719347912 372.723
8.574731488360351 623.106
8.59709314210385 1081.23
8.619472567021075 1715.58
8.64183487789147 2147.53
8.664214962183097 1926.71
8.686577933647762 1083.58
8.708958680784317 442.093
8.731339760774953 191.489
8.753703729764451 118.75
8.77608547780821 102.197
8.798450116065078 97.5665
8.820832535634787 94.19200000000001
8.843215292401656 92.3286
8.865580941199045 90.6278
8.887964374703538 89.5866
8.910330701447199 91.2862
8.932714815164482 95.5591
8.955099270424924 95.3099
8.977466620733543 90.7751
8.999851761421976 86.81200000000001
9.022219798361645 84.1814
9.04460562795561 84.1918
9.066991803441677 83.4891
9.089360876979615 83.2584
9.111747746589993 83.1028
9.13411751544971 82.2854
9.156505082664324 82.1787
9.178875550323522 82.7315
9.20126381862328 83.6003
9.223652438908596 84.1554
9.246023961427412 83.8198
9.26841328802173 82.8872
9.290785518039224 82.4003
9.313175554425882 83.2663
9.335565947154315 82.7014
9.357939245086508 83.1794
9.380330352834827 83.2374
9.40270436697103 83.6675
9.425096193225055 83.625
9.447488380180165 84.8034
9.469863475295412 84.6499
9.492256385987508 85.2822
9.514632206018318 85.8009
9.537025843935714 86.2924
9.559402392368193 86.7078
9.581796761000229 88.2284
9.604191496441521 89.2526
9.626569144158516 93.9492
9.648964615551032 100.389
9.671343000390081 102.956
9.693739211225699 99.5247
9.716135793237463 94.9888
9.738515290448102 93.8522
9.760912617143402 94.7602
9.783292860202891 95.6468
9.805690935076182 96.8151
9.828089385495742 97.8032
9.850470754023561 100.514
9.872869957865444 110.92399999999999
9.89525208097539 132.74200000000002
9.917652041736662 151.27200000000002
9.940052382417589 148.091
9.962435644102392 145.613
9.984836746950979 173.325
10.007220771957746 232.58599999999998
10.029622640473708 327.605
10.052007432299963 489.63199999999995
10.074410069984072 736.3439999999999
10.096813093716005 1143.46
10.119199042482517 1617.68
10.141602840636468 1955.94
10.163989564971628 1722.66
10.186394141051062 1056.53
10.208799107559706 470.435
10.231187001965623 215.68900000000002
10.253592751657669 134.884
10.275981430388155 117.209
10.298387966769793 117.574
10.320794897965431 121.819
10.343184759907361 121.285
10.36559248305461 113.088
10.387983138083852 106.90700000000001
10.410391656691655 107.714
10.432800574501677 117.816
10.455192425893369 133.58100000000002
10.47760214443012 157.171
10.499994797678786 195.668
10.522405320453982 265.124
10.54479877906917 368.649
10.567210109595656 493.995
10.5896218454736 562.835
10.612016518879773 544.18
10.634429067781074 395.11800000000005
10.656824555333241 227.706
10.679237920773568 135.372
10.701651695961992 100.25
10.724048411481384 91.294
10.746463008485165 88.0715
10.768860546937125 86.1351
10.791275969274796 84.3422
10.81369180576079 83.1869
10.836090585366925 82.3918
10.858507252467449 80.9253
10.88090686379991 80.0289
10.903324365036394 79.6412
10.925724811614439 80.2554
10.948143150509463 81.961
10.970561909719066 81.2648
10.992963615930844 78.8255
11.015383218085756 76.2275
11.037785768347074 74.4142
11.06020621697282 73.7725
11.082627090322113 73.4192
11.105030913430326 72.9942
11.12745263854165 73.9513
11.149857314510728 79.226
11.172279894912576 88.8024
11.194702904450653 90.4985
11.217108866490921 84.8394
11.239532736615194 78.2179
11.26193956033512 74.6962
11.284364294577085 72.554
11.306789462371718 69.9074
11.329197585398376 68.2577
11.351623622610898 68.2281
11.37403261614354 66.9656
11.396459526308487 67.117
11.418869393879497 66.6575
11.441297180532617 66.0967
11.463725406927658 65.9704
11.486136592353875 65.6991
11.508565700543707 66.7893
11.530977768845315 69.4562
11.553407762368774 71.1239
11.575838200059769 69.97
11.598251599479612 67.1978
11.620682927815501 65.2889
11.64309721895548 64.503
11.665529441478206 64.1946
11.687962112597958 63.8484
11.710377748130886 63.5701
11.732811318753434 63.6928
11.755227854859067 63.7478
11.777662328529495 63.7392
11.800079768750786 63.4254
11.822515149015453 63.2163
11.844950984084935 63.6344
11.867369787303163 63.1981
11.889806534289491 63.2397
11.912226250487029 63.823
11.934663912939751 63.7879
11.9571020346363 63.7115
11.979523127133968 63.6
12.001962169624331 64.1734
12.024384183972964 65.1222
12.046824150809913 68.1229
12.069264581333726 73.0698
12.091687985297767 79.4682
12.11412934550045 88.2459
12.136553680195208 101.59700000000001
12.158995973632788 120.117
12.181438735204349 145.555
12.20386447284199 175.17700000000002
12.226308172985636 202.451
12.24873485024193 215.68099999999998
12.271179492516982 180.16400000000002
12.293607112949127 142.048
12.316052700916226 106.478
12.338498763250042 85.5663
12.360927805303868 74.244
12.383374818673879 68.6841
12.405804812803074 65.9522
12.428252780773262 65.2412
12.45070122756722 65.335
12.473132656675375 65.0996
12.49558206341869 65.2678
12.518014453510101 65.2529
12.540464823770117 65.5416
12.562915677315177 65.6577
12.58534951575545 66.6321
12.607801338171472 69.6425
12.630236146511358 77.3162
12.652688941369085 84.6401
12.675124723177234 85.0679
12.697578494048786 79.1039
12.720032754458185 72.4272
12.742470003354093 69.3555
12.764925245138771 68.5427
12.787363476431278 68.6738
12.809819703166806 69.0502
12.83227642391173 69.6913
12.854716135692716 70.6535
12.877173846755147 71.5413
12.899614549869717 71.6289
12.9220732548287 72.6358
12.94453245827299 72.9122
12.966974655289818 73.7603
12.989434858002571 74.6466
13.011878055298721 75.2648
13.034339260862497 76.1928
13.056800969391883 77.5957
13.079245674017244 79.2544
13.101708390774869 81.3672
13.12415410463411 87.8814
13.146617833206086 99.4394
13.169064559883248 111.488
13.191529303857127 125.314
13.213994557076367 145.876
13.236442809902437 176.808
13.258909083908291 223.002
13.28135835851934 278.461
13.30382565690295 344.462
13.326293469022952 409.405
13.348744283242008 436.46
13.371213125129904 392.43
13.39366497011003 293.379
13.416134845360597 194.983
13.438605238843131 133.638
13.46105863690397 109.821
13.483530069144786 106.62100000000001
13.505984506951902 110.381
13.528456981549432 118.931
13.550929978879088 132.55100000000002
13.573385983253365 153.452
13.595860028340867 185.78799999999998
13.618317081455832 230.092
13.64079217790333 283.041
13.663250283359057 333.745
13.685726434770173 369.06199999999995
13.708203115221277 357.108
13.730662806148091 289.08299999999997
13.75314054697177 208.801
13.775601299246777 142.053
13.798080104050406 104.242
13.820559442405358 88.0752
13.843021793671388 83.2981
13.865502201420897 81.0538
13.887965623051947 80.6047
13.910447103807167 79.2411
13.932929122629764 78.0841
13.955394156785959 77.5464
13.977877254034569 76.3628
14.000343367582113 75.6587
14.022827546871707 74.9182
14.045294743423524 74.3679
14.06778000837062 73.8833
14.090265817715476 73.7436
14.112734645763819 73.5107
14.13522154619454 73.4428
14.157691466286913 73.9323
14.180179461423874 73.5163
14.202668005486178 72.4523
14.22513957064374 71.608
14.247629214846473 71.206
14.270101881097517 71.0758
14.29259262906496 71.7218
14.315083930490205 72.8735
14.337558255389705 73.3351
14.360050666019726 72.8521
14.382526101071944 71.4001
14.405019624534942 70.3381
14.427513705993134 69.7497
14.449990813291825 69.3906
14.47248601302899 69.3129
14.49496423954951 69.408
14.517460561197822 69.3468
14.539939910570322 69.3486
14.562437357763558 69.5469
14.58493536931253 71.2822
14.607416409993311 72.7546
14.62991555254159 73.7215
14.652397725157423 73.5551
14.674898002342799 72.1462
14.697398848433282 71.2674
14.719882725991326 71.4155
14.74238471217934 72.3104
14.764869730765593 75.2854
14.787372860692983 78.7955
14.809876564079925 82.8948
14.83236330125751 88.3926
14.854868153850365 96.0704
14.877356041159485 107.721
14.899862046604186 123.641
14.922351087688757 144.469
14.944858249632887 170.398
14.967365991421232 196.91400000000002
14.989856770231246 218.60299999999998
15.012365673994204 225.13299999999998
15.03485761569738 203.58
15.05736768508665 163.28
15.07987833888692 124.645
15.102372032001655 97.1944
15.124883856909658 80.5688
15.14737872204565 74.0388
15.169891721717274 71.8467
15.192405310371893 71.8075
15.214901940621196 72.3611
15.237416709527137 72.9043
15.259914520936249 73.3205
15.282430473753607 72.2377
15.304947020131227 70.6165
15.327446610371178 69.2813
15.349964346154254 68.3266
15.372465126703139 67.648
15.394984055556009 67.2683
15.417486030076159 67.1519
15.44000615566487 66.8562
15.462526881230803 66.9037
15.485030653812652 67.0868
15.507552581617434 67.3868
15.530057557334603 67.3757
15.55258069104857 67.2156
15.575104429329837 67.0812
15.597611216864632 66.4885
15.620136166564563 66.6116
15.6426441664095 67.3993
15.665170331202765 69.3357
15.687697105158826 72.5021
15.710206930593545 75.3203
15.732734925158933 79.3519
15.755245972089478 85.3021
15.77777519094324 93.3887
15.800287463046663 104.39200000000001
15.822817909869592 120.242
15.84534897229804 137.757
15.867863089299354 161.225
15.890395385222186 179.489
15.912910736597423 192.06799999999998
15.935444269699861 189.74599999999998
15.957978423016485 167.43200000000002
15.980495633101265 134.731
16.003031029129367 104.309
16.02554948280019 81.3835
16.048086125229432 70.5786
16.070623392487107 67.4616
16.09314371869582 66.6198
16.11568223789321 65.748
16.13820381691126 64.8374
16.160743591742527 63.2343
16.183283996022084 61.8275
16.205807461423195 60.6004
16.228349126881973 59.8733
16.25087385432698 59.8888
16.27341678466365 59.3228
16.29594277784926 59.2433
16.31848697676433 59.92
16.341031811604868 60.8666
16.36355971058487 61.3217
16.3861058195587 61.0845
16.40863499352978 59.218
16.431182380342005 58.1626
16.453730407713202 57.2364
16.476261501364792 56.7241
16.498810812136167 56.2312
16.52134319004079 56.6173
16.54389378792203 56.3388
16.566445031001553 56.1648
16.588979342490088 55.8703
16.61153187824822 55.8472
16.634067483263312 55.5693
16.656621315414416 55.6011
16.679175797408888 55.2792
16.701713349928728 55.4044
16.72426913389191 55.4475
16.74680798922351 55.8095
16.76936507887444 55.9308
16.791905240734874 55.9856
16.814463639794468 55.8165
16.837022695210294 55.6176
16.859564824093756 56.0595
16.882125194503903 57.287
16.904668639217885 58.4638
16.927230328348003 58.4595
16.949792678493612 58.593
16.972338104193863 57.575
16.994901778652235 56.7
17.017448529496576 56.342
17.040013531998152 56.2762
17.06257920018044 56.9375
17.0851279459922 57.5623
17.107694947817667 58.2295
17.130245028099072 58.9278
17.15281336730298 60.3637
17.17536478578733 61.8904
17.19793446610687 63.99
17.220504818648422 66.3952
17.243058251703697 69.09
17.265629950971032 72.9079
17.288184731571736 77.2358
17.310757781306908 82.3989
17.33333150794385 83.73200000000001
17.355888317140174 83.6216
17.37846339986244 80.0026
17.401021565958885 74.2581
17.42359800851343 67.9833
17.44617513265564 63.8079
17.468735341390783 61.2551
17.491261035594565 60.1238
17.51396340099364 59.7285
17.536490463869136 59.8524
17.559018209820174 59.7859
17.58154663977963 59.8414
17.604251766089718 60.1114
17.626781572227713 60.2297
17.64931206518155 60.5785
17.671843245885103 61.251000000000005
17.69455114821572 61.4701
17.717083712612634 61.9215
17.739616967569667 61.6424
17.762150914021706 61.8652
17.78486160749854 61.9462
17.807396945166804 62.3837
17.829932977143503 62.798
17.85246970436452 64.3567
17.875183204129467 66.4669
17.897721330097664 68.4721
17.920260154126645 70.6499
17.942799677153296 73.7768
17.9655159983646 77.0178
17.988056927677544 81.5233
18.010598558807683 88.0299
18.033140892692916 96.2938
18.05586005052525 105.67299999999999
18.07840379824407 116.464
18.10094825154059 128.245
18.12366954819864 137.61
18.146215420998306 141.989
18.16876200220057 136.40200000000002
18.191309292745153 123.292
18.214033452627167 109.073
18.236582170236648 95.5237
18.259131600016456 88.2711
18.281681742907335 86.5264
18.304408781233683 89.4088
18.32696035875955 93.9852
18.349512652227624 98.9253
18.372065662579683 104.19200000000001
18.394795594587553 107.565
18.41735004715306 106.48700000000001
18.43990521943684 100.822
18.46246111238171 91.6595
18.485193953325208 81.5757
18.507751296070428 73.1049
18.530309362314178 67.9251
18.552868153000343 64.6268
18.57560391815056 63.04
18.59816416623245 62.3751
18.620725141597372 61.9953
18.643286845190268 61.5389
18.666025549835414 61.2015
18.688588718427933 60.5765
18.711152618092243 60.405
18.73389353884365 60.086000000000006
18.75645890921984 59.7091
18.77902501351406 59.4843
18.801591852673102 59.3846
18.824335739722738 58.7581
18.846904057212626 58.7302
18.8694731124168 58.4225
18.89204290628315 58.4094
18.914789774966803 58.2044
18.937361054791623 57.9314
18.959933076131318 57.8505
18.982505839934877 57.8336
19.00525570560582 57.9519
19.027829963004184 57.5816
19.05040496572238 57.8175
19.072980714710468 57.7159
19.095733592739563 57.7583
19.11831084296757 58.1503
19.140888842324735 58.7288
19.16346759176222 59.2129
19.18622349753803 59.503
19.208803755869358 60.1752
19.231384767143577 61.0756
19.253966532312948 62.0587
19.276725481241822 64.0738
19.29930876296784 66.1566
19.3218928014549 68.8771
19.34465404436217 72.0907
19.36723960516257 75.5829
19.389825925592426 77.0507
19.412413006605938 77.4146
19.43517731967805 74.6897
19.457765930683355 70.0506
19.48035530514408 65.15
19.50294544401556 60.9825
19.525712842708348 57.8398
19.54830451925909 56.1595
19.570896963095727 55.0731
19.593490175174704 54.4278
19.616260674962184 54.4313
19.638855432416964 54.3089
19.661450960992624 54.3657
19.68404726164677 54.2145
19.706820878021247 54.1442
19.729418731756834 54.2451
19.752017360452857 53.898999999999994
19.77461676506804 54.0087
19.797393513540218 54.1974
19.819994478951667 54.4532
19.84259622316767 55.0321
19.8651987471481 55.4958
19.887978643247177 55.8045
19.91058273574792 56.1242
19.933187610901943 56.6114
19.955969879466828 57.6723
19.97857632894404 58.8293
20.00118356396599 60.0259
20.023791585494575 61.7831
20.046577028914875 64.2322
20.069186632506966 66.4451
20.091797025500632 68.592
20.114408208858933 70.3761
20.137196842715273 70.592
20.159809615886765 69.7263
20.18242318232135 67.211
20.20503754298326 65.0143
20.227829382875154 63.2493
20.250445341109344 62.4105
20.27306209647285 62.5657
20.29567964993108 63.7037
20.31847471147704 64.8636
20.34109387027612 66.0554
20.363713830075454 66.4713
20.386334591841646 65.7553
20.409132890679302 63.3653
20.431755265564437 60.1693
20.454378445325528 57.1943
20.477002430930366 55.0271
20.499803982716553 53.526
20.522429589228004 52.8398
20.54505600449589 52.0401
20.567683229489194 51.7803
20.590488049900088 51.3097
20.61311690359731 51.0005
20.63574656993626 50.7839
20.658553853717297 50.2589
20.681185154618298 50.3269
20.703817271080066 50.2949
20.72645020407368 49.7677
20.749260783967177 49.6103
20.771895359337133 49.6134
20.794530754161617 49.5307
20.817166969412938 49.382
20.83998086114876 49.4495
20.86261872660049 49.3051
20.885257415405402 49.3138
20.90789692853701 49.1105
20.930714147864748 49.2342
20.953355319030678 49.3988
20.97599731745334 49.2351
20.99864014410749 49.1407
21.021460706796564 49.1295
21.044105199328826 49.355
21.06675052302631 49.7222
21.089396678865015 49.6114
21.112220600704806 49.9215
21.134868430275347 50.4542
21.15751709492456 50.6116
21.180166595629693 50.8571
21.202993892429635 51.3221
21.22564507473034 51.5089
21.24829709602816 51.775
21.27112693608965 52.0942
21.293780644891275 52.1105
21.316435195634053 51.655
21.339090589297417 50.9354
21.361923832041875 50.5031
21.384580921090404 49.9388
21.407238856007325 49.0742
21.429897637773326 48.907
21.45273429906592 48.8352
21.475394784108598 48.7359
21.498056118951983 48.8603
21.520718304578022 48.9826
21.543558400304388 49.0571
21.566222297108816 49.3227
21.58888704765135 49.3896
21.61155265291521 49.5409
21.63439619898156 50.0006
21.657063523335786 50.2251
21.67973170537063 50.8405
21.7024007460706 51.2998
21.72524775840385 51.8831
21.747918526116475 52.81
21.770590155457388 53.8754
21.79326264741238 55.4141
21.816113141960237 56.8053
21.838787368860547 58.3887
21.861462461341976 60.2
21.884315579735777 62.2439
21.90699241312273 63.9405
21.92967011506078 65.0745
21.95234868653799 65.6484
21.9752053151131 64.9808
21.997885635446785 63.1763
22.020566828293532 61.1954
22.04324889464272 58.9829
22.066109049404666 57.3175
22.088792872571794 56.4468
22.111477572219204 56.5371
22.1341631493376 56.6397
22.157026846313123 56.7062
22.179714188221507 56.1393
22.202402410582668 55.2884
22.22509151438863 54.1138
22.24795876962584 52.5681
22.270649646204486 51.5595
22.293341407213727 50.6237
22.316034053646906 50.0953
22.338904883215342 49.7869
22.36159931041458 49.7488
22.38429462602756 49.6408
22.40699083104897 49.5918
22.429865251039757 49.6569
22.452563244831367 49.7674
22.47526213102522 49.6561
22.49813925616515 49.5403
22.520839937143307 49.3343
22.543541513520587 49.278
22.56624398629403 49.0635
22.589124730075895 49.1369
22.611829005656723 49.2644
22.63453418063466 49.0738
22.657240256008077 49.2371
22.680124634582935 49.2618
22.70283252079775 49.5734
22.725541310413075 49.9411
22.74825100442868 50.1267
22.771139033969575 50.597
22.79385054687155 50.7602
22.81656296718292 51.3799
22.83927629590484 52.1851
22.862167992606945 52.9949
22.88488314827121 53.9197
22.907599215359284 54.7876
22.93031619487366 56.0603
22.953211574954405 56.9116
22.975930389478226 58.06100000000001
22.998650119445763 58.7412
23.02137076586092 58.4797
23.044269845560063 57.6046
23.06699233506288 55.9487
23.089715744034912 54.0553
23.112617610931565 52.1631
23.135342869061212 50.9317
23.158069049684816 49.9793
23.1807961538087 49.5874
23.20370174880544 49.426
23.226430710184808 49.3514
23.249160598093425 49.2895
23.271891413539002 49.3384
23.294800752937697 49.3208
23.31753343374794 49.4818
23.340267045128353 49.4691
23.36300158808808 49.8446
23.38591468821339 50.2141
23.408651104658304 50.5754
23.431388455719986 51.0466
23.454126742409 51.8213
23.4770436196085 52.6417
23.499783787914662 53.6017
23.522524894889884 54.5727
23.54526694154616 55.5397
23.56818761219047 56.8344
23.59093154860734 57.7511
23.613676427751283 58.5554
23.636422250635754 58.15
23.659346731118656 56.9429
23.68209445191868 55.4925
23.704843119509587 53.1424
23.72759273490623 50.8377
23.750521041644767 49.2896
23.77327256312355 48.1384
23.796025035462787 47.3198
23.818956224555475 46.9631
23.841710609113413 46.8011
23.86446594758979 46.3947
23.887222241002014 46.05
23.910157285144578 45.6229
23.932915498962537 45.6813
23.955674670778713 45.7782
23.978434801611975 45.386
24.001373717286125 45.3396
24.024135776723917 45.2794
24.046898798245582 45.172
24.06966278287146 45.2959
24.092605586582614 44.9616
24.115371508023642 44.6863
24.1381383956401 44.696000000000005
24.16090625045381 44.5519
24.183852958731244 44.6209
24.206622758582608 44.3306
24.229393528706886 44.31399999999999
24.252165270127392 44.2934
24.27511589952438 44.3265
24.297889594216997 44.0652
24.32066426328598 43.8031
24.34343990775613 43.7553
24.36639447485003 43.8296
24.38917208083877 43.7485
24.41195066531332 43.5921
24.43490819850244 43.5708
24.457688750692377 43.5187
24.48047028445616 43.3997
24.503252800821233 43.5227
24.526214300784112 43.428000000000004
24.548998793132213 43.4777
24.57178427117417 43.4717
24.59457073593893 43.5627
24.617536219319863 43.5078
24.64032466834748 43.42
24.663114107195035 43.4185
24.685904536893013 43.1854
24.708874020360852 43.0208
24.731666442613744 43.1291
24.754459858818787 42.8407
24.777254270007962 42.7443
24.80022777025625 42.8135
24.82302418230472 42.8176
24.845821592443674 42.7578
24.86862000170663 42.7406
24.891597535453727 42.556000000000004
24.914397953892728 42.74
24.93719937456671 42.7023
24.96000179851076 42.8527
24.98298338249997 43.1306
25.00578782394922 43.1489
25.028593271784167 43.2686
25.05157790644186 43.5046
25.07438537804115 43.6639
25.097193859145293 43.7753
25.120003350792075 44.1401
25.142992065061257 44.5079
25.165803588823465 44.6783
25.18861612625217 44.9787
25.211429678386736 45.0149
25.234422489079968 45.1117
25.257238081693636 45.0458
25.280054692141732 45.2282
25.3028723214652 45.286
25.325869245420463 45.3654
25.348688923599397 45.3938
25.371509623787006 45.473
25.394331347025812 45.2033
25.41733240110666 44.8756
25.440156181590016 44.3485
25.46298098826268 43.757
25.48580682216873 43.1777
25.50881202326435 42.5266
25.53163992281684 42.0066
25.55446885274561 41.8319
25.577298814096377 41.4466
25.600308179121807 41.4221
25.623140214533745 41.5526
25.64597328451537 41.3259
25.66898578564376 41.0008
25.691820936010206 41.0867
25.714657124097695 40.9653
25.737494350954734 40.9648
25.760511045684957 40.9335
25.783350361364224 40.9411
25.806190718969255 40.9458
25.82903211955018 41.0818
25.852053024868923 41.1066
25.874896522722523 41.13
25.897741066713106 41.0375
25.920586657892454 41.1634
25.943611790812668 41.2121
25.966459487728237 41.4057
25.989308234998564 41.2156
26.01215803367705 41.6747
26.03518741123814 41.8578
26.05803932412957 41.97
26.080892291600094 41.9751
26.10374631470478 41.971000000000004
26.12677995397268 42.1515
26.14963609978026 42.1097
26.172493304397875 41.9523
26.19535156888223 41.8248
26.218389486949604 41.5104
26.241249882640123 41.1725
26.26411134137826 40.8179
26.28715248187403 40.8294
26.31001607820869 40.6158
26.3328807407756 40.359
26.35574647063438 40.6341
26.37879191991473 40.5203
26.401659795896734 40.5781
26.424528742360263 40.7147
26.447398760366614 40.7803
26.470448535598294 41.0236
26.49332070826805 41.0822
26.516193955675355 41.391000000000005
26.53906827888316 41.5842
26.562122397260108 41.7345
26.584998883685063 42.0367
26.607876449110325 42.309
26.63075509460056 42.5007
26.65381357334404 42.6081
26.67669439061878 42.6921
26.699576291163382 42.5781
26.722459276044212 42.4398
26.745522132402975 42.31
26.768407297649354 42.0093
26.791293550442003 41.632
26.814180891848974 41.4075
26.837248143099337 41.1358
26.860137673466657 41.0072
26.88302829566349 40.778
26.90592001075963 40.6433
26.92899167420566 40.4169
26.951885586870763 40.1202
26.974780595655517 39.8343
26.99785558178161 39.6383
27.020752794605112 39.5006
27.043651106772522 39.3408
27.06655051935668 39.3246
27.089629948036183 39.1738
27.112531573292053 39.1399
27.135434302194138 39.1646
27.158338135817015 39.0989
27.181422024430987 39.0438
27.204328079372566 38.9298
27.22723524226965 39.0288
27.250143514198573 38.9841
27.273231880156334 39.0168
27.296142382065014 38.8155
27.319053996245536 38.7432
27.341966723775965 38.8355
27.365059584515222 39.0037
27.38797455070062 39.065
27.410890633481237 38.8005
27.433807833936918 38.934
27.456905206923906 38.9855
27.47982465472398 38.881
27.502745223449743 38.9263
27.525666914182825 38.9513
27.548768816912457 39.0183
27.571692763693633 38.9359
27.59461783573812 38.8735
27.617723149491244 38.643
27.640650484125285 38.637
27.66357894728264 38.5741
27.686508540048052 38.5193
27.709618414237887 38.4724
27.732550278321757 38.1355
27.755483275279115 38.2145
27.778417406196485 38.1468
27.801531858397514 38.2721
27.824468269376716 38.2177
27.847405817586786 38.1291
27.870344504116094 38.3902
27.893463551932008 38.4954
27.916404527281053 38.694
27.93934664422563 38.6337
27.962289903855886 38.7771
27.98541356491974 38.9432
28.00835912214229 39.1063
28.03130582533231 39.3047
28.054253675581805 39.3663
28.077381967556104 39.3942
28.100332124185126 39.4788
28.123283431160893 39.5361
28.146235889577238 39.3912
28.169368830154156 39.149
28.192323603752033 38.9706
28.215279532083304 38.6924
28.238415973016764 38.5245
28.261374223145094 38.4036
28.284333631303806 38.2503
28.307294198589954 38.1264
28.330435319167677 37.6824
28.353398217078915 37.489000000000004
28.376362277420153 37.2379
28.39932750129032 37.0169
28.422473319286713 36.8809
28.44544088262495 36.7664
28.468409612800283 36.6278
28.491379510913497 36.4744
28.51453004413313 36.4486
28.53750229057244 36.3724
28.56047570826344 36.3641
28.583450298308804 36.4075
28.606605564586562 36.0616
28.629582511831156 36.0897
28.65256063474956 36.0742
28.675539934446338 36.1685
28.698699951647605 35.9988
28.72168161743193 35.9204
28.74466446331978 36.0527
28.767648490417624 35.8813
28.790813276438353 35.9433
28.813799678527303 35.9025
28.836787265157085 35.9236
28.859955641890075 36.009
28.882945610203045 35.8672
28.905936766392035 35.6632
28.928929111566863 35.7408
28.952102288520145 35.7317
28.975097024308607 35.6417
28.998092952423807 35.5465
29.021090073977508 35.4673
29.04426806913204 35.3526
29.067267590245258 35.1823
29.090268308143695 35.1139
29.11327022394099 35.0286
29.13645305530891 34.8568
29.159457379627167 34.8234
29.18246290519685 34.7535
29.20546963313352 34.7654
29.22865731875826 34.7921
29.25166646419296 34.718
29.27467681535305 34.532
29.29768837335608 34.7188
29.320880931312562 34.7321
29.34389491580634 34.5934
29.366910110507334 34.6263
29.38992651653503 34.5785
29.41312396492981 34.7631
29.436142806456754 34.5456
29.45916286268059 34.5045
29.48236399319994 34.4409
29.50538649169417 34.2508
29.528410208259935 34.3256
29.55143514402014 34.0498
29.574641196749695 33.9175
29.597668583816574 33.7344
29.6206971934585 33.5899
29.64372702680042 33.6257
29.666938019934474 33.5429
29.689970313635285 33.3366
29.713003834422636 33.4082
29.73603858342347 33.3513
29.759254535188578 33.3232
29.78229175361658 33.1549
29.80533020365064 33.2646
29.82836988641968 33.3325
29.85159081507472 33.1984
29.874632976355343 33.0951
29.89767637376955 33.1172
29.920721008448314 33.0415
29.9439469322847 32.9274
29.96699405457564 32.9315
29.9900424175358 32.9813
30.013092022298157 32.9456
30.03632295963995 32.8596
30.059375061131373 32.8726
30.08242840783577 32.9419
30.105483000888153 32.8015
30.128718970092244 32.8006
30.151776069006917 32.7728
30.17483441768648 32.8516
30.198074175317235 32.8516
30.221135036724256 32.8054
30.24419715131772 32.748000000000005
30.267260520236203 32.7745
30.290505341942243 32.7513
30.313571232750228 32.782
30.336638381310948 32.6722
30.35970678876503 32.6778
30.38295669299435 32.6528
30.40602763151657 32.638000000000005
30.429099832366074 32.4674
30.452173296685572 32.4232
30.47542830191959 32.5424
30.498504306502497 32.4993
30.521581577995562 32.4746
30.544660117543582 32.4941
30.56792024229725 32.5049
30.59100133132069 32.4938
30.614083691845494 32.5119
30.637167325018545 32.6202
30.660432587840603 32.6428
30.683518779717886 32.5279
30.70660624769615 32.6174
30.729694992924372 32.5078
30.75296541239743 32.5071
30.77605672557558 32.5395
30.799149319462742 32.5551
30.8224236211637 32.405
30.845518789950724 32.2943
30.868615242910597 32.242
30.891712981195973 32.0057
30.91499247215866 31.9574
30.938092794619365 31.9278
30.96119440587579 31.8735
30.984297307082752 31.7939
31.00758200598383 31.6718
31.030687500658694 31.6252
31.053794288760695 31.5252
31.076902371446767 31.3544
31.100192296997445 31.4352
31.12330298246119 31.4007
31.14641496599209 31.2215
31.169528248749216 31.2789
31.19282341969534 31.3247
31.215939314557186 31.2561
31.239056512134788 31.4384
31.262175013589378 31.2736
31.28547544871168 31.1809
31.30859657161541 31.1967
31.331719001892175 31.21
31.35484274070538 31.3398
31.378148458819545 31.3791
31.401274828443725 31.2277
31.424402510106933 31.2428
31.447712205419993 31.2808
31.470842524931633 31.2561
31.493974159989783 31.2508
31.51710711176168 31.1739
31.54042212308802 31.2718
31.563557722100917 31.2142
31.586694641341655 30.9709
31.609832881979628 30.9259
31.63315322823208 30.8565
31.656294125521327 30.7598
31.679436347728515 30.6608
31.70257989602529 30.5851
31.725905596152327 30.5063
31.74905181052835 30.3775
31.772199354521323 30.4915
31.79534822930507 30.5263
31.818679302290967 30.5403
31.84183085259981 30.4942
31.864983737233473 30.4734
31.88813795736804 30.5136
31.911474422233013 30.3955
31.934631327356435 30.4963
31.9577895715215 30.3834
31.980949155906522 30.4053
32.004291031706956 30.3795
32.027453310562606 30.2795
32.05061693318573 30.1184
32.07396288236386 30.1279
32.09712920658542 30.0305
32.12029687812702 30.0177
32.14346589817093 29.9338
32.166817291729984 29.9037
32.18998902288583 29.7824
32.21316210610336 29.7
32.23633654256711 29.6071
32.259693399663725 29.5729
32.282870556771144 29.5005
32.30604907069099 29.5882
32.329228942610065 29.5458
32.35259128243769 29.3451
32.375773884550505 29.2279
32.398957848235646 29.2729
32.422143174682176 29.2154
32.445511016471215 29.180999999999997
32.468699082679954 29.1389
32.49188851523011 28.9706
32.51507931531304 29.009
32.538452678331 29.070999999999998
32.56164622776311 28.9383
32.58484114831493 28.8386
32.60803744118015 28.8415
32.631416344731896 28.9145
32.654615396551876 28.81
32.67781582427913 28.7956
32.701198898634416 28.7296
32.72440209253756 28.6437
32.747606665947124 28.6755
32.77081262006088 28.4689
32.79420126883317 28.57
32.81740999876112 28.5328
32.840620112999424 28.3639
32.86383161274818 28.3021
32.88722585534586 28.3589
32.91044014056596 28.3809
32.933655814909734 28.3509
32.95687287957963 28.2623
32.98027273544904 28.2856
33.00349259526636 28.1957
33.026713849030116 28.1856
33.04993649794511 28.205
33.073341986570746 28.1174
33.09656744032826 28.1828
33.11979429286444 28.1415
33.14302254538647 28.0708
33.166433686291185 28.0125
33.18966475336992 28.0678
33.212897224069096 27.9507
33.23613109959831 27.9953
33.259547912343415 27.9427
33.2827846121627 27.9294
33.306022720453775 27.8455
33.32926223842861 27.828000000000003
33.352684742614166 27.7881
33.37592709463173 27.7453
33.399170859982064 27.6758
33.422597648419426 27.6288
33.44584425514446 27.4929
33.46909227885668 27.3922
33.4923417207723 27.3044
33.51577423505344 27.3716
33.539026528130385 27.3181
33.56228024307245 27.2538
33.585535381098246 27.1728
33.60897364093058 27.1315
33.63223163992385 27.1181
33.6554910656699 27.0557
33.678751919389796 27.0884
33.702195944520106 27.0254
33.72545966903325 26.9634
33.74872482519663 26.7993
33.771991414233746 26.8369
33.79544122444841 26.8427
33.81871069412428 26.7727
33.84198160035767 26.7679
33.86525394437455 26.6921
33.88870955949969 26.6014
33.911984794020626 26.6468
33.93526147001624 26.5218
33.958539588715006 26.5719
33.98200102861669 26.4936
34.0052820477047 26.3342
34.02856451319451 26.3776
34.05203033759056 26.3896
34.07531571090147 26.353
34.09860253431845 26.334
34.121890809074316 26.2628
34.145362493118924 26.2671
34.16865368561615 26.1781
34.191946333164054 26.1399
34.21524043699793 26.2558
34.23871800066799 26.0721
34.26201503218366 25.9772
34.28531352370466 25.9328
34.30861347646881 25.8621
34.33209693978188 25.8089
34.3553998301885 25.8319
34.378704185565205 25.7658
34.402010007152356 25.6766
34.42549939016683 25.6698
34.44880815937748 25.5758
34.472118398533134 25.5714
34.49543010887669 25.4558
34.51892543169198 25.4014
34.54224009966052 25.4816
34.56555624255917 25.4946
34.58887386163339 25.3979
34.61237514439016 25.266
34.6356957311114 25.2648
34.65901779775809 25.2408
34.68252356662995 25.1674
34.705848608458616 25.2469
34.72917513396849 25.159000000000002
34.75250314440949 25.1984
34.77601490857862 25.0912
34.799345904259795 24.9344
34.82267838863559 24.9731
34.846012362958525 24.9495
34.869530142679984 24.93
34.89286711232212 24.8917
34.91620557568269 24.8878
34.93954553401677 24.8764
34.9630693495876 24.7643
34.986412313340814 24.7818
35.00975677584668 24.8333
35.033102738362956 24.7562
35.05663261012228 24.631999999999998
35.0799815881786 24.6216
35.10333207003229 24.5358
35.12668405694369 24.5383
35.150220005273056 24.5176
35.17357501786656 24.5791
35.19693153931268 24.4853
35.220289570874385 24.4548
35.24383161619786 24.4544
35.267192683604904 24.3964
35.290555264930376 24.3938
35.314101899412165 24.4283
35.33746752422433 24.4341
35.36083466676374 24.3486
35.38420332829803 24.2173
35.407756095629054 24.2249
35.43112781085063 24.2431
35.45450104888391 24.2468
35.477875810999194 24.3071
35.50143473172161 24.2022
35.52481255774625 24.2212
35.54819191167777 24.0874
35.57157279478914 24.0589
35.595137889488406 24.0055
35.61852184675279 24.0191
35.641907337029984 23.9333
35.665294361595684 23.8559
35.68886565090076 23.8598
35.7122557598848 23.8139
35.73564740699838 23.8564
35.759040593519934 23.7881
35.78261809810353 23.7363
35.80601437933051 23.713
35.829412203814705 23.6343
35.85281157283719 23.563000000000002
35.876395313415884 23.5695
35.8997977874528 23.4793
35.92320180988546 23.496
35.946790244133936 23.4661
35.97019737933222 23.4925
35.993606066789866 23.3657
36.01701630779276 23.3711
36.04061101440684 23.275
36.06402437852291 23.287
36.08743930005611 23.3095
36.1108557802951 23.1641
36.13445678011326 23.0961
36.15787639383515 23.142
36.18129757014299 23.16
36.20472031032821 23.0451
36.22832762423364 22.9939
36.25175350829375 23.0295
36.275180960119776 22.9678
36.298609981005924 22.9145
36.32222362992669 22.9414
36.34565580510207 22.8871
36.36908955323448 22.8608
36.39252487562093 22.7958
36.416144880530226 22.718000000000004
36.43958336764275 22.6998
36.463023432914625 22.7223
36.486465077645676 22.6146
36.51009145956204 22.706
36.53353627947859 22.6771
36.55698268276811 22.643
36.58043067073321 22.5952
36.60406345072071 22.4599
36.62751462435344 22.4908
36.65096738658405 22.4647
36.67460498210655 22.3692
36.69806093788647 22.3997
36.72151848619297 22.2998
36.744977628333636 22.3211
36.76862165890998 22.2552
36.79208400512205 22.2943
36.81554794910557 22.2718
36.83901349217101 22.1707
36.862663978991606 22.1738
36.88613273667352 22.174
36.90960309738324 22.1175
36.933075062434064 22.0021
36.95673202673572 21.964000000000002
36.98020721697122 21.9357
37.003684015502365 21.9041
37.027162423645365 21.8324
37.050825886711465 21.7985
37.07430753063053 21.7498
37.09779078812467 21.7647
37.121275660513014 21.6743
37.144945643673694 21.6845
37.16843376245278 21.67
37.19192350009803 21.671999999999997
37.215414857931435 21.6169
37.239091382563885 21.5592
37.262585997426164 21.5744
37.28608223645736 21.5223
37.309763684451696 21.4531
37.33326318851098 21.4596
37.356764320726555 21.4237
37.380267082425526 21.4404
37.40395510942588 21.3475
37.42746114683234 21.3022
37.45096881771841 21.2448
37.474478123414166 21.2339
37.49817275092816 21.2074
37.52168534303452 21.2091
37.54519957395567 21.1064
37.568715445024665 21.0224
37.592416694607714 21.1005
37.61593586281424 21.0992
37.63945667518264 21.0349
37.66297913304891 20.9718
37.68668702630454 21.0146
37.710212792059274 20.8714
37.733740207334854 20.8633
37.757269273470364 20.8196
37.780983832050374 20.7963
37.80451621684926 20.7989
37.82805025654007 20.7755
37.851585952464795 20.6847
37.8753071980695 20.6404
37.89884622345676 20.6071
37.92238690911902 20.5899
37.94611318753442 20.6087
37.969657210779765 20.5566
37.99320289834801 20.5178
38.016750251586465 20.4623
38.04048325513017 20.3911
38.06403395679343 20.3094
38.087586328183946 20.3289
38.11114037065203 20.4007
38.13488012115898 20.3338
38.1584375229181 20.2155
38.181996599821 20.2481
38.205557353221124 20.272000000000002
38.229303872575656 20.2153
38.2528679961576 20.116
38.27643380031219 20.0948
38.30000128639589 20.1253
38.32375459653193 20.0357
38.34732546371299 20.0234
38.37089801690786 19.9582
38.39447225747609 19.9364
38.418232380377425 19.907
38.441810012983396 19.9028
38.46538933705673 19.9221
38.488970353960084 19.8403
38.51273731166058 19.8122
38.536321731567014 19.7826
38.55990784840681 19.7515
38.58367995004091 19.7198
38.60726947812959 19.631
38.63086070726198 19.6272
38.654453638806274 19.6403
38.678232613930824 19.6072
38.70182896773327 19.4907
38.72542702806741 19.4697
38.7490267963045 19.4552
38.77281266709232 19.4495
38.79641586862214 19.4271
38.8200207821842 19.4241
38.843627409152944 19.3267
38.86742019782782 19.3659
38.891030269149255 19.2895
38.914642058016156 19.2873
38.938255565806124 19.2658
38.96205529464307 19.3026
38.98567225787121 19.254
39.00929094417078 19.1286
39.03291135492255 19.1993
39.05671804624804 19.0627
39.080341923549106 19.0603
39.103967529460334 19.0355
39.127594865365744 18.9825
39.15140854155791 18.9499
39.17503935514948 18.9487
39.19867190290282 18.9319
39.22249083587951 18.867
39.24612686969409 18.8547
39.269764641845306 18.8213
39.293404153722804 18.8437
39.317230110864074 18.7563
39.34087311998506 18.7371
39.36451787301696 18.7719
39.388164371352595 18.6545
39.41199737518003 18.6534
39.43564738196752 18.6262
39.45929913825317 18.5406
39.48295264543308 18.5883
39.506792718520884 18.5094
39.530449745387216 18.4732
39.55410852735203 18.4541
39.57776906581474 18.5057
39.60161623079 18.4197
39.625280300200025 18.3546
39.64894613032202 18.3367
39.67261372255866 18.3342
39.6964680021016 18.3072
39.72013913657293 18.2034
39.74381203738292 18.2681
39.76748670593756 18.2872
39.79134812278169 18.234
39.81502634488497 18.0774
39.83870633896685 18.11
39.862388106436654 18.0822
39.88625668336918 18.0309
39.90994201572829 18.0651
39.933629125719285 17.9751
39.957503091207826 17.9816
39.9811937746168 18.0073
40.00488623990914 17.9054
40.02858048850006 17.8501
40.05246165409549 17.8672
40.076159487492085 17.8015
40.099859108448875 17.7966
40.123560518384345 17.7261
40.1474489070226 17.750999999999998
40.171153913178564 17.6914
40.194860712584955 17.6759
40.2185693066637 17.6785
40.242464941335314 17.653
40.26617714307655 17.6113
40.289891143772046 17.5334
40.3136069448471 17.5385
40.33750984859743 17.5506
40.3612292688043 17.5305
40.3849504936829 17.46
40.40867352466194 17.4282
40.43258372059144 17.3881
40.45631038219906 17.3958
40.48003885420956 17.3584
40.503769138055105 17.3431
40.52768664931955 17.3165
40.55142057531802 17.3636
40.57515631746428 17.2807
40.599079334038514 17.2248
40.62281872700477 17.1504
40.64655994043941 17.171
40.67030297578061 17.118
40.69423334835778 17.0477
40.71798004609188 17.0957
40.74172857006355 17.0902
40.76547892171441 17.0494
40.7894166736039 17.0153
40.813170699248566 17.0291
40.83692655691388 16.9592
40.86068424804498 16.9426
40.884629402612525 16.8578
40.908390779366385 16.8405
40.932153993938 16.8398
40.95591904777605 16.8762
40.979871628443995 16.8186
41.003640379561936 16.7998
41.02741097430883 16.7901
41.05118341413683 16.746
41.075143444384416 16.6485
41.098919593177826 16.6528
41.1226975914255 16.656
41.14647744058318 16.5678
41.170444943946755 16.5456
41.19422851378379 16.5614
41.218013938914645 16.553
41.24198706625173 16.4786
41.26577622087193 16.4812
41.289567235177785 16.4237
41.31336011063129 16.4299
41.337340752422875 16.3691
41.361137369129835 16.3744
41.38493585138705 16.3357
41.40873620066004 16.3002
41.43272438060107 16.237000000000002
41.45652848292052 16.2428
41.48033445666918 16.2479
41.50414230331616 16.1843
41.528138045159764 16.1992
41.551949656675205 16.1226
41.575763145513235 16.0681
41.59957851314666 16.1031
41.62358184070442 16.0389
41.64740098505737 16.0106
41.6712220126409 15.9826
41.69504492493139 15.9462
41.71905586207357 15.911
41.74288256296395 15.9232
41.766711153007456 15.8968
41.79054163368412 15.9057
41.814560204340054 15.9202
41.838394485526365 15.8644
41.86223066180303 15.773
41.88625497706819 15.7506
41.910094962812 15.7606
41.93393684811168 15.6711
41.95778063445365 15.6396
41.981812625263366 15.6657
42.00566023303407 15.6214
42.029509746323676 15.5769
42.05336116662236 15.6178
42.077400857069705 15.5867
42.10125611078846 15.5445
42.12511327600405 15.4768
42.14897235421036 15.4347
42.173019768448455 15.4728
42.19688269209613 15.4036
42.22074753323349 15.3794
42.24461429335818 15.3829
42.268669455600495 15.3571
42.292540073217886 15.3567
42.31641261433284 15.3559
42.34028708044675 15.2485
42.36435001496739 15.2033
42.38822835065557 15.2687
42.41210861586426 15.2232
42.4359908120986 15.2022
42.46006154323262 15.1546
42.48394762115317 15.1273
42.507835634632315 15.1287
42.531912233047436 15.1189
42.55580413732265 15.0345
42.579697981698 15.0503
42.60359376768525 15.0137
42.62767820545945 14.9873
42.65157789440821 14.9156
42.67547952952185 14.882
42.699383112316 14.8577
42.72347541395347 14.8102
42.74738291190531 14.8208
42.771292362102166 14.8447
42.795203766063516 14.7923
42.819303956130405 14.7645
42.843219287476536 14.7215
42.86713657716324 14.7105
42.89105582671383 14.6721
42.91516392983864 14.6419
42.939087119032166 14.6493
42.963012272677304 14.5916
42.98693939230129 14.5767
43.01105543317513 14.525
43.034986504731386 14.5443
43.05891954686589 14.5074
43.08285456110972 14.5318
43.10697856448665 14.4455
43.130917542983475 14.3799
43.15485849820081 14.4088
43.17880143167367 14.3641
43.20293342237094 14.3476
43.226880332449 14.3211
43.25082922540554 14.3451
43.27496722682525 14.2905
43.29892010567796 14.2266
43.32287497204102 14.2343
43.34683182745632 14.2422
43.370977859791836 14.1793
43.39493871351105 14.1829
43.41890156092628 14.1858
43.44286640358341 14.1226
43.46702049182749 14.0919
43.49098934522816 14.0902
43.51496019852649 14.0322
43.5389330532723 13.9918
43.56309522248204 14.0035
43.58707210044314 13.9787
43.61105098451946 13.9437
43.63503187626491 13.9375
43.659202151562134 13.8613
43.68318707902681 13.9162
43.70717401884041 13.9113
43.731162972560874 13.8143
43.75534137913236 13.8089
43.779334381108384 13.7898
43.803329401683186 13.7752
43.82732644241872 13.7505
43.8515130055166 13.7318
43.87551410707659 13.6691
43.89951723350145 13.6474
43.923709934595614 13.6077
43.94771713129917 13.6184
43.97172635758096 13.6094
43.99573761501002 13.5667
44.0199385169922 13.5612
44.04395385732619 13.5213
44.067971233533086 13.4971
44.09199064718605 13.4536
44.11619977548961 13.4461
44.14022328470671 13.422
44.16424883610785 13.4381
44.18827643127035 13.4059
44.21249381139513 13.3764
44.236525514814076 13.3184
44.26055926674478 13.347000000000001
44.28459506876863 13.2479
44.3088207262813 13.2298
44.33286064928722 13.2263
44.35690262714919 13.1975
44.38094666145278 13.1724
44.4051806219871 13.1872
44.42922879003185 13.155999999999999
44.45327901929361 13.1486
44.477331311362136 13.0748
44.501573600619416 13.0784
44.525630039221795 13.0337
44.54968854541895 13.1025
44.573937102200176 13.0422
44.5979997645541 12.9956
44.622064499300315 12.9761
44.64613130803592 12.9354
44.67038823869318 12.9341
44.69445921643748 12.8898
44.718532272981385 12.8631
44.742607409926194 12.8333
44.76687274034801 12.7973
44.79095205918753 12.7875
44.81503346325094 12.8004
44.839116954143876 12.7759
44.86339071028742 12.7575
44.88747839599524 12.7624
44.91156817336837 12.69
44.93566004401666 12.7071
44.959942251908146 12.6378
44.984038330325966 12.6362
45.00813650686762 12.5879
45.03223678314731 12.5701
45.05652746888232 12.5049
45.08063196592069 12.5013
45.104738567558705 12.4811
45.128847275414856 12.5027
45.15314646515866 12.4615
45.17725940679741 12.4645
45.20137445952892 12.4159
45.22568004865265 12.4364
45.24979934496396 12.3937
45.27392075725247 12.3508
45.29804428714431 12.3713
45.322358426247604 12.3073
45.346486212804315 12.3149
45.370616121861914 12.302
45.39474815505086 12.2495
45.41907087049246 12.1831
45.4432071734666 12.1624
45.46734560548283 12.198
45.49148616817604 12.1671
45.51581748638564 12.1224
45.5399623320197 12.1282
45.56410931325473 12.0825
45.58825843173002 12.0935
45.61259837920865 12.03
45.636751793816 12.0464
45.66090735060093 12.0243
45.68506505120716 12.0181
45.7094136545275 11.9906
45.73357566449271 11.93
45.75773982322992 11.9379
45.78190613238733 11.9259
45.806263418194064 11.8733
45.83043404997326 11.8881
45.85460683713677 11.8485
45.87897065658495 11.8108
45.90314777634752 11.7756
45.92732705646868 11.7357
45.9515084986045 11.7541
45.97588104735473 11.7268
46.00006683541565 11.6659
46.02425479047904 11.6648
46.04844491420549 11.6763
46.0728262191024 11.633
46.09702070211635 11.6451
46.12121735879483 11.6471
46.14541619080294 11.571
46.169806278764455 11.5848
46.194009483459034 11.5877
46.21821486849841 11.557
46.24242243555223 11.5125
46.266821333570014 11.4714
46.29103328674601 11.4597
46.31524742696538 11.4599
46.33946375590237 11.4118
46.36387149104216 11.3831
46.38809221957392 11.3664
46.41231514186606 11.3891
46.436540259597464 11.3762
46.460956858999374 11.3399
46.48518638983522 11.3388
46.509418121166966 11.3008
46.533652054678114 11.2584
46.55807754555709 11.2236
46.58231590571962 11.2287
46.60655647313217 11.1583
46.630988654873654 11.140999999999998
46.655233659129024 11.1677
46.67948087571551 11.1699
46.70373030632484 11.0784
46.72817142736393 11.077
46.752425308428684 11.1022
46.77668140861147 11.0641
46.80093972960865 11.0283
46.82538981736788 11.0251
46.849652602470904 11.015
46.87391761349769 10.9468
46.8981848521493 10.9079
46.9226439341274 10.9393
46.946915650573224 10.8973
46.97118959976749 10.8955
46.99546578341598 10.8721
47.019933887188216 10.8726
47.04421456235744 10.8203
47.06849747711879 10.8021
47.09278263318286 10.7856
47.11725978640143 10.762
47.14154944775105 10.7321
47.165841355555656 10.7137
47.1901355115306 10.7042
47.214621741924994 10.6841
47.23892041698887 10.6592
47.26322134538975 10.6491
47.28771440635075 10.6582
47.31201986422527 10.6237
47.33632758061436 10.5746
47.360637557241866 10.5697
47.38513974410611 10.5447
47.40945426407847 10.5455
47.43377104948137 10.5394
47.45809010204344 10.5464
47.48260144275502 10.4986
47.506925052572285 10.4787
47.53125093475548 10.4145
47.55557909103813 10.4519
47.58009961361992 10.399000000000001
47.60443234110732 10.3649
47.62876734791564 10.3198
47.65310463578333 10.3398
47.6776343683373 10.3489
47.7019762413987 10.3033
47.72632040075572 10.2753
47.75066684815169 10.2319
47.77520581885936 10.2016
47.799556865477655 10.2007
47.823910205386 10.227
47.84826584033272 10.2232
47.87281407745551 10.184
47.89717432569297 10.1494
47.92153687423484 10.1338
47.94609208429692 10.1036
47.97045925671401 10.0844
47.99482873471275 10.035
48.01920052005013 10.081
48.04376504619224 10.0223
48.068141469543484 10.0766
48.09252020552573 10.0359
48.11690125590099 9.99168
48.1414751266064 9.992180000000001
48.16586082917454 9.94755
48.19024885144316 9.94107
48.2146391951793 9.90426
48.239222439012764 9.900830000000001
48.26361744916137 9.89601
48.28801478610016 9.88452
48.31241445160131 9.87236
48.337007097209366 9.86317
48.36141144338331 9.847999999999999
48.38581812345755 9.77996
48.41022713920929 9.7819
48.434829215320704 9.76089
48.45924292604658 9.73574
48.48365897780325 9.709019999999999
48.50807737237308 9.73123
48.532688907799276 9.72218
48.55711201168574 9.695210000000001
48.581537463754074 9.63795
48.60615611725119 9.66558
48.63058628942721 9.63952
48.65501881516546 9.60778
48.6794536962573 9.56988
48.70408185970339 9.56236
48.72852147531801 9.545810000000001
48.75296345168211 9.53277
48.77740779059232 9.52239
48.80204549302823 9.50505
48.82649458091802 9.491
48.85094603676547 9.44213
48.87539986237231 9.40943
48.90004713292306 9.42875
48.92450572200832 9.433760000000001
48.94896668628025 9.4096
48.97343002754588 9.38367
48.99808689542115 9.367519999999999
49.02255501470614 9.35716
49.04702551642794 9.32746
49.0714984023988 9.3129
49.096164896893235 9.28706
49.120642575466796 9.25428
49.145122643748394 9.25393
49.16960510355558 9.26977
49.19428125404938 9.22147
49.2187685210852 9.20314
49.243258185121555 9.17729
49.26794160167084 9.17181
49.2924360839405 9.17205
49.31693296869764 9.13459
49.34143225776915 9.106630000000001
49.36612538195438 9.07485
49.39062950396021 9.084
49.41513603578346 9.05757
49.4396449792564 9.023539999999999
49.46434784069503 9.01405
49.488861631846454 9.00704
49.513377840166804 8.98836
49.537896467493745 8.97862
49.56260909589029 8.945260000000001
49.587132585683285 8.96687
49.611658500018365 8.925989999999999
49.636186840738596 8.885689999999999
49.66090926588511 8.87997
49.685442483902584 8.88509
49.70997813385706 8.81149
49.734516217597076 8.8491
49.75924846937352 8.81382
49.7837914452858 8.8177
49.80833686055187 8.787
49.83288471702571 8.786
49.85762682540054 8.75395
49.882179588965734 8.70934
49.9067347993235 8.701080000000001
49.93129245833333 8.68962
49.95604445336378 8.66793
49.98060703442832 8.6752
50.005172069746266 8.66376
50.02993150438364 8.6359
50.05450147301533 8.61385
50.07907390151433 8.60041
50.10364879174981 8.56287
50.12841816587289 8.580169999999999
50.1529980044635 8.5472
50.17758031042124 8.53854
50.20216508562089 8.54937
50.22694442953363 8.50127
50.25153416817468 8.48223
50.27612638170508 8.45294
50.300721072005196 8.39509
50.325510416102105 8.44253
50.350110084975064 8.438039999999999
50.37471223628208 8.4143
50.39931687190919 8.376710000000001
50.424116246675766 8.36092
50.44872587605249 8.36078
50.47333799543065 8.35191
50.49795260670191 8.34499
50.52276204271512 8.32437
50.54738166295838 8.2987
50.57200378079314 8.29044
50.596628398116835 8.25882
50.62144792604559 8.242389999999999
50.646077567609396 8.239339999999999
50.670709714377715 8.21076
50.69553683636198 8.19549
50.72017401885922 8.16708
50.7448137122895 8.16002
50.76945591856022 8.1682
50.79429318636823 8.14269
50.818940443716784 8.14814
50.84359021965163 8.14064
50.868242516085964 8.10234
50.893089960641895 8.067919999999999
50.917747323549435 8.059619999999999
50.94240721271973 8.01092
50.96706963007175 7.983969999999999
50.99192728239342 8.007539999999999
51.01659478166073 8.025889999999999
51.04126481489051 7.99335
51.06593738400761 7.97059
51.090805275207074 7.938689999999999
51.11548294172845 7.91857
51.14016314993547 7.92595
51.164845901758845 7.91233
51.18972406304274 7.8781
51.21441192780656 7.848089999999999
51.23910234200271 7.8582
51.2637953075678 7.84432
51.288683770237945 7.807910000000001
51.31338186432707 7.79138
51.33808251561888 7.78487
51.362978729967345 7.7748800000000005
51.387684521509755 7.76762
51.41239287610203 7.73164
51.437103795691165 7.68849
51.46201036644977 7.70465
51.486726441956634 7.68342
51.51144508832545 7.688619999999999
51.536166307509156 7.68664
51.56108326624387 7.638610000000001
51.58580965706056 7.6161
51.61053862657523 7.60732
51.635270176746864 7.5655
51.66019755512065 7.5777
51.68493429268881 7.5838399999999995
51.70967361681515 7.5545
51.73441552946465 7.52303
51.759353359237934 7.50852
51.7841004750961 7.51996
51.80885018539685 7.50517
51.833602492111254 7.47035
51.8585508051424 7.42272
51.883308330926425 7.44945
51.90806845906181 7.41483
51.932831191525715 7.39456
51.95779001977161 7.391189999999999
51.98255798721516 7.35595
52.00732856494335 7.34057
52.03229530577543 7.326860000000001
52.057071130455945 7.27617
52.081849571391054 7.289110000000001
52.106630630568695 7.324669999999999
52.13160794279417 7.253760000000001
52.15639426492067 7.2941199999999995
52.18118321127822 7.2935
52.205974783860896 7.221360000000001
52.23096269971011 7.160539999999999
52.255759551287994 7.19537
52.280559035098186 7.208019999999999
52.30536115314103 7.2087
52.33035970494467 7.18735
52.35516711807904 7.135669999999999
52.37997717147198 7.134939999999999
52.40478986713005 7.10562
52.42979908731974 7.107710000000001
52.454617094216 7.09104
52.47943774942214 7.06372
52.50426105495102 7.05275
52.529280976059844 7.00218
52.554109609024096 7.0186399999999995
52.57894089837482 7.02566
52.60377484613117 6.990489999999999
52.62880550079408 6.98429
52.65364479223379 6.9455100000000005
52.67848674816189 6.9314100000000005
52.70352547971946 6.93328
52.72837279155837 6.94105
52.753222773982785 6.89945
52.778075429022984 6.9097800000000005
52.80312495150885 6.88333
52.827982978797436 6.8552
52.85284368481815 6.81876
52.87770707160767 6.8456399999999995
52.90276741793998 6.85285
52.92763619336701 6.808669999999999
52.952507655698504 6.7717
52.977381806977576 6.799939999999999
53.00245301017842 6.75939
53.02733256653592 6.7435
53.052214817996074 6.73853
53.077099766608484 6.69866
53.102181859804446 6.72271
53.127072229988265 6.702789999999999
53.15196530349892 6.684089999999999
53.17686108239249 6.667669999999999
53.20195409881522 6.65751
53.22685531582556 6.618339999999999
53.25175924441303 6.6155
53.27666588664027 6.630089999999999
53.30176985962693 6.66051
53.3266819565689 6.61113
53.35159677336455 6.54298
53.376514312083096 6.53546
53.40162927507703 6.567880000000001
53.42655228516116 6.54611
53.45147802340193 6.51616
53.47660125628886 6.45509
53.50153247842639 6.4596800000000005
53.52646643496923 6.4639999999999995
53.55140312799818 6.46017
53.576537409691696 6.43427
53.60147960336152 6.4303
53.626424539786164 6.41357
53.65137222105307 6.37601
53.67651758529126 6.416
53.70147078399681 6.35571
53.72642673383343 6.35636
53.75138543689533 6.3483
53.776541917524526 6.35928
53.801506154876755 6.31496
53.826473151763246 6.30485
53.851442910284916 6.29667
53.87661054126026 6.24715
53.9015858509782 6.233709999999999
53.92656392866066 6.24876
53.95154477641532 6.2317599999999995
53.976723591801296 6.17033
54.00171000771266 6.23525
54.02669920004598 6.23813
54.051691170915745 6.21054
54.076881204886796 6.1667
54.101878760928514 6.17318
54.12687910187696 6.14895
54.152077577768296 6.146
54.1770835166946 6.08908
54.20209224691339 6.11281
54.22710377055121 6.0816300000000005
54.25231352511594 6.084980000000001
54.27733066384342 6.036980000000001
54.30235060239643 6.06842
54.32737334290836 6.03373
54.35259441062629 6.004569999999999
54.377622783395324 5.92745
54.40265396455061 5.95983
54.42768795623251 5.9490099999999995
54.45292037169559 5.9423900000000005
54.477960012857906 5.9204300000000005
54.50300247099511 5.90067
54.52804774825457 5.88424
54.55329154616743 5.8765
54.57834249018678 5.87183
54.6033962597977 5.82239
54.6284528571545 5.78126
54.653708072335164 5.746659999999999
54.67877035378786 5.746090000000001
54.70383546947698 5.71973
54.72890342156389 5.71694
54.7541700889442 5.693980000000001
54.77924374251975 5.72135
54.8043202390049 5.66293
54.82959552413022 5.58631
54.8546777351945 5.55081
54.87976279569621 5.52217
54.90485070780914 5.59213
54.930137506558005 5.56721
54.95523115074295 5.59226
54.98032765308844 5.5376900000000004
55.005427015775496 5.5174900000000004
55.03072536339621 5.52612
55.05583047570572 5.4877199999999995
55.080938454927676 5.50948
55.10604930325027 5.4307
55.131359235107396 5.46795
55.15647585066083 5.41499
55.181595341907496 5.4086300000000005
55.20671771104285 5.344119999999999
55.232039262617704 5.35254
55.25716741665048 5.2725
55.28229845518636 5.26661
55.30743238042802 5.2045900000000005
55.33276558731939 5.2679800000000006
55.357905315183636 5.22855
55.383047936390035 5.186719999999999
55.40819345314859 5.125290000000001
55.433538351073295 5.11275
55.458689688238415 5.11306
55.483843927614096 5.0273900000000005
55.509197623043605 5.08711
55.53435769621134 5.01194
55.55952067826466 4.98879
55.5846865714265 5.01163
55.61005202069737 4.98533
55.63522376553902 4.97441
55.66039842818645 4.95425
55.68557601087004 4.91297
55.7109532500271 4.87664
55.73613670233794 4.9088199999999995
