TT I
1.2716486653135266 33.2634
1.2939594142134223 32.7543
1.3162702121660406 31.4156
1.3385810600174564 31.055999999999997
1.3608919586137629 30.3366
1.383202908801069 29.2333
1.405513911425503 28.6398
1.4278249673332093 28.1725
1.4501343378461518 27.8313
1.4724455028545926 26.5676
1.4947567236847858 26.7148
1.517068001182951 26.0536
1.5393793361953272 25.6254
1.5616907295681737 25.3694
1.5840021821477681 24.6394
1.60631369478041 23.9764
1.6286252683124185 23.805
1.6509369035901333 23.4392
1.6732468618895553 23.0377
1.695558623192809 22.1265
1.7178704487808514 22.4613
1.7401823395001077 21.9282
1.7625012545597203 21.9401
1.7848028405262486 21.6907
1.8071218901122095 21.7399
1.8294236121921872 20.5423
1.8517427996910911 21.4062
1.8740620574440425 21.943
1.8963639900671978 21.0501
1.9186833908139995 21.3142
1.9409854680117449 21.0514
1.9633050151394713 20.489
1.9856246367570705 20.9307
2.0079269371922672 21.1624
2.03024671027244 20.7201
2.0525491637446027 20.5868
2.074869091674931 20.8608
2.097171701569106 20.8309
2.1194917877373847 20.8121
2.141811954326636 21.2662
2.164114805233074 20.6486
2.186435135143035 20.5755
2.208738150935709 21.1961
2.231058647554722 20.9871
2.2533792288321184 21.153000000000002
2.275682498336085 20.97
2.298003251406138 21.6761
2.3203066942619714 21.5799
2.3426276225136022 21.8955
2.3649486396617507 21.8464
2.387252348930071 21.9986
2.4095735463442893 21.3815
2.4318774374315884 21.3951
2.4541988185014043 21.7321
2.476502894794693 21.3722
2.498824462909887 21.875
2.521146125856138 22.3623
2.5434504863470337 23.0198
2.5657723414244717 22.5265
2.588076895590662 23.4116
2.610398946189713 23.9476
2.6327210958598384 24.0247
2.6550259469304716 24.6558
2.6773482972090137 25.171999999999997
2.6996533504259 25.9377
2.7219759047039602 27.1736
2.744298562293959 27.6823
2.7666039251246595 29.0608
2.7889267918020164 30.3318
2.8112323652516555 31.0523
2.833555444408179 32.1921
2.8558786311183852 34.4796
2.8781845268938557 37.0528
2.9005079311721484 39.0387
2.9228140460410397 41.233000000000004
2.9451376712799635 44.3037
2.967444008632326 46.7133
2.9897678582247247 50.7504
3.0120918213106695 55.2097
3.0343984987899373 59.49
3.0567226913198637 63.8937
3.079029599759726 69.0945
3.101354025127254 73.4941
3.123678568232338 75.8643
3.145985829517914 77.6121
3.16831061055229 77.4384
3.1906181112775593 74.8406
3.212943133635653 72.3956
3.2352682779763207 67.7244
3.2575761442691227 62.0792
3.2799015350264273 56.9213
3.302209649240067 52.1642
3.3245352898092655 47.6492
3.3468436553365257 43.379
3.369169549113219 40.0637
3.3914955708171384 37.3011
3.413804319727358 35.2943
3.4361305997334863 32.7876
3.4584396084414553 31.6182
3.4807661501462652 31.0798
3.503092824025881 29.8011
3.5254022288463154 28.7239
3.5477291695206588 28.184
3.5700388426251948 27.6233
3.5923660534916446 27.0633
3.6146934007816114 26.7422
3.637003482731501 26.4784
3.6593311053109985 26.114
3.681641464033634 26.2639
3.7039693653009733 25.8611
3.726297407241705 25.9098
3.7486081875460804 25.6706
3.7709365132734978 25.7247
3.793247578841633 26.1322
3.8155761917550093 25.7522
3.8378875459837216 25.8162
3.8602164494827234 26.1267
3.882545499606844 26.4288
3.9048572932539183 26.6384
3.9271866390645718 26.5563
3.9494987298666713 26.9018
3.971828374764527 27.1596
3.9941581705403255 27.5281
4.016470713506008 27.5931
4.038800813471445 27.838
4.061113662089144 28.4076
4.0834440696459176 28.7475
4.105774632334751 28.7896
4.128087945865126 29.5166
4.150418821249301 29.769000000000002
4.172732448931298 30.128
4.195063640413578 31.3277
4.2173775856475215 32.0113
4.239709096631102 33.1154
4.262040768704612 33.6032
4.284355196706267 36.1304
4.306687193387355 37.7144
4.329001947444346 40.0406
4.35133427213731 42.1734
4.373666762177566 42.0234
4.395982011761091 40.3538
4.418314834921175 38.3356
4.44063041906622 37.3569
4.4629635787515625 37.0105
4.4852969080429785 37.0114
4.5076130004776225 37.5571
4.529946671403969 38.1335
4.552263106909177 38.5507
4.574597122877047 39.4539
4.596931312711224 40.3855
4.619248269273446 40.7176
4.6415828092605835 41.3202
4.663900117405352 41.8843
4.686235010953232 42.9206
4.708552674085913 44.0132
4.730887924602802 45.1441
4.753223354952695 46.9978
4.775541557023902 48.4729
4.797877349456786 49.9259
4.820195915032126 52.44
4.842532072957498 54.2116
4.864868414979744 56.58
4.88718753227192 59.3518
4.909524244902505 63.4065
4.931843734218147 68.0944
4.954180820867835 74.1655
4.976518095879839 81.9767
4.998838149695359 91.1306
5.021175803844231 103.262
5.043496238205739 113.36
5.065834274903528 121.87799999999999
5.088172504230693 129.66899999999998
5.1104935158799565 140.605
5.132832132875765 158.893
5.155153533596801 185.21900000000002
5.1774925416746225 227.558
5.199814334878411 305.99
5.2221537374521505 462.875
5.244493338631803 697.812
5.266815727034316 1007.08
5.289155727832427 1573.78
5.311478517248165 2744.97
5.333818921080011 4026.02
5.356159527788849 4451.53
5.3784829252032536 3260.7
5.400823940070432 1795.17
5.423147747031976 852.345
5.445489173474152 463.434
5.467830807066149 314.235
5.490155234831516 243.175
5.512497285125229 198.96099999999998
5.534822130975162 171.13299999999998
5.557164601388673 151.827
5.579489868738879 136.06
5.601832762690846 126.177
5.6241758697774475 119.104
5.646501775867269 114.83
5.668845311622074 111.861
5.691171647754637 109.48200000000001
5.713515615597765 106.09100000000001
5.735859800852677 102.723
5.758186788542988 100.139
5.780531411018185 99.4721
5.802858837297399 99.714
5.825203900414495 101.185
5.8475491852224 102.919
5.869877275883075 106.77799999999999
5.892223006467101 111.589
5.914551544266608 118.292
5.936897724049891 127.365
5.959244129804903 140.161
5.981573344815301 161.22799999999998
6.0039202049061 194.16099999999997
6.026249875609095 249.25
6.04859719346037 324.447
6.070927323278297 419.67699999999996
6.093275102315365 556.4780000000001
6.115623113320588 740.2489999999999
6.137953938319995 1024.04
6.160302415650845 1256.02
6.182633708324452 1152.21
6.2049826554078376 840.956
6.227331838745022 522.382
6.249663839443684 329.465
6.27201349767565 228.699
6.294345974611799 171.77599999999998
6.316696111167083 133.19299999999998
6.339046488263839 108.774
6.361379686074702 93.1222
6.383730546639482 82.8648
6.406064229255215 74.2075
6.428415576718203 69.1349
6.450749747566656 64.6199
6.47310158535871 60.4285
6.495453669698332 57.1367
6.517788579421056 54.8739
6.540141159237969 52.5755
6.562476565766648 50.9024
6.5848296444934045 49.3637
6.607182974060425 48.1611
6.6295191323281015 46.896
6.651872965955752 45.9415
6.6742096296068985 45.0907
6.6965639707294615 44.5119
6.71891856698715 43.6861
6.741255995248479 43.0637
6.763611104154477 42.3538
6.785949046381137 41.9827
6.808304671371482 41.3126
6.8306605557940046 41.0517
6.852999275508618 40.9853
6.875355681171544 40.7217
6.897694923437771 40.7202
6.92005185377892 40.5607
6.9423916220322655 40.7699
6.964749080490181 40.3235
6.987106804399774 40.8207
7.009447368180821 41.0905
7.031805625367033 41.8816
7.054146723727803 43.2533
7.076505517631004 44.3482
7.098864581288365 45.9129
7.121206488070854 46.3638
7.143566093607822 45.147
7.165908543567245 43.3687
7.188268694426048 41.7226
7.2106291193438095 40.2402
7.232972390625943 39.757
7.255333366030969 39.5526
7.277677189091925 39.0902
7.300038718428332 38.9329
7.322400526130865 38.8489
7.344745183422596 38.7677
7.367107550224791 38.9141
7.389452767901992 39.1964
7.411815697249891 39.0572
7.434161478756298 39.4183
7.456524974096713 40.3413
7.478888753837185 42.1351
7.501235387657368 45.783
7.523599738562711 57.6776
7.545946944825532 94.4334
7.568311870344528 160.44299999999998
7.5906770845765665 210.21900000000002
7.613025156078678 176.017
7.635390950099687 106.87
7.657739602662809 65.4021
7.680105979923558 49.1976
7.702472650212829 43.6164
7.724822180948224 40.9266
7.747189439655568 39.984
7.769539560075357 38.8721
7.791907410653562 38.7267
7.81425812420825 37.979
7.836626570110925 38.0923
7.858995315087906 38.3907
7.881346924933401 38.1038
7.903716270417482 38.3854
7.926068482028405 38.5668
7.948438431475253 38.8129
7.9708086843180235 38.8159
7.993161805171116 39.0158
8.015532667162402 39.4895
8.037886398416653 40.2657
8.060257873014221 40.4975
8.082629655331942 40.5193
8.104984308787587 40.9568
8.127356708900503 41.6441
8.149711981398308 42.0973
8.172085002766314 42.6856
8.194458336181368 43.5714
8.216814543847752 44.6141
8.23918850371002 45.8539
8.26154533906492 47.119
8.283919928836452 48.902
8.306277395339652 50.2798
8.328652618483376 51.8638
8.351028159736202 53.6695
8.373386579575245 55.39
8.395762759396959 55.9948
8.418121819038275 58.0643
8.440498640894003 61.6277
8.462875785192262 66.3457
8.485235811156207 72.5332
8.507613602688501 81.2811
8.529974277114228 97.5329
8.552352719347912 119.916
8.574731488360351 150.41
8.59709314210385 182.726
8.619472567021075 214.908
8.64183487789147 265.47700000000003
8.664214962183097 375.526
8.686577933647762 554.612
8.708958680784317 725.029
8.731339760774953 762.8389999999999
8.753703729764451 611.031
8.77608547780821 398.267
8.798450116065078 255.957
8.820832535634787 175.43
8.843215292401656 131.702
8.865580941199045 107.333
8.887964374703538 93.8731
8.910330701447199 85.2932
8.932714815164482 78.8274
8.955099270424924 74.4933
8.977466620733543 71.5738
8.999851761421976 69.3469
9.022219798361645 67.3721
9.04460562795561 66.2631
9.066991803441677 65.274
9.089360876979615 64.8176
9.111747746589993 64.3399
9.13411751544971 64.6835
9.156505082664324 65.5766
9.178875550323522 68.0715
9.20126381862328 73.61
9.223652438908596 88.2945
9.246023961427412 135.813
9.26841328802173 239.81599999999997
9.290785518039224 337.963
9.313175554425882 333.776
9.335565947154315 222.47099999999998
9.357939245086508 129.173
9.380330352834827 87.546
9.40270436697103 71.0503
9.425096193225055 64.5366
9.447488380180165 61.8974
9.469863475295412 59.6095
9.492256385987508 58.0036
9.514632206018318 57.272
9.537025843935714 56.9262
9.559402392368193 56.5336
9.581796761000229 56.4032
9.604191496441521 56.3132
9.626569144158516 56.3295
9.648964615551032 56.2159
9.671343000390081 56.6611
9.693739211225699 57.3116
9.716135793237463 57.85
9.738515290448102 57.708999999999996
9.760912617143402 58.6364
9.783292860202891 59.5492
9.805690935076182 60.3947
9.828089385495742 60.9161
9.850470754023561 62.6149
9.872869957865444 64.3855
9.89525208097539 66.5644
9.917652041736662 69.1944
9.940052382417589 72.5346
9.962435644102392 77.6144
9.984836746950979 84.98700000000001
10.007220771957746 96.3528
10.029622640473708 116.133
10.052007432299963 141.325
10.074410069984072 163.256
10.096813093716005 183.801
10.119199042482517 206.425
10.141602840636468 252.06
10.163989564971628 339.68699999999995
10.186394141051062 501.69
10.208799107559706 674.6560000000001
10.231187001965623 752.7510000000001
10.253592751657669 663.8969999999999
10.275981430388155 466.56300000000005
10.298387966769793 302.125
10.320794897965431 208.487
10.343184759907361 153.724
10.36559248305461 120.69200000000001
10.387983138083852 101.90700000000001
10.410391656691655 91.8016
10.432800574501677 85.5028
10.455192425893369 82.6866
10.47760214443012 83.8163
10.499994797678786 87.3917
10.522405320453982 91.32700000000001
10.54479877906917 94.7133
10.567210109595656 98.0157
10.5896218454736 105.462
10.612016518879773 125.601
10.634429067781074 163.76
10.656824555333241 217.59599999999998
10.679237920773568 265.595
10.701651695961992 276.923
10.724048411481384 251.87900000000002
10.746463008485165 208.12099999999998
10.768860546937125 154.791
10.791275969274796 105.617
10.81369180576079 78.18
10.836090585366925 65.4495
10.858507252467449 58.7465
10.88090686379991 55.3732
10.903324365036394 53.2092
10.925724811614439 51.3051
10.948143150509463 50.4885
10.970561909719066 49.0256
10.992963615930844 48.373000000000005
11.015383218085756 47.4107
11.037785768347074 46.1997
11.06020621697282 45.5126
11.082627090322113 44.9372
11.105030913430326 44.5236
11.12745263854165 44.0362
11.149857314510728 43.2994
11.172279894912576 43.4774
11.194702904450653 43.1824
11.217108866490921 42.8775
11.239532736615194 42.9888
11.26193956033512 42.8926
11.284364294577085 42.6245
11.306789462371718 41.9144
11.329197585398376 41.4894
11.351623622610898 41.177
11.37403261614354 40.6534
11.396459526308487 40.3104
11.418869393879497 39.9524
11.441297180532617 39.6736
11.463725406927658 39.478
11.486136592353875 39.3021
11.508565700543707 38.9144
11.530977768845315 38.9499
11.553407762368774 38.8517
11.575838200059769 38.504
11.598251599479612 38.6913
11.620682927815501 38.8128
11.64309721895548 38.6941
11.665529441478206 38.4978
11.687962112597958 38.6236
11.710377748130886 38.7058
11.732811318753434 38.7955
11.755227854859067 38.9973
11.777662328529495 39.0361
11.800079768750786 39.1452
11.822515149015453 39.4919
11.844950984084935 39.9688
11.867369787303163 40.412
11.889806534289491 41.4579
11.912226250487029 43.6709
11.934663912939751 48.7937
11.9571020346363 63.0623
11.979523127133968 89.2845
12.001962169624331 113.68299999999999
12.024384183972964 117.27
12.046824150809913 96.3134
12.069264581333726 70.32
12.091687985297767 55.2531
12.11412934550045 49.9967
12.136553680195208 48.825
12.158995973632788 49.2142
12.181438735204349 49.8081
12.20386447284199 51.0971
12.226308172985636 53.8053
12.24873485024193 57.818000000000005
12.271179492516982 64.5818
12.293607112949127 73.8422
12.316052700916226 84.2412
12.338498763250042 90.785
12.360927805303868 87.9101
12.383374818673879 78.8579
12.405804812803074 67.3092
12.428252780773262 57.7516
12.45070122756722 51.7953
12.473132656675375 47.8544
12.49558206341869 45.5095
12.518014453510101 43.7669
12.540464823770117 42.3064
12.562915677315177 41.4494
12.58534951575545 40.7215
12.607801338171472 40.2584
12.630236146511358 40.0134
12.652688941369085 39.8747
12.675124723177234 39.69
12.697578494048786 39.7385
12.720032754458185 39.6329
12.742470003354093 39.7167
12.764925245138771 39.8889
12.787363476431278 39.835
12.809819703166806 40.0868
12.83227642391173 40.1958
12.854716135692716 40.1956
12.877173846755147 40.9709
12.899614549869717 41.0595
12.9220732548287 41.6091
12.94453245827299 41.963
12.966974655289818 42.5428
12.989434858002571 42.7988
13.011878055298721 43.2903
13.034339260862497 43.8852
13.056800969391883 45.123000000000005
13.079245674017244 47.2933
13.101708390774869 50.1361
13.12415410463411 56.6534
13.146617833206086 64.0508
13.169064559883248 67.6993
13.191529303857127 67.5048
13.213994557076367 66.3099
13.236442809902437 66.608
13.258909083908291 68.5172
13.28135835851934 69.8967
13.30382565690295 72.1221
13.326293469022952 77.1713
13.348744283242008 85.7874
13.371213125129904 101.334
13.39366497011003 124.906
13.416134845360597 156.769
13.438605238843131 187.486
13.46105863690397 199.05599999999998
13.483530069144786 184.274
13.505984506951902 151.85399999999998
13.528456981549432 121.34899999999999
13.550929978879088 100.90700000000001
13.573385983253365 90.6531
13.595860028340867 84.7818
13.618317081455832 81.5878
13.64079217790333 79.4692
13.663250283359057 79.2847
13.685726434770173 82.8804
13.708203115221277 92.5051
13.730662806148091 109.01299999999999
13.75314054697177 133.138
13.775601299246777 164.495
13.798080104050406 186.23
13.820559442405358 180.953
13.843021793671388 153.537
13.865502201420897 119.148
13.887965623051947 92.0333
13.910447103807167 74.8881
13.932929122629764 65.0193
13.955394156785959 59.496
13.977877254034569 55.3871
14.000343367582113 52.5874
14.022827546871707 50.8213
14.045294743423524 49.8142
14.06778000837062 48.9318
14.090265817715476 49.0348
14.112734645763819 49.5863
14.13522154619454 52.4588
14.157691466286913 62.0206
14.180179461423874 80.3393
14.202668005486178 99.2583
14.22513957064374 106.94200000000001
14.247629214846473 98.1317
14.270101881097517 77.4119
14.29259262906496 59.8077
14.315083930490205 50.9249
14.337558255389705 46.7647
14.360050666019726 44.6722
14.382526101071944 43.7775
14.405019624534942 42.9608
14.427513705993134 42.5159
14.449990813291825 42.1184
14.47248601302899 41.5935
14.49496423954951 41.4248
14.517460561197822 41.5021
14.539939910570322 41.0231
14.562437357763558 40.9602
14.58493536931253 41.0494
14.607416409993311 40.9558
14.62991555254159 41.1397
14.652397725157423 41.1596
14.674898002342799 41.2452
14.697398848433282 41.3288
14.719882725991326 41.5004
14.74238471217934 41.5549
14.764869730765593 42.0674
14.787372860692983 42.2614
14.809876564079925 43.3967
14.83236330125751 44.7436
14.854868153850365 46.4494
14.877356041159485 48.2708
14.899862046604186 49.9933
14.922351087688757 51.2287
14.944858249632887 51.61
14.967365991421232 52.7577
14.989856770231246 54.6681
15.012365673994204 58.62
15.03485761569738 64.9471
15.05736768508665 74.8315
15.07987833888692 88.1522
15.102372032001655 103.384
15.124883856909658 112.368
15.14737872204565 111.354
15.169891721717274 100.14
15.192405310371893 86.8603
15.214901940621196 73.433
15.237416709527137 62.7226
15.259914520936249 55.3269
15.282430473753607 50.2473
15.304947020131227 47.1868
15.327446610371178 45.0691
15.349964346154254 43.7421
15.372465126703139 43.0774
15.394984055556009 42.3173
15.417486030076159 41.8986
15.44000615566487 41.2582
15.462526881230803 41.2397
15.485030653812652 40.9187
15.507552581617434 40.6558
15.530057557334603 40.5371
15.55258069104857 40.4813
15.575104429329837 40.5977
15.597611216864632 40.3187
15.620136166564563 40.4627
15.6426441664095 40.4553
15.665170331202765 40.5995
15.687697105158826 40.9247
15.710206930593545 41.7215
15.732734925158933 42.4945
15.755245972089478 43.6494
15.77777519094324 45.2281
15.800287463046663 46.5957
15.822817909869592 47.7609
15.84534897229804 48.3625
15.867863089299354 49.3281
15.890395385222186 50.5398
15.912910736597423 52.7372
15.935444269699861 56.7308
15.957978423016485 63.0061
15.980495633101265 71.5382
16.003031029129367 84.0915
16.02554948280019 97.7655
16.048086125229432 106.759
16.070623392487107 107.33
16.09314371869582 101.962
16.11568223789321 93.2736
16.13820381691126 83.7489
16.160743591742527 73.0883
16.183283996022084 62.0837
16.205807461423195 52.6134
16.228349126881973 46.1324
16.25087385432698 43.083
16.27341678466365 40.8962
16.29594277784926 39.5422
16.31848697676433 38.3953
16.341031811604868 37.4104
16.36355971058487 36.9364
16.3861058195587 36.643
16.40863499352978 36.0634
16.431182380342005 35.7187
16.453730407713202 35.442
16.476261501364792 35.0194
16.498810812136167 34.9295
16.52134319004079 34.6421
16.54389378792203 34.4293
16.566445031001553 34.2384
16.588979342490088 34.2741
16.61153187824822 34.1125
16.634067483263312 33.9213
16.656621315414416 33.9141
16.679175797408888 33.6026
16.701713349928728 33.6054
16.72426913389191 33.8217
16.74680798922351 33.6691
16.76936507887444 33.7781
16.791905240734874 33.6921
16.814463639794468 33.4843
16.837022695210294 33.6817
16.859564824093756 33.6542
16.882125194503903 33.7751
16.904668639217885 34.0578
16.927230328348003 34.6908
16.949792678493612 36.7525
16.972338104193863 39.6899
16.994901778652235 42.2829
17.017448529496576 43.4561
17.040013531998152 42.4576
17.06257920018044 39.673
17.0851279459922 37.3437
17.107694947817667 35.7066
17.130245028099072 34.9646
17.15281336730298 34.9642
17.17536478578733 35.1134
17.19793446610687 35.3365
17.220504818648422 35.4417
17.243058251703697 35.6045
17.265629950971032 35.6565
17.288184731571736 35.9343
17.310757781306908 36.4137
17.33333150794385 36.7572
17.355888317140174 37.4626
17.37846339986244 38.6712
17.401021565958885 40.2653
17.42359800851343 42.7535
17.44617513265564 45.6266
17.468735341390783 48.0812
17.491261035594565 48.7485
17.51396340099364 47.4575
17.536490463869136 45.1731
17.559018209820174 42.2822
17.58154663977963 39.9039
17.604251766089718 38.417
17.626781572227713 37.536
17.64931206518155 36.959
17.671843245885103 36.744
17.69455114821572 36.4867
17.717083712612634 36.5847
17.739616967569667 37.1162
17.762150914021706 37.6184
17.78486160749854 39.2348
17.807396945166804 41.6675
17.829932977143503 43.7941
17.85246970436452 45.0369
17.875183204129467 44.7757
17.897721330097664 43.0432
17.920260154126645 41.688
17.942799677153296 40.8977
17.9655159983646 40.9639
17.988056927677544 41.6805
18.010598558807683 42.5363
18.033140892692916 43.3156
18.05586005052525 43.365
18.07840379824407 43.5839
18.10094825154059 44.2231
18.12366954819864 45.5526
18.146215420998306 47.2778
18.16876200220057 50.1739
18.191309292745153 54.3864
18.214033452627167 61.0036
18.236582170236648 69.2853
18.259131600016456 78.584
18.281681742907335 84.4853
18.304408781233683 85.4243
18.32696035875955 79.9217
18.349512652227624 71.1818
18.372065662579683 62.7959
18.394795594587553 56.6546
18.41735004715306 53.4796
18.43990521943684 52.4202
18.46246111238171 53.2389
18.485193953325208 55.7079
18.507751296070428 59.5576
18.530309362314178 63.5941
18.552868153000343 65.2825
18.57560391815056 64.4341
18.59816416623245 61.5063
18.620725141597372 57.7114
18.643286845190268 53.9763
18.666025549835414 50.1602
18.688588718427933 46.5552
18.711152618092243 43.5806
18.73389353884365 41.2085
18.75645890921984 39.5993
18.77902501351406 38.5675
18.801591852673102 38.0971
18.824335739722738 37.1442
18.846904057212626 36.9009
18.8694731124168 36.7151
18.89204290628315 36.6701
18.914789774966803 36.4054
18.937361054791623 36.0874
18.959933076131318 35.8345
18.982505839934877 35.7413
19.00525570560582 35.6721
19.027829963004184 35.3899
19.05040496572238 35.4816
19.072980714710468 35.3112
19.095733592739563 35.2163
19.11831084296757 35.1028
19.140888842324735 35.091
19.16346759176222 35.0828
19.18622349753803 35.1374
19.208803755869358 35.574
19.231384767143577 35.9683
19.253966532312948 36.0958
19.276725481241822 36.442
19.29930876296784 37.0064
19.3218928014549 38.0066
19.34465404436217 40.2655
19.36723960516257 43.6074
19.389825925592426 46.8337
19.412413006605938 49.5316
19.43517731967805 50.0297
19.457765930683355 48.438
19.48035530514408 46.1747
19.50294544401556 45.0303
19.525712842708348 45.1119
19.54830451925909 45.4925
19.570896963095727 45.2566
19.593490175174704 44.1565
19.616260674962184 42.1929
19.638855432416964 39.9071
19.661450960992624 38.1297
19.68404726164677 36.6232
19.706820878021247 35.5779
19.729418731756834 34.8833
19.752017360452857 34.3689
19.77461676506804 34.1684
19.797393513540218 33.6787
19.819994478951667 33.4836
19.84259622316767 33.3107
19.8651987471481 33.3375
19.887978643247177 33.1017
19.91058273574792 33.0572
19.933187610901943 33.1557
19.955969879466828 33.3429
19.97857632894404 33.4241
20.00118356396599 33.3887
20.023791585494575 33.4134
20.046577028914875 33.6593
20.069186632506966 33.4842
20.091797025500632 33.818000000000005
20.114408208858933 34.0695
20.137196842715273 34.6322
20.159809615886765 35.3591
20.18242318232135 36.1693
20.20503754298326 37.4516
20.227829382875154 39.1837
20.250445341109344 41.1088
20.27306209647285 42.593999999999994
20.29567964993108 43.4569
20.31847471147704 42.6197
20.34109387027612 41.2877
20.363713830075454 39.8702
20.386334591841646 38.4426
20.409132890679302 37.6938
20.431755265564437 37.5012
20.454378445325528 38.0941
20.477002430930366 39.4286
20.499803982716553 40.44
20.522429589228004 41.161
20.54505600449589 40.7039
20.567683229489194 39.5634
20.590488049900088 37.6975
20.61311690359731 36.1961
20.63574656993626 34.6346
20.658553853717297 33.5428
20.681185154618298 33.1499
20.703817271080066 32.5709
20.72645020407368 31.9589
20.749260783967177 31.8188
20.771895359337133 32.1139
20.794530754161617 32.7483
20.817166969412938 33.7783
20.83998086114876 34.8954
20.86261872660049 35.5943
20.885257415405402 35.548
20.90789692853701 34.864000000000004
20.930714147864748 33.352
20.953355319030678 32.2503
20.97599731745334 31.4193
20.99864014410749 30.6904
21.021460706796564 30.3865
21.044105199328826 30.396
21.06675052302631 30.2921
21.089396678865015 30.1166
21.112220600704806 30.0999
21.134868430275347 30.2969
21.15751709492456 30.0963
21.180166595629693 29.9493
21.202993892429635 30.0788
21.22564507473034 29.9647
21.24829709602816 29.8853
21.27112693608965 30.026
21.293780644891275 30.274
21.316435195634053 30.3603
21.339090589297417 30.3995
21.361923832041875 30.7448
21.384580921090404 31.0287
21.407238856007325 31.4644
21.429897637773326 31.9666
21.45273429906592 32.2518
21.475394784108598 32.3793
21.498056118951983 32.1236
21.520718304578022 31.8822
21.543558400304388 31.719
21.566222297108816 31.5678
21.58888704765135 31.3265
21.61155265291521 30.9827
21.63439619898156 30.6826
21.657063523335786 30.5827
21.67973170537063 30.5777
21.7024007460706 30.5022
21.72524775840385 30.7276
21.747918526116475 30.8716
21.770590155457388 30.9837
21.79326264741238 31.1502
21.816113141960237 31.3218
21.838787368860547 31.4079
21.861462461341976 31.5022
21.884315579735777 31.708000000000002
21.90699241312273 31.8891
21.92967011506078 32.2719
21.95234868653799 32.7574
21.9752053151131 33.4554
21.997885635446785 34.3799
22.020566828293532 35.6458
22.04324889464272 37.046
22.066109049404666 38.611
22.088792872571794 40.3364
22.111477572219204 41.5821
22.1341631493376 41.7216
22.157026846313123 41.5622
22.179714188221507 41.0
22.202402410582668 40.3518
22.22509151438863 39.5419
22.24795876962584 39.1683
22.270649646204486 38.7261
22.293341407213727 38.0666
22.316034053646906 37.4188
22.338904883215342 36.8467
22.36159931041458 36.117
22.38429462602756 35.193000000000005
22.40699083104897 34.1706
22.429865251039757 33.3193
22.452563244831367 32.3949
22.47526213102522 31.8743
22.49813925616515 31.7863
22.520839937143307 31.3535
22.543541513520587 31.0918
22.56624398629403 30.8625
22.589124730075895 30.6729
22.611829005656723 30.8262
22.63453418063466 30.6276
22.657240256008077 30.5674
22.680124634582935 30.4928
22.70283252079775 30.6755
22.725541310413075 30.738000000000003
22.74825100442868 30.6678
22.771139033969575 30.9139
22.79385054687155 31.0051
22.81656296718292 31.439
22.83927629590484 31.9964
22.862167992606945 32.398
22.88488314827121 32.7645
22.907599215359284 32.6885
22.93031619487366 32.3625
22.953211574954405 31.9235
22.975930389478226 31.796
22.998650119445763 31.805
23.02137076586092 31.8928
23.044269845560063 32.2527
23.06699233506288 32.7873
23.089715744034912 33.4666
23.112617610931565 34.3746
23.135342869061212 35.5694
23.158069049684816 36.7967
23.1807961538087 37.6885
23.20370174880544 37.9001
23.226430710184808 37.3945
23.249160598093425 36.2108
23.271891413539002 34.7943
23.294800752937697 33.5936
23.31753343374794 32.8492
23.340267045128353 32.1721
23.36300158808808 31.9724
23.38591468821339 31.8638
23.408651104658304 31.9936
23.431388455719986 32.2609
23.454126742409 32.7449
23.4770436196085 33.2948
23.499783787914662 34.1654
23.522524894889884 34.5298
23.54526694154616 34.1854
23.56818761219047 33.7532
23.59093154860734 33.0444
23.613676427751283 32.6719
23.636422250635754 32.506
23.659346731118656 32.5566
23.68209445191868 32.9021
23.704843119509587 33.6
23.72759273490623 34.541
23.750521041644767 35.7404
23.77327256312355 37.0594
23.796025035462787 37.9123
23.818956224555475 38.2232
23.841710609113413 37.7934
23.86446594758979 36.6064
23.887222241002014 35.036
23.910157285144578 33.3984
23.932915498962537 32.3816
23.955674670778713 31.3512
23.978434801611975 30.6688
24.001373717286125 30.2279
24.024135776723917 29.8853
24.046898798245582 29.7039
24.06966278287146 29.5853
24.092605586582614 29.5296
24.115371508023642 29.4037
24.1381383956401 29.4494
24.16090625045381 29.3946
24.183852958731244 29.1498
24.206622758582608 28.8532
24.229393528706886 28.4358
24.252165270127392 28.2672
24.27511589952438 28.1764
24.297889594216997 27.9676
24.32066426328598 27.809
24.34343990775613 27.8574
24.36639447485003 27.7748
24.38917208083877 27.5235
24.41195066531332 27.6383
24.43490819850244 27.467
24.457688750692377 27.3676
24.48047028445616 27.4189
24.503252800821233 27.2799
24.526214300784112 27.4278
24.548998793132213 27.340999999999998
24.57178427117417 27.2116
24.59457073593893 27.3177
24.617536219319863 27.2447
24.64032466834748 27.3722
24.663114107195035 27.5659
24.685904536893013 27.8957
24.708874020360852 28.195999999999998
24.731666442613744 28.5617
24.754459858818787 28.6606
24.777254270007962 28.6489
24.80022777025625 28.1321
24.82302418230472 27.9346
24.845821592443674 27.5217
24.86862000170663 27.3192
24.891597535453727 27.1038
24.914397953892728 27.1613
24.93719937456671 26.7861
24.96000179851076 26.9349
24.98298338249997 26.9216
25.00578782394922 27.0162
25.028593271784167 26.8057
25.05157790644186 26.8668
25.07438537804115 26.8576
25.097193859145293 26.89
25.120003350792075 26.7917
25.142992065061257 26.8581
25.165803588823465 26.8621
25.18861612625217 27.0838
25.211429678386736 27.1483
25.234422489079968 27.0701
25.257238081693636 27.3246
25.280054692141732 27.7431
25.3028723214652 27.9881
25.325869245420463 28.3184
25.348688923599397 28.6534
25.371509623787006 28.7881
25.394331347025812 28.8835
25.41733240110666 28.7309
25.440156181590016 28.6424
25.46298098826268 28.7008
25.48580682216873 28.6936
25.50881202326435 28.8237
25.53163992281684 29.088
25.55446885274561 29.3265
25.577298814096377 29.4352
25.600308179121807 29.4128
25.623140214533745 29.2745
25.64597328451537 28.8732
25.66898578564376 28.0857
25.691820936010206 27.5709
25.714657124097695 27.2364
25.737494350954734 26.9257
25.760511045684957 26.55
25.783350361364224 26.4669
25.806190718969255 26.4576
25.82903211955018 26.5797
25.852053024868923 26.6202
25.874896522722523 26.7757
25.897741066713106 26.7818
25.920586657892454 26.897
25.943611790812668 26.8547
25.966459487728237 26.6307
25.989308234998564 26.3259
26.01215803367705 26.2326
26.03518741123814 26.1668
26.05803932412957 26.0454
26.080892291600094 25.9293
26.10374631470478 25.8987
26.12677995397268 25.9049
26.14963609978026 26.0739
26.172493304397875 26.0123
26.19535156888223 26.0655
26.218389486949604 26.1159
26.241249882640123 26.4328
26.26411134137826 26.5027
26.28715248187403 26.7846
26.31001607820869 26.9432
26.3328807407756 27.0816
26.35574647063438 27.2799
26.37879191991473 27.084
26.401659795896734 26.9331
26.424528742360263 26.7618
26.447398760366614 26.4988
26.470448535598294 26.4382
26.49332070826805 26.1499
26.516193955675355 26.1599
26.53906827888316 26.0833
26.562122397260108 25.9565
26.584998883685063 25.9324
26.607876449110325 25.8635
26.63075509460056 25.8952
26.65381357334404 25.7865
26.67669439061878 25.8821
26.699576291163382 25.9179
26.722459276044212 26.127
26.745522132402975 26.2017
26.768407297649354 26.557
26.791293550442003 26.6321
26.814180891848974 26.9291
26.837248143099337 27.3305
26.860137673466657 27.6836
26.88302829566349 27.7537
26.90592001075963 28.0086
26.92899167420566 28.1041
26.951885586870763 28.0255
26.974780595655517 28.0071
26.99785558178161 28.0254
27.020752794605112 27.9734
27.043651106772522 27.8742
27.06655051935668 27.7686
27.089629948036183 27.3203
27.112531573292053 26.9346
27.135434302194138 26.7052
27.158338135817015 26.2223
27.181422024430987 25.9047
27.204328079372566 25.6031
27.22723524226965 25.6211
27.250143514198573 25.5355
27.273231880156334 25.3999
27.296142382065014 25.1698
27.319053996245536 25.1855
27.341966723775965 25.0512
27.365059584515222 25.0731
27.38797455070062 25.0168
27.410890633481237 24.9722
27.433807833936918 24.910999999999998
27.456905206923906 24.8798
27.47982465472398 24.9118
27.502745223449743 24.8247
27.525666914182825 25.0256
27.548768816912457 25.0534
27.571692763693633 25.0563
27.59461783573812 24.9274
27.617723149491244 24.9242
27.640650484125285 24.9348
27.66357894728264 24.9623
27.686508540048052 25.0172
27.709618414237887 25.0236
27.732550278321757 25.0068
27.755483275279115 25.0696
27.778417406196485 25.1216
27.801531858397514 25.0906
27.824468269376716 24.9833
27.847405817586786 24.9428
27.870344504116094 24.9395
27.893463551932008 24.8357
27.916404527281053 24.8699
27.93934664422563 24.8045
27.962289903855886 24.6202
27.98541356491974 24.6416
28.00835912214229 24.7618
28.03130582533231 24.9397
28.054253675581805 25.2097
28.077381967556104 25.1812
28.100332124185126 25.3467
28.123283431160893 25.3688
28.146235889577238 25.514
28.169368830154156 25.5317
28.192323603752033 25.3913
28.215279532083304 25.3957
28.238415973016764 25.5075
28.261374223145094 25.7516
28.284333631303806 25.9653
28.307294198589954 26.1339
28.330435319167677 26.0663
28.353398217078915 25.9544
28.376362277420153 25.7622
28.39932750129032 25.6111
28.422473319286713 25.427
28.44544088262495 25.4089
28.468409612800283 25.3822
28.491379510913497 24.9757
28.51453004413313 25.0088
28.53750229057244 24.8779
28.56047570826344 24.6579
28.583450298308804 24.4787
28.606605564586562 24.2856
28.629582511831156 24.2967
28.65256063474956 24.0799
28.675539934446338 23.995
28.698699951647605 23.8922
28.72168161743193 23.6343
28.74466446331978 23.5254
28.767648490417624 23.4051
28.790813276438353 23.3212
28.813799678527303 23.2694
28.836787265157085 23.053
28.859955641890075 23.0944
28.882945610203045 23.0225
28.905936766392035 22.9456
28.928929111566863 23.0291
28.952102288520145 22.955
28.975097024308607 22.9025
28.998092952423807 22.8469
29.021090073977508 22.853
29.04426806913204 22.8353
29.067267590245258 22.8215
29.090268308143695 22.9779
29.11327022394099 22.9791
29.13645305530891 22.9905
29.159457379627167 22.961
29.18246290519685 23.053
29.20546963313352 22.9831
29.22865731875826 22.9589
29.25166646419296 22.744
29.27467681535305 22.5056
29.29768837335608 22.4629
29.320880931312562 22.5101
29.34389491580634 22.3163
29.366910110507334 22.1758
29.38992651653503 22.213
29.41312396492981 22.151999999999997
29.436142806456754 22.1239
29.45916286268059 21.9863
29.48236399319994 22.0679
29.50538649169417 22.1439
29.528410208259935 22.092
29.55143514402014 22.0226
29.574641196749695 22.0361
29.597668583816574 22.1136
29.6206971934585 22.1182
29.64372702680042 22.1124
29.666938019934474 22.2137
29.689970313635285 22.1536
29.713003834422636 22.0993
29.73603858342347 22.0905
29.759254535188578 21.9084
29.78229175361658 21.7376
29.80533020365064 21.7989
29.82836988641968 21.7229
29.85159081507472 21.6198
29.874632976355343 21.4187
29.89767637376955 21.432
29.920721008448314 21.3322
29.9439469322847 21.3357
29.96699405457564 21.3442
29.9900424175358 21.3414
30.013092022298157 21.2825
30.03632295963995 21.1926
30.059375061131373 21.3119
30.08242840783577 21.3895
30.105483000888153 21.4922
30.128718970092244 21.4315
30.151776069006917 21.4554
30.17483441768648 21.5169
30.198074175317235 21.453000000000003
30.221135036724256 21.4851
30.24419715131772 21.38
30.267260520236203 21.2154
30.290505341942243 21.1221
30.313571232750228 21.1996
30.336638381310948 21.0894
30.35970678876503 21.0927
30.38295669299435 21.1485
30.40602763151657 21.2074
30.429099832366074 21.2353
30.452173296685572 21.1559
30.47542830191959 21.1592
30.498504306502497 21.1609
30.521581577995562 21.188000000000002
30.544660117543582 21.232
30.56792024229725 21.1658
30.59100133132069 21.0037
30.614083691845494 20.9575
30.637167325018545 20.9196
30.660432587840603 20.8747
30.683518779717886 20.854
30.70660624769615 20.9297
30.729694992924372 20.8398
30.75296541239743 20.8815
30.77605672557558 20.8325
30.799149319462742 20.8794
30.8224236211637 20.9047
30.845518789950724 20.8563
30.868615242910597 21.0576
30.891712981195973 21.081999999999997
30.91499247215866 21.0775
30.938092794619365 21.2869
30.96119440587579 21.3115
30.984297307082752 21.3588
31.00758200598383 21.3785
31.030687500658694 21.4155
31.053794288760695 21.3318
31.076902371446767 21.2216
31.100192296997445 21.3154
31.12330298246119 21.287
31.14641496599209 21.1364
31.169528248749216 21.2369
31.19282341969534 21.1322
31.215939314557186 21.0224
31.239056512134788 20.8316
31.262175013589378 20.6791
31.28547544871168 20.6743
31.30859657161541 20.46
31.331719001892175 20.4656
31.35484274070538 20.5338
31.378148458819545 20.5873
31.401274828443725 20.4192
31.424402510106933 20.42
31.447712205419993 20.4006
31.470842524931633 20.4111
31.493974159989783 20.3688
31.51710711176168 20.2654
31.54042212308802 20.3031
31.563557722100917 20.3483
31.586694641341655 20.3489
31.609832881979628 20.314
31.63315322823208 20.3724
31.656294125521327 20.4141
31.679436347728515 20.4229
31.70257989602529 20.4153
31.725905596152327 20.4906
31.74905181052835 20.4691
31.772199354521323 20.4981
31.79534822930507 20.5104
31.818679302290967 20.4262
31.84183085259981 20.391
31.864983737233473 20.2996
31.88813795736804 20.1703
31.911474422233013 20.0227
31.934631327356435 20.1095
31.9577895715215 20.0361
31.980949155906522 20.0254
32.004291031706956 20.0867
32.027453310562606 19.9271
32.05061693318573 19.9111
32.07396288236386 19.9667
32.09712920658542 19.9857
32.12029687812702 19.9573
32.14346589817093 19.9705
32.166817291729984 20.0405
32.18998902288583 19.9636
32.21316210610336 20.0306
32.23633654256711 19.9956
32.259693399663725 19.9895
32.282870556771144 19.9821
32.30604907069099 19.8899
32.329228942610065 19.8428
32.35259128243769 19.7485
32.375773884550505 19.7165
32.398957848235646 19.6526
32.422143174682176 19.5507
32.445511016471215 19.4234
32.468699082679954 19.3497
32.49188851523011 19.3761
32.51507931531304 19.3335
32.538452678331 19.3481
32.56164622776311 19.2729
32.58484114831493 19.1118
32.60803744118015 19.1933
32.631416344731896 19.1485
32.654615396551876 19.0797
32.67781582427913 19.0304
32.701198898634416 18.9792
32.72440209253756 18.9376
32.747606665947124 18.8789
32.77081262006088 18.7912
32.79420126883317 18.7989
32.81740999876112 18.8316
32.840620112999424 18.7245
32.86383161274818 18.6952
32.88722585534586 18.7328
32.91044014056596 18.7497
32.933655814909734 18.7182
32.95687287957963 18.7961
32.98027273544904 18.7137
33.00349259526636 18.6819
33.026713849030116 18.7422
33.04993649794511 18.7343
33.073341986570746 18.6998
33.09656744032826 18.6371
33.11979429286444 18.5788
33.14302254538647 18.5125
33.166433686291185 18.4085
33.18966475336992 18.3656
33.212897224069096 18.344
33.23613109959831 18.319000000000003
33.259547912343415 18.3568
33.2827846121627 18.3168
33.306022720453775 18.3131
33.32926223842861 18.3321
33.352684742614166 18.3152
33.37592709463173 18.3563
33.399170859982064 18.279
33.422597648419426 18.3956
33.44584425514446 18.366
33.46909227885668 18.3941
33.4923417207723 18.3293
33.51577423505344 18.4249
33.539026528130385 18.3433
33.56228024307245 18.3224
33.585535381098246 18.3336
33.60897364093058 18.2822
33.63223163992385 18.1654
33.6554910656699 18.0898
33.678751919389796 18.1028
33.702195944520106 17.9408
33.72545966903325 17.9893
33.74872482519663 17.9313
33.771991414233746 17.8316
33.79544122444841 17.7932
33.81871069412428 17.7224
33.84198160035767 17.6826
33.86525394437455 17.7238
33.88870955949969 17.7176
33.911984794020626 17.6452
33.93526147001624 17.6578
33.958539588715006 17.6222
33.98200102861669 17.5655
34.0052820477047 17.4941
34.02856451319451 17.4116
34.05203033759056 17.4065
34.07531571090147 17.4549
34.09860253431845 17.4786
34.121890809074316 17.4079
34.145362493118924 17.4033
34.16865368561615 17.4256
34.191946333164054 17.3251
34.21524043699793 17.3598
34.23871800066799 17.3568
34.26201503218366 17.2704
34.28531352370466 17.2707
34.30861347646881 17.1909
34.33209693978188 17.139
34.3553998301885 17.1409
34.378704185565205 17.1473
34.402010007152356 17.0371
34.42549939016683 17.0624
34.44880815937748 16.9436
34.472118398533134 16.9766
34.49543010887669 16.9833
34.51892543169198 16.9512
34.54224009966052 16.9369
34.56555624255917 16.9166
34.58887386163339 16.8468
34.61237514439016 16.7877
34.6356957311114 16.8421
34.65901779775809 16.7954
34.68252356662995 16.7903
34.705848608458616 16.7943
34.72917513396849 16.7046
34.75250314440949 16.6345
34.77601490857862 16.6619
34.799345904259795 16.6191
34.82267838863559 16.5518
34.846012362958525 16.5094
34.869530142679984 16.5114
34.89286711232212 16.4907
34.91620557568269 16.5433
34.93954553401677 16.4478
34.9630693495876 16.3796
34.986412313340814 16.3877
35.00975677584668 16.4076
35.033102738362956 16.3472
35.05663261012228 16.2703
35.0799815881786 16.3406
35.10333207003229 16.2244
35.12668405694369 16.2526
35.150220005273056 16.2692
35.17357501786656 16.2765
35.19693153931268 16.2457
35.220289570874385 16.1498
35.24383161619786 16.1818
35.267192683604904 16.229
35.290555264930376 16.1499
35.314101899412165 16.1908
35.33746752422433 16.1243
35.36083466676374 16.1217
35.38420332829803 16.1003
35.407756095629054 16.0941
35.43112781085063 16.025
35.45450104888391 16.0164
35.477875810999194 16.029
35.50143473172161 16.0353
35.52481255774625 16.0311
35.54819191167777 15.9209
35.57157279478914 16.0243
35.595137889488406 15.9149
35.61852184675279 15.9958
35.641907337029984 15.9634
35.665294361595684 16.0415
35.68886565090076 15.9846
35.7122557598848 16.0142
35.73564740699838 16.0813
35.759040593519934 16.0296
35.78261809810353 16.0624
35.80601437933051 16.0245
35.829412203814705 15.9215
35.85281157283719 15.8511
35.876395313415884 15.8964
35.8997977874528 15.8876
35.92320180988546 15.8087
35.946790244133936 15.7893
35.97019737933222 15.7458
35.993606066789866 15.7191
36.01701630779276 15.6403
36.04061101440684 15.6307
36.06402437852291 15.6236
36.08743930005611 15.6297
36.1108557802951 15.52
36.13445678011326 15.5042
36.15787639383515 15.5012
36.18129757014299 15.4268
36.20472031032821 15.3923
36.22832762423364 15.4145
36.25175350829375 15.436
36.275180960119776 15.3071
36.298609981005924 15.376
36.32222362992669 15.3568
36.34565580510207 15.2878
36.36908955323448 15.347999999999999
36.39252487562093 15.2315
36.416144880530226 15.2311
36.43958336764275 15.3231
36.463023432914625 15.2438
36.486465077645676 15.2597
36.51009145956204 15.2624
36.53353627947859 15.2615
36.55698268276811 15.2037
36.58043067073321 15.2658
36.60406345072071 15.1174
36.62751462435344 15.0843
36.65096738658405 15.0582
36.67460498210655 15.0408
36.69806093788647 15.0136
36.72151848619297 14.972000000000001
36.744977628333636 14.9696
36.76862165890998 14.9742
36.79208400512205 14.9702
36.81554794910557 14.9381
36.83901349217101 14.8822
36.862663978991606 14.9124
36.88613273667352 14.8547
36.90960309738324 14.9409
36.933075062434064 14.7921
36.95673202673572 14.8203
36.98020721697122 14.793
37.003684015502365 14.7949
37.027162423645365 14.6952
37.050825886711465 14.7036
37.07430753063053 14.6638
37.09779078812467 14.5768
37.121275660513014 14.5802
37.144945643673694 14.5663
37.16843376245278 14.5439
37.19192350009803 14.5769
37.215414857931435 14.523
37.239091382563885 14.5166
37.262585997426164 14.4413
37.28608223645736 14.4391
37.309763684451696 14.3702
37.33326318851098 14.3923
37.356764320726555 14.3462
37.380267082425526 14.3676
37.40395510942588 14.3526
37.42746114683234 14.3462
37.45096881771841 14.2441
37.474478123414166 14.2966
37.49817275092816 14.3069
37.52168534303452 14.1975
37.54519957395567 14.1767
37.568715445024665 14.1282
37.592416694607714 14.1376
37.61593586281424 14.1487
37.63945667518264 14.1865
37.66297913304891 14.1041
37.68668702630454 14.0459
37.710212792059274 14.0185
37.733740207334854 14.0131
37.757269273470364 14.0497
37.780983832050374 14.002
37.80451621684926 13.9732
37.82805025654007 13.9353
37.851585952464795 13.915999999999999
37.8753071980695 13.8942
37.89884622345676 13.8905
37.92238690911902 13.8927
37.94611318753442 13.8189
37.969657210779765 13.8308
37.99320289834801 13.8569
38.016750251586465 13.8296
38.04048325513017 13.7348
38.06403395679343 13.6897
38.087586328183946 13.6898
38.11114037065203 13.7502
38.13488012115898 13.7198
38.1584375229181 13.6837
38.181996599821 13.6259
38.205557353221124 13.6026
38.229303872575656 13.5713
38.2528679961576 13.5792
38.27643380031219 13.5317
38.30000128639589 13.4602
38.32375459653193 13.4672
38.34732546371299 13.4297
38.37089801690786 13.4113
38.39447225747609 13.3662
38.418232380377425 13.3884
38.441810012983396 13.3618
38.46538933705673 13.3532
38.488970353960084 13.3724
38.51273731166058 13.3491
38.536321731567014 13.2776
38.55990784840681 13.2836
38.58367995004091 13.2464
38.60726947812959 13.2579
38.63086070726198 13.2494
38.654453638806274 13.1817
38.678232613930824 13.1554
38.70182896773327 13.140999999999998
38.72542702806741 13.1186
38.7490267963045 13.1213
38.77281266709232 13.0745
38.79641586862214 13.0787
38.8200207821842 13.0569
38.843627409152944 13.0621
38.86742019782782 13.0514
38.891030269149255 13.0124
38.914642058016156 12.9633
38.938255565806124 13.0057
38.96205529464307 12.9275
38.98567225787121 12.9464
39.00929094417078 12.9872
39.03291135492255 12.9367
39.05671804624804 12.8809
39.080341923549106 12.8813
39.103967529460334 12.9132
39.127594865365744 12.8446
39.15140854155791 12.7571
39.17503935514948 12.787
39.19867190290282 12.7093
39.22249083587951 12.7101
39.24612686969409 12.7543
39.269764641845306 12.6946
39.293404153722804 12.6954
39.317230110864074 12.6301
39.34087311998506 12.6344
39.36451787301696 12.6194
39.388164371352595 12.5595
39.41199737518003 12.5294
39.43564738196752 12.5463
39.45929913825317 12.5638
39.48295264543308 12.5294
39.506792718520884 12.4853
39.530449745387216 12.4674
39.55410852735203 12.4503
39.57776906581474 12.4925
39.60161623079 12.4094
39.625280300200025 12.4645
39.64894613032202 12.3636
39.67261372255866 12.4096
39.6964680021016 12.373
39.72013913657293 12.3377
39.74381203738292 12.350999999999999
39.76748670593756 12.277000000000001
39.79134812278169 12.2695
39.81502634488497 12.2221
39.83870633896685 12.1991
39.862388106436654 12.2425
39.88625668336918 12.2011
39.90994201572829 12.187999999999999
39.933629125719285 12.1322
39.957503091207826 12.1551
39.9811937746168 12.1755
40.00488623990914 12.1001
40.02858048850006 12.1055
40.05246165409549 12.0854
40.076159487492085 12.0338
40.099859108448875 12.0755
40.123560518384345 12.0088
40.1474489070226 12.0028
40.171153913178564 11.98
40.194860712584955 11.995
40.2185693066637 12.0067
40.242464941335314 11.9243
40.26617714307655 11.9405
40.289891143772046 11.9439
40.3136069448471 11.8873
40.33750984859743 11.9433
40.3612292688043 11.8644
40.3849504936829 11.7961
40.40867352466194 11.8253
40.43258372059144 11.7932
40.45631038219906 11.8409
40.48003885420956 11.75
40.503769138055105 11.7457
40.52768664931955 11.7205
40.55142057531802 11.7587
40.57515631746428 11.7449
40.599079334038514 11.6821
40.62281872700477 11.652000000000001
40.64655994043941 11.6556
40.67030297578061 11.6662
40.69423334835778 11.6416
40.71798004609188 11.6364
40.74172857006355 11.5643
40.76547892171441 11.5466
40.7894166736039 11.5574
40.813170699248566 11.5084
40.83692655691388 11.4711
40.86068424804498 11.5085
40.884629402612525 11.5078
40.908390779366385 11.5138
40.932153993938 11.4338
40.95591904777605 11.4398
40.979871628443995 11.4506
41.003640379561936 11.395
41.02741097430883 11.3827
41.05118341413683 11.3592
41.075143444384416 11.3332
41.098919593177826 11.3805
41.1226975914255 11.332
41.14647744058318 11.2988
41.170444943946755 11.3454
41.19422851378379 11.318
41.218013938914645 11.2717
41.24198706625173 11.1994
41.26577622087193 11.2031
41.289567235177785 11.2108
41.31336011063129 11.1915
41.337340752422875 11.1283
41.361137369129835 11.1717
41.38493585138705 11.1522
41.40873620066004 11.1563
41.43272438060107 11.0581
41.45652848292052 11.0201
41.48033445666918 11.0037
41.50414230331616 10.9768
41.528138045159764 11.002
41.551949656675205 10.9973
41.575763145513235 10.9802
41.59957851314666 10.9404
41.62358184070442 10.9376
41.64740098505737 10.9021
41.6712220126409 10.8787
41.69504492493139 10.8699
41.71905586207357 10.8514
41.74288256296395 10.783
41.766711153007456 10.8162
41.79054163368412 10.788
41.814560204340054 10.7982
41.838394485526365 10.8412
41.86223066180303 10.7936
41.88625497706819 10.753
41.910094962812 10.7308
41.93393684811168 10.6979
41.95778063445365 10.6354
41.981812625263366 10.6456
42.00566023303407 10.6316
42.029509746323676 10.6509
42.05336116662236 10.6355
42.077400857069705 10.6289
42.10125611078846 10.6307
42.12511327600405 10.5856
42.14897235421036 10.6001
42.173019768448455 10.5381
42.19688269209613 10.5651
42.22074753323349 10.5666
42.24461429335818 10.489
42.268669455600495 10.4269
42.292540073217886 10.4463
42.31641261433284 10.4586
42.34028708044675 10.3907
42.36435001496739 10.44
42.38822835065557 10.4003
42.41210861586426 10.3212
42.4359908120986 10.3307
42.46006154323262 10.3152
42.48394762115317 10.2685
42.507835634632315 10.337
42.531912233047436 10.2868
42.55580413732265 10.2587
42.579697981698 10.3006
42.60359376768525 10.2126
42.62767820545945 10.2326
42.65157789440821 10.2485
42.67547952952185 10.1866
42.699383112316 10.1986
42.72347541395347 10.158999999999999
42.74738291190531 10.0771
42.771292362102166 10.1193
42.795203766063516 10.0774
42.819303956130405 10.0613
42.843219287476536 10.0294
42.86713657716324 10.058
42.89105582671383 10.0501
42.91516392983864 10.0666
42.939087119032166 10.0054
42.963012272677304 9.98292
42.98693939230129 9.98005
43.01105543317513 9.946860000000001
43.034986504731386 9.938410000000001
43.05891954686589 9.95645
43.08285456110972 9.91192
43.10697856448665 9.90087
43.130917542983475 9.877289999999999
43.15485849820081 9.85485
43.17880143167367 9.820269999999999
43.20293342237094 9.79758
43.226880332449 9.75915
43.25082922540554 9.77951
43.27496722682525 9.756969999999999
43.29892010567796 9.78892
43.32287497204102 9.73281
43.34683182745632 9.69249
43.370977859791836 9.71009
43.39493871351105 9.68866
43.41890156092628 9.72371
43.44286640358341 9.6712
43.46702049182749 9.667019999999999
43.49098934522816 9.65736
43.51496019852649 9.5882
43.5389330532723 9.625539999999999
43.56309522248204 9.58816
43.58707210044314 9.56296
43.61105098451946 9.55033
43.63503187626491 9.53035
43.659202151562134 9.50617
43.68318707902681 9.50132
43.70717401884041 9.475610000000001
43.731162972560874 9.4717
43.75534137913236 9.44603
43.779334381108384 9.4311
43.803329401683186 9.400360000000001
43.82732644241872 9.41964
43.8515130055166 9.34816
43.87551410707659 9.37305
43.89951723350145 9.375810000000001
43.923709934595614 9.36008
43.94771713129917 9.36331
43.97172635758096 9.33709
43.99573761501002 9.29475
44.0199385169922 9.26839
44.04395385732619 9.23372
44.067971233533086 9.269730000000001
44.09199064718605 9.258569999999999
44.11619977548961 9.2305
44.14022328470671 9.1946
44.16424883610785 9.165610000000001
44.18827643127035 9.14225
44.21249381139513 9.16977
44.236525514814076 9.1505
44.26055926674478 9.20791
44.28459506876863 9.1453
44.3088207262813 9.11614
44.33286064928722 9.11064
44.35690262714919 9.11488
44.38094666145278 9.10542
44.4051806219871 9.049660000000001
44.42922879003185 9.01398
44.45327901929361 8.978060000000001
44.477331311362136 9.02487
44.501573600619416 8.95193
44.525630039221795 8.98133
44.54968854541895 8.9729
44.573937102200176 8.9155
44.5979997645541 8.93419
44.622064499300315 8.935880000000001
44.64613130803592 8.89688
44.67038823869318 8.89674
44.69445921643748 8.888580000000001
44.718532272981385 8.85396
44.742607409926194 8.82905
44.76687274034801 8.83549
44.79095205918753 8.783710000000001
44.81503346325094 8.77956
44.839116954143876 8.79477
44.86339071028742 8.80689
44.88747839599524 8.75719
44.91156817336837 8.739239999999999
44.93566004401666 8.72666
44.959942251908146 8.73219
44.984038330325966 8.71123
45.00813650686762 8.669
45.03223678314731 8.621739999999999
45.05652746888232 8.65611
45.08063196592069 8.62101
45.104738567558705 8.62272
45.128847275414856 8.624360000000001
45.15314646515866 8.57713
45.17725940679741 8.57001
45.20137445952892 8.53325
45.22568004865265 8.51985
45.24979934496396 8.531360000000001
45.27392075725247 8.53139
45.29804428714431 8.50727
45.322358426247604 8.487210000000001
45.346486212804315 8.45257
45.370616121861914 8.456380000000001
45.39474815505086 8.42383
45.41907087049246 8.40197
45.4432071734666 8.3945
45.46734560548283 8.457139999999999
45.49148616817604 8.37655
45.51581748638564 8.36223
45.5399623320197 8.34295
45.56410931325473 8.366710000000001
45.58825843173002 8.34549
45.61259837920865 8.32072
45.636751793816 8.3177
45.66090735060093 8.281239999999999
45.68506505120716 8.22718
45.7094136545275 8.25291
45.73357566449271 8.20242
45.75773982322992 8.20193
45.78190613238733 8.20552
45.806263418194064 8.17945
45.83043404997326 8.13618
45.85460683713677 8.18445
45.87897065658495 8.176039999999999
45.90314777634752 8.1491
45.92732705646868 8.122530000000001
45.9515084986045 8.13203
45.97588104735473 8.12235
46.00006683541565 8.122069999999999
46.02425479047904 8.08339
46.04844491420549 8.0866
46.0728262191024 8.02949
46.09702070211635 8.044080000000001
46.12121735879483 8.03129
46.14541619080294 8.00061
46.169806278764455 7.98263
46.194009483459034 8.00745
46.21821486849841 7.9681
46.24242243555223 7.9572
46.266821333570014 7.9510000000000005
46.29103328674601 7.950019999999999
46.31524742696538 7.93228
46.33946375590237 7.89582
46.36387149104216 7.90095
46.38809221957392 7.852519999999999
46.41231514186606 7.85568
46.436540259597464 7.83565
46.460956858999374 7.8350100000000005
46.48518638983522 7.81652
46.509418121166966 7.8626
46.533652054678114 7.80805
46.55807754555709 7.77102
46.58231590571962 7.74453
46.60655647313217 7.75362
46.630988654873654 7.74954
46.655233659129024 7.7304
46.67948087571551 7.727580000000001
46.70373030632484 7.72434
46.72817142736393 7.66524
46.752425308428684 7.70277
46.77668140861147 7.67921
46.80093972960865 7.64687
46.82538981736788 7.63852
46.849652602470904 7.619089999999999
46.87391761349769 7.542000000000001
46.8981848521493 7.57455
46.9226439341274 7.51845
46.946915650573224 7.529089999999999
46.97118959976749 7.50046
46.99546578341598 7.49282
47.019933887188216 7.5277899999999995
47.04421456235744 7.511830000000001
47.06849747711879 7.52355
47.09278263318286 7.45891
47.11725978640143 7.431039999999999
47.14154944775105 7.4642800000000005
47.165841355555656 7.46927
47.1901355115306 7.4122699999999995
47.214621741924994 7.41328
47.23892041698887 7.374569999999999
47.26322134538975 7.36066
47.28771440635075 7.38513
47.31201986422527 7.3455
47.33632758061436 7.33878
47.360637557241866 7.26824
47.38513974410611 7.33065
47.40945426407847 7.28414
47.43377104948137 7.28176
47.45809010204344 7.26748
47.48260144275502 7.267060000000001
47.506925052572285 7.25898
47.53125093475548 7.24211
47.55557909103813 7.22917
47.58009961361992 7.223160000000001
47.60443234110732 7.17095
47.62876734791564 7.21477
47.65310463578333 7.15533
47.6776343683373 7.1664699999999995
47.7019762413987 7.131660000000001
47.72632040075572 7.1570800000000006
47.75066684815169 7.1306199999999995
47.77520581885936 7.08875
47.799556865477655 7.058910000000001
47.823910205386 7.08817
47.84826584033272 7.06482
47.87281407745551 7.048830000000001
47.89717432569297 7.050619999999999
47.92153687423484 7.0385
47.94609208429692 7.0583800000000005
47.97045925671401 7.010489999999999
47.99482873471275 6.997889999999999
48.01920052005013 7.0016
48.04376504619224 6.96944
48.068141469543484 6.97076
48.09252020552573 6.942060000000001
48.11690125590099 6.910639999999999
48.1414751266064 6.91
48.16586082917454 6.85312
48.19024885144316 6.89135
48.2146391951793 6.92973
48.239222439012764 6.884869999999999
48.26361744916137 6.843369999999999
48.28801478610016 6.850289999999999
48.31241445160131 6.842569999999999
48.337007097209366 6.84992
48.36141144338331 6.81474
48.38581812345755 6.80704
48.41022713920929 6.78563
48.434829215320704 6.79339
48.45924292604658 6.75638
48.48365897780325 6.7416
48.50807737237308 6.74614
48.532688907799276 6.74898
48.55711201168574 6.71065
48.581537463754074 6.71126
48.60615611725119 6.69733
48.63058628942721 6.68773
48.65501881516546 6.70135
48.6794536962573 6.678210000000001
48.70408185970339 6.63554
48.72852147531801 6.61137
48.75296345168211 6.61177
48.77740779059232 6.58874
48.80204549302823 6.6131899999999995
48.82649458091802 6.6042
48.85094603676547 6.56192
48.87539986237231 6.53611
48.90004713292306 6.575060000000001
48.92450572200832 6.542619999999999
48.94896668628025 6.54304
48.97343002754588 6.5328
48.99808689542115 6.51006
49.02255501470614 6.4892199999999995
49.04702551642794 6.46476
49.0714984023988 6.46721
49.096164896893235 6.42481
49.120642575466796 6.43807
49.145122643748394 6.42871
49.16960510355558 6.41477
49.19428125404938 6.40207
49.2187685210852 6.40815
49.243258185121555 6.36901
49.26794160167084 6.36459
49.2924360839405 6.3496
49.31693296869764 6.3647599999999995
49.34143225776915 6.34364
49.36612538195438 6.30719
49.39062950396021 6.33355
49.41513603578346 6.30731
49.4396449792564 6.28603
49.46434784069503 6.25164
49.488861631846454 6.24435
49.513377840166804 6.2668
49.537896467493745 6.24086
49.56260909589029 6.2651699999999995
49.587132585683285 6.2025
49.611658500018365 6.19611
49.636186840738596 6.202319999999999
49.66090926588511 6.20916
49.685442483902584 6.2107
49.70997813385706 6.1916400000000005
49.734516217597076 6.13034
49.75924846937352 6.129980000000001
49.7837914452858 6.13733
49.80833686055187 6.16129
49.83288471702571 6.12245
49.85762682540054 6.12575
49.882179588965734 6.08439
49.9067347993235 6.07984
49.93129245833333 6.07029
49.95604445336378 6.08116
49.98060703442832 6.03991
50.005172069746266 6.03254
50.02993150438364 6.04478
50.05450147301533 6.01786
50.07907390151433 6.01241
50.10364879174981 6.00956
50.12841816587289 5.972230000000001
50.1529980044635 5.98129
50.17758031042124 5.95331
50.20216508562089 5.95376
50.22694442953363 5.95862
50.25153416817468 5.9349
50.27612638170508 5.8932400000000005
50.300721072005196 5.892119999999999
50.325510416102105 5.8676900000000005
50.350110084975064 5.88622
50.37471223628208 5.87932
50.39931687190919 5.8983300000000005
50.424116246675766 5.85433
50.44872587605249 5.83945
50.47333799543065 5.82564
50.49795260670191 5.8301
50.52276204271512 5.84624
50.54738166295838 5.81574
50.57200378079314 5.7845
50.596628398116835 5.78791
50.62144792604559 5.79772
50.646077567609396 5.7862
50.670709714377715 5.75425
50.69553683636198 5.7584800000000005
50.72017401885922 5.7569300000000005
50.7448137122895 5.72748
50.76945591856022 5.72025
50.79429318636823 5.741709999999999
50.818940443716784 5.725
50.84359021965163 5.67676
50.868242516085964 5.66656
50.893089960641895 5.67989
50.917747323549435 5.66109
50.94240721271973 5.633830000000001
50.96706963007175 5.62148
50.99192728239342 5.62113
51.01659478166073 5.6207
51.04126481489051 5.57988
51.06593738400761 5.57857
51.090805275207074 5.55817
51.11548294172845 5.57906
51.14016314993547 5.56607
51.164845901758845 5.55012
51.18972406304274 5.53365
51.21441192780656 5.51091
51.23910234200271 5.50066
51.2637953075678 5.5147699999999995
51.288683770237945 5.48171
51.31338186432707 5.46209
51.33808251561888 5.448869999999999
51.362978729967345 5.45026
51.387684521509755 5.46084
51.41239287610203 5.44156
51.437103795691165 5.43173
51.46201036644977 5.40911
51.486726441956634 5.40126
51.51144508832545 5.40719
51.536166307509156 5.37103
51.56108326624387 5.37429
51.58580965706056 5.33168
51.61053862657523 5.33513
51.635270176746864 5.34035
51.66019755512065 5.34535
51.68493429268881 5.28386
51.70967361681515 5.2857400000000005
51.73441552946465 5.3033
51.759353359237934 5.30548
51.7841004750961 5.27745
51.80885018539685 5.3070900000000005
51.833602492111254 5.28295
51.8585508051424 5.25358
51.883308330926425 5.24481
51.90806845906181 5.1883099999999995
51.932831191525715 5.18542
51.95779001977161 5.1946699999999995
51.98255798721516 5.17785
52.00732856494335 5.17794
52.03229530577543 5.18206
52.057071130455945 5.20009
52.081849571391054 5.17055
52.106630630568695 5.14064
52.13160794279417 5.10783
52.15639426492067 5.105169999999999
52.18118321127822 5.14319
52.205974783860896 5.11078
52.23096269971011 5.093430000000001
52.255759551287994 5.07901
52.280559035098186 5.04493
52.30536115314103 5.04534
52.33035970494467 5.05384
52.35516711807904 5.03512
52.37997717147198 5.08744
52.40478986713005 5.05029
52.42979908731974 5.021780000000001
52.454617094216 5.0064400000000004
52.47943774942214 4.97185
52.50426105495102 4.96871
52.529280976059844 4.96397
52.554109609024096 4.98629
52.57894089837482 4.9381
52.60377484613117 4.9384
52.62880550079408 4.96117
52.65364479223379 4.9167
52.67848674816189 4.90546
52.70352547971946 4.91134
52.72837279155837 4.89826
52.753222773982785 4.8741
52.778075429022984 4.859780000000001
52.80312495150885 4.8892
52.827982978797436 4.86993
52.85284368481815 4.855569999999999
52.87770707160767 4.850709999999999
52.90276741793998 4.82571
52.92763619336701 4.81457
52.952507655698504 4.80087
52.977381806977576 4.84851
53.00245301017842 4.80853
53.02733256653592 4.7908599999999995
53.052214817996074 4.77744
53.077099766608484 4.74795
53.102181859804446 4.74116
53.127072229988265 4.74481
53.15196530349892 4.71557
53.17686108239249 4.72304
53.20195409881522 4.726369999999999
53.22685531582556 4.694030000000001
53.25175924441303 4.65775
53.27666588664027 4.70591
53.30176985962693 4.676080000000001
53.3266819565689 4.64675
53.35159677336455 4.6349800000000005
53.376514312083096 4.664969999999999
53.40162927507703 4.64465
53.42655228516116 4.60044
53.45147802340193 4.58673
53.47660125628886 4.6256699999999995
53.50153247842639 4.59087
53.52646643496923 4.55802
53.55140312799818 4.57589
53.576537409691696 4.57718
53.60147960336152 4.60457
53.626424539786164 4.58247
53.65137222105307 4.52189
53.67651758529126 4.5267599999999995
53.70147078399681 4.5085
53.72642673383343 4.533930000000001
53.75138543689533 4.51325
53.776541917524526 4.49092
53.801506154876755 4.44217
53.826473151763246 4.42366
53.851442910284916 4.44411
53.87661054126026 4.44501
53.9015858509782 4.44794
53.92656392866066 4.4585300000000005
53.95154477641532 4.45407
53.976723591801296 4.38477
54.00171000771266 4.40537
54.02669920004598 4.4154
54.051691170915745 4.38258
54.076881204886796 4.33444
54.101878760928514 4.345680000000001
54.12687910187696 4.325130000000001
54.152077577768296 4.33711
54.1770835166946 4.27514
54.20209224691339 4.33919
54.22710377055121 4.27686
54.25231352511594 4.31724
54.27733066384342 4.22939
54.30235060239643 4.21589
54.32737334290836 4.25071
54.35259441062629 4.19928
54.377622783395324 4.203069999999999
54.40265396455061 4.19069
54.42768795623251 4.18346
54.45292037169559 4.1113800000000005
54.477960012857906 4.14647
54.50300247099511 4.14194
54.52804774825457 4.10009
54.55329154616743 4.07219
54.57834249018678 4.0256300000000005
54.6033962597977 4.04734
54.6284528571545 4.01081
54.653708072335164 4.0153099999999995
54.67877035378786 4.03043
54.70383546947698 3.9851300000000003
54.72890342156389 3.98872
54.7541700889442 3.9308
54.77924374251975 3.92965
54.8043202390049 3.9472699999999996
54.82959552413022 3.9332199999999995
54.8546777351945 3.91359
54.87976279569621 3.8816900000000003
54.90485070780914 3.91457
54.930137506558005 3.90544
54.95523115074295 3.88403
54.98032765308844 3.82879
55.005427015775496 3.83409
55.03072536339621 3.8414300000000003
55.05583047570572 3.79927
55.080938454927676 3.76716
55.10604930325027 3.7349099999999997
55.131359235107396 3.74844
55.15647585066083 3.74554
55.181595341907496 3.72045
55.20671771104285 3.7029
55.232039262617704 3.69021
55.25716741665048 3.63951
55.28229845518636 3.60523
55.30743238042802 3.57214
55.33276558731939 3.56138
55.357905315183636 3.57096
55.383047936390035 3.6008199999999997
55.40819345314859 3.5727800000000003
55.433538351073295 3.54584
55.458689688238415 3.5790699999999998
55.483843927614096 3.49326
55.509197623043605 3.44898
55.53435769621134 3.4422599999999997
55.55952067826466 3.4225
55.5846865714265 3.41676
55.61005202069737 3.40215
55.63522376553902 3.40007
55.66039842818645 3.39594
55.68557601087004 3.41465
55.7109532500271 3.38849
55.73613670233794 3.3719300000000003
