TT I
1.2716486653135266 7.0930800000000005
1.2939594142134223 7.1127899999999995
1.3162702121660406 6.39509
1.3385810600174564 6.607
1.3608919586137629 6.93222
1.383202908801069 6.23895
1.405513911425503 6.00812
1.4278249673332093 6.25061
1.4501343378461518 5.81306
1.4724455028545926 5.34857
1.4947567236847858 6.54825
1.517068001182951 6.39666
1.5393793361953272 6.1112
1.5616907295681737 5.98358
1.5840021821477681 5.62451
1.60631369478041 5.06945
1.6286252683124185 5.4717
1.6509369035901333 5.4868
1.6732468618895553 5.0868400000000005
1.695558623192809 4.9730300000000005
1.7178704487808514 5.37092
1.7401823395001077 5.1493199999999995
1.7625012545597203 4.84912
1.7848028405262486 5.23206
1.8071218901122095 5.3111
1.8294236121921872 4.3539699999999995
1.8517427996910911 4.95787
1.8740620574440425 4.99449
1.8963639900671978 4.95411
1.9186833908139995 4.5804599999999995
1.9409854680117449 5.31379
1.9633050151394713 5.2511
1.9856246367570705 4.7664
2.0079269371922672 4.921
2.03024671027244 5.14679
2.0525491637446027 5.06415
2.074869091674931 5.05628
2.097171701569106 4.32672
2.1194917877373847 5.37097
2.141811954326636 4.84656
2.164114805233074 4.6813
2.186435135143035 6.69695
2.208738150935709 16.7156
2.231058647554722 37.1196
2.2533792288321184 28.5723
2.275682498336085 12.4958
2.298003251406138 6.60675
2.3203066942619714 5.42045
2.3426276225136022 5.27926
2.3649486396617507 5.91625
2.387252348930071 6.44546
2.4095735463442893 6.16822
2.4318774374315884 6.18404
2.4541988185014043 6.21525
2.476502894794693 7.5000800000000005
2.498824462909887 7.088369999999999
2.521146125856138 6.6649
2.5434504863470337 7.069319999999999
2.5657723414244717 7.14014
2.588076895590662 8.16505
2.610398946189713 8.67642
2.6327210958598384 8.235669999999999
2.6550259469304716 7.666
2.6773482972090137 7.8655100000000004
2.6996533504259 8.11727
2.7219759047039602 8.43776
2.744298562293959 8.43993
2.7666039251246595 8.74615
2.7889267918020164 8.32306
2.8112323652516555 8.3289
2.833555444408179 7.96365
2.8558786311183852 8.43643
2.8781845268938557 8.925510000000001
2.9005079311721484 9.65808
2.9228140460410397 8.978
2.9451376712799635 9.52873
2.967444008632326 9.647969999999999
2.9897678582247247 10.0644
3.0120918213106695 10.5552
3.0343984987899373 11.1134
3.0567226913198637 11.3797
3.079029599759726 12.2562
3.101354025127254 12.1483
3.123678568232338 12.8146
3.145985829517914 12.9474
3.16831061055229 13.7142
3.1906181112775593 14.1258
3.212943133635653 14.770999999999999
3.2352682779763207 14.9729
3.2575761442691227 15.1915
3.2799015350264273 15.6789
3.302209649240067 16.3103
3.3245352898092655 16.4088
3.3468436553365257 17.314
3.369169549113219 17.7112
3.3914955708171384 18.6523
3.413804319727358 18.9986
3.4361305997334863 19.0893
3.4584396084414553 19.9273
3.4807661501462652 19.9192
3.503092824025881 21.0443
3.5254022288463154 21.4024
3.5477291695206588 21.6739
3.5700388426251948 22.4175
3.5923660534916446 24.7224
3.6146934007816114 43.7187
3.637003482731501 111.12
3.6593311053109985 127.8
3.681641464033634 70.6476
3.7039693653009733 33.407
3.726297407241705 26.311
3.7486081875460804 25.7209
3.7709365132734978 26.3645
3.793247578841633 27.0232
3.8155761917550093 26.8601
3.8378875459837216 27.1069
3.8602164494827234 27.5093
3.882545499606844 27.9358
3.9048572932539183 29.0894
3.9271866390645718 29.1349
3.9494987298666713 29.7575
3.971828374764527 30.3431
3.9941581705403255 30.8901
4.016470713506008 31.660999999999998
4.038800813471445 32.8979
4.061113662089144 33.1208
4.0834440696459176 33.9787
4.105774632334751 33.8281
4.128087945865126 34.8199
4.150418821249301 35.4661
4.172732448931298 37.4086
4.195063640413578 39.1853
4.2173775856475215 44.2535
4.239709096631102 82.1657
4.262040768704612 298.525
4.284355196706267 423.80199999999996
4.306687193387355 274.82599999999996
4.329001947444346 97.7382
4.35133427213731 50.2226
4.373666762177566 45.2564
4.395982011761091 44.8438
4.418314834921175 45.8628
4.44063041906622 56.2713
4.4629635787515625 71.4617
4.4852969080429785 71.6466
4.5076130004776225 56.6451
4.529946671403969 50.4064
4.552263106909177 49.8047
4.574597122877047 50.5311
4.596931312711224 52.3078
4.619248269273446 52.6396
4.6415828092605835 53.6117
4.663900117405352 54.8556
4.686235010953232 56.4056
4.708552674085913 57.4841
4.730887924602802 58.6734
4.753223354952695 60.607
4.775541557023902 61.8348
4.797877349456786 63.1243
4.820195915032126 64.7304
4.842532072957498 66.0935
4.864868414979744 68.1742
4.88718753227192 69.9077
4.909524244902505 71.9955
4.931843734218147 73.8676
4.954180820867835 75.9327
4.976518095879839 79.4331
4.998838149695359 81.9828
5.021175803844231 84.9439
5.043496238205739 88.2551
5.065834274903528 91.9718
5.088172504230693 96.5813
5.1104935158799565 102.986
5.132832132875765 126.61200000000001
5.155153533596801 180.169
5.1774925416746225 213.005
5.199814334878411 300.66900000000004
5.2221537374521505 799.637
5.244493338631803 2384.26
5.266815727034316 7178.46
5.289155727832427 12982.8
5.311478517248165 9439.99
5.333818921080011 3105.74
5.356159527788849 596.135
5.3784829252032536 189.255
5.400823940070432 144.33100000000002
5.423147747031976 127.991
5.445489173474152 117.76
5.467830807066149 112.184
5.490155234831516 107.807
5.512497285125229 104.242
5.534822130975162 103.18700000000001
5.557164601388673 100.265
5.579489868738879 97.4554
5.601832762690846 97.3879
5.6241758697774475 97.0674
5.646501775867269 95.4693
5.668845311622074 93.8127
5.691171647754637 92.7594
5.713515615597765 91.2043
5.735859800852677 90.7542
5.758186788542988 89.6952
5.780531411018185 89.803
5.802858837297399 89.1338
5.825203900414495 89.2237
5.8475491852224 89.465
5.869877275883075 90.0616
5.892223006467101 90.7934
5.914551544266608 91.7096
5.936897724049891 93.3714
5.959244129804903 97.6865
5.981573344815301 109.74600000000001
6.0039202049061 177.05599999999998
6.026249875609095 376.691
6.04859719346037 822.78
6.070927323278297 1931.0
6.093275102315365 4217.74
6.115623113320588 5311.76
6.137953938319995 3316.71
6.160302415650845 1044.25
6.182633708324452 252.842
6.2049826554078376 115.67399999999999
6.227331838745022 92.5186
6.249663839443684 84.4888
6.27201349767565 82.8471
6.294345974611799 91.3782
6.316696111167083 108.789
6.339046488263839 103.40899999999999
6.361379686074702 83.4994
6.383730546639482 72.3139
6.406064229255215 68.4817
6.428415576718203 68.1124
6.450749747566656 66.9034
6.47310158535871 65.8044
6.495453669698332 64.9964
6.517788579421056 64.4398
6.540141159237969 63.5278
6.562476565766648 63.2544
6.5848296444934045 63.0702
6.607182974060425 62.4249
6.6295191323281015 62.6252
6.651872965955752 67.1949
6.6742096296068985 100.125
6.6965639707294615 164.577
6.71891856698715 169.27900000000002
6.741255995248479 109.999
6.763611104154477 72.1666
6.785949046381137 61.2936
6.808304671371482 58.6496
6.8306605557940046 58.1479
6.852999275508618 57.0814
6.875355681171544 57.2456
6.897694923437771 56.9714
6.92005185377892 56.751000000000005
6.9423916220322655 56.3237
6.964749080490181 55.9244
6.987106804399774 55.8461
7.009447368180821 55.8122
7.031805625367033 55.4002
7.054146723727803 55.2947
7.076505517631004 55.3158
7.098864581288365 55.4072
7.121206488070854 54.9782
7.143566093607822 54.9731
7.165908543567245 55.4728
7.188268694426048 55.1479
7.2106291193438095 55.5526
7.232972390625943 57.4823
7.255333366030969 72.8286
7.277677189091925 144.614
7.300038718428332 215.953
7.322400526130865 182.00400000000002
7.344745183422596 104.00299999999999
7.367107550224791 65.4782
7.389452767901992 57.0321
7.411815697249891 55.6051
7.434161478756298 54.7122
7.456524974096713 54.522
7.478888753837185 54.5758
7.501235387657368 54.813
7.523599738562711 54.8665
7.545946944825532 54.941
7.568311870344528 55.2061
7.5906770845765665 55.1467
7.613025156078678 57.3741
7.635390950099687 59.136
7.657739602662809 58.0439
7.680105979923558 56.1709
7.702472650212829 55.995
7.724822180948224 55.8606
7.747189439655568 55.8779
7.769539560075357 56.1319
7.791907410653562 56.2362
7.81425812420825 56.0278
7.836626570110925 56.3391
7.858995315087906 57.4521
7.881346924933401 57.2018
7.903716270417482 57.8472
7.926068482028405 58.335
7.948438431475253 58.7028
7.9708086843180235 59.2077
7.993161805171116 60.143
8.015532667162402 60.3127
8.037886398416653 61.1904
8.060257873014221 61.9005
8.082629655331942 62.5817
8.104984308787587 63.4604
8.127356708900503 67.6194
8.149711981398308 74.6275
8.172085002766314 77.8156
8.194458336181368 73.4943
8.216814543847752 69.4757
8.23918850371002 68.9378
8.26154533906492 69.4873
8.283919928836452 70.7728
8.306277395339652 71.7956
8.328652618483376 72.8494
8.351028159736202 74.6524
8.373386579575245 77.0499
8.395762759396959 78.5739
8.418121819038275 84.4708
8.440498640894003 100.475
8.462875785192262 117.70700000000001
8.485235811156207 124.96799999999999
8.507613602688501 148.97799999999998
8.529974277114228 218.71900000000002
8.552352719347912 339.38699999999994
8.574731488360351 583.308
8.59709314210385 1085.97
8.619472567021075 1768.15
8.64183487789147 2199.2
8.664214962183097 1873.21
8.686577933647762 1069.81
8.708958680784317 399.587
8.731339760774953 170.905
8.753703729764451 112.69200000000001
8.77608547780821 98.9216
8.798450116065078 94.6961
8.820832535634787 91.8581
8.843215292401656 90.2757
8.865580941199045 88.8515
8.887964374703538 88.0215
8.910330701447199 89.2774
8.932714815164482 92.7805
8.955099270424924 92.5609
8.977466620733543 88.2773
8.999851761421976 85.0389
9.022219798361645 82.9421
9.04460562795561 82.5109
9.066991803441677 81.9633
9.089360876979615 82.1698
9.111747746589993 81.8146
9.13411751544971 81.3902
9.156505082664324 80.8164
9.178875550323522 81.4731
9.20126381862328 81.602
9.223652438908596 82.1651
9.246023961427412 81.9189
9.26841328802173 81.0604
9.290785518039224 80.9626
9.313175554425882 81.4285
9.335565947154315 81.3259
9.357939245086508 81.6914
9.380330352834827 81.9175
9.40270436697103 82.3496
9.425096193225055 81.8849
9.447488380180165 83.0007
9.469863475295412 83.3606
9.492256385987508 83.8218
9.514632206018318 84.2357
9.537025843935714 84.5425
9.559402392368193 85.2845
9.581796761000229 86.1989
9.604191496441521 87.3179
9.626569144158516 91.9788
9.648964615551032 97.5197
9.671343000390081 100.056
9.693739211225699 96.9254
9.716135793237463 93.1167
9.738515290448102 91.8348
9.760912617143402 92.7334
9.783292860202891 93.68
9.805690935076182 95.2613
9.828089385495742 95.9364
9.850470754023561 98.4928
9.872869957865444 107.62200000000001
9.89525208097539 126.772
9.917652041736662 144.10399999999998
9.940052382417589 141.023
9.962435644102392 136.75799999999998
9.984836746950979 158.316
10.007220771957746 209.533
10.029622640473708 298.106
10.052007432299963 459.457
10.074410069984072 738.0360000000001
10.096813093716005 1198.58
10.119199042482517 1724.2
10.141602840636468 2018.84
10.163989564971628 1649.82
10.186394141051062 934.186
10.208799107559706 409.923
10.231187001965623 192.093
10.253592751657669 126.721
10.275981430388155 112.751
10.298387966769793 113.40100000000001
10.320794897965431 117.488
10.343184759907361 116.786
10.36559248305461 110.00399999999999
10.387983138083852 103.851
10.410391656691655 104.065
10.432800574501677 112.04299999999999
10.455192425893369 126.775
10.47760214443012 147.945
10.499994797678786 188.707
10.522405320453982 262.014
10.54479877906917 381.656
10.567210109595656 511.165
10.5896218454736 583.845
10.612016518879773 521.3530000000001
10.634429067781074 367.548
10.656824555333241 211.416
10.679237920773568 127.882
10.701651695961992 96.5468
10.724048411481384 88.5862
10.746463008485165 85.6084
10.768860546937125 84.325
10.791275969274796 82.7933
10.81369180576079 81.986
10.836090585366925 80.6059
10.858507252467449 79.3834
10.88090686379991 78.2517
10.903324365036394 78.0549
10.925724811614439 78.0313
10.948143150509463 79.9126
10.970561909719066 79.7961
10.992963615930844 77.2901
11.015383218085756 74.5962
11.037785768347074 72.7199
11.06020621697282 72.0686
11.082627090322113 71.7383
11.105030913430326 71.2718
11.12745263854165 72.3018
11.149857314510728 77.1537
11.172279894912576 85.6412
11.194702904450653 87.5723
11.217108866490921 82.4884
11.239532736615194 76.3268
11.26193956033512 73.053
11.284364294577085 70.8844
11.306789462371718 68.4264
11.329197585398376 66.903
11.351623622610898 66.5512
11.37403261614354 65.5744
11.396459526308487 65.4419
11.418869393879497 65.1463
11.441297180532617 65.0008
11.463725406927658 64.5481
11.486136592353875 64.4969
11.508565700543707 65.1925
11.530977768845315 67.5751
11.553407762368774 69.0669
11.575838200059769 68.7062
11.598251599479612 66.0158
11.620682927815501 63.7452
11.64309721895548 63.3569
11.665529441478206 62.7418
11.687962112597958 62.5185
11.710377748130886 62.5644
11.732811318753434 62.2271
11.755227854859067 62.629
11.777662328529495 62.6616
11.800079768750786 62.2348
11.822515149015453 62.086999999999996
11.844950984084935 62.3818
11.867369787303163 61.9565
11.889806534289491 61.8673
11.912226250487029 62.3294
11.934663912939751 62.4179
11.9571020346363 62.3546
11.979523127133968 62.0093
12.001962169624331 62.8869
12.024384183972964 63.461999999999996
12.046824150809913 65.7663
12.069264581333726 70.3773
12.091687985297767 75.5747
12.11412934550045 83.6966
12.136553680195208 97.4462
12.158995973632788 118.65299999999999
12.181438735204349 145.238
12.20386447284199 182.845
12.226308172985636 208.178
12.24873485024193 206.78099999999998
12.271179492516982 175.326
12.293607112949127 133.349
12.316052700916226 101.74600000000001
12.338498763250042 82.42200000000001
12.360927805303868 71.7215
12.383374818673879 67.1136
12.405804812803074 64.6959
12.428252780773262 63.9287
12.45070122756722 63.9598
12.473132656675375 63.9948
12.49558206341869 64.111
12.518014453510101 63.708999999999996
12.540464823770117 63.9275
12.562915677315177 64.0649
12.58534951575545 65.2389
12.607801338171472 67.7216
12.630236146511358 74.4983
12.652688941369085 81.3005
12.675124723177234 82.1387
12.697578494048786 76.9655
12.720032754458185 70.7123
12.742470003354093 67.9134
12.764925245138771 67.14699999999999
12.787363476431278 67.523
12.809819703166806 67.5316
12.83227642391173 68.6191
12.854716135692716 69.1897
12.877173846755147 70.1185
12.899614549869717 70.2659
12.9220732548287 70.8489
12.94453245827299 71.2306
12.966974655289818 72.02199999999999
12.989434858002571 72.9647
13.011878055298721 73.8611
13.034339260862497 74.8104
13.056800969391883 75.9209
13.079245674017244 77.9825
13.101708390774869 79.0393
13.12415410463411 84.5822
13.146617833206086 94.7685
13.169064559883248 105.715
13.191529303857127 118.59700000000001
13.213994557076367 138.741
13.236442809902437 172.395
13.258909083908291 223.27200000000002
13.28135835851934 289.735
13.30382565690295 361.30300000000005
13.326293469022952 421.824
13.348744283242008 435.031
13.371213125129904 378.88699999999994
13.39366497011003 281.84
13.416134845360597 185.707
13.438605238843131 128.64700000000002
13.46105863690397 105.164
13.483530069144786 102.01
13.505984506951902 105.916
13.528456981549432 113.85799999999999
13.550929978879088 126.33200000000001
13.573385983253365 148.342
13.595860028340867 183.864
13.618317081455832 234.345
13.64079217790333 292.30400000000003
13.663250283359057 344.651
13.685726434770173 373.611
13.708203115221277 348.74300000000005
13.730662806148091 272.72700000000003
13.75314054697177 192.611
13.775601299246777 133.275
13.798080104050406 98.8372
13.820559442405358 85.31299999999999
13.843021793671388 81.3436
13.865502201420897 79.3316
13.887965623051947 78.9943
13.910447103807167 77.903
13.932929122629764 76.5025
13.955394156785959 76.0911
13.977877254034569 74.8822
14.000343367582113 74.2421
14.022827546871707 73.851
14.045294743423524 72.9249
14.06778000837062 72.3243
14.090265817715476 72.1637
14.112734645763819 71.9527
14.13522154619454 71.6962
14.157691466286913 71.8976
14.180179461423874 71.8195
14.202668005486178 71.1969
14.22513957064374 70.3551
14.247629214846473 69.5226
14.270101881097517 69.4984
14.29259262906496 70.163
14.315083930490205 71.258
14.337558255389705 71.5985
14.360050666019726 71.5205
14.382526101071944 70.1273
14.405019624534942 68.8228
14.427513705993134 68.0881
14.449990813291825 68.1063
14.47248601302899 67.9282
14.49496423954951 68.1048
14.517460561197822 68.2829
14.539939910570322 68.1564
14.562437357763558 68.3264
14.58493536931253 69.6424
14.607416409993311 71.0919
14.62991555254159 71.9885
14.652397725157423 71.723
14.674898002342799 70.7454
14.697398848433282 69.5216
14.719882725991326 69.9722
14.74238471217934 70.4424
14.764869730765593 72.8114
14.787372860692983 75.72800000000001
14.809876564079925 79.6686
14.83236330125751 85.02600000000001
14.854868153850365 92.7776
14.877356041159485 104.86399999999999
14.899862046604186 122.038
14.922351087688757 145.62
14.944858249632887 173.94799999999998
14.967365991421232 202.49900000000002
14.989856770231246 221.351
15.012365673994204 222.13
15.03485761569738 194.726
15.05736768508665 153.06799999999998
15.07987833888692 118.8
15.102372032001655 92.8291
15.124883856909658 77.7036
15.14737872204565 72.1695
15.169891721717274 70.34100000000001
15.192405310371893 70.0051
15.214901940621196 70.7324
15.237416709527137 71.1772
15.259914520936249 71.715
15.282430473753607 70.4084
15.304947020131227 68.9479
15.327446610371178 68.0273
15.349964346154254 66.8808
15.372465126703139 66.4
15.394984055556009 66.033
15.417486030076159 65.7776
15.44000615566487 65.5739
15.462526881230803 65.5337
15.485030653812652 65.8076
15.507552581617434 65.9376
15.530057557334603 66.0595
15.55258069104857 65.9312
15.575104429329837 65.7094
15.597611216864632 64.9911
15.620136166564563 65.0328
15.6426441664095 65.5785
15.665170331202765 67.2852
15.687697105158826 69.7978
15.710206930593545 73.0935
15.732734925158933 76.7919
15.755245972089478 82.1586
15.77777519094324 90.3414
15.800287463046663 102.544
15.822817909869592 120.41
15.84534897229804 141.866
15.867863089299354 164.533
15.890395385222186 184.485
15.912910736597423 194.32299999999998
15.935444269699861 185.84099999999998
15.957978423016485 159.63299999999998
15.980495633101265 128.626
16.003031029129367 99.6535
16.02554948280019 78.358
16.048086125229432 68.5633
16.070623392487107 65.5141
16.09314371869582 64.9564
16.11568223789321 64.1167
16.13820381691126 62.8722
16.160743591742527 61.5696
16.183283996022084 60.5542
16.205807461423195 59.2695
16.228349126881973 58.7538
16.25087385432698 58.7951
16.27341678466365 58.1708
16.29594277784926 57.9265
16.31848697676433 58.5353
16.341031811604868 59.1663
16.36355971058487 59.8676
16.3861058195587 59.5374
16.40863499352978 57.9285
16.431182380342005 56.8084
16.453730407713202 55.9653
16.476261501364792 55.5226
16.498810812136167 55.2548
16.52134319004079 55.3373
16.54389378792203 55.04600000000001
16.566445031001553 54.8675
16.588979342490088 54.6804
16.61153187824822 54.8221
16.634067483263312 54.5683
16.656621315414416 54.5644
16.679175797408888 54.0531
16.701713349928728 54.2533
16.72426913389191 54.5063
16.74680798922351 54.6624
16.76936507887444 54.5409
16.791905240734874 54.7095
16.814463639794468 54.5843
16.837022695210294 54.5635
16.859564824093756 55.0008
16.882125194503903 55.9636
16.904668639217885 56.9788
16.927230328348003 57.2926
16.949792678493612 57.1583
16.972338104193863 56.2792
16.994901778652235 55.4431
17.017448529496576 55.2626
17.040013531998152 55.3973
17.06257920018044 55.5305
17.0851279459922 56.2259
17.107694947817667 57.0831
17.130245028099072 57.7306
17.15281336730298 58.9711
17.17536478578733 60.5718
17.19793446610687 62.5301
17.220504818648422 65.5037
17.243058251703697 68.4605
17.265629950971032 73.4264
17.288184731571736 78.5985
17.310757781306908 82.8394
17.33333150794385 84.414
17.355888317140174 83.8186
17.37846339986244 78.6944
17.401021565958885 71.3489
17.42359800851343 65.7951
17.44617513265564 61.912
17.468735341390783 59.7049
17.491261035594565 58.5861
17.51396340099364 58.4559
17.536490463869136 58.62
17.559018209820174 58.7548
17.58154663977963 58.6167
17.604251766089718 58.7263
17.626781572227713 59.0081
17.64931206518155 59.4091
17.671843245885103 59.9947
17.69455114821572 60.2643
17.717083712612634 60.6009
17.739616967569667 60.5137
17.762150914021706 60.6771
17.78486160749854 60.6565
17.807396945166804 61.1737
17.829932977143503 61.7191
17.85246970436452 62.9263
17.875183204129467 64.692
17.897721330097664 66.4786
17.920260154126645 68.6602
17.942799677153296 71.4778
17.9655159983646 75.0058
17.988056927677544 79.7917
18.010598558807683 86.6593
18.033140892692916 95.8397
18.05586005052525 106.936
18.07840379824407 119.07600000000001
18.10094825154059 130.45
18.12366954819864 139.585
18.146215420998306 140.435
18.16876200220057 132.393
18.191309292745153 118.869
18.214033452627167 104.35
18.236582170236648 91.9603
18.259131600016456 85.8172
18.281681742907335 84.8766
18.304408781233683 88.8715
18.32696035875955 94.1534
18.349512652227624 98.9746
18.372065662579683 104.721
18.394795594587553 106.454
18.41735004715306 103.336
18.43990521943684 97.2376
18.46246111238171 88.22
18.485193953325208 78.3378
18.507751296070428 70.61
18.530309362314178 66.2218
18.552868153000343 63.5679
18.57560391815056 61.8199
18.59816416623245 61.2874
18.620725141597372 60.8745
18.643286845190268 60.5691
18.666025549835414 60.0362
18.688588718427933 59.4168
18.711152618092243 59.1707
18.73389353884365 59.0495
18.75645890921984 58.5435
18.77902501351406 58.2737
18.801591852673102 58.2928
18.824335739722738 57.6899
18.846904057212626 57.7074
18.8694731124168 57.3512
18.89204290628315 57.3039
18.914789774966803 57.2145
18.937361054791623 56.7623
18.959933076131318 56.5043
18.982505839934877 56.5984
19.00525570560582 56.7156
19.027829963004184 56.5106
19.05040496572238 56.6816
19.072980714710468 56.4459
19.095733592739563 56.6578
19.11831084296757 56.7892
19.140888842324735 57.4306
19.16346759176222 57.8174
19.18622349753803 58.2333
19.208803755869358 58.9649
19.231384767143577 59.7267
19.253966532312948 61.0127
19.276725481241822 62.8832
19.29930876296784 65.2353
19.3218928014549 68.3732
19.34465404436217 72.0347
19.36723960516257 75.2005
19.389825925592426 76.9633
19.412413006605938 76.2795
19.43517731967805 72.8416
19.457765930683355 68.2088
19.48035530514408 63.2333
19.50294544401556 59.3708
19.525712842708348 56.5652
19.54830451925909 55.1594
19.570896963095727 53.8512
19.593490175174704 53.7611
19.616260674962184 53.5908
19.638855432416964 53.1983
19.661450960992624 53.2898
19.68404726164677 53.0556
19.706820878021247 52.9119
19.729418731756834 53.089
19.752017360452857 52.9006
19.77461676506804 53.0879
19.797393513540218 52.9969
19.819994478951667 53.3243
19.84259622316767 53.7497
19.8651987471481 54.3362
19.887978643247177 54.4694
19.91058273574792 54.7972
19.933187610901943 55.4343
19.955969879466828 56.4792
19.97857632894404 57.7127
20.00118356396599 59.2138
20.023791585494575 61.2619
20.046577028914875 64.0726
20.069186632506966 66.4366
20.091797025500632 68.2694
20.114408208858933 69.3584
20.137196842715273 69.2142
20.159809615886765 68.0187
20.18242318232135 65.4082
20.20503754298326 63.1187
20.227829382875154 61.7907
20.250445341109344 61.5143
20.27306209647285 61.8903
20.29567964993108 63.0012
20.31847471147704 64.3819
20.34109387027612 65.447
20.363713830075454 65.4844
20.386334591841646 64.3857
20.409132890679302 61.747
20.431755265564437 58.8043
20.454378445325528 55.6643
20.477002430930366 53.5703
20.499803982716553 52.5031
20.522429589228004 51.5847
20.54505600449589 50.9826
20.567683229489194 51.0298
20.590488049900088 50.413000000000004
20.61311690359731 50.1273
20.63574656993626 49.6903
20.658553853717297 49.2985
20.681185154618298 49.3016
20.703817271080066 49.099
20.72645020407368 48.8424
20.749260783967177 48.8047
20.771895359337133 48.6946
20.794530754161617 48.7713
20.817166969412938 48.6866
20.83998086114876 48.5196
20.86261872660049 48.44
20.885257415405402 48.3998
20.90789692853701 48.2394
20.930714147864748 48.1664
20.953355319030678 48.3038
20.97599731745334 48.254
20.99864014410749 48.0351
21.021460706796564 48.0582
21.044105199328826 48.4726
21.06675052302631 48.805
21.089396678865015 48.7681
21.112220600704806 48.9412
21.134868430275347 49.3407
21.15751709492456 49.5439
21.180166595629693 49.9117
21.202993892429635 50.5806
21.22564507473034 50.9207
21.24829709602816 50.9802
21.27112693608965 51.001999999999995
21.293780644891275 51.1232
21.316435195634053 50.6122
21.339090589297417 49.8814
21.361923832041875 49.1993
21.384580921090404 48.6877
21.407238856007325 48.0832
21.429897637773326 47.9665
21.45273429906592 47.8823
21.475394784108598 48.013000000000005
21.498056118951983 48.0013
21.520718304578022 48.1711
21.543558400304388 48.2615
21.566222297108816 48.2154
21.58888704765135 48.2784
21.61155265291521 48.4648
21.63439619898156 48.9745
21.657063523335786 49.1934
21.67973170537063 49.657
21.7024007460706 50.0791
21.72524775840385 50.8503
21.747918526116475 51.6974
21.770590155457388 52.9261
21.79326264741238 54.4289
21.816113141960237 56.0911
21.838787368860547 58.0106
21.861462461341976 60.023999999999994
21.884315579735777 62.0974
21.90699241312273 63.5561
21.92967011506078 64.3847
21.95234868653799 64.5524
21.9752053151131 63.5169
21.997885635446785 61.5752
22.020566828293532 59.6601
22.04324889464272 57.6836
22.066109049404666 56.3625
22.088792872571794 55.8371
22.111477572219204 55.6551
22.1341631493376 55.9137
22.157026846313123 55.766999999999996
22.179714188221507 55.1723
22.202402410582668 54.2373
22.22509151438863 52.7802
22.24795876962584 51.4274
22.270649646204486 50.5284
22.293341407213727 49.7762
22.316034053646906 49.3156
22.338904883215342 48.872
22.36159931041458 48.9495
22.38429462602756 48.7594
22.40699083104897 48.6037
22.429865251039757 48.6551
22.452563244831367 48.8287
22.47526213102522 48.7187
22.49813925616515 48.3507
22.520839937143307 48.2491
22.543541513520587 48.2496
22.56624398629403 48.137
22.589124730075895 48.068999999999996
22.611829005656723 48.2005
22.63453418063466 48.2177
22.657240256008077 48.4545
22.680124634582935 48.6133
22.70283252079775 48.6842
22.725541310413075 48.9692
22.74825100442868 49.0586
22.771139033969575 49.5213
22.79385054687155 49.7499
22.81656296718292 50.4148
22.83927629590484 51.1761
22.862167992606945 52.1322
22.88488314827121 53.4145
22.907599215359284 54.3919
22.93031619487366 55.5569
22.953211574954405 56.8787
22.975930389478226 57.6913
22.998650119445763 58.0367
23.02137076586092 57.3642
23.044269845560063 56.3159
23.06699233506288 54.6439
23.089715744034912 52.9511
23.112617610931565 50.9562
23.135342869061212 49.6968
23.158069049684816 49.0737
23.1807961538087 48.5591
23.20370174880544 48.4431
23.226430710184808 48.3437
23.249160598093425 48.3827
23.271891413539002 48.3718
23.294800752937697 48.4488
23.31753343374794 48.5095
23.340267045128353 48.4663
23.36300158808808 48.888000000000005
23.38591468821339 49.125
23.408651104658304 49.3789
23.431388455719986 49.9602
23.454126742409 50.8884
23.4770436196085 51.8867
23.499783787914662 53.1338
23.522524894889884 54.1827
23.54526694154616 55.4847
23.56818761219047 56.5545
23.59093154860734 57.5024
23.613676427751283 57.9801
23.636422250635754 57.1937
23.659346731118656 55.8603
23.68209445191868 53.9204
23.704843119509587 51.7844
23.72759273490623 49.7245
23.750521041644767 48.2621
23.77327256312355 47.1926
23.796025035462787 46.2971
23.818956224555475 45.8997
23.841710609113413 45.8426
23.86446594758979 45.4867
23.887222241002014 45.1154
23.910157285144578 44.7829
23.932915498962537 44.9308
23.955674670778713 44.6962
23.978434801611975 44.4884
24.001373717286125 44.3818
24.024135776723917 44.3547
24.046898798245582 44.3478
24.06966278287146 44.2544
24.092605586582614 44.153
24.115371508023642 43.8379
24.1381383956401 43.5951
24.16090625045381 43.7109
24.183852958731244 43.6975
24.206622758582608 43.5651
24.229393528706886 43.3482
24.252165270127392 43.516999999999996
24.27511589952438 43.4074
24.297889594216997 43.192
24.32066426328598 43.1112
24.34343990775613 43.1308
24.36639447485003 42.8829
24.38917208083877 42.9524
24.41195066531332 42.8076
24.43490819850244 42.9036
24.457688750692377 42.6878
24.48047028445616 42.7685
24.503252800821233 42.8378
24.526214300784112 42.7102
24.548998793132213 42.9191
24.57178427117417 42.7022
24.59457073593893 42.6557
24.617536219319863 42.643
24.64032466834748 42.677
24.663114107195035 42.6279
24.685904536893013 42.2733
24.708874020360852 42.2233
24.731666442613744 42.2658
24.754459858818787 42.2441
24.777254270007962 42.104
24.80022777025625 41.9866
24.82302418230472 41.8436
24.845821592443674 41.9459
24.86862000170663 41.8574
24.891597535453727 41.6804
24.914397953892728 41.9351
24.93719937456671 41.7239
24.96000179851076 42.0089
24.98298338249997 42.1861
25.00578782394922 42.3355
25.028593271784167 42.4255
25.05157790644186 42.7441
25.07438537804115 42.9323
25.097193859145293 43.0483
25.120003350792075 43.244
25.142992065061257 43.6933
25.165803588823465 43.9696
25.18861612625217 44.2959
25.211429678386736 44.3107
25.234422489079968 44.3416
25.257238081693636 44.4904
25.280054692141732 44.4696
25.3028723214652 44.537
25.325869245420463 44.7409
25.348688923599397 44.7086
25.371509623787006 44.5684
25.394331347025812 44.4697
25.41733240110666 44.2497
25.440156181590016 43.4922
25.46298098826268 42.9383
25.48580682216873 42.3904
25.50881202326435 41.787
25.53163992281684 41.2885
25.55446885274561 40.9768
25.577298814096377 40.8092
25.600308179121807 40.6545
25.623140214533745 40.6776
25.64597328451537 40.5445
25.66898578564376 40.2152
25.691820936010206 40.2718
25.714657124097695 40.2734
25.737494350954734 40.2351
25.760511045684957 40.1855
25.783350361364224 40.3295
25.806190718969255 40.293
25.82903211955018 40.2706
25.852053024868923 40.4177
25.874896522722523 40.4196
25.897741066713106 40.3398
25.920586657892454 40.5077
25.943611790812668 40.5819
25.966459487728237 40.5885
25.989308234998564 40.5582
26.01215803367705 40.9693
26.03518741123814 41.0592
26.05803932412957 41.3706
26.080892291600094 41.2486
26.10374631470478 41.3929
26.12677995397268 41.5169
26.14963609978026 41.5408
26.172493304397875 41.128
26.19535156888223 41.0215
26.218389486949604 40.5021
26.241249882640123 40.3547
26.26411134137826 40.1451
26.28715248187403 40.0522
26.31001607820869 39.9282
26.3328807407756 39.6445
26.35574647063438 39.8757
26.37879191991473 39.8275
26.401659795896734 39.8071
26.424528742360263 40.027
26.447398760366614 40.1051
26.470448535598294 40.2382
26.49332070826805 40.5716
26.516193955675355 40.8206
26.53906827888316 40.8424
26.562122397260108 41.0181
26.584998883685063 41.2017
26.607876449110325 41.6262
26.63075509460056 41.8293
26.65381357334404 41.935
26.67669439061878 41.9595
26.699576291163382 41.9006
26.722459276044212 41.8681
26.745522132402975 41.5359
26.768407297649354 41.2515
26.791293550442003 40.9405
26.814180891848974 40.6166
26.837248143099337 40.4273
26.860137673466657 40.2927
26.88302829566349 40.0174
26.90592001075963 39.9512
26.92899167420566 39.7246
26.951885586870763 39.3457
26.974780595655517 39.2261
26.99785558178161 38.9876
27.020752794605112 38.8789
27.043651106772522 38.6757
27.06655051935668 38.6503
27.089629948036183 38.5041
27.112531573292053 38.4956
27.135434302194138 38.5267
27.158338135817015 38.2409
27.181422024430987 38.3761
27.204328079372566 38.1661
27.22723524226965 38.2376
27.250143514198573 38.2247
27.273231880156334 38.2427
27.296142382065014 38.1248
27.319053996245536 38.0011
27.341966723775965 38.1481
27.365059584515222 38.1515
27.38797455070062 38.2192
27.410890633481237 37.9359
27.433807833936918 38.0195
27.456905206923906 38.2702
27.47982465472398 38.3152
27.502745223449743 38.3591
27.525666914182825 38.3081
27.548768816912457 38.3294
27.571692763693633 38.2569
27.59461783573812 38.1319
27.617723149491244 37.9294
27.640650484125285 37.9045
27.66357894728264 37.9157
27.686508540048052 37.8784
27.709618414237887 37.6657
27.732550278321757 37.7262
27.755483275279115 37.5389
27.778417406196485 37.4827
27.801531858397514 37.6864
27.824468269376716 37.4642
27.847405817586786 37.4166
27.870344504116094 37.6998
27.893463551932008 37.8175
27.916404527281053 37.9493
27.93934664422563 38.0414
27.962289903855886 38.0598
27.98541356491974 38.4952
28.00835912214229 38.4871
28.03130582533231 38.723
28.054253675581805 38.84
28.077381967556104 38.8474
28.100332124185126 38.8831
28.123283431160893 38.7333
28.146235889577238 38.6272
28.169368830154156 38.4399
28.192323603752033 38.1946
28.215279532083304 38.0431
28.238415973016764 37.8897
28.261374223145094 37.7001
28.284333631303806 37.4913
28.307294198589954 37.2698
28.330435319167677 36.9454
28.353398217078915 36.8229
28.376362277420153 36.6846
28.39932750129032 36.4484
28.422473319286713 36.268
28.44544088262495 36.1956
28.468409612800283 35.9694
28.491379510913497 35.7789
28.51453004413313 35.7878
28.53750229057244 35.666
28.56047570826344 35.7058
28.583450298308804 35.8081
28.606605564586562 35.5403
28.629582511831156 35.5086
28.65256063474956 35.4278
28.675539934446338 35.4081
28.698699951647605 35.4526
28.72168161743193 35.2192
28.74466446331978 35.2455
28.767648490417624 35.2306
28.790813276438353 35.2717
28.813799678527303 35.3392
28.836787265157085 35.3314
28.859955641890075 35.3931
28.882945610203045 35.2222
28.905936766392035 35.1359
28.928929111566863 35.1438
28.952102288520145 35.0837
28.975097024308607 35.0185
28.998092952423807 34.8861
29.021090073977508 34.7309
29.04426806913204 34.6462
29.067267590245258 34.5547
29.090268308143695 34.4259
29.11327022394099 34.414
29.13645305530891 34.2991
29.159457379627167 34.1995
29.18246290519685 34.0994
29.20546963313352 34.0989
29.22865731875826 34.0912
29.25166646419296 34.2948
29.27467681535305 34.078
29.29768837335608 34.1757
29.320880931312562 34.1649
29.34389491580634 34.1026
29.366910110507334 33.953
29.38992651653503 34.0885
29.41312396492981 34.04
29.436142806456754 34.013000000000005
29.45916286268059 33.8999
29.48236399319994 33.7895
29.50538649169417 33.6712
29.528410208259935 33.6113
29.55143514402014 33.3312
29.574641196749695 33.2174
29.597668583816574 33.2162
29.6206971934585 32.9457
29.64372702680042 33.1117
29.666938019934474 32.9498
29.689970313635285 32.8988
29.713003834422636 32.7213
29.73603858342347 32.7459
29.759254535188578 32.6684
29.78229175361658 32.6958
29.80533020365064 32.7041
29.82836988641968 32.7725
29.85159081507472 32.6296
29.874632976355343 32.5019
29.89767637376955 32.5403
29.920721008448314 32.3064
29.9439469322847 32.3596
29.96699405457564 32.3861
29.9900424175358 32.3819
30.013092022298157 32.3715
30.03632295963995 32.2406
30.059375061131373 32.3235
30.08242840783577 32.2874
30.105483000888153 32.3168
30.128718970092244 32.2152
30.151776069006917 32.1493
30.17483441768648 32.2906
30.198074175317235 32.2261
30.221135036724256 32.1952
30.24419715131772 32.1434
30.267260520236203 32.0423
30.290505341942243 32.113
30.313571232750228 32.2337
30.336638381310948 32.1488
30.35970678876503 32.0966
30.38295669299435 31.9462
30.40602763151657 31.965999999999998
30.429099832366074 32.0102
30.452173296685572 31.8964
30.47542830191959 31.955
30.498504306502497 31.9203
30.521581577995562 31.923000000000002
30.544660117543582 32.0338
30.56792024229725 32.0145
30.59100133132069 31.9829
30.614083691845494 31.9487
30.637167325018545 32.0467
30.660432587840603 32.0477
30.683518779717886 31.9973
30.70660624769615 31.9527
30.729694992924372 31.9602
30.75296541239743 32.1092
30.77605672557558 32.0077
30.799149319462742 31.8914
30.8224236211637 31.7756
30.845518789950724 31.7604
30.868615242910597 31.7288
30.891712981195973 31.5819
30.91499247215866 31.4677
30.938092794619365 31.4026
30.96119440587579 31.2586
30.984297307082752 31.1685
31.00758200598383 31.0773
31.030687500658694 31.08
31.053794288760695 30.9864
31.076902371446767 30.8599
31.100192296997445 30.9795
31.12330298246119 30.8939
31.14641496599209 30.7462
31.169528248749216 30.811999999999998
31.19282341969534 30.8143
31.215939314557186 30.7326
31.239056512134788 30.8011
31.262175013589378 30.8589
31.28547544871168 30.7489
31.30859657161541 30.6387
31.331719001892175 30.6754
31.35484274070538 30.7538
31.378148458819545 30.7262
31.401274828443725 30.6973
31.424402510106933 30.7735
31.447712205419993 30.8628
31.470842524931633 30.7454
31.493974159989783 30.6715
31.51710711176168 30.684
31.54042212308802 30.6873
31.563557722100917 30.6383
31.586694641341655 30.4978
31.609832881979628 30.3564
31.63315322823208 30.3567
31.656294125521327 30.2139
31.679436347728515 30.1342
31.70257989602529 30.1063
31.725905596152327 29.963
31.74905181052835 29.9468
31.772199354521323 30.0646
31.79534822930507 30.0236
31.818679302290967 30.0235
31.84183085259981 29.9338
31.864983737233473 30.0111
31.88813795736804 30.0524
31.911474422233013 29.9163
31.934631327356435 29.9142
31.9577895715215 29.9869
31.980949155906522 29.8943
32.004291031706956 29.9328
32.027453310562606 29.7572
32.05061693318573 29.6474
32.07396288236386 29.6452
32.09712920658542 29.5865
32.12029687812702 29.4769
32.14346589817093 29.379
32.166817291729984 29.4835
32.18998902288583 29.3846
32.21316210610336 29.2842
32.23633654256711 29.0932
32.259693399663725 29.075
32.282870556771144 29.0671
32.30604907069099 29.0327
32.329228942610065 28.9907
32.35259128243769 28.7755
32.375773884550505 28.7476
32.398957848235646 28.819000000000003
32.422143174682176 28.7819
32.445511016471215 28.6804
32.468699082679954 28.561
32.49188851523011 28.4527
32.51507931531304 28.4592
32.538452678331 28.5415
32.56164622776311 28.4243
32.58484114831493 28.4134
32.60803744118015 28.359
32.631416344731896 28.3339
32.654615396551876 28.3458
32.67781582427913 28.2822
32.701198898634416 28.1253
32.72440209253756 28.1504
32.747606665947124 28.1382
32.77081262006088 28.0108
32.79420126883317 27.9488
32.81740999876112 27.9843
32.840620112999424 27.8626
32.86383161274818 27.9312
32.88722585534586 27.8799
32.91044014056596 27.9062
32.933655814909734 27.8207
32.95687287957963 27.85
32.98027273544904 27.7919
33.00349259526636 27.7557
33.026713849030116 27.7866
33.04993649794511 27.5927
33.073341986570746 27.6338
33.09656744032826 27.5955
33.11979429286444 27.6066
33.14302254538647 27.6521
33.166433686291185 27.6216
33.18966475336992 27.5514
33.212897224069096 27.4385
33.23613109959831 27.4759
33.259547912343415 27.3927
33.2827846121627 27.4457
33.306022720453775 27.3484
33.32926223842861 27.2734
33.352684742614166 27.3122
33.37592709463173 27.3297
33.399170859982064 27.2156
33.422597648419426 27.1347
33.44584425514446 26.989
33.46909227885668 26.9485
33.4923417207723 26.9202
33.51577423505344 27.0122
33.539026528130385 26.8494
33.56228024307245 26.8012
33.585535381098246 26.7142
33.60897364093058 26.6743
33.63223163992385 26.6222
33.6554910656699 26.561999999999998
33.678751919389796 26.5464
33.702195944520106 26.5156
33.72545966903325 26.5614
33.74872482519663 26.3783
33.771991414233746 26.3929
33.79544122444841 26.3773
33.81871069412428 26.254
33.84198160035767 26.2182
33.86525394437455 26.2474
33.88870955949969 26.0794
33.911984794020626 26.1662
33.93526147001624 26.0865
33.958539588715006 26.0533
33.98200102861669 25.958000000000002
34.0052820477047 25.861
34.02856451319451 25.9027
34.05203033759056 25.9021
34.07531571090147 25.8534
34.09860253431845 25.881999999999998
34.121890809074316 25.8649
34.145362493118924 25.7536
34.16865368561615 25.7232
34.191946333164054 25.7313
34.21524043699793 25.6642
34.23871800066799 25.6827
34.26201503218366 25.5536
34.28531352370466 25.469
34.30861347646881 25.4492
34.33209693978188 25.4485
34.3553998301885 25.3767
34.378704185565205 25.2848
34.402010007152356 25.2552
34.42549939016683 25.2801
34.44880815937748 25.1788
34.472118398533134 25.1586
34.49543010887669 25.0543
34.51892543169198 24.9468
34.54224009966052 25.0873
34.56555624255917 25.0709
34.58887386163339 24.8705
34.61237514439016 24.9014
34.6356957311114 24.835
34.65901779775809 24.8785
34.68252356662995 24.8107
34.705848608458616 24.8146
34.72917513396849 24.7682
34.75250314440949 24.643
34.77601490857862 24.6136
34.799345904259795 24.526
34.82267838863559 24.6044
34.846012362958525 24.5655
34.869530142679984 24.4651
34.89286711232212 24.500999999999998
34.91620557568269 24.4458
34.93954553401677 24.4257
34.9630693495876 24.3192
34.986412313340814 24.3592
35.00975677584668 24.3691
35.033102738362956 24.2821
35.05663261012228 24.2281
35.0799815881786 24.2712
35.10333207003229 24.1635
35.12668405694369 24.2115
35.150220005273056 24.1433
35.17357501786656 24.1921
35.19693153931268 24.0652
35.220289570874385 24.0154
35.24383161619786 24.004
35.267192683604904 24.0363
35.290555264930376 24.0291
35.314101899412165 23.9669
35.33746752422433 23.9793
35.36083466676374 23.9516
35.38420332829803 23.9291
35.407756095629054 23.8653
35.43112781085063 23.8178
35.45450104888391 23.8583
35.477875810999194 23.8405
35.50143473172161 23.6936
35.52481255774625 23.7035
35.54819191167777 23.7494
35.57157279478914 23.6213
35.595137889488406 23.6544
35.61852184675279 23.6815
35.641907337029984 23.5329
35.665294361595684 23.4919
35.68886565090076 23.4945
35.7122557598848 23.3824
35.73564740699838 23.4071
35.759040593519934 23.2983
35.78261809810353 23.2758
35.80601437933051 23.2315
35.829412203814705 23.1626
35.85281157283719 23.1853
35.876395313415884 23.1537
35.8997977874528 23.1897
35.92320180988546 23.1127
35.946790244133936 22.9957
35.97019737933222 22.9888
35.993606066789866 23.0198
36.01701630779276 22.9369
36.04061101440684 22.928
36.06402437852291 22.9243
36.08743930005611 22.8822
36.1108557802951 22.8248
36.13445678011326 22.8357
36.15787639383515 22.7291
36.18129757014299 22.7006
36.20472031032821 22.647
36.22832762423364 22.5964
36.25175350829375 22.5857
36.275180960119776 22.4739
36.298609981005924 22.5766
36.32222362992669 22.5661
36.34565580510207 22.5435
36.36908955323448 22.4359
36.39252487562093 22.3691
36.416144880530226 22.320999999999998
36.43958336764275 22.3272
36.463023432914625 22.313000000000002
36.486465077645676 22.1958
36.51009145956204 22.2636
36.53353627947859 22.3018
36.55698268276811 22.2666
36.58043067073321 22.2148
36.60406345072071 22.123
36.62751462435344 22.0748
36.65096738658405 22.0659
36.67460498210655 22.0258
36.69806093788647 22.0446
36.72151848619297 21.9222
36.744977628333636 22.0294
36.76862165890998 21.8699
36.79208400512205 21.9463
36.81554794910557 21.8967
36.83901349217101 21.7947
36.862663978991606 21.6607
36.88613273667352 21.648000000000003
36.90960309738324 21.6901
36.933075062434064 21.6631
36.95673202673572 21.5735
36.98020721697122 21.5055
37.003684015502365 21.5234
37.027162423645365 21.4739
37.050825886711465 21.4395
37.07430753063053 21.3985
37.09779078812467 21.3531
37.121275660513014 21.3653
37.144945643673694 21.2804
37.16843376245278 21.3581
37.19192350009803 21.3278
37.215414857931435 21.2536
37.239091382563885 21.1757
37.262585997426164 21.1608
37.28608223645736 21.1816
37.309763684451696 21.053
37.33326318851098 21.029
37.356764320726555 21.0425
37.380267082425526 21.0669
37.40395510942588 21.0038
37.42746114683234 20.8984
37.45096881771841 20.8906
37.474478123414166 20.8755
37.49817275092816 20.8331
37.52168534303452 20.8367
37.54519957395567 20.7187
37.568715445024665 20.7774
37.592416694607714 20.6596
37.61593586281424 20.7172
37.63945667518264 20.7251
37.66297913304891 20.6264
37.68668702630454 20.6487
37.710212792059274 20.5643
37.733740207334854 20.4903
37.757269273470364 20.4595
37.780983832050374 20.4082
37.80451621684926 20.4504
37.82805025654007 20.4023
37.851585952464795 20.2674
37.8753071980695 20.2485
37.89884622345676 20.2535
37.92238690911902 20.2533
37.94611318753442 20.189
37.969657210779765 20.1991
37.99320289834801 20.1835
38.016750251586465 20.1273
38.04048325513017 20.0441
38.06403395679343 20.035
38.087586328183946 20.0466
38.11114037065203 20.022000000000002
38.13488012115898 20.026
38.1584375229181 19.9123
38.181996599821 19.8688
38.205557353221124 19.8718
38.229303872575656 19.8521
38.2528679961576 19.8027
38.27643380031219 19.765
38.30000128639589 19.7553
38.32375459653193 19.7297
38.34732546371299 19.7015
38.37089801690786 19.596
38.39447225747609 19.5441
38.418232380377425 19.5565
38.441810012983396 19.5184
38.46538933705673 19.5177
38.488970353960084 19.5525
38.51273731166058 19.457
38.536321731567014 19.419
38.55990784840681 19.4067
38.58367995004091 19.3553
38.60726947812959 19.2876
38.63086070726198 19.2884
38.654453638806274 19.2862
38.678232613930824 19.1816
38.70182896773327 19.1969
38.72542702806741 19.2192
38.7490267963045 19.1758
38.77281266709232 19.1269
38.79641586862214 19.0959
38.8200207821842 19.0657
38.843627409152944 19.0335
38.86742019782782 19.0442
38.891030269149255 18.9805
38.914642058016156 18.9476
38.938255565806124 18.9263
38.96205529464307 18.8572
38.98567225787121 18.8798
39.00929094417078 18.8377
39.03291135492255 18.7964
39.05671804624804 18.8179
39.080341923549106 18.7568
39.103967529460334 18.7088
39.127594865365744 18.6477
39.15140854155791 18.5999
39.17503935514948 18.6325
39.19867190290282 18.6112
39.22249083587951 18.5146
39.24612686969409 18.5052
39.269764641845306 18.5285
39.293404153722804 18.5429
39.317230110864074 18.3842
39.34087311998506 18.3712
39.36451787301696 18.3568
39.388164371352595 18.357
39.41199737518003 18.2684
39.43564738196752 18.1599
39.45929913825317 18.2238
39.48295264543308 18.281
39.506792718520884 18.1583
39.530449745387216 18.127
39.55410852735203 18.1676
39.57776906581474 18.1205
39.60161623079 18.1341
39.625280300200025 18.0558
39.64894613032202 18.0554
39.67261372255866 18.0765
39.6964680021016 18.0495
39.72013913657293 18.019000000000002
39.74381203738292 17.9443
39.76748670593756 17.937
39.79134812278169 17.867
39.81502634488497 17.8784
39.83870633896685 17.8373
39.862388106436654 17.7504
39.88625668336918 17.7479
39.90994201572829 17.7048
39.933629125719285 17.6699
39.957503091207826 17.6632
39.9811937746168 17.7011
40.00488623990914 17.6028
40.02858048850006 17.5533
40.05246165409549 17.5472
40.076159487492085 17.4918
40.099859108448875 17.5334
40.123560518384345 17.5064
40.1474489070226 17.4546
40.171153913178564 17.3401
40.194860712584955 17.3301
40.2185693066637 17.4146
40.242464941335314 17.3471
40.26617714307655 17.2972
40.289891143772046 17.2312
40.3136069448471 17.2902
40.33750984859743 17.2566
40.3612292688043 17.1565
40.3849504936829 17.1807
40.40867352466194 17.1622
40.43258372059144 17.1021
40.45631038219906 17.1233
40.48003885420956 17.0501
40.503769138055105 17.042
40.52768664931955 16.9856
40.55142057531802 17.0351
40.57515631746428 16.9788
40.599079334038514 16.928
40.62281872700477 16.8607
40.64655994043941 16.8726
40.67030297578061 16.8419
40.69423334835778 16.8505
40.71798004609188 16.8123
40.74172857006355 16.7255
40.76547892171441 16.7343
40.7894166736039 16.6785
40.813170699248566 16.6534
40.83692655691388 16.5941
40.86068424804498 16.6818
40.884629402612525 16.6334
40.908390779366385 16.6014
40.932153993938 16.5283
40.95591904777605 16.5267
40.979871628443995 16.49
41.003640379561936 16.5205
41.02741097430883 16.5172
41.05118341413683 16.4629
41.075143444384416 16.3485
41.098919593177826 16.386
41.1226975914255 16.3518
41.14647744058318 16.3379
41.170444943946755 16.305
41.19422851378379 16.2706
41.218013938914645 16.2186
41.24198706625173 16.1279
41.26577622087193 16.1684
41.289567235177785 16.1323
41.31336011063129 16.0822
41.337340752422875 16.0797
41.361137369129835 16.0734
41.38493585138705 16.0497
41.40873620066004 16.0449
41.43272438060107 15.9749
41.45652848292052 15.9458
41.48033445666918 15.9123
41.50414230331616 15.8676
41.528138045159764 15.8253
41.551949656675205 15.8435
41.575763145513235 15.8184
41.59957851314666 15.79
41.62358184070442 15.7471
41.64740098505737 15.7735
41.6712220126409 15.6952
41.69504492493139 15.6256
41.71905586207357 15.626
41.74288256296395 15.6338
41.766711153007456 15.6734
41.79054163368412 15.5945
41.814560204340054 15.547
41.838394485526365 15.5609
41.86223066180303 15.459000000000001
41.88625497706819 15.4812
41.910094962812 15.4509
41.93393684811168 15.3963
41.95778063445365 15.3817
41.981812625263366 15.3172
42.00566023303407 15.3864
42.029509746323676 15.3412
42.05336116662236 15.3022
42.077400857069705 15.2883
42.10125611078846 15.3099
42.12511327600405 15.2547
42.14897235421036 15.2192
42.173019768448455 15.1742
42.19688269209613 15.155
42.22074753323349 15.113
42.24461429335818 15.0799
42.268669455600495 15.0383
42.292540073217886 15.0404
42.31641261433284 14.9788
42.34028708044675 14.9843
42.36435001496739 14.9926
42.38822835065557 14.9954
42.41210861586426 14.9308
42.4359908120986 14.9191
42.46006154323262 14.8821
42.48394762115317 14.862
42.507835634632315 14.8417
42.531912233047436 14.8463
42.55580413732265 14.8446
42.579697981698 14.7272
42.60359376768525 14.7202
42.62767820545945 14.7249
42.65157789440821 14.6812
42.67547952952185 14.6154
42.699383112316 14.6794
42.72347541395347 14.5717
42.74738291190531 14.5214
42.771292362102166 14.5929
42.795203766063516 14.5454
42.819303956130405 14.5036
42.843219287476536 14.4613
42.86713657716324 14.4303
42.89105582671383 14.3853
42.91516392983864 14.459000000000001
42.939087119032166 14.4014
42.963012272677304 14.345
42.98693939230129 14.3216
43.01105543317513 14.2968
43.034986504731386 14.2932
43.05891954686589 14.2494
43.08285456110972 14.3122
43.10697856448665 14.2381
43.130917542983475 14.1649
43.15485849820081 14.1772
43.17880143167367 14.0972
43.20293342237094 14.1154
43.226880332449 14.0614
43.25082922540554 14.1446
43.27496722682525 14.0761
43.29892010567796 13.9648
43.32287497204102 13.9851
43.34683182745632 13.9246
43.370977859791836 13.9469
43.39493871351105 13.9421
43.41890156092628 13.9227
43.44286640358341 13.8753
43.46702049182749 13.8813
43.49098934522816 13.8103
43.51496019852649 13.8078
43.5389330532723 13.7954
43.56309522248204 13.7153
43.58707210044314 13.7324
43.61105098451946 13.6702
43.63503187626491 13.6296
43.659202151562134 13.6559
43.68318707902681 13.6163
43.70717401884041 13.6266
43.731162972560874 13.6035
43.75534137913236 13.5509
43.779334381108384 13.5228
43.803329401683186 13.5687
43.82732644241872 13.5431
43.8515130055166 13.5017
43.87551410707659 13.4156
43.89951723350145 13.427999999999999
43.923709934595614 13.4378
43.94771713129917 13.3954
43.97172635758096 13.3448
43.99573761501002 13.3342
44.0199385169922 13.3248
44.04395385732619 13.3275
44.067971233533086 13.3207
44.09199064718605 13.3066
44.11619977548961 13.2359
44.14022328470671 13.2173
44.16424883610785 13.199000000000002
44.18827643127035 13.1895
44.21249381139513 13.1465
44.236525514814076 13.0436
44.26055926674478 13.0648
44.28459506876863 13.0962
44.3088207262813 13.0363
44.33286064928722 13.0266
44.35690262714919 13.0203
44.38094666145278 12.9532
44.4051806219871 13.008
44.42922879003185 12.9935
44.45327901929361 12.9087
44.477331311362136 12.8779
44.501573600619416 12.8299
44.525630039221795 12.8399
44.54968854541895 12.8441
44.573937102200176 12.832
44.5979997645541 12.7966
44.622064499300315 12.735999999999999
44.64613130803592 12.6947
44.67038823869318 12.6784
44.69445921643748 12.6802
44.718532272981385 12.6482
44.742607409926194 12.6275
44.76687274034801 12.5868
44.79095205918753 12.5661
44.81503346325094 12.5677
44.839116954143876 12.524000000000001
44.86339071028742 12.5527
44.88747839599524 12.4955
44.91156817336837 12.491
44.93566004401666 12.4906
44.959942251908146 12.415999999999999
44.984038330325966 12.3979
45.00813650686762 12.3572
45.03223678314731 12.3676
45.05652746888232 12.3631
45.08063196592069 12.3087
45.104738567558705 12.2892
45.128847275414856 12.2881
45.15314646515866 12.2573
45.17725940679741 12.1963
45.20137445952892 12.242
45.22568004865265 12.1778
45.24979934496396 12.1505
45.27392075725247 12.1223
45.29804428714431 12.1015
45.322358426247604 12.1368
45.346486212804315 12.1146
45.370616121861914 12.083
45.39474815505086 12.0163
45.41907087049246 12.0055
45.4432071734666 11.9697
45.46734560548283 11.9878
45.49148616817604 11.9803
45.51581748638564 11.9008
45.5399623320197 11.9304
45.56410931325473 11.8913
45.58825843173002 11.8901
45.61259837920865 11.8683
45.636751793816 11.8745
45.66090735060093 11.8278
45.68506505120716 11.7822
45.7094136545275 11.7499
45.73357566449271 11.7469
45.75773982322992 11.7384
45.78190613238733 11.7279
45.806263418194064 11.677
45.83043404997326 11.6553
45.85460683713677 11.6434
45.87897065658495 11.6607
45.90314777634752 11.5498
45.92732705646868 11.6052
45.9515084986045 11.5576
45.97588104735473 11.5692
46.00006683541565 11.4903
46.02425479047904 11.4724
46.04844491420549 11.4945
46.0728262191024 11.48
46.09702070211635 11.4431
46.12121735879483 11.4123
46.14541619080294 11.4095
46.169806278764455 11.3798
46.194009483459034 11.3936
46.21821486849841 11.3549
46.24242243555223 11.3393
46.266821333570014 11.3181
46.29103328674601 11.2373
46.31524742696538 11.2773
46.33946375590237 11.2565
46.36387149104216 11.2345
46.38809221957392 11.1784
46.41231514186606 11.1563
46.436540259597464 11.1359
46.460956858999374 11.1245
46.48518638983522 11.1205
46.509418121166966 11.1006
46.533652054678114 11.0594
46.55807754555709 11.0801
46.58231590571962 11.0439
46.60655647313217 11.0045
46.630988654873654 11.0296
46.655233659129024 10.9542
46.67948087571551 10.9794
46.70373030632484 10.9249
46.72817142736393 10.9419
46.752425308428684 10.9046
46.77668140861147 10.9016
46.80093972960865 10.8342
46.82538981736788 10.8082
46.849652602470904 10.8368
46.87391761349769 10.7885
46.8981848521493 10.8056
46.9226439341274 10.765999999999998
46.946915650573224 10.7386
46.97118959976749 10.7242
46.99546578341598 10.6916
47.019933887188216 10.6783
47.04421456235744 10.6743
47.06849747711879 10.6543
47.09278263318286 10.6049
47.11725978640143 10.5895
47.14154944775105 10.5435
47.165841355555656 10.5308
47.1901355115306 10.5053
47.214621741924994 10.5046
47.23892041698887 10.5068
47.26322134538975 10.4724
47.28771440635075 10.4413
47.31201986422527 10.4536
47.33632758061436 10.4174
47.360637557241866 10.42
47.38513974410611 10.3968
47.40945426407847 10.3442
47.43377104948137 10.329
47.45809010204344 10.3121
47.48260144275502 10.2917
47.506925052572285 10.2754
47.53125093475548 10.2301
47.55557909103813 10.2325
47.58009961361992 10.2408
47.60443234110732 10.2335
47.62876734791564 10.1807
47.65310463578333 10.1826
47.6776343683373 10.1766
47.7019762413987 10.1273
47.72632040075572 10.1183
47.75066684815169 10.0966
47.77520581885936 10.0319
47.799556865477655 10.008
47.823910205386 10.0082
47.84826584033272 10.0003
47.87281407745551 9.97291
47.89717432569297 9.971
47.92153687423484 9.92857
47.94609208429692 9.94717
47.97045925671401 9.92322
47.99482873471275 9.885010000000001
48.01920052005013 9.888639999999999
48.04376504619224 9.89218
48.068141469543484 9.85632
48.09252020552573 9.86858
48.11690125590099 9.78562
48.1414751266064 9.75769
48.16586082917454 9.77977
48.19024885144316 9.75431
48.2146391951793 9.76946
48.239222439012764 9.730189999999999
48.26361744916137 9.71395
48.28801478610016 9.76195
48.31241445160131 9.7057
48.337007097209366 9.69545
48.36141144338331 9.66538
48.38581812345755 9.624369999999999
48.41022713920929 9.65979
48.434829215320704 9.61592
48.45924292604658 9.54743
48.48365897780325 9.58699
48.50807737237308 9.55115
48.532688907799276 9.54087
48.55711201168574 9.53531
48.581537463754074 9.51406
48.60615611725119 9.52007
48.63058628942721 9.45914
48.65501881516546 9.460180000000001
48.6794536962573 9.430489999999999
48.70408185970339 9.41736
48.72852147531801 9.391860000000001
48.75296345168211 9.372689999999999
48.77740779059232 9.36605
48.80204549302823 9.34751
48.82649458091802 9.325289999999999
48.85094603676547 9.28742
48.87539986237231 9.26787
48.90004713292306 9.256680000000001
48.92450572200832 9.23898
48.94896668628025 9.26905
48.97343002754588 9.18881
48.99808689542115 9.21235
49.02255501470614 9.20088
49.04702551642794 9.1615
49.0714984023988 9.15335
49.096164896893235 9.122869999999999
49.120642575466796 9.11539
49.145122643748394 9.0963
49.16960510355558 9.080589999999999
49.19428125404938 9.05724
49.2187685210852 9.04978
49.243258185121555 8.977960000000001
49.26794160167084 8.99789
49.2924360839405 8.98664
49.31693296869764 8.97564
49.34143225776915 8.93222
49.36612538195438 8.91852
49.39062950396021 8.892330000000001
49.41513603578346 8.90327
49.4396449792564 8.9076
49.46434784069503 8.92795
49.488861631846454 8.86856
49.513377840166804 8.846789999999999
49.537896467493745 8.81354
49.56260909589029 8.76074
49.587132585683285 8.791960000000001
49.611658500018365 8.76372
49.636186840738596 8.72604
49.66090926588511 8.73431
49.685442483902584 8.6952
49.70997813385706 8.657919999999999
49.734516217597076 8.69619
49.75924846937352 8.68875
49.7837914452858 8.63843
49.80833686055187 8.63428
49.83288471702571 8.59675
49.85762682540054 8.63902
49.882179588965734 8.59105
49.9067347993235 8.56703
49.93129245833333 8.53074
49.95604445336378 8.54177
49.98060703442832 8.50418
50.005172069746266 8.5166
50.02993150438364 8.47896
50.05450147301533 8.459539999999999
50.07907390151433 8.4678
50.10364879174981 8.44582
50.12841816587289 8.44164
50.1529980044635 8.41922
50.17758031042124 8.38146
50.20216508562089 8.34233
50.22694442953363 8.34013
50.25153416817468 8.305019999999999
50.27612638170508 8.32532
50.300721072005196 8.29753
50.325510416102105 8.27698
50.350110084975064 8.271339999999999
50.37471223628208 8.25152
50.39931687190919 8.23099
50.424116246675766 8.24151
50.44872587605249 8.26282
50.47333799543065 8.21573
50.49795260670191 8.17484
50.52276204271512 8.13218
50.54738166295838 8.1544
50.57200378079314 8.13905
50.596628398116835 8.09088
50.62144792604559 8.10962
50.646077567609396 8.10516
50.670709714377715 8.09708
50.69553683636198 8.10317
50.72017401885922 8.04921
50.7448137122895 8.04585
50.76945591856022 8.029530000000001
50.79429318636823 8.03422
50.818940443716784 8.005989999999999
50.84359021965163 7.96501
50.868242516085964 7.9416899999999995
50.893089960641895 7.90682
50.917747323549435 7.91747
50.94240721271973 7.90945
50.96706963007175 7.87293
50.99192728239342 7.883039999999999
51.01659478166073 7.877039999999999
51.04126481489051 7.8505899999999995
51.06593738400761 7.834560000000001
51.090805275207074 7.76932
51.11548294172845 7.7904100000000005
51.14016314993547 7.78304
51.164845901758845 7.77354
51.18972406304274 7.70936
51.21441192780656 7.69764
51.23910234200271 7.67783
51.2637953075678 7.6654
51.288683770237945 7.67052
51.31338186432707 7.63183
51.33808251561888 7.64623
51.362978729967345 7.65561
51.387684521509755 7.641430000000001
51.41239287610203 7.61327
51.437103795691165 7.5510600000000005
51.46201036644977 7.57141
51.486726441956634 7.54735
51.51144508832545 7.5242
51.536166307509156 7.53448
51.56108326624387 7.49512
51.58580965706056 7.49114
51.61053862657523 7.49843
51.635270176746864 7.468489999999999
51.66019755512065 7.426139999999999
51.68493429268881 7.432180000000001
51.70967361681515 7.412839999999999
51.73441552946465 7.3932
51.759353359237934 7.37523
51.7841004750961 7.391660000000001
51.80885018539685 7.36773
51.833602492111254 7.377339999999999
51.8585508051424 7.32137
51.883308330926425 7.31768
51.90806845906181 7.286980000000001
51.932831191525715 7.269
51.95779001977161 7.25888
51.98255798721516 7.22867
52.00732856494335 7.203069999999999
52.03229530577543 7.189610000000001
52.057071130455945 7.20816
52.081849571391054 7.21184
52.106630630568695 7.162039999999999
52.13160794279417 7.17238
52.15639426492067 7.151960000000001
52.18118321127822 7.141030000000001
52.205974783860896 7.135560000000001
52.23096269971011 7.12115
52.255759551287994 7.07486
52.280559035098186 7.06562
52.30536115314103 7.03985
52.33035970494467 7.005319999999999
52.35516711807904 7.0477300000000005
52.37997717147198 6.9867
52.40478986713005 7.00237
52.42979908731974 6.96098
52.454617094216 6.96921
52.47943774942214 6.96002
52.50426105495102 6.96294
52.529280976059844 6.93907
52.554109609024096 6.90152
52.57894089837482 6.87177
52.60377484613117 6.87312
52.62880550079408 6.86826
52.65364479223379 6.864139999999999
52.67848674816189 6.84047
52.70352547971946 6.8259
52.72837279155837 6.803730000000001
52.753222773982785 6.790589999999999
52.778075429022984 6.81991
52.80312495150885 6.77865
52.827982978797436 6.779039999999999
52.85284368481815 6.73417
52.87770707160767 6.714580000000001
52.90276741793998 6.70615
52.92763619336701 6.7237800000000005
52.952507655698504 6.66625
52.977381806977576 6.661339999999999
53.00245301017842 6.6397699999999995
53.02733256653592 6.6308
53.052214817996074 6.62678
53.077099766608484 6.65613
53.102181859804446 6.6085199999999995
53.127072229988265 6.612010000000001
53.15196530349892 6.55961
53.17686108239249 6.571860000000001
53.20195409881522 6.5862
53.22685531582556 6.51379
53.25175924441303 6.46934
53.27666588664027 6.52039
53.30176985962693 6.49639
53.3266819565689 6.50319
53.35159677336455 6.47168
53.376514312083096 6.45057
53.40162927507703 6.45458
53.42655228516116 6.45271
53.45147802340193 6.38669
53.47660125628886 6.3377099999999995
53.50153247842639 6.35628
53.52646643496923 6.3726400000000005
53.55140312799818 6.33767
53.576537409691696 6.3415099999999995
53.60147960336152 6.3337900000000005
53.626424539786164 6.30969
53.65137222105307 6.30249
53.67651758529126 6.32482
53.70147078399681 6.25732
53.72642673383343 6.25678
53.75138543689533 6.2131
53.776541917524526 6.20329
53.801506154876755 6.22215
53.826473151763246 6.21138
53.851442910284916 6.14405
53.87661054126026 6.19119
53.9015858509782 6.16535
53.92656392866066 6.13817
53.95154477641532 6.14792
53.976723591801296 6.11996
54.00171000771266 6.14698
54.02669920004598 6.09905
54.051691170915745 6.0685400000000005
54.076881204886796 6.05847
54.101878760928514 6.03155
54.12687910187696 5.9839
54.152077577768296 5.99759
54.1770835166946 5.99215
54.20209224691339 6.0244800000000005
54.22710377055121 5.95671
54.25231352511594 5.96103
54.27733066384342 5.94856
54.30235060239643 5.989719999999999
54.32737334290836 5.88277
54.35259441062629 5.86354
54.377622783395324 5.839930000000001
54.40265396455061 5.85409
54.42768795623251 5.8303
54.45292037169559 5.81335
54.477960012857906 5.83249
54.50300247099511 5.79755
54.52804774825457 5.8243599999999995
54.55329154616743 5.72734
54.57834249018678 5.7498
54.6033962597977 5.71058
54.6284528571545 5.67786
54.653708072335164 5.64837
54.67877035378786 5.67515
54.70383546947698 5.64125
54.72890342156389 5.64162
54.7541700889442 5.55061
54.77924374251975 5.5708
54.8043202390049 5.5657
54.82959552413022 5.55279
54.8546777351945 5.51896
54.87976279569621 5.44175
54.90485070780914 5.49474
54.930137506558005 5.43081
54.95523115074295 5.48313
54.98032765308844 5.41897
55.005427015775496 5.4312
55.03072536339621 5.425590000000001
55.05583047570572 5.3918800000000005
55.080938454927676 5.30572
55.10604930325027 5.33244
55.131359235107396 5.33643
55.15647585066083 5.28815
55.181595341907496 5.244759999999999
55.20671771104285 5.24132
55.232039262617704 5.25974
55.25716741665048 5.2345
55.28229845518636 5.21161
55.30743238042802 5.17453
55.33276558731939 5.12876
55.357905315183636 5.1332
55.383047936390035 5.109430000000001
55.40819345314859 5.00914
55.433538351073295 5.02303
55.458689688238415 5.06501
55.483843927614096 5.022480000000001
55.509197623043605 4.97719
55.53435769621134 4.98945
55.55952067826466 4.8942
55.5846865714265 4.90752
55.61005202069737 4.90836
55.63522376553902 4.87416
55.66039842818645 4.833
55.68557601087004 4.86586
55.7109532500271 4.75488
55.73613670233794 4.77456
