TT I
1.2716486653135266 7.34207
1.2939594142134223 7.04519
1.3162702121660406 6.7506
1.3385810600174564 6.31595
1.3608919586137629 6.90618
1.383202908801069 6.38804
1.405513911425503 6.8277
1.4278249673332093 5.91788
1.4501343378461518 6.15273
1.4724455028545926 6.21088
1.4947567236847858 6.02376
1.517068001182951 6.15188
1.5393793361953272 5.66942
1.5616907295681737 5.57381
1.5840021821477681 5.66162
1.60631369478041 5.36493
1.6286252683124185 5.855630000000001
1.6509369035901333 5.45824
1.6732468618895553 4.96189
1.695558623192809 4.61521
1.7178704487808514 4.84089
1.7401823395001077 4.80598
1.7625012545597203 4.79079
1.7848028405262486 4.83603
1.8071218901122095 4.88826
1.8294236121921872 4.67502
1.8517427996910911 4.660480000000001
1.8740620574440425 4.98851
1.8963639900671978 4.64385
1.9186833908139995 4.56834
1.9409854680117449 4.45201
1.9633050151394713 4.4008400000000005
1.9856246367570705 4.9896
2.0079269371922672 4.55445
2.03024671027244 4.73961
2.0525491637446027 4.59831
2.074869091674931 4.43486
2.097171701569106 4.521809999999999
2.1194917877373847 4.79162
2.141811954326636 5.0405
2.164114805233074 4.84096
2.186435135143035 6.31209
2.208738150935709 15.5018
2.231058647554722 31.9882
2.2533792288321184 24.6323
2.275682498336085 11.2842
2.298003251406138 5.7310099999999995
2.3203066942619714 5.20049
2.3426276225136022 5.45403
2.3649486396617507 4.79188
2.387252348930071 5.57791
2.4095735463442893 5.2012
2.4318774374315884 5.467169999999999
2.4541988185014043 6.03051
2.476502894794693 6.6294
2.498824462909887 6.032109999999999
2.521146125856138 6.11609
2.5434504863470337 6.725560000000001
2.5657723414244717 6.75885
2.588076895590662 6.96535
2.610398946189713 7.3108699999999995
2.6327210958598384 7.00295
2.6550259469304716 7.2999
2.6773482972090137 7.554289999999999
2.6996533504259 7.478510000000001
2.7219759047039602 7.73128
2.744298562293959 7.4421800000000005
2.7666039251246595 7.96148
2.7889267918020164 8.1752
2.8112323652516555 8.7451
2.833555444408179 8.030489999999999
2.8558786311183852 8.012960000000001
2.8781845268938557 8.08342
2.9005079311721484 8.90335
2.9228140460410397 8.781360000000001
2.9451376712799635 9.05769
2.967444008632326 9.39588
2.9897678582247247 9.81178
3.0120918213106695 10.3573
3.0343984987899373 10.7422
3.0567226913198637 10.9413
3.079029599759726 11.6445
3.101354025127254 12.1388
3.123678568232338 13.0643
3.145985829517914 12.7211
3.16831061055229 13.5917
3.1906181112775593 14.3414
3.212943133635653 14.5644
3.2352682779763207 15.2763
3.2575761442691227 15.2728
3.2799015350264273 15.8111
3.302209649240067 16.4318
3.3245352898092655 16.7516
3.3468436553365257 17.4489
3.369169549113219 17.8792
3.3914955708171384 18.742
3.413804319727358 19.0834
3.4361305997334863 19.6177
3.4584396084414553 20.1075
3.4807661501462652 20.5989
3.503092824025881 21.1379
3.5254022288463154 21.2472
3.5477291695206588 22.0113
3.5700388426251948 22.9589
3.5923660534916446 24.5707
3.6146934007816114 41.2119
3.637003482731501 98.63600000000001
3.6593311053109985 109.572
3.681641464033634 61.8942
3.7039693653009733 31.7349
3.726297407241705 26.6359
3.7486081875460804 26.0998
3.7709365132734978 26.3897
3.793247578841633 26.8526
3.8155761917550093 27.13
3.8378875459837216 27.3858
3.8602164494827234 27.7957
3.882545499606844 28.7103
3.9048572932539183 29.6613
3.9271866390645718 29.9366
3.9494987298666713 30.4246
3.971828374764527 31.0669
3.9941581705403255 31.3197
4.016470713506008 31.9631
4.038800813471445 32.5936
4.061113662089144 32.9977
4.0834440696459176 34.545
4.105774632334751 34.7516
4.128087945865126 35.6857
4.150418821249301 36.1865
4.172732448931298 37.4269
4.195063640413578 39.39
4.2173775856475215 43.5549
4.239709096631102 79.3686
4.262040768704612 265.149
4.284355196706267 358.852
4.306687193387355 228.60299999999998
4.329001947444346 86.7673
4.35133427213731 49.5012
4.373666762177566 45.7301
4.395982011761091 45.262
4.418314834921175 46.4489
4.44063041906622 55.3454
4.4629635787515625 68.1153
4.4852969080429785 67.4743
4.5076130004776225 55.4686
4.529946671403969 51.1166
4.552263106909177 51.306000000000004
4.574597122877047 52.5412
4.596931312711224 53.1424
4.619248269273446 53.8531
4.6415828092605835 54.9766
4.663900117405352 56.2037
4.686235010953232 57.7475
4.708552674085913 59.263999999999996
4.730887924602802 60.3964
4.753223354952695 62.1824
4.775541557023902 63.7537
4.797877349456786 64.8462
4.820195915032126 66.8935
4.842532072957498 68.3795
4.864868414979744 70.0845
4.88718753227192 72.0141
4.909524244902505 74.2003
4.931843734218147 76.3757
4.954180820867835 79.3377
4.976518095879839 82.1301
4.998838149695359 85.2762
5.021175803844231 89.2329
5.043496238205739 93.0053
5.065834274903528 97.57799999999999
5.088172504230693 102.889
5.1104935158799565 110.656
5.132832132875765 136.767
5.155153533596801 188.438
5.1774925416746225 230.47400000000002
5.199814334878411 425.305
5.2221537374521505 1191.28
5.244493338631803 3084.07
5.266815727034316 7156.92
5.289155727832427 11664.7
5.311478517248165 9094.15
5.333818921080011 3251.03
5.356159527788849 671.434
5.3784829252032536 209.173
5.400823940070432 154.018
5.423147747031976 134.43
5.445489173474152 122.63600000000001
5.467830807066149 116.79
5.490155234831516 112.426
5.512497285125229 107.84700000000001
5.534822130975162 106.17399999999999
5.557164601388673 103.773
5.579489868738879 100.719
5.601832762690846 100.334
5.6241758697774475 99.5455
5.646501775867269 98.9529
5.668845311622074 97.0427
5.691171647754637 96.2704
5.713515615597765 94.9132
5.735859800852677 94.137
5.758186788542988 93.2358
5.780531411018185 93.7484
5.802858837297399 93.2657
5.825203900414495 93.3268
5.8475491852224 94.2164
5.869877275883075 94.7308
5.892223006467101 96.5192
5.914551544266608 97.794
5.936897724049891 100.749
5.959244129804903 107.87100000000001
5.981573344815301 130.297
6.0039202049061 237.27900000000002
6.026249875609095 515.194
6.04859719346037 1057.64
6.070927323278297 2216.25
6.093275102315365 4184.33
6.115623113320588 5184.4
6.137953938319995 3488.19
6.160302415650845 1172.13
6.182633708324452 279.284
6.2049826554078376 123.52
6.227331838745022 97.9128
6.249663839443684 88.4979
6.27201349767565 85.3273
6.294345974611799 92.415
6.316696111167083 106.17299999999999
6.339046488263839 99.6499
6.361379686074702 82.2842
6.383730546639482 73.3038
6.406064229255215 70.5724
6.428415576718203 69.6399
6.450749747566656 68.5749
6.47310158535871 67.2941
6.495453669698332 66.6879
6.517788579421056 65.7708
6.540141159237969 64.9491
6.562476565766648 64.8108
6.5848296444934045 64.2056
6.607182974060425 64.0372
6.6295191323281015 64.0041
6.651872965955752 67.9001
6.6742096296068985 97.6314
6.6965639707294615 150.153
6.71891856698715 151.995
6.741255995248479 101.27
6.763611104154477 70.2179
6.785949046381137 61.8207
6.808304671371482 59.9082
6.8306605557940046 59.5641
6.852999275508618 58.2972
6.875355681171544 58.3213
6.897694923437771 57.6994
6.92005185377892 57.9588
6.9423916220322655 57.6049
6.964749080490181 56.6428
6.987106804399774 56.8047
7.009447368180821 57.0799
7.031805625367033 56.5221
7.054146723727803 56.5505
7.076505517631004 56.3178
7.098864581288365 56.356
7.121206488070854 56.318999999999996
7.143566093607822 56.0738
7.165908543567245 56.4459
7.188268694426048 56.5475
7.2106291193438095 56.5119
7.232972390625943 58.0893
7.255333366030969 72.0376
7.277677189091925 133.78
7.300038718428332 188.959
7.322400526130865 157.77700000000002
7.344745183422596 94.4719
7.367107550224791 63.793
7.389452767901992 57.4726
7.411815697249891 56.6164
7.434161478756298 55.6411
7.456524974096713 55.2156
7.478888753837185 55.2434
7.501235387657368 56.041000000000004
7.523599738562711 55.497
7.545946944825532 55.545
7.568311870344528 56.5149
7.5906770845765665 56.9105
7.613025156078678 58.2542
7.635390950099687 59.6256
7.657739602662809 58.8286
7.680105979923558 57.1823
7.702472650212829 57.0753
7.724822180948224 57.0727
7.747189439655568 57.0649
7.769539560075357 56.8934
7.791907410653562 57.4339
7.81425812420825 57.352
7.836626570110925 57.8199
7.858995315087906 58.6579
7.881346924933401 58.5579
7.903716270417482 59.1861
7.926068482028405 59.4712
7.948438431475253 60.05
7.9708086843180235 60.7675
7.993161805171116 61.2582
8.015532667162402 61.8673
8.037886398416653 62.9444
8.060257873014221 63.3019
8.082629655331942 63.7595
8.104984308787587 65.29
8.127356708900503 68.6341
8.149711981398308 75.0216
8.172085002766314 77.5836
8.194458336181368 73.5611
8.216814543847752 71.1188
8.23918850371002 70.6415
8.26154533906492 71.4575
8.283919928836452 73.1456
8.306277395339652 74.1398
8.328652618483376 75.6747
8.351028159736202 77.8211
8.373386579575245 80.3072
8.395762759396959 81.8839
8.418121819038275 87.4452
8.440498640894003 102.585
8.462875785192262 119.33200000000001
8.485235811156207 132.868
8.507613602688501 176.703
8.529974277114228 274.427
8.552352719347912 419.11800000000005
8.574731488360351 672.8839999999999
8.59709314210385 1171.16
8.619472567021075 1764.48
8.64183487789147 2154.79
8.664214962183097 1866.07
8.686577933647762 1031.13
8.708958680784317 404.31800000000004
8.731339760774953 175.165
8.753703729764451 115.66799999999999
8.77608547780821 102.31700000000001
8.798450116065078 97.9064
8.820832535634787 94.6989
8.843215292401656 93.0865
8.865580941199045 91.3969
8.887964374703538 90.5169
8.910330701447199 91.8199
8.932714815164482 94.5919
8.955099270424924 93.5995
8.977466620733543 89.84299999999999
8.999851761421976 86.9608
9.022219798361645 85.3883
9.04460562795561 84.9218
9.066991803441677 84.5844
9.089360876979615 84.1901
9.111747746589993 83.8625
9.13411751544971 83.1155
9.156505082664324 82.9183
9.178875550323522 83.28
9.20126381862328 83.6894
9.223652438908596 84.2269
9.246023961427412 84.0848
9.26841328802173 83.0238
9.290785518039224 82.7781
9.313175554425882 83.6727
9.335565947154315 83.7648
9.357939245086508 83.9032
9.380330352834827 83.9027
9.40270436697103 84.3088
9.425096193225055 84.2221
9.447488380180165 85.1681
9.469863475295412 85.3295
9.492256385987508 85.7772
9.514632206018318 86.4269
9.537025843935714 86.9302
9.559402392368193 87.602
9.581796761000229 88.6725
9.604191496441521 89.6478
9.626569144158516 93.6639
9.648964615551032 98.9668
9.671343000390081 100.73200000000001
9.693739211225699 98.4288
9.716135793237463 95.32799999999999
9.738515290448102 94.8778
9.760912617143402 95.8865
9.783292860202891 96.49600000000001
9.805690935076182 97.8172
9.828089385495742 98.8001
9.850470754023561 101.755
9.872869957865444 110.605
9.89525208097539 128.036
9.917652041736662 142.607
9.940052382417589 142.594
9.962435644102392 149.518
9.984836746950979 188.518
10.007220771957746 260.607
10.029622640473708 367.819
10.052007432299963 541.58
10.074410069984072 807.7339999999999
10.096813093716005 1216.23
10.119199042482517 1678.54
10.141602840636468 1931.27
10.163989564971628 1687.19
10.186394141051062 993.23
10.208799107559706 439.186
10.231187001965623 209.122
10.253592751657669 133.441
10.275981430388155 117.104
10.298387966769793 116.14200000000001
10.320794897965431 119.572
10.343184759907361 118.126
10.36559248305461 111.796
10.387983138083852 107.22200000000001
10.410391656691655 110.007
10.432800574501677 123.01799999999999
10.455192425893369 140.987
10.47760214443012 167.09599999999998
10.499994797678786 208.24900000000002
10.522405320453982 279.217
10.54479877906917 380.74300000000005
10.567210109595656 501.714
10.5896218454736 566.2090000000001
10.612016518879773 507.23800000000006
10.634429067781074 367.99699999999996
10.656824555333241 215.957
10.679237920773568 129.04399999999998
10.701651695961992 98.7325
10.724048411481384 91.3302
10.746463008485165 88.414
10.768860546937125 86.5632
10.791275969274796 84.6594
10.81369180576079 83.4366
10.836090585366925 82.1876
10.858507252467449 81.2608
10.88090686379991 80.2313
10.903324365036394 79.605
10.925724811614439 79.9994
10.948143150509463 81.4356
10.970561909719066 80.5583
10.992963615930844 78.2933
11.015383218085756 75.9977
11.037785768347074 74.5812
11.06020621697282 73.9721
11.082627090322113 73.6883
11.105030913430326 73.2709
11.12745263854165 73.9074
11.149857314510728 77.7902
11.172279894912576 85.1233
11.194702904450653 85.8773
11.217108866490921 80.9383
11.239532736615194 75.9171
11.26193956033512 73.5165
11.284364294577085 71.8256
11.306789462371718 69.6763
11.329197585398376 68.4117
11.351623622610898 68.1913
11.37403261614354 67.1602
11.396459526308487 67.1227
11.418869393879497 66.96
11.441297180532617 66.3453
11.463725406927658 66.1693
11.486136592353875 66.0196
11.508565700543707 66.5159
11.530977768845315 68.7367
11.553407762368774 69.8355
11.575838200059769 68.9344
11.598251599479612 66.8603
11.620682927815501 65.4221
11.64309721895548 64.6959
11.665529441478206 64.3214
11.687962112597958 64.0332
11.710377748130886 64.081
11.732811318753434 63.9726
11.755227854859067 63.9983
11.777662328529495 64.0915
11.800079768750786 63.9417
11.822515149015453 63.798
11.844950984084935 64.2096
11.867369787303163 63.7046
11.889806534289491 63.7484
11.912226250487029 63.8702
11.934663912939751 64.1665
11.9571020346363 64.0627
11.979523127133968 64.0467
12.001962169624331 64.8282
12.024384183972964 66.3134
12.046824150809913 69.6731
12.069264581333726 75.3245
12.091687985297767 81.6377
12.11412934550045 91.292
12.136553680195208 105.289
12.158995973632788 126.105
12.181438735204349 151.718
12.20386447284199 182.755
12.226308172985636 207.10299999999998
12.24873485024193 209.875
12.271179492516982 173.34900000000002
12.293607112949127 132.903
12.316052700916226 100.118
12.338498763250042 81.6576
12.360927805303868 72.4265
12.383374818673879 68.1252
12.405804812803074 65.7508
12.428252780773262 65.6533
12.45070122756722 65.5323
12.473132656675375 65.3955
12.49558206341869 65.6769
12.518014453510101 65.6633
12.540464823770117 65.8203
12.562915677315177 65.7497
12.58534951575545 66.8734
12.607801338171472 69.0008
12.630236146511358 75.4208
12.652688941369085 80.9962
12.675124723177234 81.0372
12.697578494048786 76.8262
12.720032754458185 71.4638
12.742470003354093 69.2263
12.764925245138771 69.0125
12.787363476431278 69.3613
12.809819703166806 69.641
12.83227642391173 70.4337
12.854716135692716 71.1889
12.877173846755147 72.2845
12.899614549869717 72.2284
12.9220732548287 73.2684
12.94453245827299 73.6824
12.966974655289818 74.5805
12.989434858002571 75.4994
13.011878055298721 76.2385
13.034339260862497 77.3007
13.056800969391883 78.3182
13.079245674017244 80.6365
13.101708390774869 82.8185
13.12415410463411 90.661
13.146617833206086 103.561
13.169064559883248 116.666
13.191529303857127 132.369
13.213994557076367 154.175
13.236442809902437 187.083
13.258909083908291 235.39700000000002
13.28135835851934 293.54900000000004
13.30382565690295 360.44
13.326293469022952 417.00699999999995
13.348744283242008 427.48
13.371213125129904 375.825
13.39366497011003 276.663
13.416134845360597 184.1
13.438605238843131 129.249
13.46105863690397 108.88799999999999
13.483530069144786 109.301
13.505984506951902 115.116
13.528456981549432 125.01
13.550929978879088 139.725
13.573385983253365 161.64600000000002
13.595860028340867 196.12
13.618317081455832 242.56400000000002
13.64079217790333 294.215
13.663250283359057 343.023
13.685726434770173 372.825
13.708203115221277 352.083
13.730662806148091 278.08
13.75314054697177 199.615
13.775601299246777 134.92600000000002
13.798080104050406 99.9788
13.820559442405358 87.3773
13.843021793671388 83.4804
13.865502201420897 81.571
13.887965623051947 81.0389
13.910447103807167 79.9196
13.932929122629764 78.5494
13.955394156785959 78.2054
13.977877254034569 77.1399
14.000343367582113 76.3511
14.022827546871707 75.7602
14.045294743423524 75.0172
14.06778000837062 74.1967
14.090265817715476 74.1603
14.112734645763819 73.6939
14.13522154619454 73.8485
14.157691466286913 73.8741
14.180179461423874 73.6485
14.202668005486178 73.064
14.22513957064374 72.1249
14.247629214846473 71.6056
14.270101881097517 71.5734
14.29259262906496 72.248
14.315083930490205 73.0636
14.337558255389705 73.0414
14.360050666019726 72.9091
14.382526101071944 71.7303
14.405019624534942 70.7198
14.427513705993134 69.9678
14.449990813291825 69.7896
14.47248601302899 69.6469
14.49496423954951 70.0258
14.517460561197822 70.1798
14.539939910570322 69.7727
14.562437357763558 70.2367
14.58493536931253 71.5204
14.607416409993311 72.68
14.62991555254159 73.4949
14.652397725157423 73.2741
14.674898002342799 72.6525
14.697398848433282 71.8361
14.719882725991326 72.4484
14.74238471217934 73.2567
14.764869730765593 76.9239
14.787372860692983 81.0403
14.809876564079925 85.8666
14.83236330125751 92.006
14.854868153850365 100.15799999999999
14.877356041159485 112.55
14.899862046604186 129.31
14.922351087688757 152.026
14.944858249632887 178.238
14.967365991421232 204.253
14.989856770231246 224.611
15.012365673994204 223.59400000000002
15.03485761569738 199.703
15.05736768508665 155.707
15.07987833888692 119.774
15.102372032001655 94.3752
15.124883856909658 79.1592
15.14737872204565 73.7849
15.169891721717274 71.8747
15.192405310371893 71.8684
15.214901940621196 72.693
15.237416709527137 72.7107
15.259914520936249 72.8605
15.282430473753607 71.8819
15.304947020131227 70.525
15.327446610371178 69.5999
15.349964346154254 68.5848
15.372465126703139 68.1496
15.394984055556009 67.7336
15.417486030076159 67.5594
15.44000615566487 67.3576
15.462526881230803 67.1938
15.485030653812652 67.5836
15.507552581617434 67.5059
15.530057557334603 67.513
15.55258069104857 67.4916
15.575104429329837 67.5234
15.597611216864632 66.9778
15.620136166564563 67.1388
15.6426441664095 68.2399
15.665170331202765 70.6817
15.687697105158826 74.4314
15.710206930593545 77.9104
15.732734925158933 82.4654
15.755245972089478 88.5047
15.77777519094324 97.2156
15.800287463046663 108.84
15.822817909869592 125.096
15.84534897229804 144.344
15.867863089299354 166.74400000000003
15.890395385222186 184.82299999999998
15.912910736597423 194.80700000000002
15.935444269699861 186.516
15.957978423016485 161.055
15.980495633101265 129.392
16.003031029129367 98.545
16.02554948280019 78.7707
16.048086125229432 69.9717
16.070623392487107 66.8512
16.09314371869582 66.1608
16.11568223789321 65.1514
16.13820381691126 64.0545
16.160743591742527 62.6585
16.183283996022084 61.7406
16.205807461423195 60.6728
16.228349126881973 60.117
16.25087385432698 60.1694
16.27341678466365 59.5403
16.29594277784926 59.5256
16.31848697676433 59.7541
16.341031811604868 60.1743
16.36355971058487 60.661
16.3861058195587 60.224
16.40863499352978 58.9183
16.431182380342005 57.9687
16.453730407713202 57.4585
16.476261501364792 57.0606
16.498810812136167 56.6687
16.52134319004079 56.7095
16.54389378792203 56.6264
16.566445031001553 56.3437
16.588979342490088 56.2411
16.61153187824822 56.0572
16.634067483263312 56.097
16.656621315414416 55.8232
16.679175797408888 55.4158
16.701713349928728 55.5358
16.72426913389191 55.8741
16.74680798922351 55.9287
16.76936507887444 55.8579
16.791905240734874 56.0681
16.814463639794468 55.8801
16.837022695210294 55.9015
16.859564824093756 56.2777
16.882125194503903 57.3382
16.904668639217885 58.1523
16.927230328348003 58.3573
16.949792678493612 58.2304
16.972338104193863 57.3518
16.994901778652235 56.7599
17.017448529496576 56.6711
17.040013531998152 56.8231
17.06257920018044 57.2339
17.0851279459922 58.0618
17.107694947817667 59.1818
17.130245028099072 60.0256
17.15281336730298 61.5985
17.17536478578733 63.1223
17.19793446610687 65.0816
17.220504818648422 67.8145
17.243058251703697 70.6606
17.265629950971032 74.286
17.288184731571736 78.4611
17.310757781306908 82.1831
17.33333150794385 84.368
17.355888317140174 83.4398
17.37846339986244 78.7681
17.401021565958885 72.4801
17.42359800851343 66.8955
17.44617513265564 63.1198
17.468735341390783 61.0831
17.491261035594565 60.2557
17.51396340099364 60.0808
17.536490463869136 60.2065
17.559018209820174 60.2686
17.58154663977963 60.3231
17.604251766089718 60.3563
17.626781572227713 60.641999999999996
17.64931206518155 60.9612
17.671843245885103 61.6604
17.69455114821572 61.6332
17.717083712612634 61.9824
17.739616967569667 62.038999999999994
17.762150914021706 62.3663
17.78486160749854 62.4544
17.807396945166804 63.0957
17.829932977143503 64.0198
17.85246970436452 65.4722
17.875183204129467 67.803
17.897721330097664 69.9873
17.920260154126645 72.6365
17.942799677153296 75.7584
17.9655159983646 79.3761
17.988056927677544 84.2465
18.010598558807683 91.1096
18.033140892692916 99.6134
18.05586005052525 109.53200000000001
18.07840379824407 119.836
18.10094825154059 131.43200000000002
18.12366954819864 140.743
18.146215420998306 142.0
18.16876200220057 134.59799999999998
18.191309292745153 121.726
18.214033452627167 107.477
18.236582170236648 94.818
18.259131600016456 88.0829
18.281681742907335 87.3521
18.304408781233683 90.7714
18.32696035875955 95.4269
18.349512652227624 100.023
18.372065662579683 105.214
18.394795594587553 107.781
18.41735004715306 105.181
18.43990521943684 98.9191
18.46246111238171 89.3906
18.485193953325208 79.4416
18.507751296070428 71.5822
18.530309362314178 67.2317
18.552868153000343 64.7797
18.57560391815056 63.3041
18.59816416623245 62.8079
18.620725141597372 62.4266
18.643286845190268 62.0496
18.666025549835414 61.5355
18.688588718427933 60.9597
18.711152618092243 60.7821
18.73389353884365 60.5101
18.75645890921984 60.0606
18.77902501351406 59.5598
18.801591852673102 59.6565
18.824335739722738 59.0815
18.846904057212626 58.9516
18.8694731124168 58.6698
18.89204290628315 58.842
18.914789774966803 58.4372
18.937361054791623 58.2879
18.959933076131318 58.0257
18.982505839934877 57.9819
19.00525570560582 58.1951
19.027829963004184 57.9377
19.05040496572238 58.1236
19.072980714710468 58.068000000000005
19.095733592739563 58.4061
19.11831084296757 58.6256
19.140888842324735 59.126999999999995
19.16346759176222 59.6941
19.18622349753803 60.2329
19.208803755869358 61.0836
19.231384767143577 61.8127
19.253966532312948 63.2209
19.276725481241822 65.0436
19.29930876296784 67.157
19.3218928014549 69.9494
19.34465404436217 73.2052
19.36723960516257 76.1518
19.389825925592426 77.8327
19.412413006605938 77.2441
19.43517731967805 74.2745
19.457765930683355 69.9401
19.48035530514408 64.7349
19.50294544401556 60.5132
19.525712842708348 57.7166
19.54830451925909 56.3554
19.570896963095727 55.1389
19.593490175174704 54.8387
19.616260674962184 54.8267
19.638855432416964 54.4923
19.661450960992624 54.736999999999995
19.68404726164677 54.5567
19.706820878021247 54.339
19.729418731756834 54.5093
19.752017360452857 54.2388
19.77461676506804 54.4526
19.797393513540218 54.5162
19.819994478951667 54.8267
19.84259622316767 55.5506
19.8651987471481 55.9179
19.887978643247177 56.3486
19.91058273574792 56.7207
19.933187610901943 57.4712
19.955969879466828 58.4829
19.97857632894404 59.7511
20.00118356396599 61.2136
20.023791585494575 62.8972
20.046577028914875 65.7027
20.069186632506966 67.9751
20.091797025500632 70.1734
20.114408208858933 71.0703
20.137196842715273 71.2915
20.159809615886765 69.9849
20.18242318232135 67.1803
20.20503754298326 64.6812
20.227829382875154 63.1154
20.250445341109344 62.7745
20.27306209647285 63.2357
20.29567964993108 64.3441
20.31847471147704 65.4234
20.34109387027612 66.5918
20.363713830075454 66.9921
20.386334591841646 65.6814
20.409132890679302 62.9891
20.431755265564437 59.901
20.454378445325528 56.8488
20.477002430930366 55.0062
20.499803982716553 53.6699
20.522429589228004 52.6381
20.54505600449589 52.2411
20.567683229489194 52.0921
20.590488049900088 51.6163
20.61311690359731 51.1379
20.63574656993626 50.9867
20.658553853717297 50.6678
20.681185154618298 50.6112
20.703817271080066 50.5031
20.72645020407368 50.0705
20.749260783967177 49.9446
20.771895359337133 49.8985
20.794530754161617 49.7604
20.817166969412938 49.8379
20.83998086114876 49.9081
20.86261872660049 49.611999999999995
20.885257415405402 49.5417
20.90789692853701 49.4922
20.930714147864748 49.4125
20.953355319030678 49.6211
20.97599731745334 49.7132
20.99864014410749 49.5404
21.021460706796564 49.5024
21.044105199328826 49.7591
21.06675052302631 49.9903
21.089396678865015 50.0935
21.112220600704806 50.3848
21.134868430275347 50.8689
21.15751709492456 51.0817
21.180166595629693 51.0403
21.202993892429635 51.7807
21.22564507473034 52.0521
21.24829709602816 52.3011
21.27112693608965 52.3239
21.293780644891275 52.3517
21.316435195634053 51.9406
21.339090589297417 51.0865
21.361923832041875 50.6826
21.384580921090404 50.1222
21.407238856007325 49.5011
21.429897637773326 49.2805
21.45273429906592 49.5516
21.475394784108598 49.1726
21.498056118951983 49.0674
21.520718304578022 49.4628
21.543558400304388 49.6036
21.566222297108816 49.7904
21.58888704765135 49.9162
21.61155265291521 50.159
21.63439619898156 50.7082
21.657063523335786 50.931999999999995
21.67973170537063 51.3983
21.7024007460706 51.9838
21.72524775840385 52.5866
21.747918526116475 53.5831
21.770590155457388 54.6987
21.79326264741238 56.172
21.816113141960237 57.8706
21.838787368860547 59.7111
21.861462461341976 61.4131
21.884315579735777 63.5194
21.90699241312273 64.907
21.92967011506078 65.7593
21.95234868653799 65.7419
21.9752053151131 64.6805
21.997885635446785 62.88
22.020566828293532 60.9725
22.04324889464272 58.8034
22.066109049404666 57.3073
22.088792872571794 56.8718
22.111477572219204 56.8178
22.1341631493376 57.0394
22.157026846313123 57.0416
22.179714188221507 56.6336
22.202402410582668 55.7071
22.22509151438863 54.1518
22.24795876962584 52.6437
22.270649646204486 51.8267
22.293341407213727 50.9297
22.316034053646906 50.3781
22.338904883215342 50.0738
22.36159931041458 50.0676
22.38429462602756 49.9652
22.40699083104897 49.851000000000006
22.429865251039757 49.9419
22.452563244831367 49.9387
22.47526213102522 49.8645
22.49813925616515 49.6664
22.520839937143307 49.5696
22.543541513520587 49.3444
22.56624398629403 49.1587
22.589124730075895 49.2838
22.611829005656723 49.7202
22.63453418063466 49.5712
22.657240256008077 49.8943
22.680124634582935 49.8987
22.70283252079775 50.273
22.725541310413075 50.501999999999995
22.74825100442868 50.7234
22.771139033969575 51.3364
22.79385054687155 51.4829
22.81656296718292 51.9663
22.83927629590484 52.8561
22.862167992606945 53.6875
22.88488314827121 54.9124
22.907599215359284 55.7076
22.93031619487366 56.6519
22.953211574954405 57.7174
22.975930389478226 58.8062
22.998650119445763 59.1926
23.02137076586092 58.6639
23.044269845560063 57.5254
23.06699233506288 55.7913
23.089715744034912 53.9356
23.112617610931565 52.1901
23.135342869061212 51.0131
23.158069049684816 50.2059
23.1807961538087 49.7619
23.20370174880544 49.6813
23.226430710184808 49.7598
23.249160598093425 49.9859
23.271891413539002 49.783
23.294800752937697 49.8344
23.31753343374794 50.1169
23.340267045128353 50.2479
23.36300158808808 50.5737
23.38591468821339 50.8404
23.408651104658304 51.0849
23.431388455719986 51.7384
23.454126742409 52.537
23.4770436196085 53.3852
23.499783787914662 54.4567
23.522524894889884 55.2443
23.54526694154616 56.3999
23.56818761219047 57.7111
23.59093154860734 58.4324
23.613676427751283 58.8206
23.636422250635754 58.4653
23.659346731118656 57.1524
23.68209445191868 55.328
23.704843119509587 53.0374
23.72759273490623 50.9509
23.750521041644767 49.3683
23.77327256312355 48.1536
23.796025035462787 47.5603
23.818956224555475 47.0358
23.841710609113413 47.02
23.86446594758979 46.7471
23.887222241002014 46.4337
23.910157285144578 46.13
23.932915498962537 45.9608
23.955674670778713 45.946000000000005
23.978434801611975 45.7442
24.001373717286125 45.5717
24.024135776723917 45.6413
24.046898798245582 45.3747
24.06966278287146 45.2399
24.092605586582614 45.1892
24.115371508023642 45.0043
24.1381383956401 44.8102
24.16090625045381 44.8448
24.183852958731244 44.8541
24.206622758582608 44.7834
24.229393528706886 44.5347
24.252165270127392 44.6487
24.27511589952438 44.5592
24.297889594216997 44.2531
24.32066426328598 44.1627
24.34343990775613 44.1186
24.36639447485003 43.9941
24.38917208083877 43.9654
24.41195066531332 43.8812
24.43490819850244 43.9516
24.457688750692377 43.7011
24.48047028445616 43.5831
24.503252800821233 43.8567
24.526214300784112 43.8947
24.548998793132213 43.8602
24.57178427117417 43.7043
24.59457073593893 43.7297
24.617536219319863 43.7709
24.64032466834748 43.729
24.663114107195035 43.5463
24.685904536893013 43.3242
24.708874020360852 43.3158
24.731666442613744 43.4505
24.754459858818787 43.2034
24.777254270007962 43.1228
24.80022777025625 43.0005
24.82302418230472 43.0158
24.845821592443674 42.9892
24.86862000170663 43.0522
24.891597535453727 42.9106
24.914397953892728 42.9876
24.93719937456671 43.0586
24.96000179851076 43.0379
24.98298338249997 43.3268
25.00578782394922 43.5176
25.028593271784167 43.6275
25.05157790644186 43.9498
25.07438537804115 43.9988
25.097193859145293 44.2706
25.120003350792075 44.6201
25.142992065061257 44.917
25.165803588823465 45.0415
25.18861612625217 45.4325
25.211429678386736 45.4612
25.234422489079968 45.5601
25.257238081693636 45.6462
25.280054692141732 45.6875
25.3028723214652 45.5373
25.325869245420463 45.7461
25.348688923599397 45.8511
25.371509623787006 45.7923
25.394331347025812 45.6229
25.41733240110666 45.0919
25.440156181590016 44.5454
25.46298098826268 43.9566
25.48580682216873 43.306000000000004
25.50881202326435 42.7197
25.53163992281684 42.3369
25.55446885274561 41.9868
25.577298814096377 41.7516
25.600308179121807 41.4905
25.623140214533745 41.6899
25.64597328451537 41.6298
25.66898578564376 41.2816
25.691820936010206 41.3953
25.714657124097695 41.3181
25.737494350954734 41.3757
25.760511045684957 41.3279
25.783350361364224 41.2899
25.806190718969255 41.3339
25.82903211955018 41.5174
25.852053024868923 41.482
25.874896522722523 41.4768
25.897741066713106 41.3533
25.920586657892454 41.4395
25.943611790812668 41.6738
25.966459487728237 41.6953
25.989308234998564 41.7555
26.01215803367705 42.0973
26.03518741123814 42.1528
26.05803932412957 42.3564
26.080892291600094 42.4024
26.10374631470478 42.4031
26.12677995397268 42.553000000000004
26.14963609978026 42.3789
26.172493304397875 42.1904
26.19535156888223 42.0927
26.218389486949604 41.701
26.241249882640123 41.5011
26.26411134137826 41.1036
26.28715248187403 41.0934
26.31001607820869 40.8904
26.3328807407756 40.7075
26.35574647063438 40.8346
26.37879191991473 40.8092
26.401659795896734 40.7655
26.424528742360263 40.9816
26.447398760366614 41.2109
26.470448535598294 41.3215
26.49332070826805 41.5378
26.516193955675355 41.803000000000004
26.53906827888316 41.9004
26.562122397260108 41.9898
26.584998883685063 42.3972
26.607876449110325 42.5204
26.63075509460056 42.7712
26.65381357334404 43.0004
26.67669439061878 42.9751
26.699576291163382 42.9474
26.722459276044212 42.7919
26.745522132402975 42.575
26.768407297649354 42.1922
26.791293550442003 41.8751
26.814180891848974 41.6
26.837248143099337 41.3275
26.860137673466657 41.3375
26.88302829566349 40.9337
26.90592001075963 40.7856
26.92899167420566 40.7324
26.951885586870763 40.2562
26.974780595655517 40.0865
26.99785558178161 39.9436
27.020752794605112 39.7539
27.043651106772522 39.6459
27.06655051935668 39.6282
27.089629948036183 39.3836
27.112531573292053 39.3118
27.135434302194138 39.4689
27.158338135817015 39.278
27.181422024430987 39.2549
27.204328079372566 39.3239
27.22723524226965 39.2353
27.250143514198573 39.232
27.273231880156334 39.3307
27.296142382065014 39.2036
27.319053996245536 39.0826
27.341966723775965 39.1241
27.365059584515222 39.1339
27.38797455070062 39.1803
27.410890633481237 39.1206
27.433807833936918 39.1176
27.456905206923906 39.2047
27.47982465472398 39.2396
27.502745223449743 39.2246
27.525666914182825 39.4113
27.548768816912457 39.3069
27.571692763693633 39.1498
27.59461783573812 39.2438
27.617723149491244 39.0263
27.640650484125285 38.8733
27.66357894728264 38.8418
27.686508540048052 38.9321
27.709618414237887 38.6054
27.732550278321757 38.5499
27.755483275279115 38.4709
27.778417406196485 38.5276
27.801531858397514 38.6248
27.824468269376716 38.5025
27.847405817586786 38.5969
27.870344504116094 38.8026
27.893463551932008 38.8611
27.916404527281053 38.9736
27.93934664422563 39.1182
27.962289903855886 39.0898
27.98541356491974 39.1802
28.00835912214229 39.3025
28.03130582533231 39.6943
28.054253675581805 39.9296
28.077381967556104 39.8501
28.100332124185126 39.6637
28.123283431160893 39.7288
28.146235889577238 39.5874
28.169368830154156 39.4215
28.192323603752033 39.0365
28.215279532083304 38.8361
28.238415973016764 38.6707
28.261374223145094 38.618
28.284333631303806 38.3298
28.307294198589954 38.2296
28.330435319167677 37.9147
28.353398217078915 37.6149
28.376362277420153 37.4873
28.39932750129032 37.3613
28.422473319286713 37.1353
28.44544088262495 37.1122
28.468409612800283 36.9879
28.491379510913497 36.7088
28.51453004413313 36.678000000000004
28.53750229057244 36.604
28.56047570826344 36.6143
28.583450298308804 36.5252
28.606605564586562 36.3704
28.629582511831156 36.451
28.65256063474956 36.353
28.675539934446338 36.4241
28.698699951647605 36.3207
28.72168161743193 36.3003
28.74466446331978 36.2056
28.767648490417624 36.089
28.790813276438353 36.0515
28.813799678527303 36.1401
28.836787265157085 36.1845
28.859955641890075 36.0641
28.882945610203045 36.1299
28.905936766392035 35.9699
28.928929111566863 35.9966
28.952102288520145 35.9142
28.975097024308607 35.8096
28.998092952423807 35.736999999999995
29.021090073977508 35.6606
29.04426806913204 35.5521
29.067267590245258 35.428000000000004
29.090268308143695 35.2747
29.11327022394099 35.2472
29.13645305530891 35.1888
29.159457379627167 35.144
29.18246290519685 34.9846
29.20546963313352 35.0546
29.22865731875826 35.0373
29.25166646419296 35.0149
29.27467681535305 34.8979
29.29768837335608 34.9269
29.320880931312562 35.0157
29.34389491580634 35.0084
29.366910110507334 34.9092
29.38992651653503 34.9475
29.41312396492981 34.8503
29.436142806456754 34.7777
29.45916286268059 34.8185
29.48236399319994 34.6195
29.50538649169417 34.4895
29.528410208259935 34.4787
29.55143514402014 34.135
29.574641196749695 33.9801
29.597668583816574 34.0165
29.6206971934585 33.7941
29.64372702680042 33.8107
29.666938019934474 33.8221
29.689970313635285 33.67
29.713003834422636 33.5152
29.73603858342347 33.5239
29.759254535188578 33.5091
29.78229175361658 33.4692
29.80533020365064 33.6208
29.82836988641968 33.5161
29.85159081507472 33.4596
29.874632976355343 33.3688
29.89767637376955 33.4138
29.920721008448314 33.3275
29.9439469322847 33.2586
29.96699405457564 33.2621
29.9900424175358 33.1934
30.013092022298157 33.2156
30.03632295963995 33.0375
30.059375061131373 33.1678
30.08242840783577 33.1899
30.105483000888153 33.1189
30.128718970092244 32.8945
30.151776069006917 32.9211
30.17483441768648 32.9977
30.198074175317235 32.9873
30.221135036724256 32.9989
30.24419715131772 32.9721
30.267260520236203 32.8486
30.290505341942243 32.974000000000004
30.313571232750228 33.0106
30.336638381310948 32.9082
30.35970678876503 32.913000000000004
30.38295669299435 32.8554
30.40602763151657 32.7777
30.429099832366074 32.7775
30.452173296685572 32.7426
30.47542830191959 32.6533
30.498504306502497 32.6125
30.521581577995562 32.7147
30.544660117543582 32.7298
30.56792024229725 32.8162
30.59100133132069 32.7337
30.614083691845494 32.693000000000005
30.637167325018545 32.7613
30.660432587840603 32.8087
30.683518779717886 32.8023
30.70660624769615 32.885999999999996
30.729694992924372 32.7744
30.75296541239743 32.7945
30.77605672557558 32.7312
30.799149319462742 32.7751
30.8224236211637 32.5838
30.845518789950724 32.5008
30.868615242910597 32.3846
30.891712981195973 32.1733
30.91499247215866 32.2228
30.938092794619365 32.1839
30.96119440587579 32.126
30.984297307082752 31.9768
31.00758200598383 31.9439
31.030687500658694 31.8046
31.053794288760695 31.6885
31.076902371446767 31.5937
31.100192296997445 31.7174
31.12330298246119 31.7048
31.14641496599209 31.5398
31.169528248749216 31.6794
31.19282341969534 31.5099
31.215939314557186 31.5858
31.239056512134788 31.5642
31.262175013589378 31.5122
31.28547544871168 31.4543
31.30859657161541 31.462
31.331719001892175 31.4734
31.35484274070538 31.4975
31.378148458819545 31.4874
31.401274828443725 31.4315
31.424402510106933 31.4858
31.447712205419993 31.6057
31.470842524931633 31.3216
31.493974159989783 31.3549
31.51710711176168 31.3288
31.54042212308802 31.368000000000002
31.563557722100917 31.3469
31.586694641341655 31.1181
31.609832881979628 31.131
31.63315322823208 31.0439
31.656294125521327 30.9697
31.679436347728515 30.8354
31.70257989602529 30.7409
31.725905596152327 30.768
31.74905181052835 30.6139
31.772199354521323 30.7568
31.79534822930507 30.6938
31.818679302290967 30.744
31.84183085259981 30.5947
31.864983737233473 30.5835
31.88813795736804 30.7346
31.911474422233013 30.5729
31.934631327356435 30.6056
31.9577895715215 30.6002
31.980949155906522 30.6197
32.004291031706956 30.5806
32.027453310562606 30.4033
32.05061693318573 30.3661
32.07396288236386 30.3603
32.09712920658542 30.377
32.12029687812702 30.3191
32.14346589817093 30.1197
32.166817291729984 30.0044
32.18998902288583 29.9985
32.21316210610336 30.0088
32.23633654256711 29.8616
32.259693399663725 29.8621
32.282870556771144 29.8773
32.30604907069099 29.721
32.329228942610065 29.7012
32.35259128243769 29.54
32.375773884550505 29.5578
32.398957848235646 29.590999999999998
32.422143174682176 29.462
32.445511016471215 29.3366
32.468699082679954 29.2563
32.49188851523011 29.2476
32.51507931531304 29.1331
32.538452678331 29.1758
32.56164622776311 29.101
32.58484114831493 29.076
32.60803744118015 29.0884
32.631416344731896 28.9924
32.654615396551876 29.0329
32.67781582427913 29.0224
32.701198898634416 28.846999999999998
32.72440209253756 28.8657
32.747606665947124 28.8049
32.77081262006088 28.6719
32.79420126883317 28.7322
32.81740999876112 28.6777
32.840620112999424 28.6153
32.86383161274818 28.5301
32.88722585534586 28.5644
32.91044014056596 28.6316
32.933655814909734 28.5223
32.95687287957963 28.52
32.98027273544904 28.4647
33.00349259526636 28.3892
33.026713849030116 28.4009
33.04993649794511 28.3569
33.073341986570746 28.3042
33.09656744032826 28.2884
33.11979429286444 28.303
33.14302254538647 28.2873
33.166433686291185 28.320999999999998
33.18966475336992 28.2631
33.212897224069096 28.1347
33.23613109959831 28.1091
33.259547912343415 28.1034
33.2827846121627 28.107
33.306022720453775 28.0584
33.32926223842861 27.8996
33.352684742614166 27.9977
33.37592709463173 27.9555
33.399170859982064 27.8747
33.422597648419426 27.8424
33.44584425514446 27.6937
33.46909227885668 27.5943
33.4923417207723 27.4908
33.51577423505344 27.596
33.539026528130385 27.430999999999997
33.56228024307245 27.4561
33.585535381098246 27.3277
33.60897364093058 27.3264
33.63223163992385 27.2475
33.6554910656699 27.1865
33.678751919389796 27.195
33.702195944520106 27.1036
33.72545966903325 27.0181
33.74872482519663 27.0158
33.771991414233746 27.0538
33.79544122444841 27.0758
33.81871069412428 26.9701
33.84198160035767 26.8895
33.86525394437455 26.8844
33.88870955949969 26.8443
33.911984794020626 26.7504
33.93526147001624 26.6838
33.958539588715006 26.7393
33.98200102861669 26.6426
34.0052820477047 26.5847
34.02856451319451 26.6033
34.05203033759056 26.5105
34.07531571090147 26.4276
34.09860253431845 26.5077
34.121890809074316 26.5189
34.145362493118924 26.3773
34.16865368561615 26.2962
34.191946333164054 26.2522
34.21524043699793 26.2346
34.23871800066799 26.2645
34.26201503218366 26.1695
34.28531352370466 26.076
34.30861347646881 26.0312
34.33209693978188 26.1034
34.3553998301885 26.0133
34.378704185565205 25.9047
34.402010007152356 25.8266
34.42549939016683 25.8218
34.44880815937748 25.825
34.472118398533134 25.8243
34.49543010887669 25.715999999999998
34.51892543169198 25.6818
34.54224009966052 25.685
34.56555624255917 25.6659
34.58887386163339 25.5057
34.61237514439016 25.4339
34.6356957311114 25.4452
34.65901779775809 25.4362
34.68252356662995 25.4059
34.705848608458616 25.4232
34.72917513396849 25.2882
34.75250314440949 25.2048
34.77601490857862 25.1987
34.799345904259795 25.1439
34.82267838863559 25.1563
34.846012362958525 25.1493
34.869530142679984 25.1
34.89286711232212 25.016
34.91620557568269 25.0508
34.93954553401677 25.0439
34.9630693495876 24.9299
34.986412313340814 24.9841
35.00975677584668 24.9721
35.033102738362956 24.9489
35.05663261012228 24.8087
35.0799815881786 24.8385
35.10333207003229 24.7558
35.12668405694369 24.7141
35.150220005273056 24.7262
35.17357501786656 24.6694
35.19693153931268 24.6461
35.220289570874385 24.5836
35.24383161619786 24.6746
35.267192683604904 24.5945
35.290555264930376 24.5261
35.314101899412165 24.5005
35.33746752422433 24.5401
35.36083466676374 24.4927
35.38420332829803 24.4102
35.407756095629054 24.4461
35.43112781085063 24.3883
35.45450104888391 24.3964
35.477875810999194 24.3532
35.50143473172161 24.2612
35.52481255774625 24.3307
35.54819191167777 24.2882
35.57157279478914 24.2015
35.595137889488406 24.1756
35.61852184675279 24.0905
35.641907337029984 24.1447
35.665294361595684 24.086
35.68886565090076 23.9555
35.7122557598848 23.9861
35.73564740699838 23.9603
35.759040593519934 23.9039
35.78261809810353 23.8965
35.80601437933051 23.7956
35.829412203814705 23.7812
35.85281157283719 23.6853
35.876395313415884 23.6961
35.8997977874528 23.6076
35.92320180988546 23.5525
35.946790244133936 23.583000000000002
35.97019737933222 23.5703
35.993606066789866 23.4556
36.01701630779276 23.5258
36.04061101440684 23.4727
36.06402437852291 23.4832
36.08743930005611 23.3976
36.1108557802951 23.3426
36.13445678011326 23.2958
36.15787639383515 23.2212
36.18129757014299 23.2235
36.20472031032821 23.1253
36.22832762423364 23.1345
36.25175350829375 23.1589
36.275180960119776 23.0728
36.298609981005924 23.1035
36.32222362992669 23.1529
36.34565580510207 23.0072
36.36908955323448 22.9247
36.39252487562093 22.896
36.416144880530226 22.8087
36.43958336764275 22.8656
36.463023432914625 22.8571
36.486465077645676 22.8184
36.51009145956204 22.8657
36.53353627947859 22.8666
36.55698268276811 22.7176
36.58043067073321 22.6579
36.60406345072071 22.5914
36.62751462435344 22.6554
36.65096738658405 22.5729
36.67460498210655 22.4502
36.69806093788647 22.4442
36.72151848619297 22.4378
36.744977628333636 22.434
36.76862165890998 22.3397
36.79208400512205 22.3814
36.81554794910557 22.3555
36.83901349217101 22.3126
36.862663978991606 22.319000000000003
36.88613273667352 22.226
36.90960309738324 22.1713
36.933075062434064 22.1133
36.95673202673572 22.1269
36.98020721697122 22.0431
37.003684015502365 22.0432
37.027162423645365 21.938000000000002
37.050825886711465 21.94
37.07430753063053 21.8986
37.09779078812467 21.8812
37.121275660513014 21.8356
37.144945643673694 21.8131
37.16843376245278 21.7982
37.19192350009803 21.7122
37.215414857931435 21.7793
37.239091382563885 21.6932
37.262585997426164 21.6239
37.28608223645736 21.6595
37.309763684451696 21.6137
37.33326318851098 21.5685
37.356764320726555 21.545
37.380267082425526 21.5197
37.40395510942588 21.5014
37.42746114683234 21.4555
37.45096881771841 21.3956
37.474478123414166 21.4039
37.49817275092816 21.373
37.52168534303452 21.3586
37.54519957395567 21.2142
37.568715445024665 21.1979
37.592416694607714 21.1854
37.61593586281424 21.1864
37.63945667518264 21.2069
37.66297913304891 21.0833
37.68668702630454 21.1006
37.710212792059274 21.0453
37.733740207334854 21.0245
37.757269273470364 20.8813
37.780983832050374 20.8924
37.80451621684926 20.877
37.82805025654007 20.8861
37.851585952464795 20.8647
37.8753071980695 20.7854
37.89884622345676 20.7466
37.92238690911902 20.6637
37.94611318753442 20.6409
37.969657210779765 20.6615
37.99320289834801 20.6874
38.016750251586465 20.6157
38.04048325513017 20.5664
38.06403395679343 20.5052
38.087586328183946 20.4908
38.11114037065203 20.4677
38.13488012115898 20.5193
38.1584375229181 20.4342
38.181996599821 20.3396
38.205557353221124 20.3263
38.229303872575656 20.3489
38.2528679961576 20.2442
38.27643380031219 20.206
38.30000128639589 20.1652
38.32375459653193 20.1959
38.34732546371299 20.1513
38.37089801690786 20.1175
38.39447225747609 20.067999999999998
38.418232380377425 20.0093
38.441810012983396 20.0459
38.46538933705673 19.9918
38.488970353960084 19.9235
38.51273731166058 19.9588
38.536321731567014 19.8458
38.55990784840681 19.7965
38.58367995004091 19.7782
38.60726947812959 19.7443
38.63086070726198 19.7442
38.654453638806274 19.7502
38.678232613930824 19.6719
38.70182896773327 19.6025
38.72542702806741 19.6305
38.7490267963045 19.6174
38.77281266709232 19.6161
38.79641586862214 19.5878
38.8200207821842 19.525
38.843627409152944 19.4982
38.86742019782782 19.4695
38.891030269149255 19.4586
38.914642058016156 19.4008
38.938255565806124 19.4317
38.96205529464307 19.2959
38.98567225787121 19.3039
39.00929094417078 19.3248
39.03291135492255 19.2548
39.05671804624804 19.2913
39.080341923549106 19.1595
39.103967529460334 19.1701
39.127594865365744 19.0966
39.15140854155791 19.0783
39.17503935514948 19.0717
39.19867190290282 19.0882
39.22249083587951 19.02
39.24612686969409 18.9912
39.269764641845306 18.9636
39.293404153722804 18.9331
39.317230110864074 18.8204
39.34087311998506 18.7805
39.36451787301696 18.794
39.388164371352595 18.766
39.41199737518003 18.7142
39.43564738196752 18.7537
39.45929913825317 18.6743
39.48295264543308 18.6513
39.506792718520884 18.6198
39.530449745387216 18.6106
39.55410852735203 18.5967
39.57776906581474 18.5227
39.60161623079 18.4854
39.625280300200025 18.5099
39.64894613032202 18.4175
39.67261372255866 18.4024
39.6964680021016 18.4291
39.72013913657293 18.4094
39.74381203738292 18.359
39.76748670593756 18.3329
39.79134812278169 18.3586
39.81502634488497 18.3079
39.83870633896685 18.2636
39.862388106436654 18.1969
39.88625668336918 18.1269
39.90994201572829 18.1781
39.933629125719285 18.1395
39.957503091207826 18.0813
39.9811937746168 18.1005
40.00488623990914 18.0699
40.02858048850006 17.9746
40.05246165409549 17.9092
40.076159487492085 17.9219
40.099859108448875 17.9644
40.123560518384345 17.9374
40.1474489070226 17.8705
40.171153913178564 17.8325
40.194860712584955 17.8233
40.2185693066637 17.7679
40.242464941335314 17.737000000000002
40.26617714307655 17.6677
40.289891143772046 17.648
40.3136069448471 17.602
40.33750984859743 17.6093
40.3612292688043 17.6475
40.3849504936829 17.5937
40.40867352466194 17.5838
40.43258372059144 17.5834
40.45631038219906 17.5104
40.48003885420956 17.4372
40.503769138055105 17.3986
40.52768664931955 17.3983
40.55142057531802 17.4227
40.57515631746428 17.3967
40.599079334038514 17.3546
40.62281872700477 17.261
40.64655994043941 17.2936
40.67030297578061 17.2509
40.69423334835778 17.2505
40.71798004609188 17.2397
40.74172857006355 17.1329
40.76547892171441 17.1556
40.7894166736039 17.1525
40.813170699248566 17.0719
40.83692655691388 17.0424
40.86068424804498 17.0075
40.884629402612525 17.0048
40.908390779366385 17.038
40.932153993938 16.968
40.95591904777605 16.9089
40.979871628443995 16.9935
41.003640379561936 16.8685
41.02741097430883 16.8639
41.05118341413683 16.8094
41.075143444384416 16.7727
41.098919593177826 16.803
41.1226975914255 16.788
41.14647744058318 16.6662
41.170444943946755 16.6383
41.19422851378379 16.7069
41.218013938914645 16.6607
41.24198706625173 16.5261
41.26577622087193 16.5343
41.289567235177785 16.5169
41.31336011063129 16.4813
41.337340752422875 16.4645
41.361137369129835 16.4581
41.38493585138705 16.3435
41.40873620066004 16.3632
41.43272438060107 16.3907
41.45652848292052 16.3067
41.48033445666918 16.259
41.50414230331616 16.2833
41.528138045159764 16.289
41.551949656675205 16.2
41.575763145513235 16.2173
41.59957851314666 16.1873
41.62358184070442 16.1552
41.64740098505737 16.1261
41.6712220126409 16.0539
41.69504492493139 16.0337
41.71905586207357 16.0404
41.74288256296395 15.9593
41.766711153007456 16.0273
41.79054163368412 16.0144
41.814560204340054 15.9543
41.838394485526365 15.9265
41.86223066180303 15.8629
41.88625497706819 15.8349
41.910094962812 15.8252
41.93393684811168 15.7715
41.95778063445365 15.6882
41.981812625263366 15.7149
42.00566023303407 15.7506
42.029509746323676 15.7308
42.05336116662236 15.6658
42.077400857069705 15.6565
42.10125611078846 15.6485
42.12511327600405 15.5723
42.14897235421036 15.5186
42.173019768448455 15.5285
42.19688269209613 15.4703
42.22074753323349 15.4866
42.24461429335818 15.5138
42.268669455600495 15.4618
42.292540073217886 15.4543
42.31641261433284 15.4191
42.34028708044675 15.3648
42.36435001496739 15.3374
42.38822835065557 15.3706
42.41210861586426 15.2758
42.4359908120986 15.2423
42.46006154323262 15.2533
42.48394762115317 15.1669
42.507835634632315 15.1564
42.531912233047436 15.1727
42.55580413732265 15.154000000000002
42.579697981698 15.1219
42.60359376768525 15.0315
42.62767820545945 15.0522
42.65157789440821 15.0306
42.67547952952185 14.9676
42.699383112316 15.0038
42.72347541395347 14.9189
42.74738291190531 14.8698
42.771292362102166 14.932
42.795203766063516 14.8593
42.819303956130405 14.8472
42.843219287476536 14.8164
42.86713657716324 14.8215
42.89105582671383 14.7848
42.91516392983864 14.713
42.939087119032166 14.6684
42.963012272677304 14.645
42.98693939230129 14.6627
43.01105543317513 14.6597
43.034986504731386 14.6247
43.05891954686589 14.6069
43.08285456110972 14.5752
43.10697856448665 14.5088
43.130917542983475 14.5005
43.15485849820081 14.4699
43.17880143167367 14.4938
43.20293342237094 14.4778
43.226880332449 14.4182
43.25082922540554 14.4536
43.27496722682525 14.3587
43.29892010567796 14.2576
43.32287497204102 14.26
43.34683182745632 14.299000000000001
43.370977859791836 14.2746
43.39493871351105 14.2753
43.41890156092628 14.2435
43.44286640358341 14.1729
43.46702049182749 14.1543
43.49098934522816 14.1505
43.51496019852649 14.1201
43.5389330532723 14.1159
43.56309522248204 14.0398
43.58707210044314 14.0219
43.61105098451946 13.987
43.63503187626491 13.963
43.659202151562134 13.9703
43.68318707902681 13.96
43.70717401884041 13.9168
43.731162972560874 13.9011
43.75534137913236 13.8733
43.779334381108384 13.8501
43.803329401683186 13.8631
43.82732644241872 13.8327
43.8515130055166 13.7855
43.87551410707659 13.7102
43.89951723350145 13.7088
43.923709934595614 13.6909
43.94771713129917 13.6642
43.97172635758096 13.6619
43.99573761501002 13.6412
44.0199385169922 13.6372
44.04395385732619 13.6007
44.067971233533086 13.584000000000001
44.09199064718605 13.5673
44.11619977548961 13.554
44.14022328470671 13.4565
44.16424883610785 13.4962
44.18827643127035 13.5118
44.21249381139513 13.4562
44.236525514814076 13.4004
44.26055926674478 13.3563
44.28459506876863 13.3334
44.3088207262813 13.3331
44.33286064928722 13.3286
44.35690262714919 13.2842
44.38094666145278 13.2266
44.4051806219871 13.2584
44.42922879003185 13.2041
44.45327901929361 13.1449
44.477331311362136 13.1795
44.501573600619416 13.1242
44.525630039221795 13.0891
44.54968854541895 13.1295
44.573937102200176 13.0928
44.5979997645541 13.0289
44.622064499300315 13.0394
44.64613130803592 13.004000000000001
44.67038823869318 13.0205
44.69445921643748 12.9874
44.718532272981385 12.9716
44.742607409926194 12.9465
44.76687274034801 12.8752
44.79095205918753 12.854000000000001
44.81503346325094 12.8735
44.839116954143876 12.8478
44.86339071028742 12.8388
44.88747839599524 12.7914
44.91156817336837 12.7497
44.93566004401666 12.7434
44.959942251908146 12.7374
44.984038330325966 12.687999999999999
45.00813650686762 12.6667
45.03223678314731 12.6473
45.05652746888232 12.6394
45.08063196592069 12.5768
45.104738567558705 12.5566
45.128847275414856 12.577
45.15314646515866 12.4747
45.17725940679741 12.5051
45.20137445952892 12.5453
45.22568004865265 12.4939
45.24979934496396 12.4489
45.27392075725247 12.3912
45.29804428714431 12.4005
45.322358426247604 12.3806
45.346486212804315 12.378
45.370616121861914 12.3566
45.39474815505086 12.3019
45.41907087049246 12.2578
45.4432071734666 12.2609
45.46734560548283 12.2479
45.49148616817604 12.287
45.51581748638564 12.2298
45.5399623320197 12.1905
45.56410931325473 12.14
45.58825843173002 12.1529
45.61259837920865 12.1205
45.636751793816 12.1152
45.66090735060093 12.0639
45.68506505120716 12.0477
45.7094136545275 12.0424
45.73357566449271 12.0015
45.75773982322992 11.9764
45.78190613238733 11.9293
45.806263418194064 11.9104
45.83043404997326 11.939
45.85460683713677 11.9654
45.87897065658495 11.9336
45.90314777634752 11.8514
45.92732705646868 11.859000000000002
45.9515084986045 11.8675
45.97588104735473 11.8001
46.00006683541565 11.7436
46.02425479047904 11.7367
46.04844491420549 11.7199
46.0728262191024 11.7675
46.09702070211635 11.7011
46.12121735879483 11.6598
46.14541619080294 11.6413
46.169806278764455 11.6477
46.194009483459034 11.6332
46.21821486849841 11.5896
46.24242243555223 11.5827
46.266821333570014 11.5725
46.29103328674601 11.5003
46.31524742696538 11.5042
46.33946375590237 11.5041
46.36387149104216 11.5074
46.38809221957392 11.4465
46.41231514186606 11.4471
46.436540259597464 11.4286
46.460956858999374 11.4021
46.48518638983522 11.3383
46.509418121166966 11.3151
46.533652054678114 11.3248
46.55807754555709 11.3061
46.58231590571962 11.2722
46.60655647313217 11.2412
46.630988654873654 11.2409
46.655233659129024 11.2158
46.67948087571551 11.2297
46.70373030632484 11.220999999999998
46.72817142736393 11.1367
46.752425308428684 11.1269
46.77668140861147 11.1087
46.80093972960865 11.1106
46.82538981736788 11.073
46.849652602470904 11.0654
46.87391761349769 11.0591
46.8981848521493 11.020999999999999
46.9226439341274 10.9894
46.946915650573224 10.9717
46.97118959976749 10.9812
46.99546578341598 10.9078
47.019933887188216 10.9052
47.04421456235744 10.8769
47.06849747711879 10.8838
47.09278263318286 10.8547
47.11725978640143 10.8305
47.14154944775105 10.8211
47.165841355555656 10.8072
47.1901355115306 10.7252
47.214621741924994 10.7227
47.23892041698887 10.7077
47.26322134538975 10.7216
47.28771440635075 10.6916
47.31201986422527 10.6802
47.33632758061436 10.6585
47.360637557241866 10.6538
47.38513974410611 10.6092
47.40945426407847 10.5797
47.43377104948137 10.5604
47.45809010204344 10.5773
47.48260144275502 10.5674
47.506925052572285 10.4915
47.53125093475548 10.4553
47.55557909103813 10.4164
47.58009961361992 10.45
47.60443234110732 10.431
47.62876734791564 10.4222
47.65310463578333 10.3895
47.6776343683373 10.3802
47.7019762413987 10.3795
47.72632040075572 10.2985
47.75066684815169 10.3362
47.77520581885936 10.2995
47.799556865477655 10.2918
47.823910205386 10.2553
47.84826584033272 10.2568
47.87281407745551 10.1986
47.89717432569297 10.1931
47.92153687423484 10.1816
47.94609208429692 10.1567
47.97045925671401 10.1469
47.99482873471275 10.1334
48.01920052005013 10.0786
48.04376504619224 10.0742
48.068141469543484 10.0965
48.09252020552573 10.0819
48.11690125590099 10.1177
48.1414751266064 10.0758
48.16586082917454 10.062000000000001
48.19024885144316 10.0023
48.2146391951793 9.96033
48.239222439012764 9.9533
48.26361744916137 9.941410000000001
48.28801478610016 9.92839
48.31241445160131 9.895760000000001
48.337007097209366 9.907160000000001
48.36141144338331 9.87505
48.38581812345755 9.865
48.41022713920929 9.85292
48.434829215320704 9.8113
48.45924292604658 9.82806
48.48365897780325 9.76521
48.50807737237308 9.76137
48.532688907799276 9.74283
48.55711201168574 9.70472
48.581537463754074 9.71692
48.60615611725119 9.70454
48.63058628942721 9.696810000000001
48.65501881516546 9.66652
48.6794536962573 9.67018
48.70408185970339 9.63706
48.72852147531801 9.5787
48.75296345168211 9.56269
48.77740779059232 9.58119
48.80204549302823 9.56969
48.82649458091802 9.54527
48.85094603676547 9.5256
48.87539986237231 9.511569999999999
48.90004713292306 9.46607
48.92450572200832 9.46033
48.94896668628025 9.43361
48.97343002754588 9.40657
48.99808689542115 9.414010000000001
49.02255501470614 9.39587
49.04702551642794 9.35494
49.0714984023988 9.343160000000001
49.096164896893235 9.32485
49.120642575466796 9.32283
49.145122643748394 9.28641
49.16960510355558 9.29268
49.19428125404938 9.227310000000001
49.2187685210852 9.25623
49.243258185121555 9.22535
49.26794160167084 9.2236
49.2924360839405 9.20633
49.31693296869764 9.16797
49.34143225776915 9.150789999999999
49.36612538195438 9.14455
49.39062950396021 9.119110000000001
49.41513603578346 9.08925
49.4396449792564 9.10701
49.46434784069503 9.0805
49.488861631846454 9.075330000000001
49.513377840166804 9.053519999999999
49.537896467493745 9.022910000000001
49.56260909589029 9.00539
49.587132585683285 9.01304
49.611658500018365 9.00061
49.636186840738596 8.90865
49.66090926588511 8.93024
49.685442483902584 8.926210000000001
49.70997813385706 8.880410000000001
49.734516217597076 8.869810000000001
49.75924846937352 8.86276
49.7837914452858 8.83399
49.80833686055187 8.830680000000001
49.83288471702571 8.79992
49.85762682540054 8.82375
49.882179588965734 8.7958
49.9067347993235 8.737680000000001
49.93129245833333 8.73954
49.95604445336378 8.72756
49.98060703442832 8.69106
50.005172069746266 8.69678
50.02993150438364 8.70111
50.05450147301533 8.67576
50.07907390151433 8.61148
50.10364879174981 8.645560000000001
50.12841816587289 8.618730000000001
50.1529980044635 8.625060000000001
50.17758031042124 8.56915
50.20216508562089 8.53466
50.22694442953363 8.54164
50.25153416817468 8.54556
50.27612638170508 8.513819999999999
50.300721072005196 8.468169999999999
50.325510416102105 8.467410000000001
50.350110084975064 8.44087
50.37471223628208 8.43928
50.39931687190919 8.394160000000001
50.424116246675766 8.40041
50.44872587605249 8.404739999999999
50.47333799543065 8.395669999999999
50.49795260670191 8.386619999999999
50.52276204271512 8.34225
50.54738166295838 8.33132
50.57200378079314 8.32655
50.596628398116835 8.26431
50.62144792604559 8.29048
50.646077567609396 8.24623
50.670709714377715 8.23957
50.69553683636198 8.25035
50.72017401885922 8.2415
50.7448137122895 8.22955
50.76945591856022 8.19546
50.79429318636823 8.18783
50.818940443716784 8.18107
50.84359021965163 8.17788
50.868242516085964 8.120460000000001
50.893089960641895 8.12175
50.917747323549435 8.09539
50.94240721271973 8.06325
50.96706963007175 8.08019
50.99192728239342 8.06253
51.01659478166073 8.05256
51.04126481489051 8.03386
51.06593738400761 8.01875
51.090805275207074 7.987139999999999
51.11548294172845 7.95017
51.14016314993547 7.957960000000001
51.164845901758845 7.93232
51.18972406304274 7.954160000000001
51.21441192780656 7.91378
51.23910234200271 7.900639999999999
51.2637953075678 7.8918
51.288683770237945 7.89486
51.31338186432707 7.8193600000000005
51.33808251561888 7.8326
51.362978729967345 7.78972
51.387684521509755 7.79241
51.41239287610203 7.77425
51.437103795691165 7.7458
51.46201036644977 7.75398
51.486726441956634 7.741560000000001
51.51144508832545 7.70857
51.536166307509156 7.68664
51.56108326624387 7.69928
51.58580965706056 7.65945
51.61053862657523 7.6159
51.635270176746864 7.617710000000001
51.66019755512065 7.640439999999999
51.68493429268881 7.589230000000001
51.70967361681515 7.57654
51.73441552946465 7.53938
51.759353359237934 7.543089999999999
51.7841004750961 7.5393300000000005
51.80885018539685 7.55157
51.833602492111254 7.54145
51.8585508051424 7.49697
51.883308330926425 7.44085
51.90806845906181 7.409560000000001
51.932831191525715 7.41753
51.95779001977161 7.416010000000001
51.98255798721516 7.4291100000000005
52.00732856494335 7.37603
52.03229530577543 7.382810000000001
52.057071130455945 7.37908
52.081849571391054 7.35722
52.106630630568695 7.34138
52.13160794279417 7.31036
52.15639426492067 7.32769
52.18118321127822 7.30006
52.205974783860896 7.29557
52.23096269971011 7.26209
52.255759551287994 7.26768
52.280559035098186 7.23853
52.30536115314103 7.230510000000001
52.33035970494467 7.2014
52.35516711807904 7.20856
52.37997717147198 7.18987
52.40478986713005 7.17404
52.42979908731974 7.11597
52.454617094216 7.12437
52.47943774942214 7.082210000000001
52.50426105495102 7.09245
52.529280976059844 7.08674
52.554109609024096 7.069
52.57894089837482 7.06377
52.60377484613117 7.0451
52.62880550079408 7.0416300000000005
52.65364479223379 7.003089999999999
52.67848674816189 6.95138
52.70352547971946 6.96024
52.72837279155837 6.9512100000000006
52.753222773982785 6.8754800000000005
52.778075429022984 6.95295
52.80312495150885 6.91598
52.827982978797436 6.9012199999999995
52.85284368481815 6.877089999999999
52.87770707160767 6.88059
52.90276741793998 6.85893
52.92763619336701 6.84227
52.952507655698504 6.82572
52.977381806977576 6.79569
53.00245301017842 6.77375
53.02733256653592 6.764010000000001
53.052214817996074 6.79058
53.077099766608484 6.76158
53.102181859804446 6.71132
53.127072229988265 6.71977
53.15196530349892 6.712269999999999
53.17686108239249 6.7053
53.20195409881522 6.678
53.22685531582556 6.69145
53.25175924441303 6.63462
53.27666588664027 6.63381
53.30176985962693 6.676089999999999
53.3266819565689 6.624680000000001
53.35159677336455 6.58224
53.376514312083096 6.6121
53.40162927507703 6.56222
53.42655228516116 6.5584
53.45147802340193 6.5662899999999995
53.47660125628886 6.554130000000001
53.50153247842639 6.53592
53.52646643496923 6.49704
53.55140312799818 6.46612
53.576537409691696 6.46229
53.60147960336152 6.45479
53.626424539786164 6.46897
53.65137222105307 6.46505
53.67651758529126 6.425330000000001
53.70147078399681 6.42828
53.72642673383343 6.3958900000000005
53.75138543689533 6.38695
53.776541917524526 6.3730199999999995
53.801506154876755 6.3441
53.826473151763246 6.32788
53.851442910284916 6.30796
53.87661054126026 6.33568
53.9015858509782 6.27006
53.92656392866066 6.24719
53.95154477641532 6.29221
53.976723591801296 6.2545
54.00171000771266 6.23918
54.02669920004598 6.20477
54.051691170915745 6.18942
54.076881204886796 6.23459
54.101878760928514 6.23046
54.12687910187696 6.15897
54.152077577768296 6.14808
54.1770835166946 6.1365
54.20209224691339 6.13926
54.22710377055121 6.14939
54.25231352511594 6.12169
54.27733066384342 6.05026
54.30235060239643 6.06494
54.32737334290836 6.04343
54.35259441062629 6.0325
54.377622783395324 6.0117
54.40265396455061 6.000290000000001
54.42768795623251 5.94272
54.45292037169559 5.92667
54.477960012857906 5.95639
54.50300247099511 5.88772
54.52804774825457 5.8933
54.55329154616743 5.85928
54.57834249018678 5.89656
54.6033962597977 5.8646400000000005
54.6284528571545 5.81546
54.653708072335164 5.8224
54.67877035378786 5.776590000000001
54.70383546947698 5.76325
54.72890342156389 5.73996
54.7541700889442 5.69423
54.77924374251975 5.71943
54.8043202390049 5.65794
54.82959552413022 5.63797
54.8546777351945 5.632969999999999
54.87976279569621 5.62303
54.90485070780914 5.61376
54.930137506558005 5.61204
54.95523115074295 5.63786
54.98032765308844 5.56021
55.005427015775496 5.50091
55.03072536339621 5.5505
55.05583047570572 5.4869699999999995
55.080938454927676 5.48875
55.10604930325027 5.44567
55.131359235107396 5.42413
55.15647585066083 5.3827300000000005
55.181595341907496 5.3971800000000005
55.20671771104285 5.357069999999999
55.232039262617704 5.34835
55.25716741665048 5.32166
55.28229845518636 5.298369999999999
55.30743238042802 5.2304699999999995
55.33276558731939 5.2207
55.357905315183636 5.21091
55.383047936390035 5.17962
55.40819345314859 5.1557699999999995
55.433538351073295 5.163469999999999
55.458689688238415 5.14843
55.483843927614096 5.08746
55.509197623043605 5.09547
55.53435769621134 5.074319999999999
55.55952067826466 4.9694400000000005
55.5846865714265 4.9881
55.61005202069737 5.04384
55.63522376553902 5.03544
55.66039842818645 4.97954
55.68557601087004 4.95372
55.7109532500271 4.9097
55.73613670233794 4.93122
