TT I
1.2716486653135266 7.5979
1.2939594142134223 7.4931399999999995
1.3162702121660406 6.924639999999999
1.3385810600174564 6.31404
1.3608919586137629 6.57573
1.383202908801069 6.5852699999999995
1.405513911425503 5.897959999999999
1.4278249673332093 6.25389
1.4501343378461518 6.3794699999999995
1.4724455028545926 5.9198
1.4947567236847858 5.97313
1.517068001182951 6.23463
1.5393793361953272 5.68845
1.5616907295681737 5.00665
1.5840021821477681 5.36207
1.60631369478041 5.74812
1.6286252683124185 5.634440000000001
1.6509369035901333 5.22809
1.6732468618895553 5.11051
1.695558623192809 4.81801
1.7178704487808514 4.9388
1.7401823395001077 4.7217
1.7625012545597203 4.7538599999999995
1.7848028405262486 5.00646
1.8071218901122095 5.26346
1.8294236121921872 4.735869999999999
1.8517427996910911 5.02609
1.8740620574440425 4.64403
1.8963639900671978 4.55144
1.9186833908139995 4.97847
1.9409854680117449 4.73409
1.9633050151394713 4.89973
1.9856246367570705 4.81821
2.0079269371922672 4.88205
2.03024671027244 4.21211
2.0525491637446027 5.13676
2.074869091674931 4.88731
2.097171701569106 5.06425
2.1194917877373847 5.36407
2.141811954326636 5.33534
2.164114805233074 4.8788599999999995
2.186435135143035 5.88161
2.208738150935709 8.71394
2.231058647554722 15.209000000000001
2.2533792288321184 12.7653
2.275682498336085 6.32495
2.298003251406138 5.22029
2.3203066942619714 4.79477
2.3426276225136022 5.40993
2.3649486396617507 5.20027
2.387252348930071 5.6178099999999995
2.4095735463442893 5.95784
2.4318774374315884 6.30805
2.4541988185014043 6.13732
2.476502894794693 6.72167
2.498824462909887 6.8349899999999995
2.521146125856138 6.57565
2.5434504863470337 6.31059
2.5657723414244717 6.744910000000001
2.588076895590662 7.423210000000001
2.610398946189713 7.873939999999999
2.6327210958598384 7.8555399999999995
2.6550259469304716 7.5416
2.6773482972090137 7.40343
2.6996533504259 7.816160000000001
2.7219759047039602 7.92105
2.744298562293959 7.9836800000000006
2.7666039251246595 7.8059
2.7889267918020164 7.838030000000001
2.8112323652516555 8.17678
2.833555444408179 7.997489999999999
2.8558786311183852 8.40611
2.8781845268938557 8.5742
2.9005079311721484 8.35298
2.9228140460410397 8.627510000000001
2.9451376712799635 9.25455
2.967444008632326 9.67411
2.9897678582247247 10.5475
3.0120918213106695 10.5781
3.0343984987899373 10.6877
3.0567226913198637 11.0405
3.079029599759726 11.4544
3.101354025127254 12.333
3.123678568232338 12.5747
3.145985829517914 12.7172
3.16831061055229 13.5058
3.1906181112775593 14.0399
3.212943133635653 15.1252
3.2352682779763207 15.2384
3.2575761442691227 15.3158
3.2799015350264273 15.1989
3.302209649240067 15.9683
3.3245352898092655 16.8263
3.3468436553365257 17.2178
3.369169549113219 17.8876
3.3914955708171384 18.5381
3.413804319727358 18.9168
3.4361305997334863 18.9205
3.4584396084414553 19.5939
3.4807661501462652 20.6948
3.503092824025881 21.0423
3.5254022288463154 21.0656
3.5477291695206588 21.7923
3.5700388426251948 22.2102
3.5923660534916446 23.1059
3.6146934007816114 30.7777
3.637003482731501 52.9774
3.6593311053109985 58.0338
3.681641464033634 39.162
3.7039693653009733 27.3852
3.726297407241705 25.7092
3.7486081875460804 24.9864
3.7709365132734978 25.8747
3.793247578841633 26.4206
3.8155761917550093 26.3725
3.8378875459837216 26.6816
3.8602164494827234 27.6082
3.882545499606844 28.4054
3.9048572932539183 28.9074
3.9271866390645718 28.9684
3.9494987298666713 29.589000000000002
3.971828374764527 30.1751
3.9941581705403255 30.5053
4.016470713506008 31.3004
4.038800813471445 32.3291
4.061113662089144 32.567
4.0834440696459176 33.5081
4.105774632334751 33.8387
4.128087945865126 34.4128
4.150418821249301 34.7201
4.172732448931298 36.0445
4.195063640413578 37.2933
4.2173775856475215 39.9345
4.239709096631102 56.1189
4.262040768704612 132.362
4.284355196706267 165.72
4.306687193387355 114.109
4.329001947444346 58.8161
4.35133427213731 45.17100000000001
4.373666762177566 43.2861
4.395982011761091 44.0209
4.418314834921175 45.047
4.44063041906622 49.3641
4.4629635787515625 54.7847
4.4852969080429785 55.9153
4.5076130004776225 52.5895
4.529946671403969 54.4076
4.552263106909177 56.3125
4.574597122877047 55.2672
4.596931312711224 53.7472
4.619248269273446 54.1472
4.6415828092605835 54.8833
4.663900117405352 56.0274
4.686235010953232 57.3232
4.708552674085913 58.6969
4.730887924602802 60.3319
4.753223354952695 62.1657
4.775541557023902 64.583
4.797877349456786 67.2566
4.820195915032126 68.1588
4.842532072957498 68.9649
4.864868414979744 71.2018
4.88718753227192 74.6043
4.909524244902505 76.2631
4.931843734218147 76.9979
4.954180820867835 79.4127
4.976518095879839 82.2221
4.998838149695359 85.0885
5.021175803844231 88.4609
5.043496238205739 91.9981
5.065834274903528 97.0423
5.088172504230693 102.42399999999999
5.1104935158799565 109.53
5.132832132875765 129.17
5.155153533596801 161.78799999999998
5.1774925416746225 216.518
5.199814334878411 479.966
5.2221537374521505 1269.77
5.244493338631803 3241.69
5.266815727034316 8045.66
5.289155727832427 12426.6
5.311478517248165 8298.46
5.333818921080011 2794.45
5.356159527788849 585.57
5.3784829252032536 202.13299999999998
5.400823940070432 154.58
5.423147747031976 133.55700000000002
5.445489173474152 122.068
5.467830807066149 119.37200000000001
5.490155234831516 116.764
5.512497285125229 110.99600000000001
5.534822130975162 106.771
5.557164601388673 103.823
5.579489868738879 100.598
5.601832762690846 99.0277
5.6241758697774475 97.6879
5.646501775867269 97.3257
5.668845311622074 96.1337
5.691171647754637 95.516
5.713515615597765 94.7917
5.735859800852677 94.1508
5.758186788542988 94.5627
5.780531411018185 96.8642
5.802858837297399 96.7664
5.825203900414495 97.0269
5.8475491852224 99.0677
5.869877275883075 98.6087
5.892223006467101 97.5129
5.914551544266608 97.7379
5.936897724049891 100.63
5.959244129804903 109.072
5.981573344815301 144.555
6.0039202049061 275.626
6.026249875609095 560.626
6.04859719346037 1109.85
6.070927323278297 2341.73
6.093275102315365 4411.66
6.115623113320588 5473.44
6.137953938319995 3299.63
6.160302415650845 998.966
6.182633708324452 239.745
6.2049826554078376 115.242
6.227331838745022 93.1786
6.249663839443684 85.6248
6.27201349767565 82.0263
6.294345974611799 83.1846
6.316696111167083 86.9717
6.339046488263839 83.5769
6.361379686074702 75.5647
6.383730546639482 71.5088
6.406064229255215 69.9549
6.428415576718203 70.5459
6.450749747566656 69.0566
6.47310158535871 66.837
6.495453669698332 65.9507
6.517788579421056 65.1734
6.540141159237969 63.9488
6.562476565766648 63.533
6.5848296444934045 63.1119
6.607182974060425 63.3774
6.6295191323281015 63.2528
6.651872965955752 63.9394
6.6742096296068985 75.9089
6.6965639707294615 96.9526
6.71891856698715 96.5802
6.741255995248479 75.814
6.763611104154477 62.7826
6.785949046381137 59.6203
6.808304671371482 59.2512
6.8306605557940046 59.8574
6.852999275508618 58.9937
6.875355681171544 57.6461
6.897694923437771 56.9066
6.92005185377892 56.6998
6.9423916220322655 56.5672
6.964749080490181 55.955
6.987106804399774 56.2531
7.009447368180821 56.4003
7.031805625367033 55.7438
7.054146723727803 55.437
7.076505517631004 55.0916
7.098864581288365 55.1144
7.121206488070854 55.4255
7.143566093607822 55.1291
7.165908543567245 55.9457
7.188268694426048 56.0984
7.2106291193438095 55.4909
7.232972390625943 55.641999999999996
7.255333366030969 61.5566
7.277677189091925 87.1124
7.300038718428332 107.45700000000001
7.322400526130865 95.6206
7.344745183422596 70.4524
7.367107550224791 57.5685
7.389452767901992 55.2897
7.411815697249891 54.7743
7.434161478756298 54.0317
7.456524974096713 54.0953
7.478888753837185 54.1054
7.501235387657368 54.6822
7.523599738562711 54.6509
7.545946944825532 55.019
7.568311870344528 55.5971
7.5906770845765665 55.4749
7.613025156078678 56.2893
7.635390950099687 56.8452
7.657739602662809 56.744
7.680105979923558 56.2667
7.702472650212829 57.0322
7.724822180948224 56.8695
7.747189439655568 56.7197
7.769539560075357 56.6188
7.791907410653562 57.1008
7.81425812420825 56.6953
7.836626570110925 57.0577
7.858995315087906 57.7532
7.881346924933401 57.8834
7.903716270417482 58.4613
7.926068482028405 58.7674
7.948438431475253 59.6021
7.9708086843180235 60.0245
7.993161805171116 61.0193
8.015532667162402 61.2963
8.037886398416653 62.4754
8.060257873014221 62.9427
8.082629655331942 63.6656
8.104984308787587 64.1247
8.127356708900503 66.5588
8.149711981398308 70.9438
8.172085002766314 72.615
8.194458336181368 71.0157
8.216814543847752 69.5396
8.23918850371002 69.7632
8.26154533906492 70.9702
8.283919928836452 72.4375
8.306277395339652 73.4702
8.328652618483376 74.9847
8.351028159736202 77.3168
8.373386579575245 79.7483
8.395762759396959 81.5884
8.418121819038275 85.5653
8.440498640894003 94.139
8.462875785192262 107.116
8.485235811156207 136.721
8.507613602688501 198.725
8.529974277114228 292.638
8.552352719347912 439.087
8.574731488360351 718.221
8.59709314210385 1255.47
8.619472567021075 1887.61
8.64183487789147 2206.66
8.664214962183097 1753.48
8.686577933647762 926.9830000000001
8.708958680784317 361.124
8.731339760774953 158.356
8.753703729764451 110.814
8.77608547780821 100.03399999999999
8.798450116065078 96.2737
8.820832535634787 93.0938
8.843215292401656 92.8917
8.865580941199045 92.0082
8.887964374703538 91.2415
8.910330701447199 91.2826
8.932714815164482 91.3422
8.955099270424924 89.3558
8.977466620733543 87.3823
8.999851761421976 86.0466
9.022219798361645 84.6826
9.04460562795561 84.5222
9.066991803441677 84.1437
9.089360876979615 84.4665
9.111747746589993 84.2263
9.13411751544971 83.3556
9.156505082664324 82.7854
9.178875550323522 83.1281
9.20126381862328 82.8681
9.223652438908596 83.3004
9.246023961427412 82.9958
9.26841328802173 83.0216
9.290785518039224 82.9771
9.313175554425882 84.5313
9.335565947154315 85.6504
9.357939245086508 85.2107
9.380330352834827 85.5131
9.40270436697103 85.5735
9.425096193225055 84.8348
9.447488380180165 85.5416
9.469863475295412 85.2556
9.492256385987508 85.7259
9.514632206018318 86.3541
9.537025843935714 86.6896
9.559402392368193 87.7269
9.581796761000229 89.5052
9.604191496441521 90.6764
9.626569144158516 93.5389
9.648964615551032 95.7565
9.671343000390081 95.7187
9.693739211225699 94.6134
9.716135793237463 93.7476
9.738515290448102 94.3677
9.760912617143402 95.4806
9.783292860202891 97.5282
9.805690935076182 99.4988
9.828089385495742 100.229
9.850470754023561 102.03399999999999
9.872869957865444 106.262
9.89525208097539 114.11
9.917652041736662 122.771
9.940052382417589 132.192
9.962435644102392 160.893
9.984836746950979 210.753
10.007220771957746 275.58
10.029622640473708 382.69199999999995
10.052007432299963 575.561
10.074410069984072 869.752
10.096813093716005 1285.37
10.119199042482517 1748.63
10.141602840636468 1924.88
10.163989564971628 1559.61
10.186394141051062 850.622
10.208799107559706 370.537
10.231187001965623 178.99599999999998
10.253592751657669 125.31200000000001
10.275981430388155 113.475
10.298387966769793 111.10799999999999
10.320794897965431 111.325
10.343184759907361 110.476
10.36559248305461 106.87
10.387983138083852 106.95299999999999
10.410391656691655 115.01100000000001
10.432800574501677 127.81200000000001
10.455192425893369 144.555
10.47760214443012 172.082
10.499994797678786 218.577
10.522405320453982 299.868
10.54479877906917 408.755
10.567210109595656 516.509
10.5896218454736 565.735
10.612016518879773 478.586
10.634429067781074 323.051
10.656824555333241 188.85
10.679237920773568 118.556
10.701651695961992 95.4421
10.724048411481384 89.8699
10.746463008485165 87.0699
10.768860546937125 85.4924
10.791275969274796 83.8165
10.81369180576079 82.704
10.836090585366925 81.5388
10.858507252467449 80.2548
10.88090686379991 79.5532
10.903324365036394 79.1984
10.925724811614439 78.5493
10.948143150509463 78.8895
10.970561909719066 78.3012
10.992963615930844 77.1041
11.015383218085756 75.64399999999999
11.037785768347074 73.8997
11.06020621697282 73.2213
11.082627090322113 72.6458
11.105030913430326 72.1531
11.12745263854165 72.2653
11.149857314510728 73.2809
11.172279894912576 75.8084
11.194702904450653 75.6528
11.217108866490921 73.4928
11.239532736615194 71.1421
11.26193956033512 69.8335
11.284364294577085 69.2404
11.306789462371718 68.2341
11.329197585398376 67.5676
11.351623622610898 67.4394
11.37403261614354 66.4227
11.396459526308487 66.1874
11.418869393879497 65.9672
11.441297180532617 65.554
11.463725406927658 64.9587
11.486136592353875 64.8348
11.508565700543707 65.0758
11.530977768845315 66.1318
11.553407762368774 66.1656
11.575838200059769 65.8752
11.598251599479612 65.0026
11.620682927815501 63.9795
11.64309721895548 63.8413
11.665529441478206 63.4626
11.687962112597958 63.2105
11.710377748130886 63.2966
11.732811318753434 63.0815
11.755227854859067 63.1185
11.777662328529495 63.1314
11.800079768750786 63.1006
11.822515149015453 62.8746
11.844950984084935 63.3027
11.867369787303163 62.7917
11.889806534289491 62.7639
11.912226250487029 63.2313
11.934663912939751 63.4677
11.9571020346363 63.7793
11.979523127133968 63.7616
12.001962169624331 64.9143
12.024384183972964 66.9586
12.046824150809913 70.9577
12.069264581333726 75.571
12.091687985297767 81.935
12.11412934550045 91.3386
12.136553680195208 106.64
12.158995973632788 130.102
12.181438735204349 156.053
12.20386447284199 183.294
12.226308172985636 203.37
12.24873485024193 197.019
12.271179492516982 161.908
12.293607112949127 121.68700000000001
12.316052700916226 89.7875
12.338498763250042 74.257
12.360927805303868 67.6974
12.383374818673879 65.7789
12.405804812803074 64.8242
12.428252780773262 64.8186
12.45070122756722 64.7451
12.473132656675375 64.4895
12.49558206341869 65.122
12.518014453510101 65.0143
12.540464823770117 65.0908
12.562915677315177 65.2076
12.58534951575545 65.6456
12.607801338171472 66.5916
12.630236146511358 69.1514
12.652688941369085 71.1825
12.675124723177234 71.9768
12.697578494048786 70.7323
12.720032754458185 68.6737
12.742470003354093 68.0732
12.764925245138771 68.2907
12.787363476431278 68.7555
12.809819703166806 69.0431
12.83227642391173 69.7414
12.854716135692716 70.445
12.877173846755147 71.5545
12.899614549869717 71.8805
12.9220732548287 72.834
12.94453245827299 73.3241
12.966974655289818 74.4795
12.989434858002571 75.25399999999999
13.011878055298721 75.7876
13.034339260862497 76.7904
13.056800969391883 78.1238
13.079245674017244 81.5224
13.101708390774869 86.0658
13.12415410463411 95.5738
13.146617833206086 106.781
13.169064559883248 117.633
13.191529303857127 133.27100000000002
13.213994557076367 158.764
13.236442809902437 198.053
13.258909083908291 254.07299999999998
13.28135835851934 313.525
13.30382565690295 377.592
13.326293469022952 427.13699999999994
13.348744283242008 420.586
13.371213125129904 344.25300000000004
13.39366497011003 248.745
13.416134845360597 164.55200000000002
13.438605238843131 121.44
13.46105863690397 109.416
13.483530069144786 111.00200000000001
13.505984506951902 116.264
13.528456981549432 126.682
13.550929978879088 143.13
13.573385983253365 168.96900000000002
13.595860028340867 207.855
13.618317081455832 255.218
13.64079217790333 309.557
13.663250283359057 349.911
13.685726434770173 365.43
13.708203115221277 328.226
13.730662806148091 253.356
13.75314054697177 180.31599999999997
13.775601299246777 126.264
13.798080104050406 96.883
13.820559442405358 85.6496
13.843021793671388 82.4971
13.865502201420897 80.962
13.887965623051947 80.3953
13.910447103807167 78.9506
13.932929122629764 77.6075
13.955394156785959 77.3276
13.977877254034569 76.3492
14.000343367582113 75.4833
14.022827546871707 75.1887
14.045294743423524 74.2217
14.06778000837062 73.6015
14.090265817715476 73.2473
14.112734645763819 72.9009
14.13522154619454 72.5008
14.157691466286913 72.5238
14.180179461423874 72.1303
14.202668005486178 71.7652
14.22513957064374 71.4419
14.247629214846473 70.9703
14.270101881097517 70.9667
14.29259262906496 70.668
14.315083930490205 71.1663
14.337558255389705 71.0886
14.360050666019726 70.9266
14.382526101071944 70.3543
14.405019624534942 69.6381
14.427513705993134 69.429
14.449990813291825 69.4335
14.47248601302899 69.1576
14.49496423954951 69.2779
14.517460561197822 69.34
14.539939910570322 69.2381
14.562437357763558 69.555
14.58493536931253 70.1562
14.607416409993311 70.752
14.62991555254159 71.3173
14.652397725157423 71.2912
14.674898002342799 71.1779
14.697398848433282 71.455
14.719882725991326 72.7379
14.74238471217934 75.1264
14.764869730765593 79.3373
14.787372860692983 82.4538
14.809876564079925 86.7206
14.83236330125751 93.0303
14.854868153850365 101.96
14.877356041159485 116.464
14.899862046604186 135.429
14.922351087688757 159.465
14.944858249632887 185.998
14.967365991421232 209.813
14.989856770231246 222.34099999999998
15.012365673994204 212.86599999999999
15.03485761569738 182.84799999999998
15.05736768508665 143.672
15.07987833888692 110.74799999999999
15.102372032001655 88.2607
15.124883856909658 76.5904
15.14737872204565 72.7719
15.169891721717274 71.0006
15.192405310371893 70.8298
15.214901940621196 70.8507
15.237416709527137 70.3866
15.259914520936249 70.563
15.282430473753607 69.5007
15.304947020131227 68.4916
15.327446610371178 67.9627
15.349964346154254 67.5314
15.372465126703139 67.1715
15.394984055556009 66.8575
15.417486030076159 66.9673
15.44000615566487 66.5081
15.462526881230803 66.439
15.485030653812652 66.6565
15.507552581617434 66.5538
15.530057557334603 66.4503
15.55258069104857 66.6015
15.575104429329837 66.8588
15.597611216864632 66.5794
15.620136166564563 67.3894
15.6426441664095 69.3045
15.665170331202765 72.3473
15.687697105158826 74.9464
15.710206930593545 78.3541
15.732734925158933 82.7918
15.755245972089478 89.5203
15.77777519094324 99.3182
15.800287463046663 113.02799999999999
15.822817909869592 131.484
15.84534897229804 151.461
15.867863089299354 173.19400000000002
15.890395385222186 188.84599999999998
15.912910736597423 192.333
15.935444269699861 179.752
15.957978423016485 149.857
15.980495633101265 118.34299999999999
16.003031029129367 92.7664
16.02554948280019 74.9379
16.048086125229432 67.07
16.070623392487107 64.6771
16.09314371869582 63.6981
16.11568223789321 62.8424
16.13820381691126 62.0972
16.160743591742527 61.2666
16.183283996022084 60.5707
16.205807461423195 59.6504
16.228349126881973 59.1744
16.25087385432698 59.0988
16.27341678466365 58.5475
16.29594277784926 58.4029
16.31848697676433 58.3562
16.341031811604868 58.1621
16.36355971058487 58.1069
16.3861058195587 58.1169
16.40863499352978 57.3473
16.431182380342005 56.898999999999994
16.453730407713202 56.3524
16.476261501364792 56.0525
16.498810812136167 55.7717
16.52134319004079 55.9912
16.54389378792203 55.7532
16.566445031001553 55.6964
16.588979342490088 55.5672
16.61153187824822 55.2663
16.634067483263312 55.2157
16.656621315414416 55.2479
16.679175797408888 54.8408
16.701713349928728 54.9496
16.72426913389191 55.1097
16.74680798922351 55.0873
16.76936507887444 55.187
16.791905240734874 55.2708
16.814463639794468 55.1565
16.837022695210294 55.1495
16.859564824093756 55.6439
16.882125194503903 55.8435
16.904668639217885 56.1151
16.927230328348003 56.0702
16.949792678493612 56.4208
16.972338104193863 56.1734
16.994901778652235 55.9869
17.017448529496576 56.1626
17.040013531998152 56.746
17.06257920018044 57.4061
17.0851279459922 58.1197
17.107694947817667 58.9022
17.130245028099072 59.516999999999996
17.15281336730298 60.8189
17.17536478578733 62.6307
17.19793446610687 65.1051
17.220504818648422 67.9197
17.243058251703697 71.0784
17.265629950971032 75.2477
17.288184731571736 79.3513
17.310757781306908 82.7708
17.33333150794385 84.1781
17.355888317140174 81.975
17.37846339986244 77.4317
17.401021565958885 70.9382
17.42359800851343 65.6499
17.44617513265564 62.3509
17.468735341390783 60.6063
17.491261035594565 59.9023
17.51396340099364 59.6117
17.536490463869136 59.6168
17.559018209820174 59.5215
17.58154663977963 59.7943
17.604251766089718 59.8279
17.626781572227713 59.9867
17.64931206518155 60.3231
17.671843245885103 60.74100000000001
17.69455114821572 60.9318
17.717083712612634 61.4432
17.739616967569667 61.5294
17.762150914021706 61.9865
17.78486160749854 62.3359
17.807396945166804 63.3218
17.829932977143503 64.5933
17.85246970436452 66.559
17.875183204129467 68.3198
17.897721330097664 69.9456
17.920260154126645 72.3983
17.942799677153296 75.7663
17.9655159983646 79.7848
17.988056927677544 85.4866
18.010598558807683 93.5598
18.033140892692916 103.429
18.05586005052525 113.443
18.07840379824407 124.154
18.10094825154059 134.778
18.12366954819864 141.812
18.146215420998306 141.376
18.16876200220057 132.108
18.191309292745153 116.88799999999999
18.214033452627167 102.476
18.236582170236648 91.9693
18.259131600016456 87.624
18.281681742907335 88.4238
18.304408781233683 92.2701
18.32696035875955 96.9143
18.349512652227624 101.34299999999999
18.372065662579683 105.359
18.394795594587553 105.781
18.41735004715306 102.18700000000001
18.43990521943684 95.1794
18.46246111238171 85.7703
18.485193953325208 76.5141
18.507751296070428 69.626
18.530309362314178 65.8256
18.552868153000343 63.5726
18.57560391815056 62.4306
18.59816416623245 61.9977
18.620725141597372 61.5235
18.643286845190268 61.1155
18.666025549835414 60.7817
18.688588718427933 60.1958
18.711152618092243 60.0853
18.73389353884365 59.7066
18.75645890921984 59.5526
18.77902501351406 59.24100000000001
18.801591852673102 59.0774
18.824335739722738 58.3983
18.846904057212626 58.3835
18.8694731124168 58.1284
18.89204290628315 58.0557
18.914789774966803 57.9582
18.937361054791623 57.5346
18.959933076131318 57.6152
18.982505839934877 57.426
19.00525570560582 57.4929
19.027829963004184 57.3722
19.05040496572238 57.3115
19.072980714710468 57.7707
19.095733592739563 57.928000000000004
19.11831084296757 57.9662
19.140888842324735 58.5172
19.16346759176222 58.7304
19.18622349753803 59.1304
19.208803755869358 60.1202
19.231384767143577 61.2807
19.253966532312948 63.1452
19.276725481241822 65.2832
19.29930876296784 67.392
19.3218928014549 70.2049
19.34465404436217 73.07600000000001
19.36723960516257 75.5233
19.389825925592426 75.8964
19.412413006605938 74.7773
19.43517731967805 71.7643
19.457765930683355 67.1524
19.48035530514408 62.9402
19.50294544401556 59.0764
19.525712842708348 56.8791
19.54830451925909 55.6309
19.570896963095727 54.7112
19.593490175174704 54.3324
19.616260674962184 54.3612
19.638855432416964 53.8017
19.661450960992624 54.0296
19.68404726164677 53.861000000000004
19.706820878021247 53.6517
19.729418731756834 53.8495
19.752017360452857 53.7495
19.77461676506804 54.2561
19.797393513540218 54.1018
19.819994478951667 54.5076
19.84259622316767 54.9735
19.8651987471481 55.4028
19.887978643247177 55.6621
19.91058273574792 56.282
19.933187610901943 57.0596
19.955969879466828 58.3079
19.97857632894404 59.8837
20.00118356396599 61.3913
20.023791585494575 63.4497
20.046577028914875 66.2191
20.069186632506966 68.0914
20.091797025500632 69.6542
20.114408208858933 70.1402
20.137196842715273 69.8044
20.159809615886765 68.309
20.18242318232135 65.7181
20.20503754298326 63.6438
20.227829382875154 62.747
20.250445341109344 62.656000000000006
20.27306209647285 63.1809
20.29567964993108 64.3306
20.31847471147704 65.3304
20.34109387027612 65.6919
20.363713830075454 65.2907
20.386334591841646 64.0571
20.409132890679302 61.347
20.431755265564437 58.1437
20.454378445325528 55.3593
20.477002430930366 53.5517
20.499803982716553 52.4007
20.522429589228004 51.63399999999999
20.54505600449589 51.0566
20.567683229489194 51.0032
20.590488049900088 50.8156
20.61311690359731 50.7065
20.63574656993626 50.3302
20.658553853717297 49.9426
20.681185154618298 49.9203
20.703817271080066 49.8763
20.72645020407368 49.4038
20.749260783967177 49.3292
20.771895359337133 49.4844
20.794530754161617 49.2173
20.817166969412938 49.074
20.83998086114876 49.1447
20.86261872660049 48.9981
20.885257415405402 48.9131
20.90789692853701 49.1135
20.930714147864748 48.9107
20.953355319030678 48.9609
20.97599731745334 49.1385
20.99864014410749 48.9887
21.021460706796564 49.0148
21.044105199328826 49.4127
21.06675052302631 49.4649
21.089396678865015 49.6952
21.112220600704806 49.9575
21.134868430275347 50.3731
21.15751709492456 50.5769
21.180166595629693 50.9064
21.202993892429635 51.2659
21.22564507473034 51.5383
21.24829709602816 51.6004
21.27112693608965 51.6697
21.293780644891275 51.658
21.316435195634053 50.8802
21.339090589297417 50.1535
21.361923832041875 49.9818
21.384580921090404 49.4432
21.407238856007325 48.8038
21.429897637773326 48.7779
21.45273429906592 48.7252
21.475394784108598 48.7559
21.498056118951983 48.7075
21.520718304578022 49.0103
21.543558400304388 49.1822
21.566222297108816 49.518
21.58888704765135 49.6102
21.61155265291521 49.8784
21.63439619898156 50.4183
21.657063523335786 50.5314
21.67973170537063 51.003
21.7024007460706 51.4628
21.72524775840385 52.2799
21.747918526116475 53.409
21.770590155457388 54.699
21.79326264741238 56.3711
21.816113141960237 58.0988
21.838787368860547 59.8711
21.861462461341976 61.5114
21.884315579735777 63.3705
21.90699241312273 64.2778
21.92967011506078 64.9982
21.95234868653799 64.6179
21.9752053151131 63.1928
21.997885635446785 61.4565
22.020566828293532 59.4989
22.04324889464272 57.9571
22.066109049404666 56.7859
22.088792872571794 56.2807
22.111477572219204 56.3034
22.1341631493376 56.5822
22.157026846313123 56.2608
22.179714188221507 55.4508
22.202402410582668 54.4368
22.22509151438863 53.0739
22.24795876962584 51.5332
22.270649646204486 50.5672
22.293341407213727 49.9372
22.316034053646906 49.4754
22.338904883215342 49.2806
22.36159931041458 49.4643
22.38429462602756 49.3445
22.40699083104897 49.0665
22.429865251039757 49.1006
22.452563244831367 49.0929
22.47526213102522 49.0201
22.49813925616515 49.0186
22.520839937143307 48.9457
22.543541513520587 48.9529
22.56624398629403 48.8578
22.589124730075895 48.7309
22.611829005656723 49.0072
22.63453418063466 49.1291
22.657240256008077 49.4182
22.680124634582935 49.5964
22.70283252079775 49.8641
22.725541310413075 50.1107
22.74825100442868 50.2526
22.771139033969575 50.6602
22.79385054687155 50.9766
22.81656296718292 51.8325
22.83927629590484 52.6782
22.862167992606945 53.5314
22.88488314827121 54.9161
22.907599215359284 55.7221
22.93031619487366 56.6084
22.953211574954405 57.3374
22.975930389478226 58.128
22.998650119445763 58.1602
23.02137076586092 57.4526
23.044269845560063 56.1408
23.06699233506288 54.4651
23.089715744034912 52.6292
23.112617610931565 51.052
23.135342869061212 50.0777
23.158069049684816 49.5131
23.1807961538087 49.1303
23.20370174880544 49.1881
23.226430710184808 49.276
23.249160598093425 49.3729
23.271891413539002 49.3059
23.294800752937697 49.2578
23.31753343374794 49.4699
23.340267045128353 49.7077
23.36300158808808 50.0397
23.38591468821339 50.4995
23.408651104658304 50.8446
23.431388455719986 51.2855
23.454126742409 52.1337
23.4770436196085 53.2436
23.499783787914662 54.4836
23.522524894889884 55.2329
23.54526694154616 56.2292
23.56818761219047 57.2325
23.59093154860734 57.6373
23.613676427751283 58.1443
23.636422250635754 56.9591
23.659346731118656 55.6145
23.68209445191868 53.6138
23.704843119509587 51.4309
23.72759273490623 49.8006
23.750521041644767 48.3107
23.77327256312355 47.3173
23.796025035462787 46.868
23.818956224555475 46.4328
23.841710609113413 46.2906
23.86446594758979 46.0788
23.887222241002014 45.8642
23.910157285144578 45.4787
23.932915498962537 45.3831
23.955674670778713 45.2857
23.978434801611975 45.0958
24.001373717286125 44.925
24.024135776723917 44.9733
24.046898798245582 44.6446
24.06966278287146 44.8464
24.092605586582614 44.4788
24.115371508023642 44.3602
24.1381383956401 44.2827
24.16090625045381 44.073
24.183852958731244 44.1422
24.206622758582608 44.1494
24.229393528706886 43.8252
24.252165270127392 43.9356
24.27511589952438 43.8139
24.297889594216997 43.6793
24.32066426328598 43.5131
24.34343990775613 43.6283
24.36639447485003 43.3748
24.38917208083877 43.3323
24.41195066531332 43.4022
24.43490819850244 43.3945
24.457688750692377 43.251999999999995
24.48047028445616 43.183
24.503252800821233 43.3115
24.526214300784112 43.3051
24.548998793132213 43.3567
24.57178427117417 43.2346
24.59457073593893 43.31
24.617536219319863 43.3285
24.64032466834748 43.24100000000001
24.663114107195035 43.016999999999996
24.685904536893013 42.8421
24.708874020360852 42.7995
24.731666442613744 42.6505
24.754459858818787 42.6255
24.777254270007962 42.4327
24.80022777025625 42.5702
24.82302418230472 42.3276
24.845821592443674 42.4097
24.86862000170663 42.4901
24.891597535453727 42.3367
24.914397953892728 42.5879
24.93719937456671 42.4693
24.96000179851076 42.6216
24.98298338249997 42.9661
25.00578782394922 43.0624
25.028593271784167 43.2271
25.05157790644186 43.5413
25.07438537804115 43.7269
25.097193859145293 43.9033
25.120003350792075 44.0782
25.142992065061257 44.3692
25.165803588823465 44.57899999999999
25.18861612625217 44.8544
25.211429678386736 44.9045
25.234422489079968 45.1094
25.257238081693636 45.0989
25.280054692141732 45.1079
25.3028723214652 45.1146
25.325869245420463 45.2118
25.348688923599397 45.1645
25.371509623787006 45.032
25.394331347025812 44.9286
25.41733240110666 44.3481
25.440156181590016 43.5967
25.46298098826268 43.1076
25.48580682216873 42.5021
25.50881202326435 41.9397
25.53163992281684 41.6182
25.55446885274561 41.4544
25.577298814096377 41.2241
25.600308179121807 41.0611
25.623140214533745 41.1465
25.64597328451537 41.0365
25.66898578564376 40.8854
25.691820936010206 40.8266
25.714657124097695 40.7053
25.737494350954734 40.7396
25.760511045684957 40.8815
25.783350361364224 40.8418
25.806190718969255 40.8255
25.82903211955018 40.766999999999996
25.852053024868923 40.8772
25.874896522722523 40.8989
25.897741066713106 40.9555
25.920586657892454 41.0461
25.943611790812668 41.1859
25.966459487728237 41.3226
25.989308234998564 41.2364
26.01215803367705 41.6904
26.03518741123814 41.8357
26.05803932412957 41.8555
26.080892291600094 41.8419
26.10374631470478 41.9043
26.12677995397268 41.8883
26.14963609978026 41.8678
26.172493304397875 41.6318
26.19535156888223 41.4462
26.218389486949604 41.0493
26.241249882640123 40.8796
26.26411134137826 40.504
26.28715248187403 40.5568
26.31001607820869 40.4177
26.3328807407756 40.2735
26.35574647063438 40.3885
26.37879191991473 40.3083
26.401659795896734 40.3995
26.424528742360263 40.7063
26.447398760366614 40.86
26.470448535598294 40.9221
26.49332070826805 41.1504
26.516193955675355 41.4984
26.53906827888316 41.623000000000005
26.562122397260108 41.7852
26.584998883685063 42.0847
26.607876449110325 42.2814
26.63075509460056 42.4968
26.65381357334404 42.4625
26.67669439061878 42.4663
26.699576291163382 42.3502
26.722459276044212 42.248999999999995
26.745522132402975 41.9396
26.768407297649354 41.7176
26.791293550442003 41.4381
26.814180891848974 40.9798
26.837248143099337 40.7362
26.860137673466657 40.7562
26.88302829566349 40.4983
26.90592001075963 40.3707
26.92899167420566 40.1012
26.951885586870763 39.7876
26.974780595655517 39.6146
26.99785558178161 39.5395
27.020752794605112 39.3041
27.043651106772522 39.0511
27.06655051935668 39.0246
27.089629948036183 39.0682
27.112531573292053 39.0255
27.135434302194138 39.0266
27.158338135817015 38.9138
27.181422024430987 38.9969
27.204328079372566 38.719
27.22723524226965 38.8159
27.250143514198573 38.9257
27.273231880156334 38.9594
27.296142382065014 38.741
27.319053996245536 38.6679
27.341966723775965 38.6392
27.365059584515222 38.7523
27.38797455070062 38.8357
27.410890633481237 38.6583
27.433807833936918 38.6934
27.456905206923906 38.7949
27.47982465472398 38.7211
27.502745223449743 38.7938
27.525666914182825 38.852
27.548768816912457 38.8749
27.571692763693633 38.6644
27.59461783573812 38.7235
27.617723149491244 38.5982
27.640650484125285 38.4283
27.66357894728264 38.5098
27.686508540048052 38.4048
27.709618414237887 38.2725
27.732550278321757 38.1472
27.755483275279115 38.1419
27.778417406196485 38.0643
27.801531858397514 38.2432
27.824468269376716 38.1148
27.847405817586786 38.0881
27.870344504116094 38.3239
27.893463551932008 38.3737
27.916404527281053 38.5631
27.93934664422563 38.7656
27.962289903855886 38.7003
27.98541356491974 38.8507
28.00835912214229 39.0818
28.03130582533231 39.2665
28.054253675581805 39.4452
28.077381967556104 39.2289
28.100332124185126 39.1961
28.123283431160893 39.2153
28.146235889577238 38.9829
28.169368830154156 38.9338
28.192323603752033 38.5673
28.215279532083304 38.1017
28.238415973016764 38.1883
28.261374223145094 38.0555
28.284333631303806 37.7897
28.307294198589954 37.7643
28.330435319167677 37.3435
28.353398217078915 37.1584
28.376362277420153 36.9956
28.39932750129032 36.8001
28.422473319286713 36.6109
28.44544088262495 36.6322
28.468409612800283 36.3937
28.491379510913497 36.2436
28.51453004413313 36.0908
28.53750229057244 36.1685
28.56047570826344 36.1673
28.583450298308804 36.173
28.606605564586562 35.9823
28.629582511831156 35.9779
28.65256063474956 35.8441
28.675539934446338 35.8116
28.698699951647605 35.7669
28.72168161743193 35.6726
28.74466446331978 35.7272
28.767648490417624 35.6331
28.790813276438353 35.7073
28.813799678527303 35.7058
28.836787265157085 35.6966
28.859955641890075 35.7045
28.882945610203045 35.6332
28.905936766392035 35.4075
28.928929111566863 35.4467
28.952102288520145 35.4003
28.975097024308607 35.2768
28.998092952423807 35.032
29.021090073977508 35.179
29.04426806913204 35.0416
29.067267590245258 34.7805
29.090268308143695 34.7461
29.11327022394099 34.7134
29.13645305530891 34.6332
29.159457379627167 34.6449
29.18246290519685 34.6953
29.20546963313352 34.6009
29.22865731875826 34.5052
29.25166646419296 34.5353
29.27467681535305 34.3086
29.29768837335608 34.5113
29.320880931312562 34.5288
29.34389491580634 34.4765
29.366910110507334 34.4387
29.38992651653503 34.4824
29.41312396492981 34.6052
29.436142806456754 34.3943
29.45916286268059 34.2541
29.48236399319994 34.2745
29.50538649169417 34.0316
29.528410208259935 33.9244
29.55143514402014 33.8266
29.574641196749695 33.6258
29.597668583816574 33.6083
29.6206971934585 33.3506
29.64372702680042 33.3674
29.666938019934474 33.3695
29.689970313635285 33.2495
29.713003834422636 33.1741
29.73603858342347 33.1127
29.759254535188578 33.0923
29.78229175361658 33.0855
29.80533020365064 33.0974
29.82836988641968 33.097
29.85159081507472 32.9874
29.874632976355343 32.9707
29.89767637376955 32.9787
29.920721008448314 32.8332
29.9439469322847 32.8554
29.96699405457564 32.6941
29.9900424175358 32.7791
30.013092022298157 32.6495
30.03632295963995 32.7304
30.059375061131373 32.7621
30.08242840783577 32.775
30.105483000888153 32.8024
30.128718970092244 32.6323
30.151776069006917 32.5847
30.17483441768648 32.6129
30.198074175317235 32.5986
30.221135036724256 32.6554
30.24419715131772 32.6615
30.267260520236203 32.5508
30.290505341942243 32.4969
30.313571232750228 32.5459
30.336638381310948 32.5021
30.35970678876503 32.4258
30.38295669299435 32.3269
30.40602763151657 32.4929
30.429099832366074 32.3524
30.452173296685572 32.3017
30.47542830191959 32.2575
30.498504306502497 32.2989
30.521581577995562 32.4034
30.544660117543582 32.3965
30.56792024229725 32.4057
30.59100133132069 32.3529
30.614083691845494 32.3723
30.637167325018545 32.4225
30.660432587840603 32.4938
30.683518779717886 32.4087
30.70660624769615 32.5301
30.729694992924372 32.3876
30.75296541239743 32.5049
30.77605672557558 32.2935
30.799149319462742 32.2747
30.8224236211637 32.2057
30.845518789950724 32.0623
30.868615242910597 32.0543
30.891712981195973 31.8628
30.91499247215866 31.8148
30.938092794619365 31.7715
30.96119440587579 31.7723
30.984297307082752 31.6058
31.00758200598383 31.592
31.030687500658694 31.4061
31.053794288760695 31.4261
31.076902371446767 31.3531
31.100192296997445 31.2674
31.12330298246119 31.1868
31.14641496599209 31.1554
31.169528248749216 31.2843
31.19282341969534 31.1795
31.215939314557186 31.160999999999998
31.239056512134788 31.1618
31.262175013589378 31.1711
31.28547544871168 31.1022
31.30859657161541 31.0799
31.331719001892175 31.1189
31.35484274070538 31.2337
31.378148458819545 31.1579
31.401274828443725 31.0503
31.424402510106933 31.1723
31.447712205419993 31.1549
31.470842524931633 31.0213
31.493974159989783 31.0333
31.51710711176168 31.0878
31.54042212308802 30.9576
31.563557722100917 30.9768
31.586694641341655 30.7701
31.609832881979628 30.7321
31.63315322823208 30.655
31.656294125521327 30.5123
31.679436347728515 30.4347
31.70257989602529 30.4308
31.725905596152327 30.3689
31.74905181052835 30.3613
31.772199354521323 30.4379
31.79534822930507 30.4169
31.818679302290967 30.3207
31.84183085259981 30.3029
31.864983737233473 30.2558
31.88813795736804 30.3876
31.911474422233013 30.2607
31.934631327356435 30.2674
31.9577895715215 30.3109
31.980949155906522 30.193
32.004291031706956 30.158
32.027453310562606 30.0055
32.05061693318573 30.0185
32.07396288236386 30.021
32.09712920658542 29.9921
32.12029687812702 29.8225
32.14346589817093 29.6862
32.166817291729984 29.7261
32.18998902288583 29.6852
32.21316210610336 29.5032
32.23633654256711 29.4927
32.259693399663725 29.4669
32.282870556771144 29.3561
32.30604907069099 29.421999999999997
32.329228942610065 29.3573
32.35259128243769 29.1634
32.375773884550505 29.1262
32.398957848235646 29.0906
32.422143174682176 28.9748
32.445511016471215 28.9716
32.468699082679954 28.9787
32.49188851523011 28.8699
32.51507931531304 28.7588
32.538452678331 28.8037
32.56164622776311 28.7623
32.58484114831493 28.6806
32.60803744118015 28.5837
32.631416344731896 28.6198
32.654615396551876 28.5028
32.67781582427913 28.5016
32.701198898634416 28.4455
32.72440209253756 28.5038
32.747606665947124 28.4386
32.77081262006088 28.3889
32.79420126883317 28.2801
32.81740999876112 28.3516
32.840620112999424 28.2412
32.86383161274818 28.2179
32.88722585534586 28.1979
32.91044014056596 28.2463
32.933655814909734 28.175
32.95687287957963 28.2604
32.98027273544904 28.088
33.00349259526636 28.0059
33.026713849030116 28.0868
33.04993649794511 28.0062
33.073341986570746 27.9341
33.09656744032826 27.9649
33.11979429286444 28.0186
33.14302254538647 27.9801
33.166433686291185 27.9525
33.18966475336992 27.8386
33.212897224069096 27.752
33.23613109959831 27.7495
33.259547912343415 27.8012
33.2827846121627 27.7783
33.306022720453775 27.6404
33.32926223842861 27.5679
33.352684742614166 27.5712
33.37592709463173 27.4964
33.399170859982064 27.5063
33.422597648419426 27.4828
33.44584425514446 27.3136
33.46909227885668 27.273000000000003
33.4923417207723 27.226
33.51577423505344 27.2017
33.539026528130385 27.0435
33.56228024307245 27.0637
33.585535381098246 26.9133
33.60897364093058 26.8246
33.63223163992385 26.8993
33.6554910656699 26.916999999999998
33.678751919389796 26.838
33.702195944520106 26.846999999999998
33.72545966903325 26.7912
33.74872482519663 26.6855
33.771991414233746 26.6778
33.79544122444841 26.6812
33.81871069412428 26.5774
33.84198160035767 26.605999999999998
33.86525394437455 26.618000000000002
33.88870955949969 26.4596
33.911984794020626 26.4755
33.93526147001624 26.4498
33.958539588715006 26.4099
33.98200102861669 26.3968
34.0052820477047 26.2242
34.02856451319451 26.2121
34.05203033759056 26.1346
34.07531571090147 26.2398
34.09860253431845 26.1047
34.121890809074316 26.0451
34.145362493118924 26.0412
34.16865368561615 26.0321
34.191946333164054 25.9812
34.21524043699793 25.9256
34.23871800066799 25.8352
34.26201503218366 25.8358
34.28531352370466 25.7654
34.30861347646881 25.7632
34.33209693978188 25.7309
34.3553998301885 25.6449
34.378704185565205 25.603
34.402010007152356 25.5334
34.42549939016683 25.6135
34.44880815937748 25.4648
34.472118398533134 25.4437
34.49543010887669 25.4134
34.51892543169198 25.3266
34.54224009966052 25.3005
34.56555624255917 25.4038
34.58887386163339 25.1858
34.61237514439016 25.2131
34.6356957311114 25.1121
34.65901779775809 25.0462
34.68252356662995 25.0968
34.705848608458616 25.2029
34.72917513396849 24.982
34.75250314440949 24.9637
34.77601490857862 24.9299
34.799345904259795 24.8973
34.82267838863559 24.8064
34.846012362958525 24.7974
34.869530142679984 24.7727
34.89286711232212 24.8061
34.91620557568269 24.7335
34.93954553401677 24.7264
34.9630693495876 24.6473
34.986412313340814 24.7198
35.00975677584668 24.6223
35.033102738362956 24.4711
35.05663261012228 24.4756
35.0799815881786 24.6
35.10333207003229 24.5578
35.12668405694369 24.4927
35.150220005273056 24.4412
35.17357501786656 24.3678
35.19693153931268 24.3991
35.220289570874385 24.2336
35.24383161619786 24.2975
35.267192683604904 24.3632
35.290555264930376 24.3114
35.314101899412165 24.2836
35.33746752422433 24.1606
35.36083466676374 24.1457
35.38420332829803 24.0883
35.407756095629054 24.2033
35.43112781085063 24.1066
35.45450104888391 24.1114
35.477875810999194 24.1139
35.50143473172161 23.9713
35.52481255774625 24.0584
35.54819191167777 23.9324
35.57157279478914 23.8831
35.595137889488406 23.7986
35.61852184675279 23.818
35.641907337029984 23.7785
35.665294361595684 23.7819
35.68886565090076 23.6928
35.7122557598848 23.6851
35.73564740699838 23.6924
35.759040593519934 23.5992
35.78261809810353 23.5679
35.80601437933051 23.534000000000002
35.829412203814705 23.4286
35.85281157283719 23.4474
35.876395313415884 23.4821
35.8997977874528 23.3727
35.92320180988546 23.3285
35.946790244133936 23.2995
35.97019737933222 23.2849
35.993606066789866 23.1733
36.01701630779276 23.2577
36.04061101440684 23.2159
36.06402437852291 23.108
36.08743930005611 23.0947
36.1108557802951 23.0819
36.13445678011326 23.0357
36.15787639383515 22.9844
36.18129757014299 22.9407
36.20472031032821 22.9433
36.22832762423364 22.8331
36.25175350829375 22.8866
36.275180960119776 22.7556
36.298609981005924 22.7791
36.32222362992669 22.8122
36.34565580510207 22.7763
36.36908955323448 22.6794
36.39252487562093 22.6159
36.416144880530226 22.618000000000002
36.43958336764275 22.5701
36.463023432914625 22.6128
36.486465077645676 22.5422
36.51009145956204 22.5287
36.53353627947859 22.4973
36.55698268276811 22.4706
36.58043067073321 22.4404
36.60406345072071 22.3107
36.62751462435344 22.3486
36.65096738658405 22.3301
36.67460498210655 22.2819
36.69806093788647 22.2342
36.72151848619297 22.1445
36.744977628333636 22.1565
36.76862165890998 22.0728
36.79208400512205 22.14
36.81554794910557 22.1083
36.83901349217101 21.9454
36.862663978991606 21.9044
36.88613273667352 21.9552
36.90960309738324 21.9742
36.933075062434064 21.8884
36.95673202673572 21.894000000000002
36.98020721697122 21.8223
37.003684015502365 21.7348
37.027162423645365 21.6289
37.050825886711465 21.7195
37.07430753063053 21.6315
37.09779078812467 21.5883
37.121275660513014 21.5765
37.144945643673694 21.6376
37.16843376245278 21.5585
37.19192350009803 21.5518
37.215414857931435 21.5187
37.239091382563885 21.5055
37.262585997426164 21.4144
37.28608223645736 21.4058
37.309763684451696 21.2681
37.33326318851098 21.2882
37.356764320726555 21.2607
37.380267082425526 21.2914
37.40395510942588 21.2774
37.42746114683234 21.2116
37.45096881771841 21.0947
37.474478123414166 21.1287
37.49817275092816 21.0882
37.52168534303452 21.0078
37.54519957395567 21.013
37.568715445024665 20.9567
37.592416694607714 20.9166
37.61593586281424 20.8978
37.63945667518264 21.0102
37.66297913304891 20.7751
37.68668702630454 20.7759
37.710212792059274 20.7105
37.733740207334854 20.7208
37.757269273470364 20.619
37.780983832050374 20.7089
37.80451621684926 20.6949
37.82805025654007 20.6138
37.851585952464795 20.5771
37.8753071980695 20.5137
37.89884622345676 20.4575
37.92238690911902 20.4628
37.94611318753442 20.3764
37.969657210779765 20.3797
37.99320289834801 20.3653
38.016750251586465 20.3396
38.04048325513017 20.328
38.06403395679343 20.3138
38.087586328183946 20.2756
38.11114037065203 20.2248
38.13488012115898 20.2152
38.1584375229181 20.1778
38.181996599821 20.1129
38.205557353221124 20.0987
38.229303872575656 20.0523
38.2528679961576 20.0413
38.27643380031219 19.93
38.30000128639589 19.9384
38.32375459653193 19.9669
38.34732546371299 19.962
38.37089801690786 19.8576
38.39447225747609 19.7786
38.418232380377425 19.7128
38.441810012983396 19.7381
38.46538933705673 19.7307
38.488970353960084 19.7229
38.51273731166058 19.635
38.536321731567014 19.5518
38.55990784840681 19.5398
38.58367995004091 19.575
38.60726947812959 19.5375
38.63086070726198 19.5703
38.654453638806274 19.5292
38.678232613930824 19.4355
38.70182896773327 19.3909
38.72542702806741 19.362000000000002
38.7490267963045 19.3992
38.77281266709232 19.3376
38.79641586862214 19.2824
38.8200207821842 19.2325
38.843627409152944 19.2959
38.86742019782782 19.2125
38.891030269149255 19.2212
38.914642058016156 19.203
38.938255565806124 19.1659
38.96205529464307 19.1179
38.98567225787121 19.1064
39.00929094417078 19.0279
39.03291135492255 19.012999999999998
39.05671804624804 19.0191
39.080341923549106 18.9289
39.103967529460334 18.9189
39.127594865365744 18.8196
39.15140854155791 18.8438
39.17503935514948 18.7749
39.19867190290282 18.8314
39.22249083587951 18.7605
39.24612686969409 18.7376
39.269764641845306 18.7421
39.293404153722804 18.6542
39.317230110864074 18.5828
39.34087311998506 18.5736
39.36451787301696 18.5585
39.388164371352595 18.4864
39.41199737518003 18.4921
39.43564738196752 18.4692
39.45929913825317 18.5034
39.48295264543308 18.4209
39.506792718520884 18.3467
39.530449745387216 18.3177
39.55410852735203 18.3501
39.57776906581474 18.3468
39.60161623079 18.2565
39.625280300200025 18.197
39.64894613032202 18.1927
39.67261372255866 18.2006
39.6964680021016 18.1814
39.72013913657293 18.151
39.74381203738292 18.1001
39.76748670593756 18.1298
39.79134812278169 18.0356
39.81502634488497 18.0153
39.83870633896685 17.9561
39.862388106436654 17.9495
39.88625668336918 17.9463
39.90994201572829 17.9092
39.933629125719285 17.8667
39.957503091207826 17.7886
39.9811937746168 17.8858
40.00488623990914 17.8054
40.02858048850006 17.7901
40.05246165409549 17.7571
40.076159487492085 17.6985
40.099859108448875 17.6727
40.123560518384345 17.5561
40.1474489070226 17.6185
40.171153913178564 17.5905
40.194860712584955 17.5633
40.2185693066637 17.5806
40.242464941335314 17.4647
40.26617714307655 17.4754
40.289891143772046 17.4866
40.3136069448471 17.4803
40.33750984859743 17.4374
40.3612292688043 17.3517
40.3849504936829 17.3269
40.40867352466194 17.3124
40.43258372059144 17.2663
40.45631038219906 17.2321
40.48003885420956 17.2129
40.503769138055105 17.2975
40.52768664931955 17.2732
40.55142057531802 17.1943
40.57515631746428 17.1104
40.599079334038514 17.0946
40.62281872700477 17.0936
40.64655994043941 17.0139
40.67030297578061 17.0342
40.69423334835778 17.0079
40.71798004609188 16.9541
40.74172857006355 16.8762
40.76547892171441 16.9343
40.7894166736039 16.9473
40.813170699248566 16.8422
40.83692655691388 16.8369
40.86068424804498 16.8711
40.884629402612525 16.8188
40.908390779366385 16.7705
40.932153993938 16.7535
40.95591904777605 16.7113
40.979871628443995 16.6914
41.003640379561936 16.6922
41.02741097430883 16.6784
41.05118341413683 16.6203
41.075143444384416 16.5563
41.098919593177826 16.6097
41.1226975914255 16.5328
41.14647744058318 16.4332
41.170444943946755 16.4604
41.19422851378379 16.4429
41.218013938914645 16.3865
41.24198706625173 16.3725
41.26577622087193 16.3651
41.289567235177785 16.2862
41.31336011063129 16.2779
41.337340752422875 16.262999999999998
41.361137369129835 16.2693
41.38493585138705 16.2103
41.40873620066004 16.1602
41.43272438060107 16.1558
41.45652848292052 16.1126
41.48033445666918 16.1134
41.50414230331616 16.0436
41.528138045159764 16.0162
41.551949656675205 15.9649
41.575763145513235 15.9623
41.59957851314666 15.9273
41.62358184070442 15.9203
41.64740098505737 15.9638
41.6712220126409 15.8683
41.69504492493139 15.8632
41.71905586207357 15.8002
41.74288256296395 15.7915
41.766711153007456 15.7677
41.79054163368412 15.8072
41.814560204340054 15.8037
41.838394485526365 15.7072
41.86223066180303 15.6944
41.88625497706819 15.6701
41.910094962812 15.7103
41.93393684811168 15.6379
41.95778063445365 15.5756
41.981812625263366 15.5021
42.00566023303407 15.487
42.029509746323676 15.4439
42.05336116662236 15.452
42.077400857069705 15.4211
42.10125611078846 15.4129
42.12511327600405 15.4056
42.14897235421036 15.3656
42.173019768448455 15.3624
42.19688269209613 15.3123
42.22074753323349 15.3039
42.24461429335818 15.2275
42.268669455600495 15.2359
42.292540073217886 15.2117
42.31641261433284 15.1672
42.34028708044675 15.1064
42.36435001496739 15.1043
42.38822835065557 15.1198
42.41210861586426 15.1084
42.4359908120986 15.0906
42.46006154323262 14.9883
42.48394762115317 14.9897
42.507835634632315 15.0126
42.531912233047436 14.9495
42.55580413732265 14.9295
42.579697981698 14.8931
42.60359376768525 14.8909
42.62767820545945 14.8664
42.65157789440821 14.857999999999999
42.67547952952185 14.8196
42.699383112316 14.7938
42.72347541395347 14.7033
42.74738291190531 14.6817
42.771292362102166 14.683
42.795203766063516 14.6493
42.819303956130405 14.645999999999999
42.843219287476536 14.5806
42.86713657716324 14.5946
42.89105582671383 14.5658
42.91516392983864 14.5545
42.939087119032166 14.5547
42.963012272677304 14.4691
42.98693939230129 14.495999999999999
43.01105543317513 14.4419
43.034986504731386 14.397
43.05891954686589 14.357999999999999
43.08285456110972 14.4346
43.10697856448665 14.3637
43.130917542983475 14.3312
43.15485849820081 14.2899
43.17880143167367 14.245999999999999
43.20293342237094 14.2481
43.226880332449 14.231
43.25082922540554 14.2083
43.27496722682525 14.1876
43.29892010567796 14.1691
43.32287497204102 14.1366
43.34683182745632 14.0706
43.370977859791836 14.0724
43.39493871351105 14.064
43.41890156092628 14.0221
43.44286640358341 13.9999
43.46702049182749 13.972000000000001
43.49098934522816 14.001
43.51496019852649 13.9599
43.5389330532723 13.8826
43.56309522248204 13.9179
43.58707210044314 13.8802
43.61105098451946 13.8259
43.63503187626491 13.8151
43.659202151562134 13.8031
43.68318707902681 13.8166
43.70717401884041 13.7379
43.731162972560874 13.6587
43.75534137913236 13.6521
43.779334381108384 13.6679
43.803329401683186 13.6714
43.82732644241872 13.6074
43.8515130055166 13.6155
43.87551410707659 13.5377
43.89951723350145 13.5717
43.923709934595614 13.5124
43.94771713129917 13.4661
43.97172635758096 13.4954
43.99573761501002 13.4407
44.0199385169922 13.4278
44.04395385732619 13.4106
44.067971233533086 13.4292
44.09199064718605 13.354000000000001
44.11619977548961 13.2947
44.14022328470671 13.2902
44.16424883610785 13.3333
44.18827643127035 13.3152
44.21249381139513 13.273
44.236525514814076 13.2006
44.26055926674478 13.2204
44.28459506876863 13.1905
44.3088207262813 13.1268
44.33286064928722 13.1056
44.35690262714919 13.0796
44.38094666145278 13.0582
44.4051806219871 13.0915
44.42922879003185 13.0186
44.45327901929361 13.0129
44.477331311362136 12.9803
44.501573600619416 12.9824
44.525630039221795 12.9343
44.54968854541895 12.940999999999999
44.573937102200176 12.925
44.5979997645541 12.9045
44.622064499300315 12.8627
44.64613130803592 12.8593
44.67038823869318 12.862
44.69445921643748 12.8079
44.718532272981385 12.7639
44.742607409926194 12.7931
44.76687274034801 12.7089
44.79095205918753 12.6497
44.81503346325094 12.6638
44.839116954143876 12.6415
44.86339071028742 12.6718
44.88747839599524 12.6499
44.91156817336837 12.5874
44.93566004401666 12.6
44.959942251908146 12.5627
44.984038330325966 12.577
45.00813650686762 12.5088
45.03223678314731 12.4841
45.05652746888232 12.4322
45.08063196592069 12.4561
45.104738567558705 12.4325
45.128847275414856 12.3939
45.15314646515866 12.2871
45.17725940679741 12.3281
45.20137445952892 12.3071
45.22568004865265 12.3053
45.24979934496396 12.2508
45.27392075725247 12.2009
45.29804428714431 12.217
45.322358426247604 12.1882
45.346486212804315 12.1924
45.370616121861914 12.1867
45.39474815505086 12.1714
45.41907087049246 12.1401
45.4432071734666 12.1097
45.46734560548283 12.1059
45.49148616817604 12.0671
45.51581748638564 12.0746
45.5399623320197 11.9983
45.56410931325473 11.9742
45.58825843173002 11.9796
45.61259837920865 11.9264
45.636751793816 11.9343
45.66090735060093 11.9006
45.68506505120716 11.8954
45.7094136545275 11.9026
45.73357566449271 11.847000000000001
45.75773982322992 11.873
45.78190613238733 11.8684
45.806263418194064 11.7997
45.83043404997326 11.7558
45.85460683713677 11.7385
45.87897065658495 11.7081
45.90314777634752 11.72
45.92732705646868 11.6883
45.9515084986045 11.6434
45.97588104735473 11.6086
46.00006683541565 11.6497
46.02425479047904 11.6004
46.04844491420549 11.6159
46.0728262191024 11.5643
46.09702070211635 11.5398
46.12121735879483 11.5355
46.14541619080294 11.5266
46.169806278764455 11.4805
46.194009483459034 11.4848
46.21821486849841 11.4409
46.24242243555223 11.4138
46.266821333570014 11.4067
46.29103328674601 11.3359
46.31524742696538 11.3838
46.33946375590237 11.3369
46.36387149104216 11.3394
46.38809221957392 11.2965
46.41231514186606 11.2687
46.436540259597464 11.2853
46.460956858999374 11.2744
46.48518638983522 11.2202
46.509418121166966 11.1581
46.533652054678114 11.1336
46.55807754555709 11.1266
46.58231590571962 11.1452
46.60655647313217 11.1229
46.630988654873654 11.125
46.655233659129024 11.0254
46.67948087571551 11.0899
46.70373030632484 11.0413
46.72817142736393 11.023
46.752425308428684 11.0103
46.77668140861147 10.9992
46.80093972960865 10.9308
46.82538981736788 10.9225
46.849652602470904 10.9107
46.87391761349769 10.8831
46.8981848521493 10.8713
46.9226439341274 10.8355
46.946915650573224 10.8074
46.97118959976749 10.7847
46.99546578341598 10.7399
47.019933887188216 10.7584
47.04421456235744 10.7053
47.06849747711879 10.738
47.09278263318286 10.7044
47.11725978640143 10.6828
47.14154944775105 10.6484
47.165841355555656 10.6641
47.1901355115306 10.6152
47.214621741924994 10.591
47.23892041698887 10.6434
47.26322134538975 10.5947
47.28771440635075 10.5327
47.31201986422527 10.5631
47.33632758061436 10.4932
47.360637557241866 10.4578
47.38513974410611 10.4159
47.40945426407847 10.4408
47.43377104948137 10.4501
47.45809010204344 10.4575
47.48260144275502 10.4038
47.506925052572285 10.3688
47.53125093475548 10.3818
47.55557909103813 10.2936
47.58009961361992 10.3264
47.60443234110732 10.2974
47.62876734791564 10.2778
47.65310463578333 10.2704
47.6776343683373 10.2409
47.7019762413987 10.2111
47.72632040075572 10.2198
47.75066684815169 10.2028
47.77520581885936 10.1827
47.799556865477655 10.1761
47.823910205386 10.113999999999999
47.84826584033272 10.0816
47.87281407745551 10.0859
47.89717432569297 10.075
47.92153687423484 10.0446
47.94609208429692 10.0335
47.97045925671401 10.0605
47.99482873471275 10.0133
48.01920052005013 9.971260000000001
48.04376504619224 9.949639999999999
48.068141469543484 9.98591
48.09252020552573 9.88754
48.11690125590099 9.907010000000001
48.1414751266064 9.874939999999999
48.16586082917454 9.81852
48.19024885144316 9.83095
48.2146391951793 9.847660000000001
48.239222439012764 9.833680000000001
48.26361744916137 9.81988
48.28801478610016 9.77999
48.31241445160131 9.74472
48.337007097209366 9.73247
48.36141144338331 9.77073
48.38581812345755 9.71616
48.41022713920929 9.73236
48.434829215320704 9.69135
48.45924292604658 9.6775
48.48365897780325 9.64172
48.50807737237308 9.61231
48.532688907799276 9.61819
48.55711201168574 9.612589999999999
48.581537463754074 9.6014
48.60615611725119 9.59565
48.63058628942721 9.564869999999999
48.65501881516546 9.5449
48.6794536962573 9.51773
48.70408185970339 9.52153
48.72852147531801 9.48513
48.75296345168211 9.43469
48.77740779059232 9.42959
48.80204549302823 9.4247
48.82649458091802 9.434389999999999
48.85094603676547 9.37464
48.87539986237231 9.352210000000001
48.90004713292306 9.360439999999999
48.92450572200832 9.35723
48.94896668628025 9.334810000000001
48.97343002754588 9.33667
48.99808689542115 9.27246
49.02255501470614 9.259730000000001
49.04702551642794 9.23017
49.0714984023988 9.243030000000001
49.096164896893235 9.1997
49.120642575466796 9.153369999999999
49.145122643748394 9.14988
49.16960510355558 9.112039999999999
49.19428125404938 9.11154
49.2187685210852 9.146360000000001
49.243258185121555 9.09268
49.26794160167084 9.09349
49.2924360839405 9.079080000000001
49.31693296869764 9.05787
49.34143225776915 9.057210000000001
49.36612538195438 9.00453
49.39062950396021 8.99157
49.41513603578346 9.0053
49.4396449792564 8.99498
49.46434784069503 8.95534
49.488861631846454 8.915339999999999
49.513377840166804 8.93635
49.537896467493745 8.91917
49.56260909589029 8.86231
49.587132585683285 8.86153
49.611658500018365 8.83662
49.636186840738596 8.8566
49.66090926588511 8.81312
49.685442483902584 8.756789999999999
49.70997813385706 8.743030000000001
49.734516217597076 8.77407
49.75924846937352 8.749789999999999
49.7837914452858 8.72865
49.80833686055187 8.66808
49.83288471702571 8.68106
49.85762682540054 8.67975
49.882179588965734 8.65728
49.9067347993235 8.62546
49.93129245833333 8.62185
49.95604445336378 8.62964
49.98060703442832 8.61867
50.005172069746266 8.55487
50.02993150438364 8.52715
50.05450147301533 8.545810000000001
50.07907390151433 8.52559
50.10364879174981 8.518360000000001
50.12841816587289 8.48212
50.1529980044635 8.49478
50.17758031042124 8.43078
50.20216508562089 8.45023
50.22694442953363 8.40457
50.25153416817468 8.43368
50.27612638170508 8.40443
50.300721072005196 8.36412
50.325510416102105 8.37382
50.350110084975064 8.390830000000001
50.37471223628208 8.35918
50.39931687190919 8.2845
50.424116246675766 8.2654
50.44872587605249 8.269680000000001
50.47333799543065 8.27483
50.49795260670191 8.25945
50.52276204271512 8.23599
50.54738166295838 8.19722
50.57200378079314 8.21251
50.596628398116835 8.16847
50.62144792604559 8.189219999999999
50.646077567609396 8.14668
50.670709714377715 8.15548
50.69553683636198 8.15732
50.72017401885922 8.08265
50.7448137122895 8.07752
50.76945591856022 8.103530000000001
50.79429318636823 8.06771
50.818940443716784 8.02823
50.84359021965163 8.00747
50.868242516085964 8.03828
50.893089960641895 8.01145
50.917747323549435 7.94075
50.94240721271973 7.97267
50.96706963007175 7.9443600000000005
50.99192728239342 7.89162
51.01659478166073 7.93135
51.04126481489051 7.91317
51.06593738400761 7.8614
51.090805275207074 7.86045
51.11548294172845 7.8652
51.14016314993547 7.86257
51.164845901758845 7.831930000000001
51.18972406304274 7.80863
51.21441192780656 7.74943
51.23910234200271 7.77365
51.2637953075678 7.77602
51.288683770237945 7.7696
51.31338186432707 7.74753
51.33808251561888 7.705360000000001
51.362978729967345 7.69539
51.387684521509755 7.6828
51.41239287610203 7.68169
51.437103795691165 7.655530000000001
51.46201036644977 7.64036
51.486726441956634 7.601189999999999
51.51144508832545 7.6261399999999995
51.536166307509156 7.59515
51.56108326624387 7.57983
51.58580965706056 7.55428
51.61053862657523 7.5537600000000005
51.635270176746864 7.50502
51.66019755512065 7.486669999999999
51.68493429268881 7.477060000000001
51.70967361681515 7.5061
51.73441552946465 7.4579699999999995
51.759353359237934 7.45707
51.7841004750961 7.46853
51.80885018539685 7.43018
51.833602492111254 7.374910000000001
51.8585508051424 7.38462
51.883308330926425 7.39872
51.90806845906181 7.394819999999999
51.932831191525715 7.329210000000001
51.95779001977161 7.33763
51.98255798721516 7.326239999999999
52.00732856494335 7.3191
52.03229530577543 7.25656
52.057071130455945 7.2347
52.081849571391054 7.253539999999999
52.106630630568695 7.260489999999999
52.13160794279417 7.20865
52.15639426492067 7.20155
52.18118321127822 7.20029
52.205974783860896 7.16714
52.23096269971011 7.163539999999999
52.255759551287994 7.17595
52.280559035098186 7.12603
52.30536115314103 7.103860000000001
52.33035970494467 7.09547
52.35516711807904 7.08772
52.37997717147198 7.057360000000001
52.40478986713005 7.06424
52.42979908731974 7.0284
52.454617094216 7.01322
52.47943774942214 7.018
52.50426105495102 6.9931
52.529280976059844 7.0248800000000005
52.554109609024096 7.00698
52.57894089837482 6.954969999999999
52.60377484613117 6.94873
52.62880550079408 6.939080000000001
52.65364479223379 6.90106
52.67848674816189 6.86658
52.70352547971946 6.86353
52.72837279155837 6.89197
52.753222773982785 6.81912
52.778075429022984 6.8369800000000005
52.80312495150885 6.8209800000000005
52.827982978797436 6.80058
52.85284368481815 6.78021
52.87770707160767 6.771
52.90276741793998 6.80638
52.92763619336701 6.76077
52.952507655698504 6.744210000000001
52.977381806977576 6.7409300000000005
53.00245301017842 6.713369999999999
53.02733256653592 6.7291
53.052214817996074 6.67811
53.077099766608484 6.6660699999999995
53.102181859804446 6.63346
53.127072229988265 6.659339999999999
53.15196530349892 6.6362
53.17686108239249 6.6555
53.20195409881522 6.60607
53.22685531582556 6.60458
53.25175924441303 6.552309999999999
53.27666588664027 6.5770800000000005
53.30176985962693 6.54798
53.3266819565689 6.52206
53.35159677336455 6.50896
53.376514312083096 6.4584
53.40162927507703 6.48126
53.42655228516116 6.49228
53.45147802340193 6.47982
53.47660125628886 6.4958599999999995
53.50153247842639 6.47156
53.52646643496923 6.41341
53.55140312799818 6.42329
53.576537409691696 6.393
53.60147960336152 6.37854
53.626424539786164 6.374280000000001
53.65137222105307 6.33701
53.67651758529126 6.355569999999999
53.70147078399681 6.327999999999999
53.72642673383343 6.321269999999999
53.75138543689533 6.35714
53.776541917524526 6.293130000000001
53.801506154876755 6.27583
53.826473151763246 6.22682
53.851442910284916 6.23374
53.87661054126026 6.2464699999999995
53.9015858509782 6.195
53.92656392866066 6.18812
53.95154477641532 6.21053
53.976723591801296 6.17074
54.00171000771266 6.1397699999999995
54.02669920004598 6.13858
54.051691170915745 6.107080000000001
54.076881204886796 6.12103
54.101878760928514 6.09721
54.12687910187696 6.08004
54.152077577768296 6.095330000000001
54.1770835166946 6.051080000000001
54.20209224691339 6.08957
54.22710377055121 6.02465
54.25231352511594 5.96051
54.27733066384342 5.9915199999999995
54.30235060239643 6.03759
54.32737334290836 5.95826
54.35259441062629 5.93253
54.377622783395324 5.93733
54.40265396455061 5.9372300000000005
54.42768795623251 5.87739
54.45292037169559 5.87953
54.477960012857906 5.83582
54.50300247099511 5.8364
54.52804774825457 5.83385
54.55329154616743 5.78739
54.57834249018678 5.8064
54.6033962597977 5.79263
54.6284528571545 5.738169999999999
54.653708072335164 5.7032
54.67877035378786 5.69867
54.70383546947698 5.70531
54.72890342156389 5.68285
54.7541700889442 5.62296
54.77924374251975 5.5822
54.8043202390049 5.62259
54.82959552413022 5.56606
54.8546777351945 5.58432
54.87976279569621 5.58159
54.90485070780914 5.61034
54.930137506558005 5.53366
54.95523115074295 5.48139
54.98032765308844 5.474419999999999
55.005427015775496 5.45442
55.03072536339621 5.45124
55.05583047570572 5.400180000000001
55.080938454927676 5.36515
55.10604930325027 5.37021
55.131359235107396 5.36514
55.15647585066083 5.3361
55.181595341907496 5.30463
55.20671771104285 5.29526
55.232039262617704 5.31711
55.25716741665048 5.27895
55.28229845518636 5.249969999999999
55.30743238042802 5.18235
55.33276558731939 5.15571
55.357905315183636 5.15302
55.383047936390035 5.10406
55.40819345314859 5.09282
55.433538351073295 5.11824
55.458689688238415 5.085719999999999
55.483843927614096 5.00657
55.509197623043605 5.04742
55.53435769621134 5.0226
55.55952067826466 5.00421
55.5846865714265 4.94779
55.61005202069737 4.93351
55.63522376553902 4.91512
55.66039842818645 4.90399
55.68557601087004 4.88216
55.7109532500271 4.82067
55.73613670233794 4.844530000000001
