TT I
1.2716486653135266 7.4409
1.2939594142134223 7.42271
1.3162702121660406 6.27228
1.3385810600174564 6.43794
1.3608919586137629 6.9910000000000005
1.383202908801069 6.71307
1.405513911425503 6.344069999999999
1.4278249673332093 6.2669
1.4501343378461518 6.55715
1.4724455028545926 6.30135
1.4947567236847858 6.956589999999999
1.517068001182951 6.1634
1.5393793361953272 6.0795
1.5616907295681737 5.62673
1.5840021821477681 5.18193
1.60631369478041 5.468430000000001
1.6286252683124185 5.59363
1.6509369035901333 5.9964699999999995
1.6732468618895553 5.24226
1.695558623192809 4.49706
1.7178704487808514 5.24334
1.7401823395001077 5.6264199999999995
1.7625012545597203 4.9429300000000005
1.7848028405262486 5.33809
1.8071218901122095 4.67579
1.8294236121921872 4.06354
1.8517427996910911 5.03005
1.8740620574440425 4.487019999999999
1.8963639900671978 4.70467
1.9186833908139995 4.62216
1.9409854680117449 5.24264
1.9633050151394713 5.44215
1.9856246367570705 4.7676099999999995
2.0079269371922672 4.73269
2.03024671027244 4.8089699999999995
2.0525491637446027 4.22587
2.074869091674931 4.63929
2.097171701569106 4.81056
2.1194917877373847 4.85072
2.141811954326636 5.16536
2.164114805233074 5.59074
2.186435135143035 6.828810000000001
2.208738150935709 18.4165
2.231058647554722 38.8058
2.2533792288321184 28.5677
2.275682498336085 12.0604
2.298003251406138 5.94591
2.3203066942619714 5.97415
2.3426276225136022 5.80662
2.3649486396617507 5.92666
2.387252348930071 6.13035
2.4095735463442893 5.51904
2.4318774374315884 6.32126
2.4541988185014043 6.34946
2.476502894794693 6.52925
2.498824462909887 6.71062
2.521146125856138 6.17807
2.5434504863470337 6.46225
2.5657723414244717 6.52359
2.588076895590662 7.41855
2.610398946189713 7.531569999999999
2.6327210958598384 7.5798
2.6550259469304716 7.884110000000001
2.6773482972090137 7.80872
2.6996533504259 7.8612899999999994
2.7219759047039602 7.91419
2.744298562293959 8.047930000000001
2.7666039251246595 7.76284
2.7889267918020164 8.34623
2.8112323652516555 8.44471
2.833555444408179 8.04401
2.8558786311183852 8.18485
2.8781845268938557 8.13819
2.9005079311721484 8.87139
2.9228140460410397 8.96289
2.9451376712799635 9.243210000000001
2.967444008632326 9.93973
2.9897678582247247 10.0023
3.0120918213106695 10.4986
3.0343984987899373 11.2779
3.0567226913198637 11.3024
3.079029599759726 11.9847
3.101354025127254 12.0388
3.123678568232338 12.5869
3.145985829517914 12.7852
3.16831061055229 13.5318
3.1906181112775593 14.5429
3.212943133635653 14.6572
3.2352682779763207 15.2309
3.2575761442691227 15.7992
3.2799015350264273 15.6994
3.302209649240067 16.8357
3.3245352898092655 17.2233
3.3468436553365257 17.7144
3.369169549113219 17.8537
3.3914955708171384 18.9481
3.413804319727358 18.8158
3.4361305997334863 19.3292
3.4584396084414553 20.042
3.4807661501462652 20.4522
3.503092824025881 21.2209
3.5254022288463154 21.6572
3.5477291695206588 22.1322
3.5700388426251948 23.136999999999997
3.5923660534916446 25.1566
3.6146934007816114 45.055
3.637003482731501 118.256
3.6593311053109985 134.44
3.681641464033634 73.4754
3.7039693653009733 33.9104
3.726297407241705 26.9662
3.7486081875460804 26.1829
3.7709365132734978 26.2245
3.793247578841633 26.7523
3.8155761917550093 27.2427
3.8378875459837216 27.4428
3.8602164494827234 27.8868
3.882545499606844 28.7087
3.9048572932539183 29.3759
3.9271866390645718 29.6553
3.9494987298666713 29.9255
3.971828374764527 30.9218
3.9941581705403255 31.246
4.016470713506008 31.5952
4.038800813471445 32.8154
4.061113662089144 33.2804
4.0834440696459176 34.2239
4.105774632334751 34.5822
4.128087945865126 35.7879
4.150418821249301 36.4932
4.172732448931298 37.8447
4.195063640413578 39.953
4.2173775856475215 45.0562
4.239709096631102 87.678
4.262040768704612 318.76599999999996
4.284355196706267 452.07300000000004
4.306687193387355 287.036
4.329001947444346 100.685
4.35133427213731 51.3642
4.373666762177566 45.9862
4.395982011761091 45.3121
4.418314834921175 46.9402
4.44063041906622 57.2424
4.4629635787515625 73.7797
4.4852969080429785 73.033
4.5076130004776225 57.4598
4.529946671403969 50.8506
4.552263106909177 50.6327
4.574597122877047 51.8226
4.596931312711224 52.5534
4.619248269273446 53.6096
4.6415828092605835 54.69
4.663900117405352 55.595
4.686235010953232 56.7319
4.708552674085913 58.5244
4.730887924602802 59.6582
4.753223354952695 60.943999999999996
4.775541557023902 62.0543
4.797877349456786 63.6375
4.820195915032126 65.8588
4.842532072957498 67.3724
4.864868414979744 69.2068
4.88718753227192 71.1649
4.909524244902505 73.05199999999999
4.931843734218147 75.3918
4.954180820867835 77.718
4.976518095879839 80.7539
4.998838149695359 83.6694
5.021175803844231 87.0902
5.043496238205739 90.3094
5.065834274903528 95.2236
5.088172504230693 100.194
5.1104935158799565 106.959
5.132832132875765 134.37
5.155153533596801 194.174
5.1774925416746225 231.672
5.199814334878411 366.25300000000004
5.2221537374521505 997.081
5.244493338631803 2679.34
5.266815727034316 7075.72
5.289155727832427 12056.2
5.311478517248165 9538.48
5.333818921080011 3407.11
5.356159527788849 691.701
5.3784829252032536 207.17
5.400823940070432 152.269
5.423147747031976 132.425
5.445489173474152 121.524
5.467830807066149 115.42
5.490155234831516 110.59899999999999
5.512497285125229 107.35600000000001
5.534822130975162 105.021
5.557164601388673 102.86399999999999
5.579489868738879 100.113
5.601832762690846 99.23200000000001
5.6241758697774475 99.0627
5.646501775867269 97.6936
5.668845311622074 96.0375
5.691171647754637 94.9355
5.713515615597765 93.3875
5.735859800852677 92.4361
5.758186788542988 91.5601
5.780531411018185 91.6259
5.802858837297399 91.4702
5.825203900414495 91.5452
5.8475491852224 91.6572
5.869877275883075 92.1118
5.892223006467101 93.5659
5.914551544266608 94.5582
5.936897724049891 97.44200000000001
5.959244129804903 102.118
5.981573344815301 119.427
6.0039202049061 203.425
6.026249875609095 440.777
6.04859719346037 916.5
6.070927323278297 2018.68
6.093275102315365 4093.81
6.115623113320588 5245.9
6.137953938319995 3534.41
6.160302415650845 1219.16
6.182633708324452 290.617
6.2049826554078376 124.228
6.227331838745022 96.7744
6.249663839443684 87.9099
6.27201349767565 85.2141
6.294345974611799 94.3434
6.316696111167083 113.29799999999999
6.339046488263839 106.515
6.361379686074702 85.2817
6.383730546639482 73.952
6.406064229255215 69.9267
6.428415576718203 69.2505
6.450749747566656 68.081
6.47310158535871 66.9599
6.495453669698332 66.02600000000001
6.517788579421056 65.9209
6.540141159237969 64.6538
6.562476565766648 64.2337
6.5848296444934045 64.0258
6.607182974060425 63.6417
6.6295191323281015 64.028
6.651872965955752 68.5715
6.6742096296068985 105.29799999999999
6.6965639707294615 175.482
6.71891856698715 177.044
6.741255995248479 113.167
6.763611104154477 73.1945
6.785949046381137 61.9818
6.808304671371482 59.7662
6.8306605557940046 59.2886
6.852999275508618 58.3497
6.875355681171544 57.9684
6.897694923437771 57.7445
6.92005185377892 57.6632
6.9423916220322655 57.2716
6.964749080490181 56.9937
6.987106804399774 56.9034
7.009447368180821 56.9034
7.031805625367033 56.6093
7.054146723727803 56.4199
7.076505517631004 56.4001
7.098864581288365 55.9719
7.121206488070854 56.086999999999996
7.143566093607822 56.1792
7.165908543567245 56.2514
7.188268694426048 56.324
7.2106291193438095 56.7972
7.232972390625943 58.8311
7.255333366030969 75.369
7.277677189091925 153.696
7.300038718428332 225.707
7.322400526130865 187.558
7.344745183422596 106.73200000000001
7.367107550224791 66.4845
7.389452767901992 58.3415
7.411815697249891 56.8131
7.434161478756298 55.7058
7.456524974096713 55.5282
7.478888753837185 55.4144
7.501235387657368 55.9205
7.523599738562711 55.8403
7.545946944825532 56.1431
7.568311870344528 56.4837
7.5906770845765665 56.4028
7.613025156078678 58.8363
7.635390950099687 60.49
7.657739602662809 59.0766
7.680105979923558 57.2915
7.702472650212829 56.9647
7.724822180948224 56.7451
7.747189439655568 56.778
7.769539560075357 56.836999999999996
7.791907410653562 57.5171
7.81425812420825 57.7619
7.836626570110925 57.7114
7.858995315087906 58.3891
7.881346924933401 58.5999
7.903716270417482 59.0997
7.926068482028405 59.2724
7.948438431475253 59.8763
7.9708086843180235 60.8357
7.993161805171116 61.2249
8.015532667162402 61.4532
8.037886398416653 62.4544
8.060257873014221 62.7389
8.082629655331942 63.1569
8.104984308787587 64.7277
8.127356708900503 68.8237
8.149711981398308 76.5409
8.172085002766314 80.1963
8.194458336181368 75.3037
8.216814543847752 70.6569
8.23918850371002 70.393
8.26154533906492 70.955
8.283919928836452 72.3264
8.306277395339652 73.0498
8.328652618483376 74.3706
8.351028159736202 76.1684
8.373386579575245 78.8253
8.395762759396959 80.5417
8.418121819038275 86.5992
8.440498640894003 104.334
8.462875785192262 123.184
8.485235811156207 132.753
8.507613602688501 164.737
8.529974277114228 246.12
8.552352719347912 370.452
8.574731488360351 620.945
8.59709314210385 1080.4
8.619472567021075 1721.67
8.64183487789147 2167.49
8.664214962183097 1932.83
8.686577933647762 1068.66
8.708958680784317 439.783
8.731339760774953 190.324
8.753703729764451 117.95200000000001
8.77608547780821 101.617
8.798450116065078 96.9973
8.820832535634787 93.6402
8.843215292401656 91.9767
8.865580941199045 90.5284
8.887964374703538 89.2233
8.910330701447199 91.0652
8.932714815164482 95.6883
8.955099270424924 94.6592
8.977466620733543 90.2198
8.999851761421976 86.11200000000001
9.022219798361645 84.3281
9.04460562795561 83.881
9.066991803441677 83.4509
9.089360876979615 83.3699
9.111747746589993 82.9685
9.13411751544971 82.4601
9.156505082664324 82.5237
9.178875550323522 82.6031
9.20126381862328 83.365
9.223652438908596 83.6867
9.246023961427412 83.5781
9.26841328802173 82.7605
9.290785518039224 82.2502
9.313175554425882 83.1358
9.335565947154315 82.7853
9.357939245086508 82.8975
9.380330352834827 83.1046
9.40270436697103 83.2529
9.425096193225055 83.4782
9.447488380180165 84.1465
9.469863475295412 84.3389
9.492256385987508 84.7412
9.514632206018318 85.5348
9.537025843935714 85.8934
9.559402392368193 86.5551
9.581796761000229 87.9308
9.604191496441521 88.9515
9.626569144158516 93.5688
9.648964615551032 100.419
9.671343000390081 102.609
9.693739211225699 98.9798
9.716135793237463 94.8377
9.738515290448102 93.7606
9.760912617143402 94.3643
9.783292860202891 95.7211
9.805690935076182 97.3875
9.828089385495742 98.0677
9.850470754023561 100.352
9.872869957865444 110.41799999999999
9.89525208097539 132.183
9.917652041736662 149.392
9.940052382417589 146.954
9.962435644102392 143.957
9.984836746950979 172.90599999999998
10.007220771957746 231.25900000000001
10.029622640473708 326.149
10.052007432299963 487.043
10.074410069984072 738.725
10.096813093716005 1144.14
10.119199042482517 1656.27
10.141602840636468 1993.56
10.163989564971628 1733.91
10.186394141051062 1038.46
10.208799107559706 458.01300000000003
10.231187001965623 210.304
10.253592751657669 133.27200000000002
10.275981430388155 116.49
10.298387966769793 117.346
10.320794897965431 121.22399999999999
10.343184759907361 120.351
10.36559248305461 112.494
10.387983138083852 105.946
10.410391656691655 107.036
10.432800574501677 117.455
10.455192425893369 133.145
10.47760214443012 157.1
10.499994797678786 194.59599999999998
10.522405320453982 264.455
10.54479877906917 368.95099999999996
10.567210109595656 494.79699999999997
10.5896218454736 566.423
10.612016518879773 538.023
10.634429067781074 389.233
10.656824555333241 222.195
10.679237920773568 133.03799999999998
10.701651695961992 99.4405
10.724048411481384 90.3844
10.746463008485165 87.4987
10.768860546937125 85.7138
10.791275969274796 83.7804
10.81369180576079 82.8205
10.836090585366925 81.9813
10.858507252467449 80.9455
10.88090686379991 79.8692
10.903324365036394 79.5258
10.925724811614439 79.5766
10.948143150509463 81.7257
10.970561909719066 80.8548
10.992963615930844 78.5022
11.015383218085756 75.7952
11.037785768347074 74.4082
11.06020621697282 73.5074
11.082627090322113 73.2995
11.105030913430326 72.6804
11.12745263854165 73.7731
11.149857314510728 78.9536
11.172279894912576 87.8955
11.194702904450653 89.4465
11.217108866490921 84.0391
11.239532736615194 77.5666
11.26193956033512 74.6402
11.284364294577085 72.0703
11.306789462371718 69.8563
11.329197585398376 68.2214
11.351623622610898 67.5608
11.37403261614354 66.9426
11.396459526308487 66.6889
11.418869393879497 66.359
11.441297180532617 66.0953
11.463725406927658 65.5941
11.486136592353875 65.6542
11.508565700543707 66.6046
11.530977768845315 69.2739
11.553407762368774 70.5345
11.575838200059769 69.7813
11.598251599479612 67.191
11.620682927815501 64.8282
11.64309721895548 64.3399
11.665529441478206 64.0033
11.687962112597958 63.4262
11.710377748130886 63.5505
11.732811318753434 63.6005
11.755227854859067 63.4008
11.777662328529495 63.6718
11.800079768750786 63.3236
11.822515149015453 63.3648
11.844950984084935 63.4092
11.867369787303163 63.151
11.889806534289491 63.2755
11.912226250487029 63.5828
11.934663912939751 63.5
11.9571020346363 63.5412
11.979523127133968 63.5002
12.001962169624331 63.5479
12.024384183972964 64.6926
12.046824150809913 67.7678
12.069264581333726 72.9546
12.091687985297767 79.2741
12.11412934550045 87.8469
12.136553680195208 101.164
12.158995973632788 119.663
12.181438735204349 145.649
12.20386447284199 175.382
12.226308172985636 202.31900000000002
12.24873485024193 213.87599999999998
12.271179492516982 175.47400000000002
12.293607112949127 140.058
12.316052700916226 104.602
12.338498763250042 84.2849
12.360927805303868 73.4463
12.383374818673879 68.3916
12.405804812803074 65.7358
12.428252780773262 65.4879
12.45070122756722 65.2899
12.473132656675375 64.8836
12.49558206341869 64.8659
12.518014453510101 65.2922
12.540464823770117 65.3566
12.562915677315177 65.634
12.58534951575545 66.5111
12.607801338171472 69.264
12.630236146511358 76.6669
12.652688941369085 84.1176
12.675124723177234 84.5439
12.697578494048786 78.7809
12.720032754458185 72.1408
12.742470003354093 69.0355
12.764925245138771 68.6291
12.787363476431278 69.0097
12.809819703166806 69.1973
12.83227642391173 69.9704
12.854716135692716 70.4299
12.877173846755147 71.2365
12.899614549869717 71.4094
12.9220732548287 72.2553
12.94453245827299 72.6304
12.966974655289818 73.61399999999999
12.989434858002571 74.1323
13.011878055298721 75.0395
13.034339260862497 76.0738
13.056800969391883 77.2104
13.079245674017244 79.1618
13.101708390774869 81.2369
13.12415410463411 87.396
13.146617833206086 99.0761
13.169064559883248 110.93700000000001
13.191529303857127 124.73700000000001
13.213994557076367 144.983
13.236442809902437 176.37099999999998
13.258909083908291 223.21099999999998
13.28135835851934 280.45099999999996
13.30382565690295 349.605
13.326293469022952 416.708
13.348744283242008 441.22
13.371213125129904 392.45
13.39366497011003 292.34
13.416134845360597 192.935
13.438605238843131 132.07399999999998
13.46105863690397 108.844
13.483530069144786 106.463
13.505984506951902 110.292
13.528456981549432 118.719
13.550929978879088 132.224
13.573385983253365 152.799
13.595860028340867 186.171
13.618317081455832 230.706
13.64079217790333 285.105
13.663250283359057 337.54900000000004
13.685726434770173 372.283
13.708203115221277 358.31199999999995
13.730662806148091 286.014
13.75314054697177 204.495
13.775601299246777 139.924
13.798080104050406 103.413
13.820559442405358 87.3786
13.843021793671388 83.0103
13.865502201420897 80.9723
13.887965623051947 80.4948
13.910447103807167 79.2303
13.932929122629764 77.8452
13.955394156785959 77.6301
13.977877254034569 76.5312
14.000343367582113 75.5736
14.022827546871707 75.0833
14.045294743423524 74.2287
14.06778000837062 73.5986
14.090265817715476 73.5788
14.112734645763819 73.4168
14.13522154619454 73.2077
14.157691466286913 73.4928
14.180179461423874 73.2811
14.202668005486178 72.2527
14.22513957064374 71.3404
14.247629214846473 71.2872
14.270101881097517 70.9464
14.29259262906496 71.482
14.315083930490205 72.6894
14.337558255389705 73.3234
14.360050666019726 72.6888
14.382526101071944 71.3515
14.405019624534942 70.1936
14.427513705993134 69.3418
14.449990813291825 69.1755
14.47248601302899 69.4831
14.49496423954951 69.4548
14.517460561197822 69.3804
14.539939910570322 69.2028
14.562437357763558 69.6983
14.58493536931253 71.2879
14.607416409993311 72.7163
14.62991555254159 73.4925
14.652397725157423 73.3263
14.674898002342799 72.2268
14.697398848433282 71.2487
14.719882725991326 71.46
14.74238471217934 71.9988
14.764869730765593 75.2349
14.787372860692983 78.7987
14.809876564079925 82.8978
14.83236330125751 88.17399999999999
14.854868153850365 96.0694
14.877356041159485 107.649
14.899862046604186 123.37799999999999
14.922351087688757 145.3
14.944858249632887 171.68400000000003
14.967365991421232 199.886
14.989856770231246 220.71900000000002
15.012365673994204 224.82299999999998
15.03485761569738 201.83700000000002
15.05736768508665 161.16899999999998
15.07987833888692 123.31200000000001
15.102372032001655 96.1973
15.124883856909658 80.1625
15.14737872204565 73.8476
15.169891721717274 71.561
15.192405310371893 71.5358
15.214901940621196 72.24600000000001
15.237416709527137 72.7244
15.259914520936249 73.2808
15.282430473753607 72.081
15.304947020131227 70.4441
15.327446610371178 69.2526
15.349964346154254 68.1913
15.372465126703139 67.6549
15.394984055556009 67.2912
15.417486030076159 67.0902
15.44000615566487 66.6831
15.462526881230803 66.6596
15.485030653812652 67.0749
15.507552581617434 67.3785
15.530057557334603 67.4833
15.55258069104857 67.0284
15.575104429329837 66.9261
15.597611216864632 66.4063
15.620136166564563 66.3392
15.6426441664095 66.8154
15.665170331202765 68.9204
15.687697105158826 71.809
15.710206930593545 75.3822
15.732734925158933 79.278
15.755245972089478 84.9887
15.77777519094324 93.1268
15.800287463046663 104.15
15.822817909869592 120.07700000000001
15.84534897229804 138.375
15.867863089299354 162.56799999999998
15.890395385222186 182.107
15.912910736597423 194.205
15.935444269699861 189.94799999999998
15.957978423016485 166.023
15.980495633101265 133.184
16.003031029129367 103.266
16.02554948280019 80.5157
16.048086125229432 70.3341
16.070623392487107 67.143
16.09314371869582 66.6378
16.11568223789321 65.6297
16.13820381691126 64.2986
16.160743591742527 62.9118
16.183283996022084 61.5857
16.205807461423195 60.4355
16.228349126881973 59.8151
16.25087385432698 59.6849
16.27341678466365 59.2003
16.29594277784926 59.178000000000004
16.31848697676433 59.8994
16.341031811604868 60.7284
16.36355971058487 61.2453
16.3861058195587 60.8508
16.40863499352978 59.0118
16.431182380342005 57.7182
16.453730407713202 57.0379
16.476261501364792 56.7568
16.498810812136167 56.2623
16.52134319004079 56.4657
16.54389378792203 56.1631
16.566445031001553 55.9993
16.588979342490088 55.923
16.61153187824822 55.861000000000004
16.634067483263312 55.6569
16.656621315414416 55.4777
16.679175797408888 55.3138
16.701713349928728 55.3825
16.72426913389191 55.6676
16.74680798922351 55.684
16.76936507887444 55.6645
16.791905240734874 55.7432
16.814463639794468 55.6585
16.837022695210294 55.6428
16.859564824093756 55.917
16.882125194503903 57.1208
16.904668639217885 58.1343
16.927230328348003 58.3785
16.949792678493612 58.4034
16.972338104193863 57.4253
16.994901778652235 56.7295
17.017448529496576 56.5105
17.040013531998152 56.4096
17.06257920018044 56.8089
17.0851279459922 57.4055
17.107694947817667 58.5344
17.130245028099072 59.108000000000004
17.15281336730298 60.5015
17.17536478578733 62.0329
17.19793446610687 63.8424
17.220504818648422 66.3608
17.243058251703697 69.0454
17.265629950971032 73.3278
17.288184731571736 77.6286
17.310757781306908 82.5655
17.33333150794385 84.0642
17.355888317140174 83.75299999999999
17.37846339986244 79.6478
17.401021565958885 73.8693
17.42359800851343 67.63
17.44617513265564 63.4482
17.468735341390783 60.9055
17.491261035594565 59.7848
17.51396340099364 59.422
17.536490463869136 59.7238
17.559018209820174 59.7623
17.58154663977963 59.7739
17.604251766089718 60.0106
17.626781572227713 60.278
17.64931206518155 60.5154
17.671843245885103 61.1251
17.69455114821572 61.5376
17.717083712612634 61.6834
17.739616967569667 61.7564
17.762150914021706 62.0339
17.78486160749854 61.8466
17.807396945166804 62.3969
17.829932977143503 62.9614
17.85246970436452 64.4506
17.875183204129467 66.3792
17.897721330097664 68.5594
17.920260154126645 70.7921
17.942799677153296 73.6434
17.9655159983646 77.0445
17.988056927677544 81.6908
18.010598558807683 87.8632
18.033140892692916 96.4743
18.05586005052525 106.17299999999999
18.07840379824407 116.921
18.10094825154059 129.312
18.12366954819864 139.055
18.146215420998306 142.775
18.16876200220057 136.059
18.191309292745153 122.552
18.214033452627167 108.057
18.236582170236648 94.8962
18.259131600016456 87.5671
18.281681742907335 86.1365
18.304408781233683 89.2798
18.32696035875955 93.9344
18.349512652227624 99.3319
18.372065662579683 105.038
18.394795594587553 107.75299999999999
18.41735004715306 106.45700000000001
18.43990521943684 100.605
18.46246111238171 91.2739
18.485193953325208 81.2502
18.507751296070428 72.9124
18.530309362314178 67.6918
18.552868153000343 64.6482
18.57560391815056 63.0409
18.59816416623245 62.4985
18.620725141597372 61.9554
18.643286845190268 61.6295
18.666025549835414 61.1093
18.688588718427933 60.4526
18.711152618092243 60.4022
18.73389353884365 60.2247
18.75645890921984 59.5653
18.77902501351406 59.3023
18.801591852673102 59.3633
18.824335739722738 58.7558
18.846904057212626 58.6266
18.8694731124168 58.3293
18.89204290628315 58.3526
18.914789774966803 58.0454
18.937361054791623 57.6995
18.959933076131318 57.578
18.982505839934877 57.5907
19.00525570560582 57.7424
19.027829963004184 57.4772
19.05040496572238 57.7541
19.072980714710468 57.6701
19.095733592739563 57.8446
19.11831084296757 58.1478
19.140888842324735 58.6261
19.16346759176222 58.9375
19.18622349753803 59.325
19.208803755869358 59.9896
19.231384767143577 60.8944
19.253966532312948 62.2224
19.276725481241822 63.9494
19.29930876296784 66.0351
19.3218928014549 68.8485
19.34465404436217 72.4452
19.36723960516257 75.8809
19.389825925592426 77.6293
19.412413006605938 77.643
19.43517731967805 74.5169
19.457765930683355 70.0459
19.48035530514408 64.9333
19.50294544401556 60.977
19.525712842708348 57.7796
19.54830451925909 56.1518
19.570896963095727 55.0002
19.593490175174704 54.6087
19.616260674962184 54.5142
19.638855432416964 54.2747
19.661450960992624 54.2563
19.68404726164677 54.0546
19.706820878021247 53.8896
19.729418731756834 54.2438
19.752017360452857 53.882
19.77461676506804 53.7348
19.797393513540218 54.0983
19.819994478951667 54.5097
19.84259622316767 55.1102
19.8651987471481 55.5171
19.887978643247177 55.6247
19.91058273574792 56.0669
19.933187610901943 56.6378
19.955969879466828 57.7179
19.97857632894404 58.7876
20.00118356396599 60.1367
20.023791585494575 61.9512
20.046577028914875 64.3194
20.069186632506966 66.786
20.091797025500632 69.2539
20.114408208858933 70.4595
20.137196842715273 70.7276
20.159809615886765 69.765
20.18242318232135 67.0613
20.20503754298326 64.7167
20.227829382875154 63.0445
20.250445341109344 62.2505
20.27306209647285 62.5813
20.29567964993108 63.7119
20.31847471147704 64.8642
20.34109387027612 66.4682
20.363713830075454 66.7055
20.386334591841646 65.8968
20.409132890679302 63.2056
20.431755265564437 59.8001
20.454378445325528 57.0755
20.477002430930366 54.9641
20.499803982716553 53.5413
20.522429589228004 52.7097
20.54505600449589 51.9971
20.567683229489194 51.8457
20.590488049900088 51.3033
20.61311690359731 50.8446
20.63574656993626 50.6313
20.658553853717297 50.3099
20.681185154618298 50.0954
20.703817271080066 50.1016
20.72645020407368 49.7478
20.749260783967177 49.81399999999999
20.771895359337133 49.747
20.794530754161617 49.575
20.817166969412938 49.4291
20.83998086114876 49.3354
20.86261872660049 49.2546
20.885257415405402 49.1681
20.90789692853701 49.2006
20.930714147864748 49.0049
20.953355319030678 48.9952
20.97599731745334 49.2249
20.99864014410749 49.0337
21.021460706796564 49.056999999999995
21.044105199328826 49.3689
21.06675052302631 49.6001
21.089396678865015 49.5711
21.112220600704806 49.9686
21.134868430275347 50.3599
21.15751709492456 50.4512
21.180166595629693 50.8636
21.202993892429635 51.214
21.22564507473034 51.6242
21.24829709602816 51.9349
21.27112693608965 52.1337
21.293780644891275 52.1313
21.316435195634053 51.568000000000005
21.339090589297417 50.8375
21.361923832041875 50.4295
21.384580921090404 49.6625
21.407238856007325 49.2616
21.429897637773326 49.0242
21.45273429906592 48.9756
21.475394784108598 48.7779
21.498056118951983 48.7737
21.520718304578022 49.1048
21.543558400304388 49.073
21.566222297108816 49.2802
21.58888704765135 49.2667
21.61155265291521 49.667
21.63439619898156 50.0353
21.657063523335786 50.2383
21.67973170537063 50.8349
21.7024007460706 51.3579
21.72524775840385 51.8064
21.747918526116475 52.6964
21.770590155457388 53.8048
21.79326264741238 55.2456
21.816113141960237 56.7668
21.838787368860547 58.6472
21.861462461341976 60.5187
21.884315579735777 62.6571
21.90699241312273 64.1286
21.92967011506078 65.4709
21.95234868653799 65.8157
21.9752053151131 64.9195
21.997885635446785 63.0506
22.020566828293532 61.1573
22.04324889464272 58.9221
22.066109049404666 57.4739
22.088792872571794 56.6648
22.111477572219204 56.7297
22.1341631493376 56.7527
22.157026846313123 56.6168
22.179714188221507 56.3592
22.202402410582668 55.503
22.22509151438863 53.9533
22.24795876962584 52.5338
22.270649646204486 51.3707
22.293341407213727 50.7353
22.316034053646906 50.1908
22.338904883215342 49.8349
22.36159931041458 49.6957
22.38429462602756 49.64
22.40699083104897 49.5503
22.429865251039757 49.8484
22.452563244831367 49.8277
22.47526213102522 49.5356
22.49813925616515 49.3178
22.520839937143307 49.3004
22.543541513520587 49.2647
22.56624398629403 48.9284
22.589124730075895 48.9415
22.611829005656723 49.0311
22.63453418063466 49.1729
22.657240256008077 49.3383
22.680124634582935 49.4525
22.70283252079775 49.8512
22.725541310413075 50.0123
22.74825100442868 50.1779
22.771139033969575 50.68
22.79385054687155 50.7951
22.81656296718292 51.4243
22.83927629590484 52.1428
22.862167992606945 53.06
22.88488314827121 54.1203
22.907599215359284 55.1131
22.93031619487366 56.32899999999999
22.953211574954405 57.3438
22.975930389478226 58.3484
22.998650119445763 58.913999999999994
23.02137076586092 58.4573
23.044269845560063 57.5791
23.06699233506288 55.8684
23.089715744034912 54.0689
23.112617610931565 52.2703
23.135342869061212 50.8711
23.158069049684816 50.0788
23.1807961538087 49.4661
23.20370174880544 49.4403
23.226430710184808 49.4773
23.249160598093425 49.3901
23.271891413539002 49.2792
23.294800752937697 49.3587
23.31753343374794 49.4761
23.340267045128353 49.6797
23.36300158808808 49.7358
23.38591468821339 50.1043
23.408651104658304 50.4497
23.431388455719986 50.9708
23.454126742409 51.6772
23.4770436196085 52.5611
23.499783787914662 53.7151
23.522524894889884 54.5989
23.54526694154616 55.5981
23.56818761219047 57.0458
23.59093154860734 58.0535
23.613676427751283 58.7112
23.636422250635754 58.4013
23.659346731118656 57.0729
23.68209445191868 55.0211
23.704843119509587 52.9152
23.72759273490623 50.8126
23.750521041644767 49.2354
23.77327256312355 48.0118
23.796025035462787 47.2876
23.818956224555475 46.7923
23.841710609113413 46.6079
23.86446594758979 46.3589
23.887222241002014 46.0658
23.910157285144578 45.7369
23.932915498962537 45.7863
23.955674670778713 45.5362
23.978434801611975 45.5535
24.001373717286125 45.2243
24.024135776723917 45.1907
24.046898798245582 45.0062
24.06966278287146 44.9667
24.092605586582614 44.7328
24.115371508023642 44.5403
24.1381383956401 44.4865
24.16090625045381 44.626000000000005
24.183852958731244 44.608000000000004
24.206622758582608 44.4412
24.229393528706886 44.2233
24.252165270127392 44.309
24.27511589952438 44.1539
24.297889594216997 43.957
24.32066426328598 43.9366
24.34343990775613 43.934
24.36639447485003 43.7035
24.38917208083877 43.8045
24.41195066531332 43.4804
24.43490819850244 43.5629
24.457688750692377 43.391999999999996
24.48047028445616 43.356
24.503252800821233 43.5107
24.526214300784112 43.5055
24.548998793132213 43.6029
24.57178427117417 43.3814
24.59457073593893 43.5363
24.617536219319863 43.4295
24.64032466834748 43.4844
24.663114107195035 43.4199
24.685904536893013 43.2031
24.708874020360852 43.1501
24.731666442613744 43.0189
24.754459858818787 42.7735
24.777254270007962 42.865
24.80022777025625 42.6833
24.82302418230472 42.7238
24.845821592443674 42.6199
24.86862000170663 42.6241
24.891597535453727 42.5812
24.914397953892728 42.7618
24.93719937456671 42.5895
24.96000179851076 42.7322
24.98298338249997 42.9384
25.00578782394922 43.1713
25.028593271784167 43.287
25.05157790644186 43.6425
25.07438537804115 43.5305
25.097193859145293 43.8875
25.120003350792075 44.1088
25.142992065061257 44.4772
25.165803588823465 44.7218
25.18861612625217 45.015
25.211429678386736 45.0258
25.234422489079968 45.0397
25.257238081693636 45.2759
25.280054692141732 45.3653
25.3028723214652 45.1435
25.325869245420463 45.3127
25.348688923599397 45.4289
25.371509623787006 45.4848
25.394331347025812 45.3712
25.41733240110666 45.0624
25.440156181590016 44.3167
25.46298098826268 43.7943
25.48580682216873 43.1353
25.50881202326435 42.445
25.53163992281684 42.2453
25.55446885274561 41.8158
25.577298814096377 41.3519
25.600308179121807 41.2365
25.623140214533745 41.4423
25.64597328451537 41.2355
25.66898578564376 40.8909
25.691820936010206 40.9868
25.714657124097695 41.1442
25.737494350954734 41.0261
25.760511045684957 40.8995
25.783350361364224 41.1156
25.806190718969255 41.1187
25.82903211955018 41.0553
25.852053024868923 41.0846
25.874896522722523 41.1257
25.897741066713106 41.0873
25.920586657892454 41.1437
25.943611790812668 41.1811
25.966459487728237 41.3411
25.989308234998564 41.2785
26.01215803367705 41.7226
26.03518741123814 41.8177
26.05803932412957 41.8264
26.080892291600094 41.9384
26.10374631470478 42.0427
26.12677995397268 42.2062
26.14963609978026 42.2937
26.172493304397875 42.0192
26.19535156888223 41.8259
26.218389486949604 41.3732
26.241249882640123 41.1292
26.26411134137826 40.9308
26.28715248187403 40.8192
26.31001607820869 40.6646
26.3328807407756 40.4512
26.35574647063438 40.5941
26.37879191991473 40.5223
26.401659795896734 40.6627
26.424528742360263 40.7554
26.447398760366614 40.8797
26.470448535598294 40.8869
26.49332070826805 41.1791
26.516193955675355 41.516000000000005
26.53906827888316 41.6197
26.562122397260108 41.8195
26.584998883685063 41.9953
26.607876449110325 42.3403
26.63075509460056 42.456
26.65381357334404 42.6018
26.67669439061878 42.743
26.699576291163382 42.7222
26.722459276044212 42.6584
26.745522132402975 42.2416
26.768407297649354 41.9185
26.791293550442003 41.5821
26.814180891848974 41.402
26.837248143099337 41.1548
26.860137673466657 40.9107
26.88302829566349 40.6394
26.90592001075963 40.6198
26.92899167420566 40.3702
26.951885586870763 39.9674
26.974780595655517 39.8255
26.99785558178161 39.7703
27.020752794605112 39.5381
27.043651106772522 39.3078
27.06655051935668 39.275
27.089629948036183 39.0946
27.112531573292053 39.1259
27.135434302194138 39.2395
27.158338135817015 38.8858
27.181422024430987 38.8947
27.204328079372566 38.9553
27.22723524226965 39.0879
27.250143514198573 39.0754
27.273231880156334 39.0244
27.296142382065014 38.9108
27.319053996245536 38.8837
27.341966723775965 38.8053
27.365059584515222 38.905
27.38797455070062 38.9286
27.410890633481237 38.8979
27.433807833936918 38.9576
27.456905206923906 38.9133
27.47982465472398 38.9009
27.502745223449743 39.0453
27.525666914182825 39.0388
27.548768816912457 39.0148
27.571692763693633 38.8903
27.59461783573812 38.7856
27.617723149491244 38.7313
27.640650484125285 38.7332
27.66357894728264 38.5979
27.686508540048052 38.5002
27.709618414237887 38.4978
27.732550278321757 38.2366
27.755483275279115 38.2454
27.778417406196485 38.1623
27.801531858397514 38.1958
27.824468269376716 38.3166
27.847405817586786 38.1665
27.870344504116094 38.4802
27.893463551932008 38.5449
27.916404527281053 38.6754
27.93934664422563 38.6491
27.962289903855886 38.8106
27.98541356491974 38.8981
28.00835912214229 39.1899
28.03130582533231 39.3957
28.054253675581805 39.4448
28.077381967556104 39.4411
28.100332124185126 39.4677
28.123283431160893 39.4268
28.146235889577238 39.334
28.169368830154156 39.1989
28.192323603752033 39.0556
28.215279532083304 38.6339
28.238415973016764 38.4924
28.261374223145094 38.385999999999996
28.284333631303806 38.2548
28.307294198589954 38.0941
28.330435319167677 37.6416
28.353398217078915 37.4945
28.376362277420153 37.1889
28.39932750129032 37.0471
28.422473319286713 36.8187
28.44544088262495 36.830999999999996
28.468409612800283 36.7494
28.491379510913497 36.4897
28.51453004413313 36.4151
28.53750229057244 36.3841
28.56047570826344 36.2889
28.583450298308804 36.31
28.606605564586562 36.1009
28.629582511831156 36.1707
28.65256063474956 35.9679
28.675539934446338 35.9735
28.698699951647605 36.028
28.72168161743193 35.8949
28.74466446331978 35.8571
28.767648490417624 35.825
28.790813276438353 35.8085
28.813799678527303 35.7906
28.836787265157085 35.8074
28.859955641890075 35.8479
28.882945610203045 35.9154
28.905936766392035 35.7156
28.928929111566863 35.7811
28.952102288520145 35.6204
28.975097024308607 35.597
28.998092952423807 35.4797
29.021090073977508 35.3251
29.04426806913204 35.2463
29.067267590245258 35.1651
29.090268308143695 35.0434
29.11327022394099 35.0267
29.13645305530891 34.8664
29.159457379627167 34.8529
29.18246290519685 34.7568
29.20546963313352 34.7692
29.22865731875826 34.768
29.25166646419296 34.6901
29.27467681535305 34.5814
29.29768837335608 34.7027
29.320880931312562 34.6156
29.34389491580634 34.5729
29.366910110507334 34.5679
29.38992651653503 34.5311
29.41312396492981 34.5937
29.436142806456754 34.5159
29.45916286268059 34.4112
29.48236399319994 34.3614
29.50538649169417 34.2863
29.528410208259935 34.1569
29.55143514402014 33.8986
29.574641196749695 33.8118
29.597668583816574 33.7837
29.6206971934585 33.5382
29.64372702680042 33.5989
29.666938019934474 33.5208
29.689970313635285 33.4579
29.713003834422636 33.3381
29.73603858342347 33.3888
29.759254535188578 33.1744
29.78229175361658 33.1923
29.80533020365064 33.3361
29.82836988641968 33.3137
29.85159081507472 33.188
29.874632976355343 33.1039
29.89767637376955 33.1082
29.920721008448314 32.9568
29.9439469322847 33.0561
29.96699405457564 33.0396
29.9900424175358 33.0439
30.013092022298157 32.9666
30.03632295963995 32.8186
30.059375061131373 32.9557
30.08242840783577 32.9127
30.105483000888153 32.941
30.128718970092244 32.8423
30.151776069006917 32.6693
30.17483441768648 32.87
30.198074175317235 32.8874
30.221135036724256 32.8761
30.24419715131772 32.7401
30.267260520236203 32.6533
30.290505341942243 32.6158
30.313571232750228 32.7832
30.336638381310948 32.7487
30.35970678876503 32.6884
30.38295669299435 32.6372
30.40602763151657 32.4821
30.429099832366074 32.4994
30.452173296685572 32.448
30.47542830191959 32.3817
30.498504306502497 32.3266
30.521581577995562 32.4518
30.544660117543582 32.5948
30.56792024229725 32.4974
30.59100133132069 32.5069
30.614083691845494 32.5447
30.637167325018545 32.4869
30.660432587840603 32.5809
30.683518779717886 32.555
30.70660624769615 32.5487
30.729694992924372 32.5683
30.75296541239743 32.5976
30.77605672557558 32.5093
30.799149319462742 32.5115
30.8224236211637 32.3737
30.845518789950724 32.2392
30.868615242910597 32.2166
30.891712981195973 31.9167
30.91499247215866 31.9657
30.938092794619365 31.9951
30.96119440587579 31.878
30.984297307082752 31.7303
31.00758200598383 31.7026
31.030687500658694 31.6146
31.053794288760695 31.5333
31.076902371446767 31.4493
31.100192296997445 31.4552
31.12330298246119 31.3705
31.14641496599209 31.3662
31.169528248749216 31.3666
31.19282341969534 31.3108
31.215939314557186 31.3014
31.239056512134788 31.2974
31.262175013589378 31.3392
31.28547544871168 31.1932
31.30859657161541 31.1648
31.331719001892175 31.2693
31.35484274070538 31.2707
31.378148458819545 31.3247
31.401274828443725 31.2466
31.424402510106933 31.1925
31.447712205419993 31.3047
31.470842524931633 31.2225
31.493974159989783 31.1783
31.51710711176168 31.1521
31.54042212308802 31.1494
31.563557722100917 31.0848
31.586694641341655 30.9481
31.609832881979628 30.9637
31.63315322823208 30.9055
31.656294125521327 30.7111
31.679436347728515 30.6583
31.70257989602529 30.6614
31.725905596152327 30.5333
31.74905181052835 30.4031
31.772199354521323 30.5603
31.79534822930507 30.5073
31.818679302290967 30.5662
31.84183085259981 30.5363
31.864983737233473 30.4882
31.88813795736804 30.4946
31.911474422233013 30.3305
31.934631327356435 30.429000000000002
31.9577895715215 30.3647
31.980949155906522 30.3216
32.004291031706956 30.3061
32.027453310562606 30.2862
32.05061693318573 30.2155
32.07396288236386 30.1909
32.09712920658542 30.1524
32.12029687812702 30.0265
32.14346589817093 29.9004
32.166817291729984 29.8426
32.18998902288583 29.9024
32.21316210610336 29.8283
32.23633654256711 29.7003
32.259693399663725 29.6082
32.282870556771144 29.4123
32.30604907069099 29.4342
32.329228942610065 29.397
32.35259128243769 29.3195
32.375773884550505 29.2549
32.398957848235646 29.2774
32.422143174682176 29.229
32.445511016471215 29.1798
32.468699082679954 29.0766
32.49188851523011 29.02
32.51507931531304 28.965
32.538452678331 28.9099
32.56164622776311 28.938000000000002
32.58484114831493 28.7904
32.60803744118015 28.8529
32.631416344731896 28.8856
32.654615396551876 28.8305
32.67781582427913 28.7779
32.701198898634416 28.6766
32.72440209253756 28.6195
32.747606665947124 28.6776
32.77081262006088 28.5412
32.79420126883317 28.4586
32.81740999876112 28.5375
32.840620112999424 28.3887
32.86383161274818 28.3517
32.88722585534586 28.4136
32.91044014056596 28.3103
32.933655814909734 28.3519
32.95687287957963 28.4026
32.98027273544904 28.3029
33.00349259526636 28.1559
33.026713849030116 28.1918
33.04993649794511 28.2719
33.073341986570746 28.1593
33.09656744032826 28.1339
33.11979429286444 28.0877
33.14302254538647 28.0999
33.166433686291185 28.0046
33.18966475336992 28.0463
33.212897224069096 27.8993
33.23613109959831 27.9128
33.259547912343415 27.8375
33.2827846121627 27.9163
33.306022720453775 27.7917
33.32926223842861 27.7172
33.352684742614166 27.7634
33.37592709463173 27.656
33.399170859982064 27.6028
33.422597648419426 27.6263
33.44584425514446 27.5379
33.46909227885668 27.4757
33.4923417207723 27.3298
33.51577423505344 27.361
33.539026528130385 27.2346
33.56228024307245 27.1928
33.585535381098246 27.0576
33.60897364093058 27.0434
33.63223163992385 27.0522
33.6554910656699 27.0225
33.678751919389796 26.9507
33.702195944520106 26.8668
33.72545966903325 26.9103
33.74872482519663 26.8502
33.771991414233746 26.8329
33.79544122444841 26.8336
33.81871069412428 26.7108
33.84198160035767 26.6546
33.86525394437455 26.7389
33.88870955949969 26.6674
33.911984794020626 26.622
33.93526147001624 26.6234
33.958539588715006 26.4657
33.98200102861669 26.456
34.0052820477047 26.4495
34.02856451319451 26.4398
34.05203033759056 26.3563
34.07531571090147 26.3203
34.09860253431845 26.2576
34.121890809074316 26.2752
34.145362493118924 26.1834
34.16865368561615 26.1705
34.191946333164054 26.0988
34.21524043699793 26.0836
34.23871800066799 25.998
34.26201503218366 25.92
34.28531352370466 25.9195
34.30861347646881 25.8085
34.33209693978188 25.8513
34.3553998301885 25.8255
34.378704185565205 25.7426
34.402010007152356 25.7301
34.42549939016683 25.8247
34.44880815937748 25.6614
34.472118398533134 25.58
34.49543010887669 25.5209
34.51892543169198 25.5086
34.54224009966052 25.5159
34.56555624255917 25.4226
34.58887386163339 25.3172
34.61237514439016 25.3645
34.6356957311114 25.319000000000003
34.65901779775809 25.2486
34.68252356662995 25.2229
34.705848608458616 25.2114
34.72917513396849 25.1545
34.75250314440949 25.1211
34.77601490857862 25.0057
34.799345904259795 24.9327
34.82267838863559 24.9891
34.846012362958525 25.0819
34.869530142679984 24.9652
34.89286711232212 24.9292
34.91620557568269 24.8643
34.93954553401677 24.8279
34.9630693495876 24.713
34.986412313340814 24.7816
35.00975677584668 24.7549
35.033102738362956 24.6441
35.05663261012228 24.6347
35.0799815881786 24.5628
35.10333207003229 24.5651
35.12668405694369 24.5602
35.150220005273056 24.5522
35.17357501786656 24.4542
35.19693153931268 24.4429
35.220289570874385 24.4677
35.24383161619786 24.4763
35.267192683604904 24.4771
35.290555264930376 24.3194
35.314101899412165 24.3001
35.33746752422433 24.4059
35.36083466676374 24.3372
35.38420332829803 24.2513
35.407756095629054 24.2471
35.43112781085063 24.1712
35.45450104888391 24.2174
35.477875810999194 24.1762
35.50143473172161 24.1251
35.52481255774625 24.1749
35.54819191167777 24.0702
35.57157279478914 24.0427
35.595137889488406 24.0879
35.61852184675279 24.018
35.641907337029984 23.9444
35.665294361595684 23.8952
35.68886565090076 23.8478
35.7122557598848 23.7808
35.73564740699838 23.7829
35.759040593519934 23.708000000000002
35.78261809810353 23.8114
35.80601437933051 23.6294
35.829412203814705 23.6388
35.85281157283719 23.5065
35.876395313415884 23.5736
35.8997977874528 23.4531
35.92320180988546 23.3833
35.946790244133936 23.3567
35.97019737933222 23.3562
35.993606066789866 23.3724
36.01701630779276 23.3301
36.04061101440684 23.2753
36.06402437852291 23.2965
36.08743930005611 23.1992
36.1108557802951 23.177
36.13445678011326 23.2012
36.15787639383515 23.0987
36.18129757014299 23.0382
36.20472031032821 23.1169
36.22832762423364 23.0235
36.25175350829375 22.9724
36.275180960119776 22.9243
36.298609981005924 22.9701
36.32222362992669 22.9699
36.34565580510207 22.9052
36.36908955323448 22.8506
36.39252487562093 22.725
36.416144880530226 22.7684
36.43958336764275 22.7193
36.463023432914625 22.7284
36.486465077645676 22.6657
36.51009145956204 22.6922
36.53353627947859 22.6083
36.55698268276811 22.7032
36.58043067073321 22.6025
36.60406345072071 22.4473
36.62751462435344 22.4475
36.65096738658405 22.4429
36.67460498210655 22.3523
36.69806093788647 22.3682
36.72151848619297 22.2992
36.744977628333636 22.3614
36.76862165890998 22.2838
36.79208400512205 22.271
36.81554794910557 22.2356
36.83901349217101 22.1206
36.862663978991606 22.0432
36.88613273667352 22.0857
36.90960309738324 22.0113
36.933075062434064 22.0017
36.95673202673572 21.954
36.98020721697122 21.9339
37.003684015502365 21.8882
37.027162423645365 21.828000000000003
37.050825886711465 21.8478
37.07430753063053 21.7327
37.09779078812467 21.7094
37.121275660513014 21.7414
37.144945643673694 21.6545
37.16843376245278 21.6896
37.19192350009803 21.6088
37.215414857931435 21.5722
37.239091382563885 21.5415
37.262585997426164 21.4673
37.28608223645736 21.5056
37.309763684451696 21.4663
37.33326318851098 21.4537
37.356764320726555 21.4411
37.380267082425526 21.3819
37.40395510942588 21.3632
37.42746114683234 21.2914
37.45096881771841 21.2853
37.474478123414166 21.2449
37.49817275092816 21.2127
37.52168534303452 21.2315
37.54519957395567 21.0621
37.568715445024665 21.0527
37.592416694607714 21.0403
37.61593586281424 21.1205
37.63945667518264 21.0712
37.66297913304891 20.9679
37.68668702630454 20.9025
37.710212792059274 20.8306
37.733740207334854 20.8637
37.757269273470364 20.79
37.780983832050374 20.7434
37.80451621684926 20.7363
37.82805025654007 20.6999
37.851585952464795 20.7129
37.8753071980695 20.6437
37.89884622345676 20.6338
37.92238690911902 20.6186
37.94611318753442 20.5697
37.969657210779765 20.5255
37.99320289834801 20.4864
38.016750251586465 20.469
38.04048325513017 20.4526
38.06403395679343 20.435
38.087586328183946 20.4288
38.11114037065203 20.29
38.13488012115898 20.3395
38.1584375229181 20.3076
38.181996599821 20.24
38.205557353221124 20.1739
38.229303872575656 20.1214
38.2528679961576 20.2135
38.27643380031219 20.0913
38.30000128639589 20.0798
38.32375459653193 20.1028
38.34732546371299 20.0301
38.37089801690786 19.9825
38.39447225747609 19.9397
38.418232380377425 19.9178
38.441810012983396 19.8693
38.46538933705673 19.7873
38.488970353960084 19.8121
38.51273731166058 19.7612
38.536321731567014 19.7518
38.55990784840681 19.6964
38.58367995004091 19.6842
38.60726947812959 19.6312
38.63086070726198 19.6058
38.654453638806274 19.707
38.678232613930824 19.5505
38.70182896773327 19.5128
38.72542702806741 19.5216
38.7490267963045 19.4562
38.77281266709232 19.4642
38.79641586862214 19.4647
38.8200207821842 19.3055
38.843627409152944 19.3352
38.86742019782782 19.3828
38.891030269149255 19.2752
38.914642058016156 19.303
38.938255565806124 19.2446
38.96205529464307 19.2045
38.98567225787121 19.1561
39.00929094417078 19.1463
39.03291135492255 19.1283
39.05671804624804 19.0756
39.080341923549106 19.0878
39.103967529460334 19.095
39.127594865365744 18.9874
39.15140854155791 18.8793
39.17503935514948 18.8925
39.19867190290282 18.8754
39.22249083587951 18.8634
39.24612686969409 18.8414
39.269764641845306 18.8667
39.293404153722804 18.7679
39.317230110864074 18.7242
39.34087311998506 18.6974
39.36451787301696 18.6822
39.388164371352595 18.6515
39.41199737518003 18.6724
39.43564738196752 18.5511
39.45929913825317 18.5327
39.48295264543308 18.5603
39.506792718520884 18.4925
39.530449745387216 18.4423
39.55410852735203 18.4459
39.57776906581474 18.4473
39.60161623079 18.3965
39.625280300200025 18.3596
39.64894613032202 18.322
39.67261372255866 18.3651
39.6964680021016 18.3647
39.72013913657293 18.322
39.74381203738292 18.2187
39.76748670593756 18.2171
39.79134812278169 18.1639
39.81502634488497 18.1597
39.83870633896685 18.0992
39.862388106436654 18.0881
39.88625668336918 18.0822
39.90994201572829 18.0678
39.933629125719285 18.0102
39.957503091207826 17.9655
39.9811937746168 17.9682
40.00488623990914 17.9594
40.02858048850006 17.8964
40.05246165409549 17.879
40.076159487492085 17.7891
40.099859108448875 17.7969
40.123560518384345 17.7555
40.1474489070226 17.7716
40.171153913178564 17.6996
40.194860712584955 17.7193
40.2185693066637 17.7401
40.242464941335314 17.5802
40.26617714307655 17.5673
40.289891143772046 17.5469
40.3136069448471 17.5459
40.33750984859743 17.5182
40.3612292688043 17.4696
40.3849504936829 17.4074
40.40867352466194 17.4458
40.43258372059144 17.3817
40.45631038219906 17.4286
40.48003885420956 17.3975
40.503769138055105 17.3929
40.52768664931955 17.3226
40.55142057531802 17.2856
40.57515631746428 17.2124
40.599079334038514 17.1784
40.62281872700477 17.141
40.64655994043941 17.1541
40.67030297578061 17.1573
40.69423334835778 17.1106
40.71798004609188 17.1099
40.74172857006355 17.0481
40.76547892171441 16.9787
40.7894166736039 16.9633
40.813170699248566 16.9553
40.83692655691388 16.9066
40.86068424804498 16.9616
40.884629402612525 16.8988
40.908390779366385 16.8898
40.932153993938 16.8113
40.95591904777605 16.811
40.979871628443995 16.8578
41.003640379561936 16.7962
41.02741097430883 16.7316
41.05118341413683 16.7118
41.075143444384416 16.6836
41.098919593177826 16.7406
41.1226975914255 16.652
41.14647744058318 16.5416
41.170444943946755 16.5769
41.19422851378379 16.581
41.218013938914645 16.4619
41.24198706625173 16.4736
41.26577622087193 16.415
41.289567235177785 16.4242
41.31336011063129 16.4347
41.337340752422875 16.3889
41.361137369129835 16.3723
41.38493585138705 16.3075
41.40873620066004 16.2732
41.43272438060107 16.1964
41.45652848292052 16.2368
41.48033445666918 16.224
41.50414230331616 16.1815
41.528138045159764 16.1415
41.551949656675205 16.1087
41.575763145513235 16.0939
41.59957851314666 16.1041
41.62358184070442 16.0195
41.64740098505737 16.0698
41.6712220126409 16.039
41.69504492493139 15.9656
41.71905586207357 15.9008
41.74288256296395 15.9223
41.766711153007456 15.8892
41.79054163368412 15.8571
41.814560204340054 15.8821
41.838394485526365 15.87
41.86223066180303 15.7844
41.88625497706819 15.7094
41.910094962812 15.749
41.93393684811168 15.7508
41.95778063445365 15.6541
41.981812625263366 15.6436
42.00566023303407 15.5889
42.029509746323676 15.607999999999999
42.05336116662236 15.5542
42.077400857069705 15.5183
42.10125611078846 15.5685
42.12511327600405 15.4558
42.14897235421036 15.444
42.173019768448455 15.4419
42.19688269209613 15.4175
42.22074753323349 15.4353
42.24461429335818 15.3841
42.268669455600495 15.3677
42.292540073217886 15.3054
42.31641261433284 15.2884
42.34028708044675 15.2656
42.36435001496739 15.2055
42.38822835065557 15.1872
42.41210861586426 15.2121
42.4359908120986 15.1953
42.46006154323262 15.1415
42.48394762115317 15.0855
42.507835634632315 15.0874
42.531912233047436 15.0684
42.55580413732265 15.0497
42.579697981698 15.0055
42.60359376768525 14.9706
42.62767820545945 14.9231
42.65157789440821 14.9839
42.67547952952185 15.0111
42.699383112316 14.9235
42.72347541395347 14.8271
42.74738291190531 14.7951
42.771292362102166 14.812999999999999
42.795203766063516 14.7229
42.819303956130405 14.7442
42.843219287476536 14.7548
42.86713657716324 14.7385
42.89105582671383 14.7204
42.91516392983864 14.7197
42.939087119032166 14.6608
42.963012272677304 14.6379
42.98693939230129 14.6043
43.01105543317513 14.5149
43.034986504731386 14.5628
43.05891954686589 14.5055
43.08285456110972 14.4634
43.10697856448665 14.4114
43.130917542983475 14.4113
43.15485849820081 14.4235
43.17880143167367 14.3999
43.20293342237094 14.3384
43.226880332449 14.2963
43.25082922540554 14.3067
43.27496722682525 14.2799
43.29892010567796 14.2524
43.32287497204102 14.2114
43.34683182745632 14.2012
43.370977859791836 14.1741
43.39493871351105 14.1609
43.41890156092628 14.2031
43.44286640358341 14.1062
43.46702049182749 14.1059
43.49098934522816 14.040999999999999
43.51496019852649 14.0433
43.5389330532723 14.0221
43.56309522248204 13.9901
43.58707210044314 13.9841
43.61105098451946 13.9258
43.63503187626491 13.9006
43.659202151562134 13.8859
43.68318707902681 13.8691
43.70717401884041 13.8442
43.731162972560874 13.8385
43.75534137913236 13.808
43.779334381108384 13.7884
43.803329401683186 13.7196
43.82732644241872 13.7533
43.8515130055166 13.7368
43.87551410707659 13.6963
43.89951723350145 13.7114
43.923709934595614 13.6757
43.94771713129917 13.6449
43.97172635758096 13.5753
43.99573761501002 13.5718
44.0199385169922 13.561
44.04395385732619 13.5293
44.067971233533086 13.5389
44.09199064718605 13.5319
44.11619977548961 13.4477
44.14022328470671 13.4028
44.16424883610785 13.446
44.18827643127035 13.4213
44.21249381139513 13.3816
44.236525514814076 13.3104
44.26055926674478 13.3027
44.28459506876863 13.3054
44.3088207262813 13.2476
44.33286064928722 13.2086
44.35690262714919 13.1791
44.38094666145278 13.2039
44.4051806219871 13.1321
44.42922879003185 13.1511
44.45327901929361 13.0822
44.477331311362136 13.1106
44.501573600619416 13.0365
44.525630039221795 13.0416
44.54968854541895 13.0244
44.573937102200176 12.9525
44.5979997645541 13.0185
44.622064499300315 12.9945
44.64613130803592 12.9697
44.67038823869318 12.9777
44.69445921643748 12.9223
44.718532272981385 12.8402
44.742607409926194 12.8911
44.76687274034801 12.8033
44.79095205918753 12.7604
44.81503346325094 12.7855
44.839116954143876 12.7496
44.86339071028742 12.7624
44.88747839599524 12.705
44.91156817336837 12.6608
44.93566004401666 12.668
44.959942251908146 12.6713
44.984038330325966 12.6215
45.00813650686762 12.6155
45.03223678314731 12.5695
45.05652746888232 12.550999999999998
45.08063196592069 12.5174
45.104738567558705 12.4802
45.128847275414856 12.4766
45.15314646515866 12.4182
45.17725940679741 12.439
45.20137445952892 12.3611
45.22568004865265 12.4425
45.24979934496396 12.3996
45.27392075725247 12.3442
45.29804428714431 12.332
45.322358426247604 12.3175
45.346486212804315 12.2923
45.370616121861914 12.2754
45.39474815505086 12.2429
45.41907087049246 12.2019
45.4432071734666 12.2196
45.46734560548283 12.1976
45.49148616817604 12.1802
45.51581748638564 12.1646
45.5399623320197 12.1223
45.56410931325473 12.0909
45.58825843173002 12.136
45.61259837920865 12.089
45.636751793816 12.0122
45.66090735060093 11.9586
45.68506505120716 11.9615
45.7094136545275 11.9382
45.73357566449271 11.9038
45.75773982322992 11.925
45.78190613238733 11.9572
45.806263418194064 11.86
45.83043404997326 11.8908
45.85460683713677 11.8863
45.87897065658495 11.8516
45.90314777634752 11.8386
45.92732705646868 11.8221
45.9515084986045 11.737
45.97588104735473 11.7427
46.00006683541565 11.7005
46.02425479047904 11.6467
46.04844491420549 11.6578
46.0728262191024 11.6868
46.09702070211635 11.6298
46.12121735879483 11.6007
46.14541619080294 11.5962
46.169806278764455 11.5814
46.194009483459034 11.494000000000002
46.21821486849841 11.4964
46.24242243555223 11.5024
46.266821333570014 11.4721
46.29103328674601 11.4385
46.31524742696538 11.4341
46.33946375590237 11.3933
46.36387149104216 11.4196
46.38809221957392 11.3647
46.41231514186606 11.362
46.436540259597464 11.3578
46.460956858999374 11.3127
46.48518638983522 11.3121
46.509418121166966 11.277999999999999
46.533652054678114 11.2381
46.55807754555709 11.232999999999999
46.58231590571962 11.2331
46.60655647313217 11.1682
46.630988654873654 11.1341
46.655233659129024 11.1085
46.67948087571551 11.1166
46.70373030632484 11.1558
46.72817142736393 11.1346
46.752425308428684 11.0859
46.77668140861147 11.0619
46.80093972960865 11.0037
46.82538981736788 10.9746
46.849652602470904 11.0029
46.87391761349769 10.9679
46.8981848521493 10.944
46.9226439341274 10.9116
46.946915650573224 10.9077
46.97118959976749 10.887
46.99546578341598 10.833
47.019933887188216 10.8641
47.04421456235744 10.8554
47.06849747711879 10.8281
47.09278263318286 10.7642
47.11725978640143 10.7444
47.14154944775105 10.7528
47.165841355555656 10.734000000000002
47.1901355115306 10.7111
47.214621741924994 10.7184
47.23892041698887 10.6619
47.26322134538975 10.6383
47.28771440635075 10.5926
47.31201986422527 10.5904
47.33632758061436 10.5694
47.360637557241866 10.5815
47.38513974410611 10.5887
47.40945426407847 10.5135
47.43377104948137 10.4942
47.45809010204344 10.4837
47.48260144275502 10.4859
47.506925052572285 10.4776
47.53125093475548 10.4154
47.55557909103813 10.4043
47.58009961361992 10.4184
47.60443234110732 10.3581
47.62876734791564 10.3361
47.65310463578333 10.3354
47.6776343683373 10.335
47.7019762413987 10.3037
47.72632040075572 10.2366
47.75066684815169 10.2895
47.77520581885936 10.2464
47.799556865477655 10.2061
47.823910205386 10.1895
47.84826584033272 10.2074
47.87281407745551 10.1712
47.89717432569297 10.1838
47.92153687423484 10.1221
47.94609208429692 10.0979
47.97045925671401 10.0834
47.99482873471275 10.0274
48.01920052005013 10.0565
48.04376504619224 10.0525
48.068141469543484 10.0421
48.09252020552573 10.0349
48.11690125590099 9.96287
48.1414751266064 9.98364
48.16586082917454 9.97695
48.19024885144316 9.94422
48.2146391951793 9.89232
48.239222439012764 9.92165
48.26361744916137 9.896939999999999
48.28801478610016 9.89679
48.31241445160131 9.83511
48.337007097209366 9.8236
48.36141144338331 9.82854
48.38581812345755 9.74279
48.41022713920929 9.796330000000001
48.434829215320704 9.76854
48.45924292604658 9.77298
48.48365897780325 9.74292
48.50807737237308 9.71085
48.532688907799276 9.699110000000001
48.55711201168574 9.66581
48.581537463754074 9.63647
48.60615611725119 9.66555
48.63058628942721 9.6206
48.65501881516546 9.627419999999999
48.6794536962573 9.60372
48.70408185970339 9.55
48.72852147531801 9.50592
48.75296345168211 9.51485
48.77740779059232 9.53369
48.80204549302823 9.51873
48.82649458091802 9.5121
48.85094603676547 9.48121
48.87539986237231 9.48091
48.90004713292306 9.45498
48.92450572200832 9.414819999999999
48.94896668628025 9.403780000000001
48.97343002754588 9.376660000000001
48.99808689542115 9.37021
49.02255501470614 9.35484
49.04702551642794 9.31593
49.0714984023988 9.29751
49.096164896893235 9.3142
49.120642575466796 9.29383
49.145122643748394 9.257819999999999
49.16960510355558 9.22537
49.19428125404938 9.21739
49.2187685210852 9.19278
49.243258185121555 9.186160000000001
49.26794160167084 9.14518
49.2924360839405 9.13509
49.31693296869764 9.13574
49.34143225776915 9.05649
49.36612538195438 9.10881
49.39062950396021 9.076789999999999
49.41513603578346 9.05697
49.4396449792564 9.03249
49.46434784069503 9.036489999999999
49.488861631846454 8.986369999999999
49.513377840166804 9.02125
49.537896467493745 8.9738
49.56260909589029 8.944460000000001
49.587132585683285 8.94822
49.611658500018365 8.911489999999999
49.636186840738596 8.89808
49.66090926588511 8.922830000000001
49.685442483902584 8.86572
49.70997813385706 8.83437
49.734516217597076 8.8224
49.75924846937352 8.834810000000001
49.7837914452858 8.78996
49.80833686055187 8.72743
49.83288471702571 8.760639999999999
49.85762682540054 8.7705
49.882179588965734 8.71413
49.9067347993235 8.694280000000001
49.93129245833333 8.71606
49.95604445336378 8.67357
49.98060703442832 8.64363
50.005172069746266 8.65696
50.02993150438364 8.63358
50.05450147301533 8.663219999999999
50.07907390151433 8.6265
50.10364879174981 8.5797
50.12841816587289 8.557139999999999
50.1529980044635 8.5623
50.17758031042124 8.560189999999999
50.20216508562089 8.49264
50.22694442953363 8.49092
50.25153416817468 8.4637
50.27612638170508 8.44472
50.300721072005196 8.41693
50.325510416102105 8.41531
50.350110084975064 8.390369999999999
50.37471223628208 8.41666
50.39931687190919 8.34225
50.424116246675766 8.36706
50.44872587605249 8.35718
50.47333799543065 8.319939999999999
50.49795260670191 8.303889999999999
50.52276204271512 8.30705
50.54738166295838 8.31141
50.57200378079314 8.259910000000001
50.596628398116835 8.23862
50.62144792604559 8.25484
50.646077567609396 8.23167
50.670709714377715 8.22062
50.69553683636198 8.21048
50.72017401885922 8.15437
50.7448137122895 8.18379
50.76945591856022 8.14409
50.79429318636823 8.11138
50.818940443716784 8.13229
50.84359021965163 8.08356
50.868242516085964 8.079089999999999
50.893089960641895 8.05043
50.917747323549435 8.008469999999999
50.94240721271973 8.03652
50.96706963007175 7.990189999999999
50.99192728239342 8.00287
51.01659478166073 8.01198
51.04126481489051 7.9881
51.06593738400761 7.939030000000001
51.090805275207074 7.91299
51.11548294172845 7.911389999999999
51.14016314993547 7.93164
51.164845901758845 7.91783
51.18972406304274 7.89812
51.21441192780656 7.86912
51.23910234200271 7.85452
51.2637953075678 7.851089999999999
51.288683770237945 7.836239999999999
51.31338186432707 7.7756
51.33808251561888 7.7748800000000005
51.362978729967345 7.7706800000000005
51.387684521509755 7.763560000000001
51.41239287610203 7.734310000000001
51.437103795691165 7.72065
51.46201036644977 7.67611
51.486726441956634 7.67138
51.51144508832545 7.6921100000000004
51.536166307509156 7.6425
51.56108326624387 7.63312
51.58580965706056 7.617000000000001
51.61053862657523 7.612939999999999
51.635270176746864 7.5776699999999995
51.66019755512065 7.59749
51.68493429268881 7.555210000000001
51.70967361681515 7.523639999999999
51.73441552946465 7.49183
51.759353359237934 7.50529
51.7841004750961 7.49832
51.80885018539685 7.4970300000000005
51.833602492111254 7.432360000000001
51.8585508051424 7.427630000000001
51.883308330926425 7.4454899999999995
51.90806845906181 7.390389999999999
51.932831191525715 7.36705
51.95779001977161 7.4048
51.98255798721516 7.378660000000001
52.00732856494335 7.338839999999999
52.03229530577543 7.33973
52.057071130455945 7.339589999999999
52.081849571391054 7.329860000000001
52.106630630568695 7.28677
52.13160794279417 7.23528
52.15639426492067 7.272810000000001
52.18118321127822 7.2677
52.205974783860896 7.2239
52.23096269971011 7.25172
52.255759551287994 7.20107
52.280559035098186 7.21776
52.30536115314103 7.179239999999999
52.33035970494467 7.186160000000001
52.35516711807904 7.148960000000001
52.37997717147198 7.14808
52.40478986713005 7.1124600000000004
52.42979908731974 7.09582
52.454617094216 7.057239999999999
52.47943774942214 7.063269999999999
52.50426105495102 7.07545
52.529280976059844 7.03415
52.554109609024096 7.03653
52.57894089837482 7.001180000000001
52.60377484613117 7.0044
52.62880550079408 6.9841
52.65364479223379 6.97697
52.67848674816189 6.9205
52.70352547971946 6.94918
52.72837279155837 6.929130000000001
52.753222773982785 6.8910100000000005
52.778075429022984 6.92139
52.80312495150885 6.8791899999999995
52.827982978797436 6.909860000000001
52.85284368481815 6.84006
52.87770707160767 6.805630000000001
52.90276741793998 6.8485
52.92763619336701 6.8023
52.952507655698504 6.777260000000001
52.977381806977576 6.7774
53.00245301017842 6.777989999999999
53.02733256653592 6.74596
53.052214817996074 6.74856
53.077099766608484 6.736219999999999
53.102181859804446 6.73473
53.127072229988265 6.76168
53.15196530349892 6.72852
53.17686108239249 6.67733
53.20195409881522 6.6638399999999995
53.22685531582556 6.66949
53.25175924441303 6.6243
53.27666588664027 6.6017399999999995
53.30176985962693 6.56796
53.3266819565689 6.575989999999999
53.35159677336455 6.56303
53.376514312083096 6.57575
53.40162927507703 6.563210000000001
53.42655228516116 6.50995
53.45147802340193 6.52769
53.47660125628886 6.4983
53.50153247842639 6.5292
53.52646643496923 6.44349
53.55140312799818 6.46099
53.576537409691696 6.43863
53.60147960336152 6.38385
53.626424539786164 6.41234
53.65137222105307 6.40045
53.67651758529126 6.40814
53.70147078399681 6.35533
53.72642673383343 6.35029
53.75138543689533 6.33286
53.776541917524526 6.31794
53.801506154876755 6.3007800000000005
53.826473151763246 6.30351
53.851442910284916 6.2997
53.87661054126026 6.2755
53.9015858509782 6.2676099999999995
53.92656392866066 6.252269999999999
53.95154477641532 6.2679
53.976723591801296 6.22281
54.00171000771266 6.18772
54.02669920004598 6.22083
54.051691170915745 6.166580000000001
54.076881204886796 6.16984
54.101878760928514 6.15024
54.12687910187696 6.121919999999999
54.152077577768296 6.10951
54.1770835166946 6.1155800000000005
54.20209224691339 6.11625
54.22710377055121 6.08296
54.25231352511594 6.04639
54.27733066384342 6.03602
54.30235060239643 6.03236
54.32737334290836 6.01968
54.35259441062629 5.96066
54.377622783395324 5.96274
54.40265396455061 6.003080000000001
54.42768795623251 5.9473
54.45292037169559 5.92392
54.477960012857906 5.9401
54.50300247099511 5.88898
54.52804774825457 5.82229
54.55329154616743 5.80561
54.57834249018678 5.83857
54.6033962597977 5.8264
54.6284528571545 5.80095
54.653708072335164 5.74995
54.67877035378786 5.72647
54.70383546947698 5.759519999999999
54.72890342156389 5.75766
54.7541700889442 5.7028099999999995
54.77924374251975 5.6662
54.8043202390049 5.64675
54.82959552413022 5.63404
54.8546777351945 5.63481
54.87976279569621 5.59926
54.90485070780914 5.6115
54.930137506558005 5.54854
54.95523115074295 5.56367
54.98032765308844 5.58668
55.005427015775496 5.54289
55.03072536339621 5.50863
55.05583047570572 5.46539
55.080938454927676 5.4195199999999994
55.10604930325027 5.431780000000001
55.131359235107396 5.4383099999999995
55.15647585066083 5.31352
55.181595341907496 5.325880000000001
55.20671771104285 5.29734
55.232039262617704 5.28629
55.25716741665048 5.26811
55.28229845518636 5.22841
55.30743238042802 5.23608
55.33276558731939 5.212969999999999
55.357905315183636 5.21598
55.383047936390035 5.18395
55.40819345314859 5.13774
55.433538351073295 5.1432199999999995
55.458689688238415 5.11219
55.483843927614096 5.06712
55.509197623043605 5.07235
55.53435769621134 5.07
55.55952067826466 5.0669
55.5846865714265 4.96855
55.61005202069737 5.00841
55.63522376553902 4.9754
55.66039842818645 4.89904
55.68557601087004 4.91539
55.7109532500271 4.83405
55.73613670233794 4.91119
