TT I
1.2716486653135266 8.02351
1.2939594142134223 7.8875399999999996
1.3162702121660406 6.89225
1.3385810600174564 6.50596
1.3608919586137629 6.73252
1.383202908801069 6.88057
1.405513911425503 5.620480000000001
1.4278249673332093 6.5532
1.4501343378461518 6.31643
1.4724455028545926 6.38606
1.4947567236847858 6.9081
1.517068001182951 6.699269999999999
1.5393793361953272 6.284009999999999
1.5616907295681737 5.93595
1.5840021821477681 5.70447
1.60631369478041 5.8758
1.6286252683124185 5.42209
1.6509369035901333 5.69803
1.6732468618895553 5.58097
1.695558623192809 5.02485
1.7178704487808514 5.38174
1.7401823395001077 5.32546
1.7625012545597203 5.13582
1.7848028405262486 5.4951300000000005
1.8071218901122095 5.04429
1.8294236121921872 4.9667900000000005
1.8517427996910911 5.255269999999999
1.8740620574440425 5.02035
1.8963639900671978 4.91863
1.9186833908139995 5.10479
1.9409854680117449 4.80653
1.9633050151394713 4.54899
1.9856246367570705 4.96851
2.0079269371922672 4.92061
2.03024671027244 4.64575
2.0525491637446027 4.57586
2.074869091674931 4.63119
2.097171701569106 4.38477
2.1194917877373847 4.728330000000001
2.141811954326636 4.9686699999999995
2.164114805233074 4.88973
2.186435135143035 4.49943
2.208738150935709 4.89444
2.231058647554722 4.92925
2.2533792288321184 5.22013
2.275682498336085 4.83395
2.298003251406138 4.08742
2.3203066942619714 3.93919
2.3426276225136022 4.6459
2.3649486396617507 4.49516
2.387252348930071 5.05181
2.4095735463442893 4.57805
2.4318774374315884 4.3672
2.4541988185014043 4.95517
2.476502894794693 5.4977
2.498824462909887 4.9873
2.521146125856138 4.97779
2.5434504863470337 5.803780000000001
2.5657723414244717 5.78417
2.588076895590662 6.07245
2.610398946189713 5.80525
2.6327210958598384 5.8234900000000005
2.6550259469304716 6.23479
2.6773482972090137 5.704269999999999
2.6996533504259 6.6227800000000006
2.7219759047039602 7.21018
2.744298562293959 6.817419999999999
2.7666039251246595 6.11596
2.7889267918020164 7.195760000000001
2.8112323652516555 7.6470899999999995
2.833555444408179 7.367430000000001
2.8558786311183852 7.96862
2.8781845268938557 7.70165
2.9005079311721484 8.067060000000001
2.9228140460410397 8.623
2.9451376712799635 8.13199
2.967444008632326 9.043339999999999
2.9897678582247247 9.39494
3.0120918213106695 10.1121
3.0343984987899373 11.0599
3.0567226913198637 10.6033
3.079029599759726 11.5828
3.101354025127254 12.6067
3.123678568232338 12.4061
3.145985829517914 12.4515
3.16831061055229 13.0892
3.1906181112775593 14.1726
3.212943133635653 14.7912
3.2352682779763207 15.0203
3.2575761442691227 15.3963
3.2799015350264273 15.7623
3.302209649240067 15.7851
3.3245352898092655 16.715999999999998
3.3468436553365257 16.9973
3.369169549113219 17.4149
3.3914955708171384 18.5983
3.413804319727358 19.364
3.4361305997334863 19.5062
3.4584396084414553 19.5342
3.4807661501462652 20.675
3.503092824025881 20.8688
3.5254022288463154 21.1273
3.5477291695206588 21.6064
3.5700388426251948 22.3104
3.5923660534916446 22.3915
3.6146934007816114 22.6327
3.637003482731501 23.3591
3.6593311053109985 23.4228
3.681641464033634 23.7424
3.7039693653009733 24.4602
3.726297407241705 25.3824
3.7486081875460804 25.5635
3.7709365132734978 26.006
3.793247578841633 26.5686
3.8155761917550093 27.0457
3.8378875459837216 27.1791
3.8602164494827234 27.8408
3.882545499606844 28.7848
3.9048572932539183 29.061999999999998
3.9271866390645718 29.5836
3.9494987298666713 30.0192
3.971828374764527 30.9023
3.9941581705403255 31.2632
4.016470713506008 31.6823
4.038800813471445 32.1408
4.061113662089144 33.3283
4.0834440696459176 33.9898
4.105774632334751 34.0988
4.128087945865126 34.9028
4.150418821249301 35.3421
4.172732448931298 35.9943
4.195063640413578 36.8104
4.2173775856475215 38.0405
4.239709096631102 38.7222
4.262040768704612 39.3933
4.284355196706267 39.7323
4.306687193387355 40.3833
4.329001947444346 41.7875
4.35133427213731 42.6767
4.373666762177566 43.8095
4.395982011761091 44.1454
4.418314834921175 45.292
4.44063041906622 46.1128
4.4629635787515625 46.843
4.4852969080429785 48.7507
4.5076130004776225 50.6298
4.529946671403969 53.2169
4.552263106909177 54.6013
4.574597122877047 54.1149
4.596931312711224 54.5675
4.619248269273446 55.2344
4.6415828092605835 56.6271
4.663900117405352 57.8435
4.686235010953232 59.9781
4.708552674085913 61.2313
4.730887924602802 62.8201
4.753223354952695 64.3744
4.775541557023902 66.5218
4.797877349456786 68.5029
4.820195915032126 70.0502
4.842532072957498 71.7334
4.864868414979744 73.979
4.88718753227192 77.1363
4.909524244902505 79.2499
4.931843734218147 80.9875
4.954180820867835 84.065
4.976518095879839 87.99600000000001
4.998838149695359 91.3064
5.021175803844231 95.432
5.043496238205739 100.277
5.065834274903528 106.602
5.088172504230693 113.965
5.1104935158799565 122.89399999999999
5.132832132875765 139.543
5.155153533596801 167.50400000000002
5.1774925416746225 284.357
5.199814334878411 880.0889999999999
5.2221537374521505 2179.37
5.244493338631803 3965.08
5.266815727034316 6944.3
5.289155727832427 10538.5
5.311478517248165 9257.76
5.333818921080011 3961.53
5.356159527788849 901.5310000000001
5.3784829252032536 261.35
5.400823940070432 179.488
5.423147747031976 150.751
5.445489173474152 135.928
5.467830807066149 128.504
5.490155234831516 123.882
5.512497285125229 118.116
5.534822130975162 114.69200000000001
5.557164601388673 111.51700000000001
5.579489868738879 107.485
5.601832762690846 105.65
5.6241758697774475 104.421
5.646501775867269 103.555
5.668845311622074 102.743
5.691171647754637 102.086
5.713515615597765 101.161
5.735859800852677 100.506
5.758186788542988 100.387
5.780531411018185 102.20100000000001
5.802858837297399 101.23
5.825203900414495 101.88799999999999
5.8475491852224 103.84
5.869877275883075 104.53299999999999
5.892223006467101 106.03299999999999
5.914551544266608 108.557
5.936897724049891 115.898
5.959244129804903 131.505
5.981573344815301 196.44299999999998
6.0039202049061 442.061
6.026249875609095 879.5369999999999
6.04859719346037 1427.55
6.070927323278297 2262.88
6.093275102315365 3716.07
6.115623113320588 4584.62
6.137953938319995 3623.01
6.160302415650845 1340.52
6.182633708324452 343.773
6.2049826554078376 143.697
6.227331838745022 106.855
6.249663839443684 95.1838
6.27201349767565 88.1312
6.294345974611799 83.5932
6.316696111167083 80.0753
6.339046488263839 78.3812
6.361379686074702 75.6842
6.383730546639482 74.0272
6.406064229255215 72.7038
6.428415576718203 72.4765
6.450749747566656 71.2065
6.47310158535871 69.235
6.495453669698332 68.0871
6.517788579421056 67.3102
6.540141159237969 66.3883
6.562476565766648 65.7667
6.5848296444934045 65.1154
6.607182974060425 64.7527
6.6295191323281015 64.4774
6.651872965955752 63.1286
6.6742096296068985 62.2407
6.6965639707294615 62.1716
6.71891856698715 61.1428
6.741255995248479 60.6389
6.763611104154477 60.31399999999999
6.785949046381137 60.2402
6.808304671371482 60.294
6.8306605557940046 60.0067
6.852999275508618 59.3361
6.875355681171544 58.9275
6.897694923437771 58.3161
6.92005185377892 58.0664
6.9423916220322655 57.9513
6.964749080490181 57.3227
6.987106804399774 57.5749
7.009447368180821 57.5715
7.031805625367033 57.0471
7.054146723727803 56.4869
7.076505517631004 56.2766
7.098864581288365 56.4634
7.121206488070854 55.9319
7.143566093607822 56.1434
7.165908543567245 56.5954
7.188268694426048 56.3991
7.2106291193438095 55.6576
7.232972390625943 55.3689
7.255333366030969 55.1574
7.277677189091925 55.1049
7.300038718428332 55.2839
7.322400526130865 55.3255
7.344745183422596 55.6404
7.367107550224791 55.3591
7.389452767901992 55.8625
7.411815697249891 55.7304
7.434161478756298 55.1814
7.456524974096713 55.3884
7.478888753837185 55.2273
7.501235387657368 55.8693
7.523599738562711 56.1154
7.545946944825532 56.4864
7.568311870344528 56.5637
7.5906770845765665 56.7155
7.613025156078678 56.8696
7.635390950099687 57.1491
7.657739602662809 56.6389
7.680105979923558 57.5591
7.702472650212829 58.1372
7.724822180948224 57.7476
7.747189439655568 58.165
7.769539560075357 58.4833
7.791907410653562 58.9818
7.81425812420825 58.7903
7.836626570110925 58.9317
7.858995315087906 59.8832
7.881346924933401 59.9605
7.903716270417482 60.6051
7.926068482028405 60.7749
7.948438431475253 61.3431
7.9708086843180235 62.1566
7.993161805171116 63.1083
8.015532667162402 63.7496
8.037886398416653 64.5693
8.060257873014221 65.212
8.082629655331942 65.8112
8.104984308787587 66.4171
8.127356708900503 67.5889
8.149711981398308 68.9821
8.172085002766314 69.748
8.194458336181368 70.5266
8.216814543847752 71.4261
8.23918850371002 73.0099
8.26154533906492 73.9622
8.283919928836452 75.9651
8.306277395339652 77.3685
8.328652618483376 78.9542
8.351028159736202 81.4126
8.373386579575245 83.7723
8.395762759396959 86.0325
8.418121819038275 89.6099
8.440498640894003 95.7887
8.462875785192262 110.745
8.485235811156207 165.06799999999998
8.507613602688501 288.248
8.529974277114228 443.653
8.552352719347912 579.435
8.574731488360351 763.4789999999999
8.59709314210385 1086.02
8.619472567021075 1558.54
8.64183487789147 1989.6
8.664214962183097 1889.84
8.686577933647762 1172.19
8.708958680784317 501.75800000000004
8.731339760774953 207.30200000000002
8.753703729764451 127.32799999999999
8.77608547780821 109.27799999999999
8.798450116065078 103.376
8.820832535634787 99.6825
8.843215292401656 97.1783
8.865580941199045 96.0073
8.887964374703538 94.5214
8.910330701447199 93.1402
8.932714815164482 91.9858
8.955099270424924 90.6257
8.977466620733543 89.3494
8.999851761421976 88.9245
9.022219798361645 88.4638
9.04460562795561 88.3252
9.066991803441677 87.8423
9.089360876979615 87.6639
9.111747746589993 87.7844
9.13411751544971 86.7524
9.156505082664324 86.4722
9.178875550323522 86.1111
9.20126381862328 85.5433
9.223652438908596 86.2197
9.246023961427412 86.1086
9.26841328802173 86.3756
9.290785518039224 86.8041
9.313175554425882 87.9992
9.335565947154315 88.0751
9.357939245086508 87.6171
9.380330352834827 88.055
9.40270436697103 88.3866
9.425096193225055 87.8306
9.447488380180165 89.0766
9.469863475295412 88.9847
9.492256385987508 89.3046
9.514632206018318 89.9243
9.537025843935714 90.3423
9.559402392368193 91.064
9.581796761000229 92.5468
9.604191496441521 93.5395
9.626569144158516 94.6143
9.648964615551032 95.2486
9.671343000390081 95.3292
9.693739211225699 96.0768
9.716135793237463 96.9799
9.738515290448102 97.9543
9.760912617143402 99.8904
9.783292860202891 101.348
9.805690935076182 103.249
9.828089385495742 104.325
9.850470754023561 106.275
9.872869957865444 108.662
9.89525208097539 111.824
9.917652041736662 117.916
9.940052382417589 136.893
9.962435644102392 201.076
9.984836746950979 300.802
10.007220771957746 409.865
10.029622640473708 513.7080000000001
10.052007432299963 640.5459999999999
10.074410069984072 815.545
10.096813093716005 1095.43
10.119199042482517 1487.39
10.141602840636468 1789.71
10.163989564971628 1719.96
10.186394141051062 1111.67
10.208799107559706 518.74
10.231187001965623 238.702
10.253592751657669 144.982
10.275981430388155 122.735
10.298387966769793 116.727
10.320794897965431 114.15799999999999
10.343184759907361 112.428
10.36559248305461 110.866
10.387983138083852 114.87200000000001
10.410391656691655 130.977
10.432800574501677 158.049
10.455192425893369 185.375
10.47760214443012 210.352
10.499994797678786 237.71400000000003
10.522405320453982 285.134
10.54479877906917 357.95599999999996
10.567210109595656 452.087
10.5896218454736 521.655
10.612016518879773 530.531
10.634429067781074 403.345
10.656824555333241 244.162
10.679237920773568 145.821
10.701651695961992 106.057
10.724048411481384 95.1835
10.746463008485165 91.632
10.768860546937125 89.7299
10.791275969274796 87.6916
10.81369180576079 86.2356
10.836090585366925 85.00200000000001
10.858507252467449 83.8166
10.88090686379991 82.7521
10.903324365036394 81.9448
10.925724811614439 80.7319
10.948143150509463 80.4728
10.970561909719066 79.4289
10.992963615930844 78.5588
11.015383218085756 77.3449
11.037785768347074 76.3297
11.06020621697282 75.5252
11.082627090322113 75.1058
11.105030913430326 74.2993
11.12745263854165 73.8848
11.149857314510728 72.9269
11.172279894912576 73.0939
11.194702904450653 71.8216
11.217108866490921 71.1315
11.239532736615194 70.8237
11.26193956033512 70.7921
11.284364294577085 70.2909
11.306789462371718 69.9281
11.329197585398376 69.4983
11.351623622610898 69.7973
11.37403261614354 68.8051
11.396459526308487 68.7016
11.418869393879497 68.3411
11.441297180532617 68.0675
11.463725406927658 67.5029
11.486136592353875 67.2435
11.508565700543707 66.9109
11.530977768845315 67.0786
11.553407762368774 66.6252
11.575838200059769 66.4417
11.598251599479612 66.3051
11.620682927815501 65.9696
11.64309721895548 66.1863
11.665529441478206 65.8547
11.687962112597958 65.6737
11.710377748130886 65.9075
11.732811318753434 65.291
11.755227854859067 65.5566
11.777662328529495 65.3392
11.800079768750786 65.0137
11.822515149015453 65.1576
11.844950984084935 65.5697
11.867369787303163 65.2325
11.889806534289491 64.9618
11.912226250487029 65.6133
11.934663912939751 65.7535
11.9571020346363 66.2302
11.979523127133968 66.497
12.001962169624331 68.1554
12.024384183972964 72.4035
12.046824150809913 79.4674
12.069264581333726 87.3551
12.091687985297767 93.5192
12.11412934550045 100.12899999999999
12.136553680195208 109.48
12.158995973632788 124.12100000000001
12.181438735204349 142.194
12.20386447284199 166.753
12.226308172985636 194.975
12.24873485024193 205.576
12.271179492516982 184.707
12.293607112949127 143.96
12.316052700916226 103.63799999999999
12.338498763250042 78.2653
12.360927805303868 69.82
12.383374818673879 67.6118
12.405804812803074 66.9044
12.428252780773262 66.7074
12.45070122756722 66.9545
12.473132656675375 66.8702
12.49558206341869 67.0997
12.518014453510101 67.1809
12.540464823770117 67.14
12.562915677315177 67.1267
12.58534951575545 67.8003
12.607801338171472 67.6443
12.630236146511358 67.9712
12.652688941369085 68.3964
12.675124723177234 68.6684
12.697578494048786 69.3968
12.720032754458185 69.5867
12.742470003354093 69.9958
12.764925245138771 70.6279
12.787363476431278 71.0181
12.809819703166806 71.6402
12.83227642391173 72.4997
12.854716135692716 72.9492
12.877173846755147 74.0178
12.899614549869717 74.4311
12.9220732548287 75.5956
12.94453245827299 76.2668
12.966974655289818 77.3618
12.989434858002571 78.4884
13.011878055298721 79.5495
13.034339260862497 80.4786
13.056800969391883 82.2009
13.079245674017244 86.238
13.101708390774869 94.359
13.12415410463411 110.896
13.146617833206086 129.97899999999998
13.169064559883248 145.725
13.191529303857127 159.232
13.213994557076367 174.905
13.236442809902437 199.22799999999998
13.258909083908291 233.148
13.28135835851934 274.51599999999996
13.30382565690295 326.561
13.326293469022952 389.3
13.348744283242008 419.11699999999996
13.371213125129904 382.93
13.39366497011003 303.656
13.416134845360597 205.34900000000002
13.438605238843131 146.62
13.46105863690397 128.878
13.483530069144786 132.42600000000002
13.505984506951902 141.546
13.528456981549432 151.964
13.550929978879088 161.515
13.573385983253365 176.25
13.595860028340867 197.96099999999998
13.618317081455832 229.49599999999998
13.64079217790333 270.605
13.663250283359057 317.405
13.685726434770173 355.454
13.708203115221277 360.154
13.730662806148091 301.936
13.75314054697177 224.158
13.775601299246777 152.751
13.798080104050406 109.605
13.820559442405358 91.9955
13.843021793671388 86.4934
13.865502201420897 84.5198
13.887965623051947 83.8426
13.910447103807167 82.5057
13.932929122629764 80.8805
13.955394156785959 80.6326
13.977877254034569 79.3862
14.000343367582113 78.7041
14.022827546871707 77.9711
14.045294743423524 77.2299
14.06778000837062 76.4261
14.090265817715476 76.4763
14.112734645763819 76.0057
14.13522154619454 75.3962
14.157691466286913 75.0354
14.180179461423874 74.8981
14.202668005486178 74.7426
14.22513957064374 74.3603
14.247629214846473 73.9958
14.270101881097517 73.6183
14.29259262906496 72.9104
14.315083930490205 72.9018
14.337558255389705 72.6828
14.360050666019726 72.7619
14.382526101071944 72.4373
14.405019624534942 72.3955
14.427513705993134 72.1134
14.449990813291825 72.003
14.47248601302899 72.0048
14.49496423954951 72.2163
14.517460561197822 72.3461
14.539939910570322 72.17399999999999
14.562437357763558 72.3434
14.58493536931253 72.3688
14.607416409993311 72.4154
14.62991555254159 72.9411
14.652397725157423 73.2875
14.674898002342799 73.5123
14.697398848433282 74.5389
14.719882725991326 76.8282
14.74238471217934 81.2443
14.764869730765593 88.3789
14.787372860692983 94.8606
14.809876564079925 100.64399999999999
14.83236330125751 105.85
14.854868153850365 111.73299999999999
14.877356041159485 120.492
14.899862046604186 131.754
14.922351087688757 147.109
14.944858249632887 166.274
14.967365991421232 189.53
14.989856770231246 211.53900000000002
15.012365673994204 220.483
15.03485761569738 203.979
15.05736768508665 167.472
15.07987833888692 128.61700000000002
15.102372032001655 99.7889
15.124883856909658 82.8285
15.14737872204565 76.4943
15.169891721717274 74.047
15.192405310371893 73.4357
15.214901940621196 72.868
15.237416709527137 72.2227
15.259914520936249 71.9436
15.282430473753607 71.211
15.304947020131227 70.5031
15.327446610371178 70.365
15.349964346154254 70.0501
15.372465126703139 70.0376
15.394984055556009 69.9193
15.417486030076159 69.4274
15.44000615566487 69.0392
15.462526881230803 69.117
15.485030653812652 69.0882
15.507552581617434 68.9046
15.530057557334603 68.8843
15.55258069104857 69.0298
15.575104429329837 69.3751
15.597611216864632 69.42
15.620136166564563 71.0751
15.6426441664095 74.7995
15.665170331202765 80.2789
15.687697105158826 85.6522
15.710206930593545 90.4372
15.732734925158933 94.2532
15.755245972089478 98.0577
15.77777519094324 104.005
15.800287463046663 112.10700000000001
15.822817909869592 122.905
15.84534897229804 136.658
15.867863089299354 153.928
15.890395385222186 172.544
15.912910736597423 188.385
15.935444269699861 188.575
15.957978423016485 169.079
15.980495633101265 138.69
16.003031029129367 108.689
16.02554948280019 84.4582
16.048086125229432 72.1108
16.070623392487107 67.2069
16.09314371869582 65.473
16.11568223789321 64.1643
16.13820381691126 63.4848
16.160743591742527 63.0448
16.183283996022084 62.5019
16.205807461423195 61.9584
16.228349126881973 61.2932
16.25087385432698 61.2367
16.27341678466365 60.632
16.29594277784926 60.3938
16.31848697676433 60.0149
16.341031811604868 59.3734
16.36355971058487 59.1467
16.3861058195587 59.0283
16.40863499352978 58.4938
16.431182380342005 58.5815
16.453730407713202 58.3102
16.476261501364792 58.2179
16.498810812136167 57.8767
16.52134319004079 57.893
16.54389378792203 57.8797
16.566445031001553 57.6201
16.588979342490088 57.3343
16.61153187824822 57.2841
16.634067483263312 56.9603
16.656621315414416 57.1946
16.679175797408888 56.8208
16.701713349928728 56.8778
16.72426913389191 56.9598
16.74680798922351 57.1566
16.76936507887444 57.0173
16.791905240734874 56.9574
16.814463639794468 56.72
16.837022695210294 56.9484
16.859564824093756 57.0918
16.882125194503903 57.159
16.904668639217885 57.3271
16.927230328348003 57.1948
16.949792678493612 57.5846
16.972338104193863 57.4094
16.994901778652235 57.5661
17.017448529496576 58.1764
17.040013531998152 59.0255
17.06257920018044 60.3138
17.0851279459922 61.4635
17.107694947817667 62.8676
17.130245028099072 63.402
17.15281336730298 64.2595
17.17536478578733 65.5309
17.19793446610687 67.0254
17.220504818648422 69.204
17.243058251703697 71.2628
17.265629950971032 74.071
17.288184731571736 78.0933
17.310757781306908 82.3563
17.33333150794385 85.4703
17.355888317140174 85.1739
17.37846339986244 82.0738
17.401021565958885 76.3051
17.42359800851343 70.6562
17.44617513265564 66.1417
17.468735341390783 63.5217
17.491261035594565 62.1415
17.51396340099364 61.5965
17.536490463869136 61.7317
17.559018209820174 61.8075
17.58154663977963 61.8262
17.604251766089718 62.0653
17.626781572227713 62.2646
17.64931206518155 62.5675
17.671843245885103 62.9272
17.69455114821572 63.0692
17.717083712612634 63.2484
17.739616967569667 63.7969
17.762150914021706 64.4623
17.78486160749854 65.1351
17.807396945166804 66.2984
17.829932977143503 68.8242
17.85246970436452 72.0931
17.875183204129467 75.0825
17.897721330097664 77.6142
17.920260154126645 80.1447
17.942799677153296 82.4685
17.9655159983646 84.87899999999999
17.988056927677544 88.57799999999999
18.010598558807683 93.4435
18.033140892692916 99.7198
18.05586005052525 107.219
18.07840379824407 116.57700000000001
18.10094825154059 127.794
18.12366954819864 139.08
18.146215420998306 145.143
18.16876200220057 142.815
18.191309292745153 131.05700000000002
18.214033452627167 116.40899999999999
18.236582170236648 102.00200000000001
18.259131600016456 93.3027
18.281681742907335 89.3478
18.304408781233683 90.4235
18.32696035875955 93.2604
18.349512652227624 97.634
18.372065662579683 102.95299999999999
18.394795594587553 106.581
18.41735004715306 105.77600000000001
18.43990521943684 101.3
18.46246111238171 92.5378
18.485193953325208 82.9101
18.507751296070428 74.6361
18.530309362314178 69.5511
18.552868153000343 66.8789
18.57560391815056 65.2997
18.59816416623245 64.6774
18.620725141597372 63.995
18.643286845190268 63.5021
18.666025549835414 63.0575
18.688588718427933 62.4022
18.711152618092243 62.433
18.73389353884365 62.1596
18.75645890921984 61.7288
18.77902501351406 61.3184
18.801591852673102 61.2875
18.824335739722738 60.7267
18.846904057212626 60.7902
18.8694731124168 60.4648
18.89204290628315 60.3232
18.914789774966803 60.2671
18.937361054791623 60.1011
18.959933076131318 59.7241
18.982505839934877 59.5415
19.00525570560582 59.68899999999999
19.027829963004184 59.4453
19.05040496572238 59.6824
19.072980714710468 60.1675
19.095733592739563 60.6341
19.11831084296757 61.1131
19.140888842324735 61.4918
19.16346759176222 61.7993
19.18622349753803 62.1908
19.208803755869358 62.6818
19.231384767143577 63.571000000000005
19.253966532312948 64.5538
19.276725481241822 65.8249
19.29930876296784 67.3636
19.3218928014549 69.066
19.34465404436217 71.3903
19.36723960516257 74.433
19.389825925592426 76.3098
19.412413006605938 77.2169
19.43517731967805 75.6113
19.457765930683355 72.2275
19.48035530514408 67.2257
19.50294544401556 63.3745
19.525712842708348 59.9159
19.54830451925909 57.9905
19.570896963095727 56.8398
19.593490175174704 56.3991
19.616260674962184 56.3722
19.638855432416964 56.0724
19.661450960992624 56.0793
19.68404726164677 55.9581
19.706820878021247 55.6925
19.729418731756834 56.0359
19.752017360452857 55.9778
19.77461676506804 56.3504
19.797393513540218 56.7805
19.819994478951667 57.4002
19.84259622316767 57.9873
19.8651987471481 58.4506
19.887978643247177 58.6104
19.91058273574792 58.7651
19.933187610901943 59.409
19.955969879466828 60.2668
19.97857632894404 61.2601
20.00118356396599 62.2551
20.023791585494575 64.0706
20.046577028914875 66.2555
20.069186632506966 68.4297
20.091797025500632 70.6533
20.114408208858933 72.3432
20.137196842715273 73.1302
20.159809615886765 72.3
20.18242318232135 69.9674
20.20503754298326 67.6572
20.227829382875154 65.5954
20.250445341109344 64.2871
20.27306209647285 63.8433
20.29567964993108 64.486
20.31847471147704 65.5898
20.34109387027612 66.7799
20.363713830075454 67.4265
20.386334591841646 66.9996
20.409132890679302 65.0656
20.431755265564437 61.9618
20.454378445325528 58.9255
20.477002430930366 56.2066
20.499803982716553 54.6206
20.522429589228004 53.4104
20.54505600449589 52.828
20.567683229489194 52.6009
20.590488049900088 52.618
20.61311690359731 52.3846
20.63574656993626 52.1366
20.658553853717297 51.9571
20.681185154618298 51.8781
20.703817271080066 51.5294
20.72645020407368 51.3349
20.749260783967177 51.2028
20.771895359337133 51.1085
20.794530754161617 51.1614
20.817166969412938 51.0277
20.83998086114876 50.9109
20.86261872660049 50.9827
20.885257415405402 51.0701
20.90789692853701 50.9404
20.930714147864748 51.1465
20.953355319030678 51.0828
20.97599731745334 51.1198
20.99864014410749 51.1036
21.021460706796564 50.9857
21.044105199328826 51.2052
21.06675052302631 51.339
21.089396678865015 51.4752
21.112220600704806 51.4539
21.134868430275347 51.8265
21.15751709492456 51.9862
21.180166595629693 52.0639
21.202993892429635 52.4471
21.22564507473034 52.8438
21.24829709602816 53.1452
21.27112693608965 53.5132
21.293780644891275 53.62
21.316435195634053 53.1974
21.339090589297417 52.5164
21.361923832041875 52.0102
21.384580921090404 51.3046
21.407238856007325 50.7165
21.429897637773326 50.6868
21.45273429906592 50.8664
21.475394784108598 50.7498
21.498056118951983 50.7185
21.520718304578022 50.9789
21.543558400304388 51.24
21.566222297108816 51.8028
21.58888704765135 52.074
21.61155265291521 52.5545
21.63439619898156 52.956
21.657063523335786 53.396
21.67973170537063 53.702
21.7024007460706 54.0362
21.72524775840385 54.6404
21.747918526116475 55.4863
21.770590155457388 56.2174
21.79326264741238 57.3377
21.816113141960237 58.8696
21.838787368860547 59.9483
21.861462461341976 61.588
21.884315579735777 63.567
21.90699241312273 65.1476
21.92967011506078 66.506
21.95234868653799 67.1665
21.9752053151131 66.7527
21.997885635446785 64.7991
22.020566828293532 62.5435
22.04324889464272 60.4226
22.066109049404666 58.5153
22.088792872571794 57.7317
22.111477572219204 57.6969
22.1341631493376 57.9102
22.157026846313123 57.9718
22.179714188221507 57.7532
22.202402410582668 57.0612
22.22509151438863 55.6209
22.24795876962584 54.2145
22.270649646204486 52.9643
22.293341407213727 52.2186
22.316034053646906 51.586000000000006
22.338904883215342 51.1821
22.36159931041458 51.2553
22.38429462602756 51.0563
22.40699083104897 50.9317
22.429865251039757 50.6957
22.452563244831367 50.7159
22.47526213102522 50.7436
22.49813925616515 50.7085
22.520839937143307 50.6637
22.543541513520587 50.9011
22.56624398629403 50.7929
22.589124730075895 50.8036
22.611829005656723 51.2582
22.63453418063466 51.3104
22.657240256008077 51.8303
22.680124634582935 52.1865
22.70283252079775 52.2054
22.725541310413075 52.4135
22.74825100442868 52.4465
22.771139033969575 53.0335
22.79385054687155 52.992
22.81656296718292 53.3893
22.83927629590484 54.053999999999995
22.862167992606945 54.8165
22.88488314827121 55.4762
22.907599215359284 56.0355
22.93031619487366 57.1857
22.953211574954405 58.1955
22.975930389478226 59.3157
22.998650119445763 59.9314
23.02137076586092 59.7242
23.044269845560063 58.8802
23.06699233506288 57.6532
23.089715744034912 55.8715
23.112617610931565 54.0052
23.135342869061212 52.5643
23.158069049684816 51.5041
23.1807961538087 51.1208
23.20370174880544 51.2608
23.226430710184808 51.4754
23.249160598093425 51.7074
23.271891413539002 51.8057
23.294800752937697 51.9488
23.31753343374794 52.1482
23.340267045128353 52.1266
23.36300158808808 52.269
23.38591468821339 52.4046
23.408651104658304 52.8457
23.431388455719986 53.1929
23.454126742409 53.7474
23.4770436196085 54.2254
23.499783787914662 55.0046
23.522524894889884 55.608999999999995
23.54526694154616 56.4121
23.56818761219047 57.7586
23.59093154860734 58.5807
23.613676427751283 59.6525
23.636422250635754 59.4207
23.659346731118656 58.433
23.68209445191868 56.8405
23.704843119509587 54.7284
23.72759273490623 52.5566
23.750521041644767 50.9221
23.77327256312355 49.5528
23.796025035462787 48.9752
23.818956224555475 48.3512
23.841710609113413 48.0104
23.86446594758979 47.8807
23.887222241002014 47.6379
23.910157285144578 47.174
23.932915498962537 47.2968
23.955674670778713 47.0158
23.978434801611975 46.8264
24.001373717286125 46.7752
24.024135776723917 46.5212
24.046898798245582 46.4534
24.06966278287146 46.4219
24.092605586582614 46.1229
24.115371508023642 46.0412
24.1381383956401 46.0032
24.16090625045381 45.8501
24.183852958731244 45.8083
24.206622758582608 45.7677
24.229393528706886 45.5452
24.252165270127392 45.6095
24.27511589952438 45.6315
24.297889594216997 45.3285
24.32066426328598 45.1964
24.34343990775613 45.1163
24.36639447485003 45.1927
24.38917208083877 45.0006
24.41195066531332 44.8262
24.43490819850244 44.9048
24.457688750692377 44.7811
24.48047028445616 44.8515
24.503252800821233 44.9501
24.526214300784112 44.8707
24.548998793132213 45.0211
24.57178427117417 44.8105
24.59457073593893 44.762
24.617536219319863 44.7935
24.64032466834748 44.82
24.663114107195035 44.7795
24.685904536893013 44.5482
24.708874020360852 44.4189
24.731666442613744 44.3305
24.754459858818787 44.3053
24.777254270007962 44.2493
24.80022777025625 44.1416
24.82302418230472 44.0974
24.845821592443674 44.17
24.86862000170663 44.3596
24.891597535453727 44.0975
24.914397953892728 44.3733
24.93719937456671 44.3233
24.96000179851076 44.4882
24.98298338249997 44.6973
25.00578782394922 44.8808
25.028593271784167 44.9418
25.05157790644186 44.9942
25.07438537804115 45.0246
25.097193859145293 45.2882
25.120003350792075 45.5455
25.142992065061257 45.8792
25.165803588823465 46.1201
25.18861612625217 46.3728
25.211429678386736 46.47
25.234422489079968 46.4911
25.257238081693636 46.3074
25.280054692141732 46.3911
25.3028723214652 46.2399
25.325869245420463 46.3917
25.348688923599397 46.4441
25.371509623787006 46.5886
25.394331347025812 46.4491
25.41733240110666 46.2719
25.440156181590016 45.6473
25.46298098826268 45.0018
25.48580682216873 44.5023
25.50881202326435 43.8986
25.53163992281684 43.3774
25.55446885274561 43.0177
25.577298814096377 42.7261
25.600308179121807 42.6284
25.623140214533745 42.6834
25.64597328451537 42.5846
25.66898578564376 42.3542
25.691820936010206 42.4543
25.714657124097695 42.4641
25.737494350954734 42.4928
25.760511045684957 42.2257
25.783350361364224 42.2554
25.806190718969255 42.3228
25.82903211955018 42.4321
25.852053024868923 42.2596
25.874896522722523 42.2979
25.897741066713106 42.3531
25.920586657892454 42.4826
25.943611790812668 42.6068
25.966459487728237 42.7744
25.989308234998564 42.598
26.01215803367705 42.8289
26.03518741123814 42.9712
26.05803932412957 43.169
26.080892291600094 43.1647
26.10374631470478 43.2231
26.12677995397268 43.3796
26.14963609978026 43.6677
26.172493304397875 43.3515
26.19535156888223 43.1383
26.218389486949604 42.6957
26.241249882640123 42.5734
26.26411134137826 42.3175
26.28715248187403 42.3357
26.31001607820869 42.0998
26.3328807407756 41.9045
26.35574647063438 42.083
26.37879191991473 41.9045
26.401659795896734 42.0522
26.424528742360263 42.2177
26.447398760366614 42.3137
26.470448535598294 42.292
26.49332070826805 42.4266
26.516193955675355 42.67100000000001
26.53906827888316 42.7918
26.562122397260108 42.9397
26.584998883685063 43.1447
26.607876449110325 43.3601
26.63075509460056 43.5623
26.65381357334404 43.7694
26.67669439061878 43.9681
26.699576291163382 43.9118
26.722459276044212 43.7823
26.745522132402975 43.6062
26.768407297649354 43.2706
26.791293550442003 42.8543
26.814180891848974 42.6122
26.837248143099337 42.4
26.860137673466657 42.216
26.88302829566349 41.9881
26.90592001075963 41.7213
26.92899167420566 41.6679
26.951885586870763 41.2405
26.974780595655517 41.0859
26.99785558178161 40.8978
27.020752794605112 40.8229
27.043651106772522 40.5932
27.06655051935668 40.6074
27.089629948036183 40.4721
27.112531573292053 40.352
27.135434302194138 40.5599
27.158338135817015 40.3475
27.181422024430987 40.4248
27.204328079372566 40.2532
27.22723524226965 40.2113
27.250143514198573 40.2436
27.273231880156334 40.305
27.296142382065014 40.2055
27.319053996245536 40.0222
27.341966723775965 40.0143
27.365059584515222 40.147
27.38797455070062 40.2235
27.410890633481237 40.109
27.433807833936918 40.0166
27.456905206923906 40.1103
27.47982465472398 40.1467
27.502745223449743 40.2243
27.525666914182825 40.2233
27.548768816912457 40.2557
27.571692763693633 40.2739
27.59461783573812 40.1219
27.617723149491244 40.0365
27.640650484125285 40.1096
27.66357894728264 39.9673
27.686508540048052 39.8478
27.709618414237887 39.7649
27.732550278321757 39.5337
27.755483275279115 39.5304
27.778417406196485 39.5663
27.801531858397514 39.7264
27.824468269376716 39.345
27.847405817586786 39.4553
27.870344504116094 39.637
27.893463551932008 39.7617
27.916404527281053 39.9033
27.93934664422563 39.8834
27.962289903855886 39.8645
27.98541356491974 40.0495
28.00835912214229 40.1075
28.03130582533231 40.3951
28.054253675581805 40.4683
28.077381967556104 40.5244
28.100332124185126 40.5358
28.123283431160893 40.4744
28.146235889577238 40.5191
28.169368830154156 40.3595
28.192323603752033 39.97
28.215279532083304 39.8094
28.238415973016764 39.5251
28.261374223145094 39.4619
28.284333631303806 39.2519
28.307294198589954 39.1988
28.330435319167677 38.7637
28.353398217078915 38.5819
28.376362277420153 38.3138
28.39932750129032 38.3143
28.422473319286713 37.9919
28.44544088262495 38.0289
28.468409612800283 37.946999999999996
28.491379510913497 37.6322
28.51453004413313 37.4063
28.53750229057244 37.5614
28.56047570826344 37.4083
28.583450298308804 37.4662
28.606605564586562 37.2207
28.629582511831156 37.3066
28.65256063474956 37.1661
28.675539934446338 37.178000000000004
28.698699951647605 37.1816
28.72168161743193 37.049
28.74466446331978 37.0311
28.767648490417624 36.893
28.790813276438353 36.8374
28.813799678527303 36.9073
28.836787265157085 36.7986
28.859955641890075 36.8451
28.882945610203045 36.9337
28.905936766392035 36.7767
28.928929111566863 36.7674
28.952102288520145 36.7704
28.975097024308607 36.6804
28.998092952423807 36.5243
29.021090073977508 36.4367
29.04426806913204 36.3978
29.067267590245258 36.3597
29.090268308143695 36.1963
29.11327022394099 36.1842
29.13645305530891 36.0605
29.159457379627167 35.9357
29.18246290519685 35.8751
29.20546963313352 35.7374
29.22865731875826 35.7756
29.25166646419296 35.735
29.27467681535305 35.5833
29.29768837335608 35.6725
29.320880931312562 35.5978
29.34389491580634 35.6478
29.366910110507334 35.5511
29.38992651653503 35.5834
29.41312396492981 35.6495
29.436142806456754 35.5784
29.45916286268059 35.5559
29.48236399319994 35.442
29.50538649169417 35.2897
29.528410208259935 35.1909
29.55143514402014 34.9378
29.574641196749695 34.7941
29.597668583816574 34.8612
29.6206971934585 34.6249
29.64372702680042 34.5438
29.666938019934474 34.4608
29.689970313635285 34.3827
29.713003834422636 34.4128
29.73603858342347 34.3236
29.759254535188578 34.2025
29.78229175361658 34.2329
29.80533020365064 34.2755
29.82836988641968 34.2262
29.85159081507472 34.2397
29.874632976355343 34.1175
29.89767637376955 34.2027
29.920721008448314 33.9591
29.9439469322847 33.93
29.96699405457564 33.982
29.9900424175358 33.939
30.013092022298157 33.894
30.03632295963995 33.7905
30.059375061131373 33.7475
30.08242840783577 33.9376
30.105483000888153 33.9724
30.128718970092244 33.7383
30.151776069006917 33.7703
30.17483441768648 33.7758
30.198074175317235 33.7877
30.221135036724256 33.731
30.24419715131772 33.7188
30.267260520236203 33.6571
30.290505341942243 33.7713
30.313571232750228 33.6948
30.336638381310948 33.7098
30.35970678876503 33.580999999999996
30.38295669299435 33.5613
30.40602763151657 33.6578
30.429099832366074 33.6251
30.452173296685572 33.4722
30.47542830191959 33.5031
30.498504306502497 33.3915
30.521581577995562 33.4666
30.544660117543582 33.4685
30.56792024229725 33.4956
30.59100133132069 33.507
30.614083691845494 33.4037
30.637167325018545 33.5524
30.660432587840603 33.509
30.683518779717886 33.4135
30.70660624769615 33.5663
30.729694992924372 33.5597
30.75296541239743 33.5658
30.77605672557558 33.5989
30.799149319462742 33.5459
30.8224236211637 33.4586
30.845518789950724 33.2122
30.868615242910597 33.1743
30.891712981195973 33.0217
30.91499247215866 32.925
30.938092794619365 32.9461
30.96119440587579 32.9524
30.984297307082752 32.8056
31.00758200598383 32.6389
31.030687500658694 32.6543
31.053794288760695 32.588
31.076902371446767 32.4332
31.100192296997445 32.404
31.12330298246119 32.4139
31.14641496599209 32.2123
31.169528248749216 32.3115
31.19282341969534 32.3113
31.215939314557186 32.32
31.239056512134788 32.3299
31.262175013589378 32.3117
31.28547544871168 32.2236
31.30859657161541 32.0806
31.331719001892175 32.1676
31.35484274070538 32.1827
31.378148458819545 32.1923
31.401274828443725 32.1652
31.424402510106933 32.2363
31.447712205419993 32.2478
31.470842524931633 32.1387
31.493974159989783 32.1406
31.51710711176168 32.0647
31.54042212308802 32.111999999999995
31.563557722100917 32.1171
31.586694641341655 31.9387
31.609832881979628 31.9176
31.63315322823208 31.8165
31.656294125521327 31.7237
31.679436347728515 31.6726
31.70257989602529 31.5388
31.725905596152327 31.5651
31.74905181052835 31.3875
31.772199354521323 31.5413
31.79534822930507 31.5033
31.818679302290967 31.3695
31.84183085259981 31.3818
31.864983737233473 31.3726
31.88813795736804 31.4524
31.911474422233013 31.3136
31.934631327356435 31.2346
31.9577895715215 31.3141
31.980949155906522 31.2135
32.004291031706956 31.2741
32.027453310562606 31.2255
32.05061693318573 31.0791
32.07396288236386 31.0784
32.09712920658542 31.0233
32.12029687812702 30.8488
32.14346589817093 30.75
32.166817291729984 30.72
32.18998902288583 30.7048
32.21316210610336 30.6315
32.23633654256711 30.5995
32.259693399663725 30.6168
32.282870556771144 30.4888
32.30604907069099 30.4049
32.329228942610065 30.3185
32.35259128243769 30.2679
32.375773884550505 30.151999999999997
32.398957848235646 30.221
32.422143174682176 30.0874
32.445511016471215 30.0504
32.468699082679954 29.9659
32.49188851523011 29.9008
32.51507931531304 29.8979
32.538452678331 29.8073
32.56164622776311 29.6808
32.58484114831493 29.6897
32.60803744118015 29.6607
32.631416344731896 29.6983
32.654615396551876 29.6083
32.67781582427913 29.6254
32.701198898634416 29.5567
32.72440209253756 29.5041
32.747606665947124 29.4905
32.77081262006088 29.253
32.79420126883317 29.2992
32.81740999876112 29.3197
32.840620112999424 29.2543
32.86383161274818 29.2821
32.88722585534586 29.2273
32.91044014056596 29.2791
32.933655814909734 29.168000000000003
32.95687287957963 29.2934
32.98027273544904 29.1473
33.00349259526636 28.9418
33.026713849030116 29.0993
33.04993649794511 29.1007
33.073341986570746 28.965
33.09656744032826 28.9634
33.11979429286444 29.0136
33.14302254538647 28.8637
33.166433686291185 28.8244
33.18966475336992 28.8426
33.212897224069096 28.789
33.23613109959831 28.7975
33.259547912343415 28.7126
33.2827846121627 28.7155
33.306022720453775 28.6238
33.32926223842861 28.5101
33.352684742614166 28.5644
33.37592709463173 28.5868
33.399170859982064 28.4127
33.422597648419426 28.3748
33.44584425514446 28.2819
33.46909227885668 28.2468
33.4923417207723 28.2355
33.51577423505344 28.1679
33.539026528130385 28.0787
33.56228024307245 28.1266
33.585535381098246 27.9877
33.60897364093058 27.9252
33.63223163992385 27.9073
33.6554910656699 27.6831
33.678751919389796 27.7408
33.702195944520106 27.7248
33.72545966903325 27.8065
33.74872482519663 27.6026
33.771991414233746 27.6624
33.79544122444841 27.5812
33.81871069412428 27.4361
33.84198160035767 27.4633
33.86525394437455 27.4896
33.88870955949969 27.4024
33.911984794020626 27.4733
33.93526147001624 27.3909
33.958539588715006 27.3128
33.98200102861669 27.2056
34.0052820477047 27.1079
34.02856451319451 27.1092
34.05203033759056 27.0718
34.07531571090147 27.0988
34.09860253431845 27.0615
34.121890809074316 26.9938
34.145362493118924 26.909000000000002
34.16865368561615 26.9377
34.191946333164054 26.9274
34.21524043699793 26.8197
34.23871800066799 26.8593
34.26201503218366 26.7191
34.28531352370466 26.6855
34.30861347646881 26.6054
34.33209693978188 26.6127
34.3553998301885 26.6323
34.378704185565205 26.4953
34.402010007152356 26.4153
34.42549939016683 26.4549
34.44880815937748 26.3634
34.472118398533134 26.3765
34.49543010887669 26.3543
34.51892543169198 26.2587
34.54224009966052 26.246
34.56555624255917 26.1671
34.58887386163339 26.0714
34.61237514439016 26.0447
34.6356957311114 25.973000000000003
34.65901779775809 25.9957
34.68252356662995 25.9481
34.705848608458616 25.9383
34.72917513396849 25.8025
34.75250314440949 25.862
34.77601490857862 25.7596
34.799345904259795 25.6342
34.82267838863559 25.6651
34.846012362958525 25.6888
34.869530142679984 25.5747
34.89286711232212 25.5892
34.91620557568269 25.5697
34.93954553401677 25.5642
34.9630693495876 25.4673
34.986412313340814 25.5345
35.00975677584668 25.5958
35.033102738362956 25.4743
35.05663261012228 25.449
35.0799815881786 25.3123
35.10333207003229 25.3043
35.12668405694369 25.3291
35.150220005273056 25.3111
35.17357501786656 25.2189
35.19693153931268 25.2635
35.220289570874385 25.2672
35.24383161619786 25.1808
35.267192683604904 25.1439
35.290555264930376 25.1306
35.314101899412165 25.1003
35.33746752422433 25.0222
35.36083466676374 25.0857
35.38420332829803 25.0363
35.407756095629054 25.0059
35.43112781085063 24.9878
35.45450104888391 24.8276
35.477875810999194 24.9372
35.50143473172161 24.8386
35.52481255774625 24.8954
35.54819191167777 24.8034
35.57157279478914 24.8063
35.595137889488406 24.7333
35.61852184675279 24.7121
35.641907337029984 24.6774
35.665294361595684 24.6065
35.68886565090076 24.525
35.7122557598848 24.4638
35.73564740699838 24.5131
35.759040593519934 24.4546
35.78261809810353 24.3516
35.80601437933051 24.3129
35.829412203814705 24.2861
35.85281157283719 24.1866
35.876395313415884 24.2717
35.8997977874528 24.2651
35.92320180988546 24.1164
35.946790244133936 24.0459
35.97019737933222 24.0869
35.993606066789866 23.9979
36.01701630779276 23.9982
36.04061101440684 23.9474
36.06402437852291 23.9758
36.08743930005611 24.0161
36.1108557802951 23.9912
36.13445678011326 23.8591
36.15787639383515 23.7327
36.18129757014299 23.7386
36.20472031032821 23.6874
36.22832762423364 23.6412
36.25175350829375 23.6685
36.275180960119776 23.5952
36.298609981005924 23.6275
36.32222362992669 23.6492
36.34565580510207 23.5023
36.36908955323448 23.5041
36.39252487562093 23.3998
36.416144880530226 23.3307
36.43958336764275 23.4167
36.463023432914625 23.3107
36.486465077645676 23.285999999999998
36.51009145956204 23.2649
36.53353627947859 23.3389
36.55698268276811 23.3714
36.58043067073321 23.2746
36.60406345072071 23.1652
36.62751462435344 23.1674
36.65096738658405 23.0945
36.67460498210655 23.02
36.69806093788647 23.0552
36.72151848619297 22.9916
36.744977628333636 22.949
36.76862165890998 22.8191
36.79208400512205 22.928
36.81554794910557 22.9192
36.83901349217101 22.7799
36.862663978991606 22.6857
36.88613273667352 22.6669
36.90960309738324 22.7304
36.933075062434064 22.619
36.95673202673572 22.5683
36.98020721697122 22.6306
37.003684015502365 22.473000000000003
37.027162423645365 22.4459
37.050825886711465 22.511999999999997
37.07430753063053 22.3402
37.09779078812467 22.3738
37.121275660513014 22.3683
37.144945643673694 22.311999999999998
37.16843376245278 22.2613
37.19192350009803 22.2985
37.215414857931435 22.2225
37.239091382563885 22.1141
37.262585997426164 22.1796
37.28608223645736 22.1902
37.309763684451696 22.073
37.33326318851098 22.0684
37.356764320726555 21.9756
37.380267082425526 22.0938
37.40395510942588 22.0158
37.42746114683234 21.8776
37.45096881771841 21.858
37.474478123414166 21.8683
37.49817275092816 21.8493
37.52168534303452 21.7754
37.54519957395567 21.7142
37.568715445024665 21.7529
37.592416694607714 21.6546
37.61593586281424 21.7591
37.63945667518264 21.6925
37.66297913304891 21.6122
37.68668702630454 21.5849
37.710212792059274 21.5522
37.733740207334854 21.5017
37.757269273470364 21.3771
37.780983832050374 21.4024
37.80451621684926 21.3857
37.82805025654007 21.354
37.851585952464795 21.3053
37.8753071980695 21.2078
37.89884622345676 21.1526
37.92238690911902 21.1784
37.94611318753442 21.1512
37.969657210779765 21.046999999999997
37.99320289834801 21.1006
38.016750251586465 21.1055
38.04048325513017 20.9918
38.06403395679343 20.9543
38.087586328183946 20.9349
38.11114037065203 20.8883
38.13488012115898 20.9002
38.1584375229181 20.898000000000003
38.181996599821 20.7902
38.205557353221124 20.8054
38.229303872575656 20.7936
38.2528679961576 20.7021
38.27643380031219 20.6719
38.30000128639589 20.7133
38.32375459653193 20.7038
38.34732546371299 20.6757
38.37089801690786 20.555999999999997
38.39447225747609 20.5182
38.418232380377425 20.4724
38.441810012983396 20.4538
38.46538933705673 20.4126
38.488970353960084 20.4589
38.51273731166058 20.3286
38.536321731567014 20.311
38.55990784840681 20.3318
38.58367995004091 20.2268
38.60726947812959 20.1359
38.63086070726198 20.14
38.654453638806274 20.1994
38.678232613930824 20.135
38.70182896773327 20.0287
38.72542702806741 20.0837
38.7490267963045 20.0659
38.77281266709232 20.0237
38.79641586862214 19.9675
38.8200207821842 20.0171
38.843627409152944 19.9754
38.86742019782782 19.9544
38.891030269149255 19.8335
38.914642058016156 19.7865
38.938255565806124 19.7518
38.96205529464307 19.7372
38.98567225787121 19.7348
39.00929094417078 19.6752
39.03291135492255 19.6854
39.05671804624804 19.7223
39.080341923549106 19.5493
39.103967529460334 19.6174
39.127594865365744 19.5174
39.15140854155791 19.4923
39.17503935514948 19.4201
39.19867190290282 19.5048
39.22249083587951 19.4368
39.24612686969409 19.4266
39.269764641845306 19.3909
39.293404153722804 19.3368
39.317230110864074 19.2835
39.34087311998506 19.249000000000002
39.36451787301696 19.2216
39.388164371352595 19.2026
39.41199737518003 19.1579
39.43564738196752 19.1649
39.45929913825317 19.1294
39.48295264543308 19.1595
39.506792718520884 18.9981
39.530449745387216 18.9866
39.55410852735203 18.9619
39.57776906581474 18.9404
39.60161623079 18.9208
39.625280300200025 18.8948
39.64894613032202 18.9177
39.67261372255866 18.8425
39.6964680021016 18.8169
39.72013913657293 18.8702
39.74381203738292 18.7943
39.76748670593756 18.8028
39.79134812278169 18.7119
39.81502634488497 18.6267
39.83870633896685 18.6129
39.862388106436654 18.5909
39.88625668336918 18.5637
39.90994201572829 18.5895
39.933629125719285 18.5519
39.957503091207826 18.5108
39.9811937746168 18.5294
40.00488623990914 18.4393
40.02858048850006 18.3837
40.05246165409549 18.425
40.076159487492085 18.3169
40.099859108448875 18.3479
40.123560518384345 18.2801
40.1474489070226 18.2728
40.171153913178564 18.1517
40.194860712584955 18.1576
40.2185693066637 18.1885
40.242464941335314 18.1318
40.26617714307655 18.1608
40.289891143772046 18.0667
40.3136069448471 18.0522
40.33750984859743 18.0254
40.3612292688043 17.9707
40.3849504936829 17.8994
40.40867352466194 17.9381
40.43258372059144 17.8931
40.45631038219906 17.8907
40.48003885420956 17.8369
40.503769138055105 17.8358
40.52768664931955 17.8384
40.55142057531802 17.7422
40.57515631746428 17.712
40.599079334038514 17.6557
40.62281872700477 17.6116
40.64655994043941 17.6705
40.67030297578061 17.629
40.69423334835778 17.6241
40.71798004609188 17.5796
40.74172857006355 17.5186
40.76547892171441 17.5479
40.7894166736039 17.5101
40.813170699248566 17.4067
40.83692655691388 17.421
40.86068424804498 17.4482
40.884629402612525 17.3932
40.908390779366385 17.3796
40.932153993938 17.3484
40.95591904777605 17.3361
40.979871628443995 17.328
41.003640379561936 17.2446
41.02741097430883 17.1939
41.05118341413683 17.1718
41.075143444384416 17.1775
41.098919593177826 17.1781
41.1226975914255 17.1595
41.14647744058318 17.0297
41.170444943946755 17.0548
41.19422851378379 17.0059
41.218013938914645 16.9743
41.24198706625173 16.9232
41.26577622087193 17.012999999999998
41.289567235177785 16.9275
41.31336011063129 16.8869
41.337340752422875 16.7947
41.361137369129835 16.7804
41.38493585138705 16.7946
41.40873620066004 16.784000000000002
41.43272438060107 16.7813
41.45652848292052 16.6945
41.48033445666918 16.6627
41.50414230331616 16.6534
41.528138045159764 16.6193
41.551949656675205 16.5308
41.575763145513235 16.4919
41.59957851314666 16.4972
41.62358184070442 16.4459
41.64740098505737 16.4648
41.6712220126409 16.4145
41.69504492493139 16.4495
41.71905586207357 16.352
41.74288256296395 16.3419
41.766711153007456 16.3454
41.79054163368412 16.3145
41.814560204340054 16.3214
41.838394485526365 16.2747
41.86223066180303 16.221
41.88625497706819 16.2179
41.910094962812 16.1785
41.93393684811168 16.1314
41.95778063445365 16.1229
41.981812625263366 16.1248
42.00566023303407 16.0946
42.029509746323676 16.0589
42.05336116662236 16.0117
42.077400857069705 15.967
42.10125611078846 15.9806
42.12511327600405 15.8938
42.14897235421036 15.8844
42.173019768448455 15.8716
42.19688269209613 15.8261
42.22074753323349 15.8517
42.24461429335818 15.8055
42.268669455600495 15.7761
42.292540073217886 15.7455
42.31641261433284 15.6796
42.34028708044675 15.7127
42.36435001496739 15.7303
42.38822835065557 15.7312
42.41210861586426 15.573
42.4359908120986 15.5611
42.46006154323262 15.5438
42.48394762115317 15.5397
42.507835634632315 15.4652
42.531912233047436 15.472000000000001
42.55580413732265 15.4206
42.579697981698 15.4603
42.60359376768525 15.3849
42.62767820545945 15.3173
42.65157789440821 15.3738
42.67547952952185 15.3581
42.699383112316 15.2946
42.72347541395347 15.2409
42.74738291190531 15.1993
42.771292362102166 15.2065
42.795203766063516 15.2158
42.819303956130405 15.140999999999998
42.843219287476536 15.139000000000001
42.86713657716324 15.0955
42.89105582671383 15.052
42.91516392983864 15.0195
42.939087119032166 15.0004
42.963012272677304 15.0147
42.98693939230129 14.9817
43.01105543317513 14.9472
43.034986504731386 14.949000000000002
43.05891954686589 14.925999999999998
43.08285456110972 14.877
43.10697856448665 14.8872
43.130917542983475 14.8319
43.15485849820081 14.8158
43.17880143167367 14.7784
43.20293342237094 14.7437
43.226880332449 14.7155
43.25082922540554 14.7275
43.27496722682525 14.6199
43.29892010567796 14.6543
43.32287497204102 14.6465
43.34683182745632 14.5434
43.370977859791836 14.5684
43.39493871351105 14.5507
43.41890156092628 14.5749
43.44286640358341 14.479000000000001
43.46702049182749 14.4965
43.49098934522816 14.4082
43.51496019852649 14.3873
43.5389330532723 14.405
43.56309522248204 14.3917
43.58707210044314 14.4026
43.61105098451946 14.3036
43.63503187626491 14.2917
43.659202151562134 14.2771
43.68318707902681 14.2768
43.70717401884041 14.197000000000001
43.731162972560874 14.2028
43.75534137913236 14.167
43.779334381108384 14.1023
43.803329401683186 14.1658
43.82732644241872 14.1291
43.8515130055166 14.1449
43.87551410707659 14.043
43.89951723350145 14.0699
43.923709934595614 14.0725
43.94771713129917 14.0031
43.97172635758096 13.9642
43.99573761501002 13.917
44.0199385169922 13.8879
44.04395385732619 13.8463
44.067971233533086 13.8332
44.09199064718605 13.8611
44.11619977548961 13.8299
44.14022328470671 13.8028
44.16424883610785 13.8157
44.18827643127035 13.761
44.21249381139513 13.7126
44.236525514814076 13.6404
44.26055926674478 13.7034
44.28459506876863 13.6925
44.3088207262813 13.6515
44.33286064928722 13.6393
44.35690262714919 13.5616
44.38094666145278 13.526
44.4051806219871 13.5822
44.42922879003185 13.4871
44.45327901929361 13.4337
44.477331311362136 13.4553
44.501573600619416 13.4097
44.525630039221795 13.3959
44.54968854541895 13.3648
44.573937102200176 13.3785
44.5979997645541 13.3239
44.622064499300315 13.292
44.64613130803592 13.2949
44.67038823869318 13.3034
44.69445921643748 13.2616
44.718532272981385 13.1928
44.742607409926194 13.1861
44.76687274034801 13.2118
44.79095205918753 13.1274
44.81503346325094 13.1428
44.839116954143876 13.1158
44.86339071028742 13.07
44.88747839599524 13.0255
44.91156817336837 13.0349
44.93566004401666 13.017999999999999
44.959942251908146 12.9676
44.984038330325966 12.9293
45.00813650686762 12.8738
45.03223678314731 12.9218
45.05652746888232 12.878
45.08063196592069 12.8683
45.104738567558705 12.8299
45.128847275414856 12.8294
45.15314646515866 12.7704
45.17725940679741 12.7381
45.20137445952892 12.7813
45.22568004865265 12.7406
45.24979934496396 12.7038
45.27392075725247 12.6984
45.29804428714431 12.6595
45.322358426247604 12.6482
45.346486212804315 12.6102
45.370616121861914 12.5668
45.39474815505086 12.5827
45.41907087049246 12.527999999999999
45.4432071734666 12.4851
45.46734560548283 12.5428
45.49148616817604 12.5213
45.51581748638564 12.4699
45.5399623320197 12.4466
45.56410931325473 12.4025
45.58825843173002 12.4189
45.61259837920865 12.4051
45.636751793816 12.3974
45.66090735060093 12.322000000000001
45.68506505120716 12.2903
45.7094136545275 12.2884
45.73357566449271 12.2377
45.75773982322992 12.2288
45.78190613238733 12.2081
45.806263418194064 12.1754
45.83043404997326 12.1951
45.85460683713677 12.1482
45.87897065658495 12.1625
45.90314777634752 12.1009
45.92732705646868 12.1034
45.9515084986045 12.0364
45.97588104735473 12.0768
46.00006683541565 12.032
46.02425479047904 11.9672
46.04844491420549 11.9738
46.0728262191024 12.0016
46.09702070211635 11.9741
46.12121735879483 11.9323
46.14541619080294 11.882
46.169806278764455 11.9272
46.194009483459034 11.8311
46.21821486849841 11.8127
46.24242243555223 11.8144
46.266821333570014 11.7961
46.29103328674601 11.79
46.31524742696538 11.7828
46.33946375590237 11.7162
46.36387149104216 11.7403
46.38809221957392 11.6427
46.41231514186606 11.6783
46.436540259597464 11.6852
46.460956858999374 11.5846
46.48518638983522 11.5576
46.509418121166966 11.5267
46.533652054678114 11.5372
46.55807754555709 11.4847
46.58231590571962 11.5182
46.60655647313217 11.5053
46.630988654873654 11.4584
46.655233659129024 11.4321
46.67948087571551 11.4184
46.70373030632484 11.3762
46.72817142736393 11.3787
46.752425308428684 11.3752
46.77668140861147 11.3195
46.80093972960865 11.3152
46.82538981736788 11.2979
46.849652602470904 11.2779
46.87391761349769 11.2663
46.8981848521493 11.2568
46.9226439341274 11.2028
46.946915650573224 11.187000000000001
46.97118959976749 11.2105
46.99546578341598 11.119000000000002
47.019933887188216 11.1257
47.04421456235744 11.1196
47.06849747711879 11.0794
47.09278263318286 11.0475
47.11725978640143 11.0153
47.14154944775105 11.0553
47.165841355555656 11.039000000000001
47.1901355115306 10.9782
47.214621741924994 10.9522
47.23892041698887 10.9715
47.26322134538975 10.8979
47.28771440635075 10.9082
47.31201986422527 10.8945
47.33632758061436 10.8683
47.360637557241866 10.7843
47.38513974410611 10.8252
47.40945426407847 10.793
47.43377104948137 10.7626
47.45809010204344 10.7478
47.48260144275502 10.7252
47.506925052572285 10.7139
47.53125093475548 10.6978
47.55557909103813 10.6871
47.58009961361992 10.6238
47.60443234110732 10.6103
47.62876734791564 10.588
47.65310463578333 10.6242
47.6776343683373 10.6148
47.7019762413987 10.5707
47.72632040075572 10.540999999999999
47.75066684815169 10.5414
47.77520581885936 10.4949
47.799556865477655 10.4723
47.823910205386 10.4643
47.84826584033272 10.4682
47.87281407745551 10.4159
47.89717432569297 10.4071
47.92153687423484 10.3963
47.94609208429692 10.398
47.97045925671401 10.347000000000001
47.99482873471275 10.3141
48.01920052005013 10.3231
48.04376504619224 10.3075
48.068141469543484 10.2954
48.09252020552573 10.2676
48.11690125590099 10.2595
48.1414751266064 10.2313
48.16586082917454 10.1947
48.19024885144316 10.1962
48.2146391951793 10.1542
48.239222439012764 10.1653
48.26361744916137 10.1181
48.28801478610016 10.1349
48.31241445160131 10.1477
48.337007097209366 10.107000000000001
48.36141144338331 10.0595
48.38581812345755 10.0498
48.41022713920929 10.0376
48.434829215320704 9.98444
48.45924292604658 9.999839999999999
48.48365897780325 9.9704
48.50807737237308 9.98311
48.532688907799276 9.96347
48.55711201168574 9.895660000000001
48.581537463754074 9.87978
48.60615611725119 9.92577
48.63058628942721 9.88366
48.65501881516546 9.837589999999999
48.6794536962573 9.82313
48.70408185970339 9.7961
48.72852147531801 9.79042
48.75296345168211 9.74122
48.77740779059232 9.773019999999999
48.80204549302823 9.75337
48.82649458091802 9.71717
48.85094603676547 9.70005
48.87539986237231 9.70882
48.90004713292306 9.664819999999999
48.92450572200832 9.597489999999999
48.94896668628025 9.60276
48.97343002754588 9.60866
48.99808689542115 9.611180000000001
49.02255501470614 9.60403
49.04702551642794 9.55536
49.0714984023988 9.557089999999999
49.096164896893235 9.51295
49.120642575466796 9.50093
49.145122643748394 9.498330000000001
49.16960510355558 9.45317
49.19428125404938 9.41023
49.2187685210852 9.45432
49.243258185121555 9.43624
49.26794160167084 9.4188
49.2924360839405 9.362789999999999
49.31693296869764 9.34919
49.34143225776915 9.34267
49.36612538195438 9.34955
49.39062950396021 9.28393
49.41513603578346 9.27549
49.4396449792564 9.27694
49.46434784069503 9.26897
49.488861631846454 9.22983
49.513377840166804 9.211910000000001
49.537896467493745 9.16767
49.56260909589029 9.13236
49.587132585683285 9.16346
49.611658500018365 9.15033
49.636186840738596 9.13964
49.66090926588511 9.132530000000001
49.685442483902584 9.07418
49.70997813385706 9.04916
49.734516217597076 9.03852
49.75924846937352 9.03162
49.7837914452858 9.025310000000001
49.80833686055187 8.9822
49.83288471702571 9.000739999999999
49.85762682540054 8.967880000000001
49.882179588965734 8.951319999999999
49.9067347993235 8.90975
49.93129245833333 8.953380000000001
49.95604445336378 8.889610000000001
49.98060703442832 8.86559
50.005172069746266 8.86035
50.02993150438364 8.82521
50.05450147301533 8.85742
50.07907390151433 8.802810000000001
50.10364879174981 8.797189999999999
50.12841816587289 8.78439
50.1529980044635 8.76577
50.17758031042124 8.76035
50.20216508562089 8.72278
50.22694442953363 8.74156
50.25153416817468 8.71142
50.27612638170508 8.67338
50.300721072005196 8.662230000000001
50.325510416102105 8.66363
50.350110084975064 8.60019
50.37471223628208 8.5984
50.39931687190919 8.57178
50.424116246675766 8.56028
50.44872587605249 8.571489999999999
50.47333799543065 8.561960000000001
50.49795260670191 8.54267
50.52276204271512 8.53152
50.54738166295838 8.50623
50.57200378079314 8.50437
50.596628398116835 8.4677
50.62144792604559 8.426689999999999
50.646077567609396 8.45306
50.670709714377715 8.43268
50.69553683636198 8.41995
50.72017401885922 8.36328
50.7448137122895 8.34646
50.76945591856022 8.33108
50.79429318636823 8.34394
50.818940443716784 8.33571
50.84359021965163 8.320030000000001
50.868242516085964 8.31672
50.893089960641895 8.27158
50.917747323549435 8.24864
50.94240721271973 8.21535
50.96706963007175 8.21463
50.99192728239342 8.200510000000001
51.01659478166073 8.19022
51.04126481489051 8.16083
51.06593738400761 8.15647
51.090805275207074 8.14382
51.11548294172845 8.11957
51.14016314993547 8.0934
51.164845901758845 8.11848
51.18972406304274 8.11068
51.21441192780656 8.02864
51.23910234200271 8.06105
51.2637953075678 8.0264
51.288683770237945 7.9905100000000004
51.31338186432707 7.99148
51.33808251561888 7.958660000000001
51.362978729967345 7.954860000000001
51.387684521509755 7.95095
51.41239287610203 7.94462
51.437103795691165 7.86848
51.46201036644977 7.878660000000001
51.486726441956634 7.880210000000001
51.51144508832545 7.888489999999999
51.536166307509156 7.85205
51.56108326624387 7.8173699999999995
51.58580965706056 7.80399
51.61053862657523 7.81338
51.635270176746864 7.782439999999999
51.66019755512065 7.7766
51.68493429268881 7.721369999999999
51.70967361681515 7.7130600000000005
51.73441552946465 7.71132
51.759353359237934 7.707339999999999
51.7841004750961 7.67776
51.80885018539685 7.66542
51.833602492111254 7.64699
51.8585508051424 7.62102
51.883308330926425 7.64076
51.90806845906181 7.606960000000001
51.932831191525715 7.5961300000000005
51.95779001977161 7.549060000000001
51.98255798721516 7.53373
52.00732856494335 7.516660000000001
52.03229530577543 7.52728
52.057071130455945 7.52358
52.081849571391054 7.51088
52.106630630568695 7.4756100000000005
52.13160794279417 7.46972
52.15639426492067 7.433339999999999
52.18118321127822 7.4332
52.205974783860896 7.415960000000001
52.23096269971011 7.38985
52.255759551287994 7.38818
52.280559035098186 7.3947199999999995
52.30536115314103 7.36833
52.33035970494467 7.342810000000001
52.35516711807904 7.34351
52.37997717147198 7.31657
52.40478986713005 7.27958
52.42979908731974 7.25834
52.454617094216 7.23813
52.47943774942214 7.23895
52.50426105495102 7.2478
52.529280976059844 7.195639999999999
52.554109609024096 7.19835
52.57894089837482 7.14982
52.60377484613117 7.14203
52.62880550079408 7.160480000000001
52.65364479223379 7.146089999999999
52.67848674816189 7.11718
52.70352547971946 7.15985
52.72837279155837 7.11189
52.753222773982785 7.07402
52.778075429022984 7.092810000000001
52.80312495150885 7.02948
52.827982978797436 7.031560000000001
52.85284368481815 7.0287
52.87770707160767 7.00816
52.90276741793998 7.01495
52.92763619336701 7.020589999999999
52.952507655698504 6.9461699999999995
52.977381806977576 6.9196
53.00245301017842 6.94354
53.02733256653592 6.9348399999999994
53.052214817996074 6.9184600000000005
53.077099766608484 6.90768
53.102181859804446 6.87745
53.127072229988265 6.87212
53.15196530349892 6.86227
53.17686108239249 6.828060000000001
53.20195409881522 6.83205
53.22685531582556 6.82138
53.25175924441303 6.7990699999999995
53.27666588664027 6.77981
53.30176985962693 6.753710000000001
53.3266819565689 6.74453
53.35159677336455 6.75668
53.376514312083096 6.68612
53.40162927507703 6.704289999999999
53.42655228516116 6.69972
53.45147802340193 6.6649
53.47660125628886 6.6996199999999995
53.50153247842639 6.66891
53.52646643496923 6.642580000000001
53.55140312799818 6.66471
53.576537409691696 6.63128
53.60147960336152 6.576560000000001
53.626424539786164 6.5563199999999995
53.65137222105307 6.55519
53.67651758529126 6.55807
53.70147078399681 6.50407
53.72642673383343 6.51209
53.75138543689533 6.54301
53.776541917524526 6.48177
53.801506154876755 6.47277
53.826473151763246 6.46645
53.851442910284916 6.4253800000000005
53.87661054126026 6.40791
53.9015858509782 6.42358
53.92656392866066 6.39112
53.95154477641532 6.37544
53.976723591801296 6.36679
54.00171000771266 6.35274
54.02669920004598 6.3483
54.051691170915745 6.331169999999999
54.076881204886796 6.294
54.101878760928514 6.30931
54.12687910187696 6.2906699999999995
54.152077577768296 6.26432
54.1770835166946 6.2354
54.20209224691339 6.26089
54.22710377055121 6.205430000000001
54.25231352511594 6.1846
54.27733066384342 6.14504
54.30235060239643 6.16107
54.32737334290836 6.15508
54.35259441062629 6.10187
54.377622783395324 6.12293
54.40265396455061 6.0643199999999995
54.42768795623251 6.0812
54.45292037169559 6.02682
54.477960012857906 6.05164
54.50300247099511 6.00408
54.52804774825457 5.99979
54.55329154616743 5.98527
54.57834249018678 5.93671
54.6033962597977 5.9568900000000005
54.6284528571545 5.92769
54.653708072335164 5.9025300000000005
54.67877035378786 5.85354
54.70383546947698 5.84039
54.72890342156389 5.81144
54.7541700889442 5.82212
54.77924374251975 5.8070900000000005
54.8043202390049 5.751119999999999
54.82959552413022 5.75536
54.8546777351945 5.72219
54.87976279569621 5.69977
54.90485070780914 5.70161
54.930137506558005 5.6788
54.95523115074295 5.728330000000001
54.98032765308844 5.6519900000000005
55.005427015775496 5.59816
55.03072536339621 5.61943
55.05583047570572 5.58978
55.080938454927676 5.58445
55.10604930325027 5.5450099999999996
55.131359235107396 5.524030000000001
55.15647585066083 5.45673
55.181595341907496 5.40182
55.20671771104285 5.40674
55.232039262617704 5.42014
55.25716741665048 5.35925
55.28229845518636 5.36564
55.30743238042802 5.3175300000000005
55.33276558731939 5.31546
55.357905315183636 5.29035
55.383047936390035 5.2142599999999995
55.40819345314859 5.217230000000001
55.433538351073295 5.21201
55.458689688238415 5.1660699999999995
55.483843927614096 5.1465
55.509197623043605 5.13086
55.53435769621134 5.14369
55.55952067826466 5.09849
55.5846865714265 5.05875
55.61005202069737 5.06307
55.63522376553902 5.06048
55.66039842818645 5.05511
55.68557601087004 5.03316
55.7109532500271 4.92934
55.73613670233794 4.9825
