TT I
1.2716486653135266 7.228510000000001
1.2939594142134223 7.352130000000001
1.3162702121660406 6.78706
1.3385810600174564 6.95515
1.3608919586137629 7.69525
1.383202908801069 6.9375
1.405513911425503 6.05098
1.4278249673332093 5.93168
1.4501343378461518 6.21769
1.4724455028545926 6.13594
1.4947567236847858 6.728260000000001
1.517068001182951 6.38044
1.5393793361953272 6.19918
1.5616907295681737 5.95205
1.5840021821477681 5.11146
1.60631369478041 5.2665
1.6286252683124185 5.26704
1.6509369035901333 5.6913800000000005
1.6732468618895553 5.61149
1.695558623192809 4.84786
1.7178704487808514 5.47008
1.7401823395001077 5.08774
1.7625012545597203 5.24815
1.7848028405262486 5.34949
1.8071218901122095 5.35529
1.8294236121921872 5.55408
1.8517427996910911 5.217169999999999
1.8740620574440425 5.32829
1.8963639900671978 4.89789
1.9186833908139995 5.0129
1.9409854680117449 4.93069
1.9633050151394713 5.25724
1.9856246367570705 5.18087
2.0079269371922672 4.47596
2.03024671027244 5.08539
2.0525491637446027 4.492430000000001
2.074869091674931 4.938269999999999
2.097171701569106 4.86254
2.1194917877373847 5.21215
2.141811954326636 4.74691
2.164114805233074 4.6532
2.186435135143035 6.27886
2.208738150935709 15.0581
2.231058647554722 34.3833
2.2533792288321184 26.662
2.275682498336085 11.328
2.298003251406138 6.0341
2.3203066942619714 5.03891
2.3426276225136022 4.85579
2.3649486396617507 4.34258
2.387252348930071 5.71105
2.4095735463442893 5.38645
2.4318774374315884 5.14214
2.4541988185014043 5.165430000000001
2.476502894794693 5.29524
2.498824462909887 5.68025
2.521146125856138 5.83554
2.5434504863470337 6.12601
2.5657723414244717 6.16103
2.588076895590662 7.102360000000001
2.610398946189713 6.946510000000001
2.6327210958598384 7.29242
2.6550259469304716 6.4663900000000005
2.6773482972090137 6.719939999999999
2.6996533504259 7.009360000000001
2.7219759047039602 6.89231
2.744298562293959 7.244910000000001
2.7666039251246595 7.51748
2.7889267918020164 6.977710000000001
2.8112323652516555 7.684819999999999
2.833555444408179 7.9764
2.8558786311183852 7.9676800000000005
2.8781845268938557 8.56886
2.9005079311721484 8.15431
2.9228140460410397 9.07059
2.9451376712799635 9.16484
2.967444008632326 10.142000000000001
2.9897678582247247 9.94789
3.0120918213106695 10.4555
3.0343984987899373 10.3458
3.0567226913198637 11.4785
3.079029599759726 12.1652
3.101354025127254 12.2645
3.123678568232338 12.9715
3.145985829517914 13.1919
3.16831061055229 13.595
3.1906181112775593 14.7314
3.212943133635653 14.8625
3.2352682779763207 15.8304
3.2575761442691227 15.749
3.2799015350264273 15.8998
3.302209649240067 16.4571
3.3245352898092655 17.5919
3.3468436553365257 17.9313
3.369169549113219 18.0791
3.3914955708171384 19.1531
3.413804319727358 19.2914
3.4361305997334863 19.2071
3.4584396084414553 19.6846
3.4807661501462652 21.0047
3.503092824025881 21.6862
3.5254022288463154 21.4325
3.5477291695206588 22.124000000000002
3.5700388426251948 23.4514
3.5923660534916446 24.7452
3.6146934007816114 41.0943
3.637003482731501 104.47200000000001
3.6593311053109985 116.619
3.681641464033634 66.5808
3.7039693653009733 32.7414
3.726297407241705 26.9147
3.7486081875460804 26.4271
3.7709365132734978 26.949
3.793247578841633 27.281
3.8155761917550093 27.6801
3.8378875459837216 27.7097
3.8602164494827234 28.1581
3.882545499606844 29.1994
3.9048572932539183 29.8656
3.9271866390645718 30.1434
3.9494987298666713 30.7047
3.971828374764527 31.1908
3.9941581705403255 31.6914
4.016470713506008 32.4215
4.038800813471445 33.302
4.061113662089144 34.1107
4.0834440696459176 35.0437
4.105774632334751 35.201
4.128087945865126 36.4645
4.150418821249301 37.0906
4.172732448931298 38.3206
4.195063640413578 40.1753
4.2173775856475215 45.4705
4.239709096631102 81.7852
4.262040768704612 279.883
4.284355196706267 390.399
4.306687193387355 255.335
4.329001947444346 95.1009
4.35133427213731 52.0233
4.373666762177566 46.6896
4.395982011761091 46.1501
4.418314834921175 47.6757
4.44063041906622 56.4877
4.4629635787515625 70.3517
4.4852969080429785 70.0383
4.5076130004776225 57.729
4.529946671403969 53.3945
4.552263106909177 53.2272
4.574597122877047 53.3176
4.596931312711224 54.1052
4.619248269273446 54.8147
4.6415828092605835 56.4692
4.663900117405352 57.3185
4.686235010953232 58.7268
4.708552674085913 59.92100000000001
4.730887924602802 61.7092
4.753223354952695 63.3376
4.775541557023902 65.1404
4.797877349456786 66.7208
4.820195915032126 68.4365
4.842532072957498 69.9167
4.864868414979744 72.1248
4.88718753227192 74.4782
4.909524244902505 76.7408
4.931843734218147 78.3069
4.954180820867835 81.2339
4.976518095879839 84.7
4.998838149695359 87.6763
5.021175803844231 91.82
5.043496238205739 95.3051
5.065834274903528 100.428
5.088172504230693 106.85799999999999
5.1104935158799565 115.448
5.132832132875765 145.602
5.155153533596801 202.68400000000003
5.1774925416746225 257.334
5.199814334878411 506.972
5.2221537374521505 1415.39
5.244493338631803 3198.95
5.266815727034316 6625.18
5.289155727832427 10914.6
5.311478517248165 9608.66
5.333818921080011 4153.53
5.356159527788849 954.1619999999999
5.3784829252032536 262.014
5.400823940070432 175.558
5.423147747031976 147.696
5.445489173474152 132.03799999999998
5.467830807066149 124.859
5.490155234831516 119.359
5.512497285125229 113.931
5.534822130975162 110.664
5.557164601388673 108.195
5.579489868738879 104.991
5.601832762690846 104.277
5.6241758697774475 103.101
5.646501775867269 101.794
5.668845311622074 99.6979
5.691171647754637 99.2814
5.713515615597765 97.8219
5.735859800852677 96.7706
5.758186788542988 96.8161
5.780531411018185 97.5889
5.802858837297399 96.7785
5.825203900414495 97.17200000000001
5.8475491852224 97.834
5.869877275883075 98.2747
5.892223006467101 99.2795
5.914551544266608 101.352
5.936897724049891 105.557
5.959244129804903 113.854
5.981573344815301 140.668
6.0039202049061 263.254
6.026249875609095 574.4159999999999
6.04859719346037 1104.81
6.070927323278297 2026.42
6.093275102315365 3680.87
6.115623113320588 4919.74
6.137953938319995 3715.24
6.160302415650845 1420.48
6.182633708324452 391.74
6.2049826554078376 151.475
6.227331838745022 107.104
6.249663839443684 95.1129
6.27201349767565 89.9498
6.294345974611799 96.5299
6.316696111167083 111.226
6.339046488263839 105.25299999999999
6.361379686074702 86.0669
6.383730546639482 76.2875
6.406064229255215 73.0734
6.428415576718203 72.5307
6.450749747566656 70.9077
6.47310158535871 69.2592
6.495453669698332 68.5424
6.517788579421056 67.8054
6.540141159237969 66.8189
6.562476565766648 66.3217
6.5848296444934045 65.6456
6.607182974060425 65.2531
6.6295191323281015 65.4551
6.651872965955752 69.2807
6.6742096296068985 99.7103
6.6965639707294615 158.944
6.71891856698715 161.888
6.741255995248479 107.631
6.763611104154477 73.1044
6.785949046381137 63.2303
6.808304671371482 60.9338
6.8306605557940046 60.7702
6.852999275508618 59.6864
6.875355681171544 59.6641
6.897694923437771 59.1373
6.92005185377892 58.9829
6.9423916220322655 58.8912
6.964749080490181 57.9841
6.987106804399774 57.7891
7.009447368180821 58.1205
7.031805625367033 57.8319
7.054146723727803 57.8905
7.076505517631004 58.0806
7.098864581288365 57.6768
7.121206488070854 57.2436
7.143566093607822 57.4047
7.165908543567245 58.0393
7.188268694426048 58.0102
7.2106291193438095 58.146
7.232972390625943 59.6864
7.255333366030969 74.0838
7.277677189091925 139.941
7.300038718428332 204.03799999999998
7.322400526130865 173.05200000000002
7.344745183422596 102.23100000000001
7.367107550224791 66.5288
7.389452767901992 59.2648
7.411815697249891 57.9532
7.434161478756298 57.0753
7.456524974096713 56.5653
7.478888753837185 56.1293
7.501235387657368 56.769
7.523599738562711 56.5388
7.545946944825532 57.1234
7.568311870344528 57.5797
7.5906770845765665 58.038999999999994
7.613025156078678 59.4726
7.635390950099687 61.3461
7.657739602662809 60.006
7.680105979923558 58.8232
7.702472650212829 58.5619
7.724822180948224 58.3389
7.747189439655568 58.0357
7.769539560075357 58.3311
7.791907410653562 58.9703
7.81425812420825 58.8103
7.836626570110925 59.3291
7.858995315087906 60.1476
7.881346924933401 60.1828
7.903716270417482 60.5356
7.926068482028405 60.8257
7.948438431475253 61.415
7.9708086843180235 62.0564
7.993161805171116 62.7027
8.015532667162402 63.1547
8.037886398416653 64.0433
8.060257873014221 64.432
8.082629655331942 65.6359
8.104984308787587 66.5414
8.127356708900503 70.0229
8.149711981398308 77.2635
8.172085002766314 80.5549
8.194458336181368 76.1554
8.216814543847752 72.3989
8.23918850371002 72.4238
8.26154533906492 73.0468
8.283919928836452 74.5897
8.306277395339652 75.8101
8.328652618483376 77.0245
8.351028159736202 79.289
8.373386579575245 81.9394
8.395762759396959 83.7483
8.418121819038275 89.7514
8.440498640894003 105.714
8.462875785192262 124.87200000000001
8.485235811156207 142.22
8.507613602688501 192.997
8.529974277114228 304.187
8.552352719347912 453.264
8.574731488360351 662.543
8.59709314210385 1036.05
8.619472567021075 1558.9
8.64183487789147 2058.52
8.664214962183097 2015.3
8.686577933647762 1286.11
8.708958680784317 568.846
8.731339760774953 231.803
8.753703729764451 131.843
8.77608547780821 109.11399999999999
8.798450116065078 102.86200000000001
8.820832535634787 98.6572
8.843215292401656 96.2956
8.865580941199045 94.6591
8.887964374703538 93.6818
8.910330701447199 94.5981
8.932714815164482 97.7459
8.955099270424924 96.5054
8.977466620733543 92.6702
8.999851761421976 89.1783
9.022219798361645 87.4727
9.04460562795561 86.6817
9.066991803441677 86.3416
9.089360876979615 86.1136
9.111747746589993 86.1083
9.13411751544971 85.4271
9.156505082664324 84.8546
9.178875550323522 85.6545
9.20126381862328 85.665
9.223652438908596 86.2039
9.246023961427412 85.8902
9.26841328802173 85.0732
9.290785518039224 85.5669
9.313175554425882 86.318
9.335565947154315 86.3968
9.357939245086508 86.1034
9.380330352834827 86.6264
9.40270436697103 86.6151
9.425096193225055 86.0389
9.447488380180165 87.1728
9.469863475295412 87.1259
9.492256385987508 87.3911
9.514632206018318 88.3074
9.537025843935714 88.709
9.559402392368193 89.7836
9.581796761000229 90.8137
9.604191496441521 92.3857
9.626569144158516 96.3151
9.648964615551032 101.333
9.671343000390081 103.958
9.693739211225699 101.208
9.716135793237463 97.9682
9.738515290448102 96.9556
9.760912617143402 97.7893
9.783292860202891 99.7044
9.805690935076182 100.73
9.828089385495742 101.896
9.850470754023561 104.589
9.872869957865444 113.089
9.89525208097539 131.713
9.917652041736662 147.839
9.940052382417589 148.52200000000002
9.962435644102392 157.156
9.984836746950979 201.25400000000002
10.007220771957746 285.035
10.029622640473708 398.63300000000004
10.052007432299963 544.015
10.074410069984072 736.931
10.096813093716005 1059.51
10.119199042482517 1495.79
10.141602840636468 1832.55
10.163989564971628 1774.03
10.186394141051062 1237.19
10.208799107559706 607.732
10.231187001965623 268.707
10.253592751657669 152.45600000000002
10.275981430388155 124.79
10.298387966769793 121.958
10.320794897965431 124.589
10.343184759907361 122.89
10.36559248305461 116.17
10.387983138083852 110.667
10.410391656691655 113.516
10.432800574501677 127.803
10.455192425893369 150.118
10.47760214443012 176.65599999999998
10.499994797678786 209.832
10.522405320453982 260.976
10.54479877906917 348.56
10.567210109595656 453.564
10.5896218454736 537.2769999999999
10.612016518879773 551.313
10.634429067781074 430.952
10.656824555333241 266.151
10.679237920773568 156.843
10.701651695961992 108.191
10.724048411481384 95.264
10.746463008485165 91.4629
10.768860546937125 89.0105
10.791275969274796 87.2214
10.81369180576079 85.7739
10.836090585366925 84.5704
10.858507252467449 83.3811
10.88090686379991 82.509
10.903324365036394 82.1732
10.925724811614439 81.638
10.948143150509463 83.5888
10.970561909719066 83.0532
10.992963615930844 80.6799
11.015383218085756 77.9718
11.037785768347074 76.3449
11.06020621697282 75.9552
11.082627090322113 75.3181
11.105030913430326 74.7332
11.12745263854165 75.6093
11.149857314510728 79.8454
11.172279894912576 87.3633
11.194702904450653 89.0871
11.217108866490921 83.9971
11.239532736615194 78.2388
11.26193956033512 75.531
11.284364294577085 73.9541
11.306789462371718 71.3497
11.329197585398376 69.9156
11.351623622610898 69.7362
11.37403261614354 68.9463
11.396459526308487 68.5404
11.418869393879497 68.465
11.441297180532617 67.8629
11.463725406927658 67.5062
11.486136592353875 67.6222
11.508565700543707 68.2586
11.530977768845315 70.6066
11.553407762368774 71.4993
11.575838200059769 71.2593
11.598251599479612 68.7159
11.620682927815501 67.1083
11.64309721895548 66.4328
11.665529441478206 65.5806
11.687962112597958 65.2649
11.710377748130886 65.3558
11.732811318753434 65.2956
11.755227854859067 65.263
11.777662328529495 65.4091
11.800079768750786 65.293
11.822515149015453 65.2397
11.844950984084935 65.0998
11.867369787303163 64.9691
11.889806534289491 64.8158
11.912226250487029 65.2328
11.934663912939751 65.4093
11.9571020346363 65.4969
11.979523127133968 65.5352
12.001962169624331 66.2221
12.024384183972964 67.6312
12.046824150809913 71.4852
12.069264581333726 77.7376
12.091687985297767 85.3726
12.11412934550045 93.4333
12.136553680195208 103.569
12.158995973632788 118.426
12.181438735204349 140.006
12.20386447284199 167.075
12.226308172985636 198.268
12.24873485024193 210.903
12.271179492516982 191.613
12.293607112949127 151.528
12.316052700916226 114.117
12.338498763250042 89.8739
12.360927805303868 76.5527
12.383374818673879 70.3454
12.405804812803074 67.9153
12.428252780773262 67.3394
12.45070122756722 67.033
12.473132656675375 67.27600000000001
12.49558206341869 66.9829
12.518014453510101 67.007
12.540464823770117 67.0155
12.562915677315177 67.3666
12.58534951575545 68.5453
12.607801338171472 70.6734
12.630236146511358 76.7948
12.652688941369085 83.2406
12.675124723177234 83.8741
12.697578494048786 79.3082
12.720032754458185 73.6043
12.742470003354093 71.0453
12.764925245138771 70.8622
12.787363476431278 70.8121
12.809819703166806 71.3097
12.83227642391173 71.8464
12.854716135692716 72.4373
12.877173846755147 73.5121
12.899614549869717 73.8478
12.9220732548287 74.6186
12.94453245827299 75.0142
12.966974655289818 76.0531
12.989434858002571 76.8821
13.011878055298721 77.6226
13.034339260862497 78.818
13.056800969391883 79.9468
13.079245674017244 82.2419
13.101708390774869 84.7891
13.12415410463411 93.2063
13.146617833206086 107.64299999999999
13.169064559883248 123.182
13.191529303857127 139.486
13.213994557076367 157.536
13.236442809902437 181.13299999999998
13.258909083908291 217.60299999999998
13.28135835851934 265.449
13.30382565690295 327.278
13.326293469022952 395.457
13.348744283242008 434.741
13.371213125129904 405.81800000000004
13.39366497011003 322.428
13.416134845360597 222.81599999999997
13.438605238843131 152.298
13.46105863690397 120.59899999999999
13.483530069144786 115.399
13.505984506951902 121.706
13.528456981549432 132.942
13.550929978879088 144.951
13.573385983253365 160.749
13.595860028340867 184.41099999999997
13.618317081455832 221.403
13.64079217790333 266.687
13.663250283359057 318.156
13.685726434770173 365.474
13.708203115221277 366.67199999999997
13.730662806148091 316.302
13.75314054697177 239.66
13.775601299246777 162.219
13.798080104050406 113.339
13.820559442405358 93.0377
13.843021793671388 86.5347
13.865502201420897 84.2988
13.887965623051947 83.2487
13.910447103807167 81.9949
13.932929122629764 80.4845
13.955394156785959 79.7887
13.977877254034569 78.9009
14.000343367582113 77.9418
14.022827546871707 77.4327
14.045294743423524 76.7908
14.06778000837062 76.0257
14.090265817715476 75.6138
14.112734645763819 75.3701
14.13522154619454 75.3694
14.157691466286913 75.7428
14.180179461423874 75.2535
14.202668005486178 74.5885
14.22513957064374 73.8306
14.247629214846473 73.0735
14.270101881097517 72.9258
14.29259262906496 73.4615
14.315083930490205 74.1235
14.337558255389705 74.8395
14.360050666019726 74.5839
14.382526101071944 73.3119
14.405019624534942 72.2556
14.427513705993134 71.5491
14.449990813291825 71.5304
14.47248601302899 71.6416
14.49496423954951 71.5109
14.517460561197822 71.3682
14.539939910570322 71.3663
14.562437357763558 71.8662
14.58493536931253 73.2975
14.607416409993311 74.1471
14.62991555254159 75.0989
14.652397725157423 74.7523
14.674898002342799 74.0631
14.697398848433282 73.4975
14.719882725991326 73.9226
14.74238471217934 75.2951
14.764869730765593 78.9463
14.787372860692983 83.6246
14.809876564079925 89.5782
14.83236330125751 96.074
14.854868153850365 103.00299999999999
14.877356041159485 111.719
14.899862046604186 123.666
14.922351087688757 141.127
14.944858249632887 163.444
14.967365991421232 189.42700000000002
14.989856770231246 211.97099999999998
15.012365673994204 223.092
15.03485761569738 209.604
15.05736768508665 175.55599999999998
15.07987833888692 137.844
15.102372032001655 105.916
15.124883856909658 85.1793
15.14737872204565 77.2641
15.169891721717274 74.407
15.192405310371893 73.925
15.214901940621196 74.3933
15.237416709527137 74.3639
15.259914520936249 74.8712
15.282430473753607 73.9261
15.304947020131227 72.293
15.327446610371178 70.9858
15.349964346154254 70.1038
15.372465126703139 69.7615
15.394984055556009 69.5496
15.417486030076159 69.1218
15.44000615566487 68.7351
15.462526881230803 68.6122
15.485030653812652 68.9713
15.507552581617434 69.0973
15.530057557334603 69.1628
15.55258069104857 69.0564
15.575104429329837 69.0999
15.597611216864632 68.5279
15.620136166564563 68.7664
15.6426441664095 69.8691
15.665170331202765 72.4254
15.687697105158826 76.57
15.710206930593545 81.2597
15.732734925158933 86.0017
15.755245972089478 90.9049
15.77777519094324 97.1538
15.800287463046663 105.51799999999999
15.822817909869592 117.655
15.84534897229804 133.641
15.867863089299354 154.329
15.890395385222186 174.821
15.912910736597423 192.11900000000003
15.935444269699861 194.831
15.957978423016485 176.81400000000002
15.980495633101265 147.739
16.003031029129367 117.37100000000001
16.02554948280019 89.9091
16.048086125229432 74.9486
16.070623392487107 69.9862
16.09314371869582 68.3419
16.11568223789321 67.385
16.13820381691126 65.8832
16.160743591742527 64.5286
16.183283996022084 63.2706
16.205807461423195 62.0763
16.228349126881973 61.5079
16.25087385432698 61.7438
16.27341678466365 61.0442
16.29594277784926 60.8986
16.31848697676433 61.2989
16.341031811604868 61.8862
16.36355971058487 62.2338
16.3861058195587 61.7953
16.40863499352978 60.4989
16.431182380342005 59.3556
16.453730407713202 58.7454
16.476261501364792 58.3323
16.498810812136167 57.9332
16.52134319004079 57.8659
16.54389378792203 57.8938
16.566445031001553 57.7079
16.588979342490088 57.5735
16.61153187824822 57.2152
16.634067483263312 57.3596
16.656621315414416 57.0353
16.679175797408888 56.6749
16.701713349928728 56.8492
16.72426913389191 57.1518
16.74680798922351 57.3988
16.76936507887444 57.2309
16.791905240734874 57.353
16.814463639794468 57.1305
16.837022695210294 57.1236
16.859564824093756 57.6067
16.882125194503903 58.3378
16.904668639217885 59.1679
16.927230328348003 59.321000000000005
16.949792678493612 59.6509
16.972338104193863 58.9333
16.994901778652235 58.2159
17.017448529496576 57.9408
17.040013531998152 58.2314
17.06257920018044 58.7179
17.0851279459922 59.5034
17.107694947817667 60.6588
17.130245028099072 61.5713
17.15281336730298 62.9729
17.17536478578733 64.3449
17.19793446610687 65.6059
17.220504818648422 67.5438
17.243058251703697 69.8032
17.265629950971032 73.4472
17.288184731571736 77.4729
17.310757781306908 81.9241
17.33333150794385 84.9605
17.355888317140174 86.0677
17.37846339986244 83.2984
17.401021565958885 77.8185
17.42359800851343 71.7181
17.44617513265564 66.8511
17.468735341390783 63.7417
17.491261035594565 61.8953
17.51396340099364 61.3881
17.536490463869136 61.5681
17.559018209820174 61.4832
17.58154663977963 61.5862
17.604251766089718 61.5684
17.626781572227713 61.9288
17.64931206518155 62.2085
17.671843245885103 62.7674
17.69455114821572 63.1671
17.717083712612634 63.2819
17.739616967569667 63.5459
17.762150914021706 63.653999999999996
17.78486160749854 63.6735
17.807396945166804 64.4539
17.829932977143503 65.2346
17.85246970436452 66.7399
17.875183204129467 69.1998
17.897721330097664 72.0936
17.920260154126645 74.9603
17.942799677153296 78.1249
17.9655159983646 81.061
17.988056927677544 84.1939
18.010598558807683 89.0689
18.033140892692916 96.0499
18.05586005052525 104.146
18.07840379824407 114.42399999999999
18.10094825154059 125.943
18.12366954819864 137.329
18.146215420998306 144.029
18.16876200220057 142.494
18.191309292745153 132.842
18.214033452627167 118.44200000000001
18.236582170236648 104.027
18.259131600016456 93.3946
18.281681742907335 88.7798
18.304408781233683 90.0135
18.32696035875955 93.0957
18.349512652227624 97.8039
18.372065662579683 103.695
18.394795594587553 107.999
18.41735004715306 108.573
18.43990521943684 104.84299999999999
18.46246111238171 96.2631
18.485193953325208 85.9377
18.507751296070428 76.7366
18.530309362314178 70.7016
18.552868153000343 67.2807
18.57560391815056 65.1838
18.59816416623245 64.4757
18.620725141597372 63.8376
18.643286845190268 63.3273
18.666025549835414 62.8139
18.688588718427933 62.2402
18.711152618092243 62.2012
18.73389353884365 62.0501
18.75645890921984 61.5707
18.77902501351406 60.9412
18.801591852673102 61.1088
18.824335739722738 60.5119
18.846904057212626 60.5139
18.8694731124168 60.1063
18.89204290628315 60.1582
18.914789774966803 59.6875
18.937361054791623 59.3936
18.959933076131318 59.3809
18.982505839934877 59.4394
19.00525570560582 59.4363
19.027829963004184 59.4512
19.05040496572238 59.3685
19.072980714710468 59.258
19.095733592739563 59.6059
19.11831084296757 60.0798
19.140888842324735 60.8148
19.16346759176222 61.0069
19.18622349753803 61.6343
19.208803755869358 62.2529
19.231384767143577 62.9135
19.253966532312948 63.6818
19.276725481241822 64.9229
19.29930876296784 66.7224
19.3218928014549 69.1879
19.34465404436217 72.4779
19.36723960516257 75.5184
19.389825925592426 77.9662
19.412413006605938 78.9292
19.43517731967805 77.5451
19.457765930683355 73.734
19.48035530514408 68.9943
19.50294544401556 64.3138
19.525712842708348 60.6357
19.54830451925909 58.38399999999999
19.570896963095727 56.7314
19.593490175174704 56.2702
19.616260674962184 56.2258
19.638855432416964 55.6614
19.661450960992624 56.1019
19.68404726164677 55.5884
19.706820878021247 55.4573
19.729418731756834 55.648
19.752017360452857 55.457
19.77461676506804 55.7074
19.797393513540218 55.6573
19.819994478951667 56.3759
19.84259622316767 57.1139
19.8651987471481 57.4949
19.887978643247177 57.7161
19.91058273574792 57.8637
19.933187610901943 58.489
19.955969879466828 59.2375
19.97857632894404 60.2395
20.00118356396599 61.2469
20.023791585494575 62.7429
20.046577028914875 65.0675
20.069186632506966 67.0971
20.091797025500632 69.6967
20.114408208858933 71.5375
20.137196842715273 72.8408
20.159809615886765 72.547
20.18242318232135 70.1509
20.20503754298326 67.4285
20.227829382875154 65.3233
20.250445341109344 64.1261
20.27306209647285 63.6835
20.29567964993108 64.5602
20.31847471147704 65.7633
20.34109387027612 67.2142
20.363713830075454 68.0458
20.386334591841646 67.7753
20.409132890679302 65.6987
20.431755265564437 62.8265
20.454378445325528 59.7858
20.477002430930366 57.4158
20.499803982716553 55.5842
20.522429589228004 54.253
20.54505600449589 53.3929
20.567683229489194 53.261
20.590488049900088 52.8127
20.61311690359731 52.5163
20.63574656993626 52.1654
20.658553853717297 51.7109
20.681185154618298 51.7354
20.703817271080066 51.5984
20.72645020407368 51.2302
20.749260783967177 51.008
20.771895359337133 51.1932
20.794530754161617 51.0793
20.817166969412938 51.0613
20.83998086114876 50.8327
20.86261872660049 50.661
20.885257415405402 50.81100000000001
20.90789692853701 50.5291
20.930714147864748 50.6247
20.953355319030678 50.5924
20.97599731745334 50.7216
20.99864014410749 50.6771
21.021460706796564 50.7961
21.044105199328826 50.973
21.06675052302631 51.1473
21.089396678865015 51.2957
21.112220600704806 51.2257
21.134868430275347 51.711999999999996
21.15751709492456 51.7616
21.180166595629693 51.9992
21.202993892429635 52.3183
21.22564507473034 52.8186
21.24829709602816 53.1659
21.27112693608965 53.4952
21.293780644891275 53.7414
21.316435195634053 53.1897
21.339090589297417 52.3727
21.361923832041875 52.167
21.384580921090404 51.1605
21.407238856007325 50.7141
21.429897637773326 50.643
21.45273429906592 50.4806
21.475394784108598 50.2214
21.498056118951983 50.2768
21.520718304578022 50.5662
21.543558400304388 50.6423
21.566222297108816 50.8465
21.58888704765135 50.8618
21.61155265291521 51.2334
21.63439619898156 51.8428
21.657063523335786 52.193000000000005
21.67973170537063 52.7758
21.7024007460706 53.2302
21.72524775840385 53.7732
21.747918526116475 54.4773
21.770590155457388 55.1953
21.79326264741238 56.4938
21.816113141960237 57.6904
21.838787368860547 59.2234
21.861462461341976 61.0995
21.884315579735777 63.1324
21.90699241312273 64.9787
21.92967011506078 66.4745
21.95234868653799 67.4002
21.9752053151131 67.0861
21.997885635446785 65.7346
22.020566828293532 63.5234
22.04324889464272 61.0254
22.066109049404666 59.0776
22.088792872571794 57.9875
22.111477572219204 57.7049
22.1341631493376 57.9419
22.157026846313123 58.1848
22.179714188221507 57.8864
22.202402410582668 57.2172
22.22509151438863 55.9362
22.24795876962584 54.652
22.270649646204486 53.4968
22.293341407213727 52.5077
22.316034053646906 51.8048
22.338904883215342 51.2737
22.36159931041458 51.1758
22.38429462602756 51.1882
22.40699083104897 50.8479
22.429865251039757 50.8771
22.452563244831367 51.0634
22.47526213102522 51.0131
22.49813925616515 50.9251
22.520839937143307 50.6983
22.543541513520587 50.6571
22.56624398629403 50.448
22.589124730075895 50.5378
22.611829005656723 50.5574
22.63453418063466 50.6017
22.657240256008077 50.7638
22.680124634582935 51.0525
22.70283252079775 51.3995
22.725541310413075 51.5632
22.74825100442868 51.9756
22.771139033969575 52.3285
22.79385054687155 52.4654
22.81656296718292 52.6461
22.83927629590484 53.3045
22.862167992606945 54.137
22.88488314827121 54.9447
22.907599215359284 55.7426
22.93031619487366 56.7923
22.953211574954405 57.9906
22.975930389478226 59.0851
22.998650119445763 60.0271
23.02137076586092 59.9015
23.044269845560063 59.2752
23.06699233506288 58.1523
23.089715744034912 56.2199
23.112617610931565 54.3184
23.135342869061212 52.7239
23.158069049684816 51.8396
23.1807961538087 51.1597
23.20370174880544 50.8786
23.226430710184808 50.9077
23.249160598093425 50.9988
23.271891413539002 50.8842
23.294800752937697 50.9986
23.31753343374794 51.3324
23.340267045128353 51.3468
23.36300158808808 51.6453
23.38591468821339 51.9936
23.408651104658304 52.1004
23.431388455719986 52.5106
23.454126742409 52.9917
23.4770436196085 53.5701
23.499783787914662 54.4582
23.522524894889884 55.4611
23.54526694154616 56.4166
23.56818761219047 57.7155
23.59093154860734 58.6732
23.613676427751283 59.6935
23.636422250635754 59.7988
23.659346731118656 58.933
23.68209445191868 57.6088
23.704843119509587 55.3578
23.72759273490623 53.177
23.750521041644767 51.2541
23.77327256312355 49.7788
23.796025035462787 48.8185
23.818956224555475 48.24100000000001
23.841710609113413 48.0137
23.86446594758979 47.5259
23.887222241002014 47.4782
23.910157285144578 47.1309
23.932915498962537 47.0846
23.955674670778713 46.8881
23.978434801611975 46.7214
24.001373717286125 46.5837
24.024135776723917 46.4384
24.046898798245582 46.4363
24.06966278287146 46.2891
24.092605586582614 46.174
24.115371508023642 45.8814
24.1381383956401 45.6924
24.16090625045381 45.9106
24.183852958731244 45.7364
24.206622758582608 45.7537
24.229393528706886 45.4735
24.252165270127392 45.589
24.27511589952438 45.5104
24.297889594216997 45.2255
24.32066426328598 45.07899999999999
24.34343990775613 45.0697
24.36639447485003 44.9615
24.38917208083877 44.8921
24.41195066531332 44.8184
24.43490819850244 44.8327
24.457688750692377 44.6991
24.48047028445616 44.6096
24.503252800821233 44.6085
24.526214300784112 44.6796
24.548998793132213 44.6289
24.57178427117417 44.6424
24.59457073593893 44.7335
24.617536219319863 44.7103
24.64032466834748 44.8057
24.663114107195035 44.6332
24.685904536893013 44.2813
24.708874020360852 44.3028
24.731666442613744 44.3403
24.754459858818787 44.2805
24.777254270007962 44.213
24.80022777025625 44.0286
24.82302418230472 43.9533
24.845821592443674 43.8192
24.86862000170663 43.9197
24.891597535453727 43.7497
24.914397953892728 43.95399999999999
24.93719937456671 43.9286
24.96000179851076 44.0931
24.98298338249997 44.2667
25.00578782394922 44.4345
25.028593271784167 44.477
25.05157790644186 44.6781
25.07438537804115 44.8237
25.097193859145293 44.9051
25.120003350792075 45.2033
25.142992065061257 45.5567
25.165803588823465 45.8782
25.18861612625217 46.0414
25.211429678386736 46.2697
25.234422489079968 46.2784
25.257238081693636 46.3183
25.280054692141732 46.4074
25.3028723214652 46.2822
25.325869245420463 46.395
25.348688923599397 46.5232
25.371509623787006 46.6455
25.394331347025812 46.4486
25.41733240110666 46.3577
25.440156181590016 45.7277
25.46298098826268 45.31399999999999
25.48580682216873 44.6584
25.50881202326435 43.9725
25.53163992281684 43.3831
25.55446885274561 43.0574
25.577298814096377 42.7038
25.600308179121807 42.5897
25.623140214533745 42.5442
25.64597328451537 42.4726
25.66898578564376 42.2125
25.691820936010206 42.3049
25.714657124097695 42.2662
25.737494350954734 42.2028
25.760511045684957 42.2085
25.783350361364224 42.196999999999996
25.806190718969255 42.2294
25.82903211955018 42.3666
25.852053024868923 42.4119
25.874896522722523 42.3452
25.897741066713106 42.17100000000001
25.920586657892454 42.4134
25.943611790812668 42.431999999999995
25.966459487728237 42.4027
25.989308234998564 42.4442
26.01215803367705 42.7149
26.03518741123814 42.8223
26.05803932412957 42.9803
26.080892291600094 43.0283
26.10374631470478 43.2332
26.12677995397268 43.4026
26.14963609978026 43.4321
26.172493304397875 43.1272
26.19535156888223 43.181000000000004
26.218389486949604 42.8426
26.241249882640123 42.5889
26.26411134137826 42.2123
26.28715248187403 42.0399
26.31001607820869 41.8461
26.3328807407756 41.6739
26.35574647063438 41.9253
26.37879191991473 41.8766
26.401659795896734 41.7476
26.424528742360263 41.8162
26.447398760366614 42.1457
26.470448535598294 42.09
26.49332070826805 42.2095
26.516193955675355 42.5096
26.53906827888316 42.6061
26.562122397260108 42.5884
26.584998883685063 42.9491
26.607876449110325 43.2412
26.63075509460056 43.3953
26.65381357334404 43.5926
26.67669439061878 43.6073
26.699576291163382 43.7097
26.722459276044212 43.6888
26.745522132402975 43.3608
26.768407297649354 43.3004
26.791293550442003 42.9085
26.814180891848974 42.687
26.837248143099337 42.2544
26.860137673466657 42.2028
26.88302829566349 41.983000000000004
26.90592001075963 41.6791
26.92899167420566 41.6147
26.951885586870763 41.3286
26.974780595655517 41.0718
26.99785558178161 40.9176
27.020752794605112 40.7504
27.043651106772522 40.4852
27.06655051935668 40.4108
27.089629948036183 40.3364
27.112531573292053 40.3993
27.135434302194138 40.3664
27.158338135817015 40.1208
27.181422024430987 40.0251
27.204328079372566 40.1225
27.22723524226965 40.0855
27.250143514198573 40.226
27.273231880156334 40.1545
27.296142382065014 40.0232
27.319053996245536 39.863
27.341966723775965 39.9616
27.365059584515222 39.9973
27.38797455070062 40.0609
27.410890633481237 39.7346
27.433807833936918 39.9755
27.456905206923906 39.946
27.47982465472398 40.0033
27.502745223449743 39.9263
27.525666914182825 40.0405
27.548768816912457 40.0484
27.571692763693633 40.0474
27.59461783573812 39.8518
27.617723149491244 39.8391
27.640650484125285 39.7628
27.66357894728264 39.7424
27.686508540048052 39.7301
27.709618414237887 39.5217
27.732550278321757 39.4914
27.755483275279115 39.3643
27.778417406196485 39.3787
27.801531858397514 39.4227
27.824468269376716 39.2145
27.847405817586786 39.3229
27.870344504116094 39.48
27.893463551932008 39.5432
27.916404527281053 39.5564
27.93934664422563 39.6165
27.962289903855886 39.6051
27.98541356491974 39.9578
28.00835912214229 40.0143
28.03130582533231 40.2177
28.054253675581805 40.477
28.077381967556104 40.4264
28.100332124185126 40.5643
28.123283431160893 40.5563
28.146235889577238 40.4625
28.169368830154156 40.3671
28.192323603752033 40.0238
28.215279532083304 39.8452
28.238415973016764 39.6249
28.261374223145094 39.4434
28.284333631303806 39.2677
28.307294198589954 39.0964
28.330435319167677 38.7175
28.353398217078915 38.5738
28.376362277420153 38.395
28.39932750129032 38.1047
28.422473319286713 37.9718
28.44544088262495 37.7877
28.468409612800283 37.8198
28.491379510913497 37.5236
28.51453004413313 37.3998
28.53750229057244 37.3286
28.56047570826344 37.297
28.583450298308804 37.3747
28.606605564586562 37.2069
28.629582511831156 37.2019
28.65256063474956 37.0616
28.675539934446338 37.0658
28.698699951647605 37.0539
28.72168161743193 36.8823
28.74466446331978 36.9079
28.767648490417624 36.8078
28.790813276438353 36.7353
28.813799678527303 36.7974
28.836787265157085 36.8031
28.859955641890075 36.9717
28.882945610203045 36.7753
28.905936766392035 36.7731
28.928929111566863 36.7902
28.952102288520145 36.8191
28.975097024308607 36.7012
28.998092952423807 36.4302
29.021090073977508 36.3848
29.04426806913204 36.2808
29.067267590245258 36.109
29.090268308143695 36.1105
29.11327022394099 35.9911
29.13645305530891 35.8348
29.159457379627167 35.8014
29.18246290519685 35.7476
29.20546963313352 35.736
29.22865731875826 35.8099
29.25166646419296 35.7736
29.27467681535305 35.4821
29.29768837335608 35.5946
29.320880931312562 35.5448
29.34389491580634 35.5303
29.366910110507334 35.53
29.38992651653503 35.5482
29.41312396492981 35.525999999999996
29.436142806456754 35.4518
29.45916286268059 35.4849
29.48236399319994 35.3764
29.50538649169417 35.2922
29.528410208259935 35.114000000000004
29.55143514402014 34.902
29.574641196749695 34.7064
29.597668583816574 34.5895
29.6206971934585 34.4747
29.64372702680042 34.546
29.666938019934474 34.5198
29.689970313635285 34.393
29.713003834422636 34.3087
29.73603858342347 34.2933
29.759254535188578 34.2463
29.78229175361658 34.1928
29.80533020365064 34.2316
29.82836988641968 34.2726
29.85159081507472 34.0898
29.874632976355343 33.9816
29.89767637376955 34.0183
29.920721008448314 33.9135
29.9439469322847 33.8717
29.96699405457564 33.8296
29.9900424175358 33.9678
30.013092022298157 33.7704
30.03632295963995 33.7729
30.059375061131373 33.6974
30.08242840783577 33.6951
30.105483000888153 33.7467
30.128718970092244 33.7028
30.151776069006917 33.821
30.17483441768648 33.7457
30.198074175317235 33.6247
30.221135036724256 33.8476
30.24419715131772 33.6058
30.267260520236203 33.5403
30.290505341942243 33.6264
30.313571232750228 33.6735
30.336638381310948 33.5958
30.35970678876503 33.6265
30.38295669299435 33.5786
30.40602763151657 33.5656
30.429099832366074 33.374
30.452173296685572 33.4318
30.47542830191959 33.4392
30.498504306502497 33.4086
30.521581577995562 33.36
30.544660117543582 33.3988
30.56792024229725 33.3821
30.59100133132069 33.3723
30.614083691845494 33.3935
30.637167325018545 33.4323
30.660432587840603 33.423
30.683518779717886 33.3382
30.70660624769615 33.5129
30.729694992924372 33.4363
30.75296541239743 33.4807
30.77605672557558 33.4126
30.799149319462742 33.53
30.8224236211637 33.3272
30.845518789950724 33.1506
30.868615242910597 33.0887
30.891712981195973 33.0321
30.91499247215866 32.9729
30.938092794619365 32.923
30.96119440587579 32.8195
30.984297307082752 32.7729
31.00758200598383 32.6708
31.030687500658694 32.4811
31.053794288760695 32.4687
31.076902371446767 32.2842
31.100192296997445 32.3556
31.12330298246119 32.3275
31.14641496599209 32.1827
31.169528248749216 32.2198
31.19282341969534 32.2114
31.215939314557186 32.2071
31.239056512134788 32.1227
31.262175013589378 32.0074
31.28547544871168 32.0129
31.30859657161541 31.9765
31.331719001892175 31.9932
31.35484274070538 32.1667
31.378148458819545 32.082
31.401274828443725 32.0778
31.424402510106933 32.1066
31.447712205419993 32.1168
31.470842524931633 32.0174
31.493974159989783 32.0168
31.51710711176168 32.0168
31.54042212308802 32.0927
31.563557722100917 32.043
31.586694641341655 31.8325
31.609832881979628 31.7602
31.63315322823208 31.6862
31.656294125521327 31.5786
31.679436347728515 31.658
31.70257989602529 31.516
31.725905596152327 31.4114
31.74905181052835 31.2963
31.772199354521323 31.4553
31.79534822930507 31.3178
31.818679302290967 31.2849
31.84183085259981 31.2961
31.864983737233473 31.2226
31.88813795736804 31.3039
31.911474422233013 31.2891
31.934631327356435 31.2298
31.9577895715215 31.1758
31.980949155906522 31.2005
32.004291031706956 31.2398
32.027453310562606 31.1897
32.05061693318573 30.9991
32.07396288236386 30.9347
32.09712920658542 30.944000000000003
32.12029687812702 30.819000000000003
32.14346589817093 30.7695
32.166817291729984 30.7655
32.18998902288583 30.6995
32.21316210610336 30.6345
32.23633654256711 30.4203
32.259693399663725 30.3833
32.282870556771144 30.3935
32.30604907069099 30.3702
32.329228942610065 30.2277
32.35259128243769 30.1553
32.375773884550505 30.0395
32.398957848235646 30.0157
32.422143174682176 29.9086
32.445511016471215 29.9066
32.468699082679954 29.8973
32.49188851523011 29.8958
32.51507931531304 29.8006
32.538452678331 29.7967
32.56164622776311 29.6955
32.58484114831493 29.6352
32.60803744118015 29.7285
32.631416344731896 29.618000000000002
32.654615396551876 29.6114
32.67781582427913 29.5056
32.701198898634416 29.3873
32.72440209253756 29.4335
32.747606665947124 29.4211
32.77081262006088 29.3046
32.79420126883317 29.2292
32.81740999876112 29.28
32.840620112999424 29.121
32.86383161274818 29.1322
32.88722585534586 29.1119
32.91044014056596 29.1601
32.933655814909734 29.1553
32.95687287957963 29.1085
32.98027273544904 28.9111
33.00349259526636 28.881999999999998
33.026713849030116 29.0343
33.04993649794511 28.9981
33.073341986570746 28.8236
33.09656744032826 28.9052
33.11979429286444 28.8846
33.14302254538647 28.9382
33.166433686291185 28.7863
33.18966475336992 28.7781
33.212897224069096 28.6643
33.23613109959831 28.7304
33.259547912343415 28.7238
33.2827846121627 28.7787
33.306022720453775 28.5954
33.32926223842861 28.533
33.352684742614166 28.5733
33.37592709463173 28.4869
33.399170859982064 28.4714
33.422597648419426 28.3983
33.44584425514446 28.2024
33.46909227885668 28.2143
33.4923417207723 28.1498
33.51577423505344 28.153000000000002
33.539026528130385 28.1071
33.56228024307245 27.9388
33.585535381098246 27.8813
33.60897364093058 27.886
33.63223163992385 27.7931
33.6554910656699 27.7921
33.678751919389796 27.7842
33.702195944520106 27.5696
33.72545966903325 27.7304
33.74872482519663 27.5299
33.771991414233746 27.5223
33.79544122444841 27.5632
33.81871069412428 27.4102
33.84198160035767 27.4547
33.86525394437455 27.5
33.88870955949969 27.395
33.911984794020626 27.3659
33.93526147001624 27.3025
33.958539588715006 27.2591
33.98200102861669 27.2419
34.0052820477047 27.1236
34.02856451319451 27.1316
34.05203033759056 27.0183
34.07531571090147 27.08
34.09860253431845 27.0803
34.121890809074316 26.8674
34.145362493118924 26.9328
34.16865368561615 26.8741
34.191946333164054 26.8236
34.21524043699793 26.8053
34.23871800066799 26.7968
34.26201503218366 26.7131
34.28531352370466 26.6791
34.30861347646881 26.6244
34.33209693978188 26.5388
34.3553998301885 26.5257
34.378704185565205 26.4368
34.402010007152356 26.3838
34.42549939016683 26.4309
34.44880815937748 26.3436
34.472118398533134 26.2275
34.49543010887669 26.2663
34.51892543169198 26.2347
34.54224009966052 26.1366
34.56555624255917 26.1473
34.58887386163339 26.1437
34.61237514439016 26.051
34.6356957311114 25.9539
34.65901779775809 25.8794
34.68252356662995 25.8719
34.705848608458616 25.903000000000002
34.72917513396849 25.8696
34.75250314440949 25.7918
34.77601490857862 25.7646
34.799345904259795 25.6592
34.82267838863559 25.7296
34.846012362958525 25.7009
34.869530142679984 25.6297
34.89286711232212 25.6173
34.91620557568269 25.6314
34.93954553401677 25.5746
34.9630693495876 25.4456
34.986412313340814 25.5483
35.00975677584668 25.5269
35.033102738362956 25.3662
35.05663261012228 25.281999999999996
35.0799815881786 25.2906
35.10333207003229 25.2546
35.12668405694369 25.3622
35.150220005273056 25.2937
35.17357501786656 25.197
35.19693153931268 25.1522
35.220289570874385 25.1262
35.24383161619786 25.0834
35.267192683604904 25.0149
35.290555264930376 25.0496
35.314101899412165 25.0997
35.33746752422433 25.0247
35.36083466676374 24.9128
35.38420332829803 24.9046
35.407756095629054 24.96
35.43112781085063 24.9069
35.45450104888391 24.8726
35.477875810999194 24.9129
35.50143473172161 24.7834
35.52481255774625 24.8431
35.54819191167777 24.761
35.57157279478914 24.7667
35.595137889488406 24.7371
35.61852184675279 24.6693
35.641907337029984 24.5628
35.665294361595684 24.4902
35.68886565090076 24.5492
35.7122557598848 24.4046
35.73564740699838 24.4797
35.759040593519934 24.4211
35.78261809810353 24.3815
35.80601437933051 24.2331
35.829412203814705 24.2229
35.85281157283719 24.1501
35.876395313415884 24.2765
35.8997977874528 24.1394
35.92320180988546 24.131
35.946790244133936 23.9092
35.97019737933222 23.9724
35.993606066789866 24.0321
36.01701630779276 23.9774
36.04061101440684 23.8817
36.06402437852291 23.9377
36.08743930005611 23.8733
36.1108557802951 23.7004
36.13445678011326 23.7358
36.15787639383515 23.773000000000003
36.18129757014299 23.7269
36.20472031032821 23.6369
36.22832762423364 23.6377
36.25175350829375 23.6654
36.275180960119776 23.6391
36.298609981005924 23.6036
36.32222362992669 23.5675
36.34565580510207 23.5543
36.36908955323448 23.4938
36.39252487562093 23.4025
36.416144880530226 23.3412
36.43958336764275 23.3498
36.463023432914625 23.3476
36.486465077645676 23.2756
36.51009145956204 23.3482
36.53353627947859 23.2595
36.55698268276811 23.2313
36.58043067073321 23.177
36.60406345072071 23.1045
36.62751462435344 23.0859
36.65096738658405 23.1018
36.67460498210655 23.0129
36.69806093788647 22.9511
36.72151848619297 22.9255
36.744977628333636 22.9694
36.76862165890998 22.7722
36.79208400512205 22.8068
36.81554794910557 22.8134
36.83901349217101 22.7276
36.862663978991606 22.7019
36.88613273667352 22.6925
36.90960309738324 22.6818
36.933075062434064 22.6165
36.95673202673572 22.5845
36.98020721697122 22.5893
37.003684015502365 22.5006
37.027162423645365 22.4514
37.050825886711465 22.4665
37.07430753063053 22.3918
37.09779078812467 22.3603
37.121275660513014 22.2972
37.144945643673694 22.3356
37.16843376245278 22.2426
37.19192350009803 22.2759
37.215414857931435 22.1761
37.239091382563885 22.14
37.262585997426164 22.1169
37.28608223645736 22.1307
37.309763684451696 22.0724
37.33326318851098 21.9945
37.356764320726555 21.9732
37.380267082425526 21.9301
37.40395510942588 21.9524
37.42746114683234 21.9525
37.45096881771841 21.872
37.474478123414166 21.8626
37.49817275092816 21.7465
37.52168534303452 21.8297
37.54519957395567 21.6884
37.568715445024665 21.7731
37.592416694607714 21.6842
37.61593586281424 21.6432
37.63945667518264 21.6259
37.66297913304891 21.5639
37.68668702630454 21.5426
37.710212792059274 21.4093
37.733740207334854 21.3931
37.757269273470364 21.3745
37.780983832050374 21.4504
37.80451621684926 21.3741
37.82805025654007 21.291
37.851585952464795 21.239
37.8753071980695 21.1938
37.89884622345676 21.1741
37.92238690911902 21.2101
37.94611318753442 21.125999999999998
37.969657210779765 21.0933
37.99320289834801 21.0516
38.016750251586465 21.0099
38.04048325513017 21.0108
38.06403395679343 20.9208
38.087586328183946 20.8634
38.11114037065203 20.901999999999997
38.13488012115898 20.8726
38.1584375229181 20.8201
38.181996599821 20.7747
38.205557353221124 20.8186
38.229303872575656 20.6971
38.2528679961576 20.6616
38.27643380031219 20.7124
38.30000128639589 20.6761
38.32375459653193 20.6237
38.34732546371299 20.6319
38.37089801690786 20.5507
38.39447225747609 20.404
38.418232380377425 20.422
38.441810012983396 20.4154
38.46538933705673 20.4321
38.488970353960084 20.4055
38.51273731166058 20.3819
38.536321731567014 20.2639
38.55990784840681 20.2443
38.58367995004091 20.1649
38.60726947812959 20.1451
38.63086070726198 20.1564
38.654453638806274 20.1468
38.678232613930824 20.1367
38.70182896773327 20.0947
38.72542702806741 20.0338
38.7490267963045 20.0064
38.77281266709232 19.9342
38.79641586862214 20.0264
38.8200207821842 19.8674
38.843627409152944 19.9467
38.86742019782782 19.8751
38.891030269149255 19.8914
38.914642058016156 19.8162
38.938255565806124 19.7643
38.96205529464307 19.7697
38.98567225787121 19.7503
39.00929094417078 19.7062
39.03291135492255 19.6388
39.05671804624804 19.6135
39.080341923549106 19.5855
39.103967529460334 19.5516
39.127594865365744 19.4949
39.15140854155791 19.4666
39.17503935514948 19.5011
39.19867190290282 19.4087
39.22249083587951 19.4094
39.24612686969409 19.4153
39.269764641845306 19.4079
39.293404153722804 19.2749
39.317230110864074 19.2582
39.34087311998506 19.2744
39.36451787301696 19.2078
39.388164371352595 19.1703
39.41199737518003 19.0684
39.43564738196752 19.0612
39.45929913825317 19.0891
39.48295264543308 19.1077
39.506792718520884 19.044
39.530449745387216 19.0234
39.55410852735203 18.9552
39.57776906581474 18.9816
39.60161623079 18.8885
39.625280300200025 18.8819
39.64894613032202 18.785999999999998
39.67261372255866 18.871
39.6964680021016 18.7844
39.72013913657293 18.7736
39.74381203738292 18.7567
39.76748670593756 18.7143
39.79134812278169 18.6425
39.81502634488497 18.6004
39.83870633896685 18.5904
39.862388106436654 18.573
39.88625668336918 18.529
39.90994201572829 18.5894
39.933629125719285 18.442999999999998
39.957503091207826 18.4024
39.9811937746168 18.5089
40.00488623990914 18.4665
40.02858048850006 18.3564
40.05246165409549 18.2962
40.076159487492085 18.2894
40.099859108448875 18.3214
40.123560518384345 18.2815
40.1474489070226 18.214000000000002
40.171153913178564 18.2269
40.194860712584955 18.1391
40.2185693066637 18.1383
40.242464941335314 18.0818
40.26617714307655 18.1127
40.289891143772046 18.0693
40.3136069448471 18.0277
40.33750984859743 17.9238
40.3612292688043 17.9394
40.3849504936829 17.9134
40.40867352466194 17.8622
40.43258372059144 17.8719
40.45631038219906 17.9059
40.48003885420956 17.7949
40.503769138055105 17.7799
40.52768664931955 17.8086
40.55142057531802 17.7774
40.57515631746428 17.6647
40.599079334038514 17.7233
40.62281872700477 17.6902
40.64655994043941 17.6215
40.67030297578061 17.5826
40.69423334835778 17.6051
40.71798004609188 17.5817
40.74172857006355 17.5248
40.76547892171441 17.5247
40.7894166736039 17.4366
40.813170699248566 17.4101
40.83692655691388 17.3769
40.86068424804498 17.4453
40.884629402612525 17.3767
40.908390779366385 17.3484
40.932153993938 17.288
40.95591904777605 17.2341
40.979871628443995 17.2785
41.003640379561936 17.2468
41.02741097430883 17.2169
41.05118341413683 17.1939
41.075143444384416 17.1225
41.098919593177826 17.1317
41.1226975914255 17.0772
41.14647744058318 17.0758
41.170444943946755 16.9746
41.19422851378379 16.977
41.218013938914645 16.9477
41.24198706625173 16.8558
41.26577622087193 16.8554
41.289567235177785 16.8514
41.31336011063129 16.8526
41.337340752422875 16.832
41.361137369129835 16.8245
41.38493585138705 16.7914
41.40873620066004 16.788
41.43272438060107 16.7358
41.45652848292052 16.6214
41.48033445666918 16.6063
41.50414230331616 16.6389
41.528138045159764 16.61
41.551949656675205 16.5755
41.575763145513235 16.533
41.59957851314666 16.4996
41.62358184070442 16.4953
41.64740098505737 16.4643
41.6712220126409 16.4044
41.69504492493139 16.3635
41.71905586207357 16.3567
41.74288256296395 16.3615
41.766711153007456 16.3022
41.79054163368412 16.3254
41.814560204340054 16.3268
41.838394485526365 16.2842
41.86223066180303 16.1938
41.88625497706819 16.1923
41.910094962812 16.1405
41.93393684811168 16.163
41.95778063445365 16.0935
41.981812625263366 16.0458
42.00566023303407 16.0571
42.029509746323676 16.0349
42.05336116662236 15.9684
42.077400857069705 15.9695
42.10125611078846 15.9457
42.12511327600405 15.9006
42.14897235421036 15.8233
42.173019768448455 15.8785
42.19688269209613 15.8126
42.22074753323349 15.8525
42.24461429335818 15.779000000000002
42.268669455600495 15.7475
42.292540073217886 15.7186
42.31641261433284 15.6873
42.34028708044675 15.6673
42.36435001496739 15.6349
42.38822835065557 15.6369
42.41210861586426 15.5897
42.4359908120986 15.6265
42.46006154323262 15.5568
42.48394762115317 15.5162
42.507835634632315 15.5682
42.531912233047436 15.4761
42.55580413732265 15.431
42.579697981698 15.3898
42.60359376768525 15.3783
42.62767820545945 15.3473
42.65157789440821 15.3362
42.67547952952185 15.2783
42.699383112316 15.3152
42.72347541395347 15.2843
42.74738291190531 15.2137
42.771292362102166 15.2466
42.795203766063516 15.1756
42.819303956130405 15.0895
42.843219287476536 15.1198
42.86713657716324 15.0983
42.89105582671383 15.0884
42.91516392983864 15.0316
42.939087119032166 15.0468
42.963012272677304 14.9872
42.98693939230129 14.9276
43.01105543317513 14.8947
43.034986504731386 14.92
43.05891954686589 14.9144
43.08285456110972 14.8502
43.10697856448665 14.802999999999999
43.130917542983475 14.7993
43.15485849820081 14.8224
43.17880143167367 14.71
43.20293342237094 14.7432
43.226880332449 14.7064
43.25082922540554 14.7101
43.27496722682525 14.6945
43.29892010567796 14.6788
43.32287497204102 14.619000000000002
43.34683182745632 14.5352
43.370977859791836 14.5508
43.39493871351105 14.5571
43.41890156092628 14.4954
43.44286640358341 14.4649
43.46702049182749 14.4752
43.49098934522816 14.4388
43.51496019852649 14.3967
43.5389330532723 14.3794
43.56309522248204 14.3581
43.58707210044314 14.344000000000001
43.61105098451946 14.2333
43.63503187626491 14.2587
43.659202151562134 14.2058
43.68318707902681 14.2231
43.70717401884041 14.2126
43.731162972560874 14.2047
43.75534137913236 14.1354
43.779334381108384 14.0955
43.803329401683186 14.0477
43.82732644241872 14.0766
43.8515130055166 14.0418
43.87551410707659 14.0437
43.89951723350145 14.007
43.923709934595614 14.007
43.94771713129917 13.9668
43.97172635758096 13.9619
43.99573761501002 13.8811
44.0199385169922 13.8613
44.04395385732619 13.8677
44.067971233533086 13.8573
44.09199064718605 13.8144
44.11619977548961 13.7267
44.14022328470671 13.7815
44.16424883610785 13.7705
44.18827643127035 13.7623
44.21249381139513 13.745
44.236525514814076 13.6696
44.26055926674478 13.7032
44.28459506876863 13.6636
44.3088207262813 13.6385
44.33286064928722 13.592
44.35690262714919 13.562999999999999
44.38094666145278 13.5107
44.4051806219871 13.5575
44.42922879003185 13.4898
44.45327901929361 13.3949
44.477331311362136 13.4696
44.501573600619416 13.4104
44.525630039221795 13.3843
44.54968854541895 13.3684
44.573937102200176 13.3693
44.5979997645541 13.3051
44.622064499300315 13.3268
44.64613130803592 13.2542
44.67038823869318 13.2732
44.69445921643748 13.2212
44.718532272981385 13.1762
44.742607409926194 13.2185
44.76687274034801 13.1819
44.79095205918753 13.1344
44.81503346325094 13.1341
44.839116954143876 13.0957
44.86339071028742 13.104000000000001
44.88747839599524 13.0638
44.91156817336837 13.055
44.93566004401666 12.9953
44.959942251908146 13.0247
44.984038330325966 12.9617
45.00813650686762 12.9253
45.03223678314731 12.9023
45.05652746888232 12.894
45.08063196592069 12.8492
45.104738567558705 12.8216
45.128847275414856 12.8137
45.15314646515866 12.7528
45.17725940679741 12.7732
45.20137445952892 12.7545
45.22568004865265 12.7265
45.24979934496396 12.6983
45.27392075725247 12.6867
45.29804428714431 12.6497
45.322358426247604 12.6467
45.346486212804315 12.6107
45.370616121861914 12.5989
45.39474815505086 12.605
45.41907087049246 12.5408
45.4432071734666 12.5199
45.46734560548283 12.5722
45.49148616817604 12.4915
45.51581748638564 12.4879
45.5399623320197 12.4918
45.56410931325473 12.4145
45.58825843173002 12.4006
45.61259837920865 12.3615
45.636751793816 12.3799
45.66090735060093 12.3306
45.68506505120716 12.2967
45.7094136545275 12.3295
45.73357566449271 12.2635
45.75773982322992 12.2685
45.78190613238733 12.225
45.806263418194064 12.1558
45.83043404997326 12.1643
45.85460683713677 12.1601
45.87897065658495 12.1245
45.90314777634752 12.0898
45.92732705646868 12.0716
45.9515084986045 12.0677
45.97588104735473 12.0255
46.00006683541565 12.0099
46.02425479047904 11.9759
46.04844491420549 11.9899
46.0728262191024 11.9158
46.09702070211635 11.9315
46.12121735879483 11.950999999999999
46.14541619080294 11.8973
46.169806278764455 11.8847
46.194009483459034 11.856
46.21821486849841 11.8142
46.24242243555223 11.7837
46.266821333570014 11.7897
46.29103328674601 11.7542
46.31524742696538 11.7654
46.33946375590237 11.7264
46.36387149104216 11.6996
46.38809221957392 11.6765
46.41231514186606 11.6568
46.436540259597464 11.6126
46.460956858999374 11.607000000000001
46.48518638983522 11.6138
46.509418121166966 11.5749
46.533652054678114 11.5642
46.55807754555709 11.546
46.58231590571962 11.5377
46.60655647313217 11.5316
46.630988654873654 11.4754
46.655233659129024 11.4158
46.67948087571551 11.3967
46.70373030632484 11.3994
46.72817142736393 11.3952
46.752425308428684 11.3789
46.77668140861147 11.3784
46.80093972960865 11.2832
46.82538981736788 11.2832
46.849652602470904 11.2966
46.87391761349769 11.2608
46.8981848521493 11.2188
46.9226439341274 11.2284
46.946915650573224 11.1631
46.97118959976749 11.1452
46.99546578341598 11.1307
47.019933887188216 11.1219
47.04421456235744 11.1091
47.06849747711879 11.1108
47.09278263318286 11.0634
47.11725978640143 11.0415
47.14154944775105 11.0309
47.165841355555656 11.0213
47.1901355115306 10.9872
47.214621741924994 10.9977
47.23892041698887 10.9811
47.26322134538975 10.9203
47.28771440635075 10.89
47.31201986422527 10.8764
47.33632758061436 10.8785
47.360637557241866 10.8308
47.38513974410611 10.8023
47.40945426407847 10.8113
47.43377104948137 10.7948
47.45809010204344 10.7382
47.48260144275502 10.7583
47.506925052572285 10.7271
47.53125093475548 10.724
47.55557909103813 10.6802
47.58009961361992 10.6636
47.60443234110732 10.6294
47.62876734791564 10.645
47.65310463578333 10.6024
47.6776343683373 10.6137
47.7019762413987 10.5762
47.72632040075572 10.5193
47.75066684815169 10.5417
47.77520581885936 10.5317
47.799556865477655 10.49
47.823910205386 10.4789
47.84826584033272 10.4681
47.87281407745551 10.4129
47.89717432569297 10.435
47.92153687423484 10.3957
47.94609208429692 10.3476
47.97045925671401 10.3668
47.99482873471275 10.3459
48.01920052005013 10.315999999999999
48.04376504619224 10.2714
48.068141469543484 10.2533
48.09252020552573 10.2562
48.11690125590099 10.2569
48.1414751266064 10.2203
48.16586082917454 10.2271
48.19024885144316 10.2011
48.2146391951793 10.1811
48.239222439012764 10.1504
48.26361744916137 10.1396
48.28801478610016 10.1194
48.31241445160131 10.0975
48.337007097209366 10.0526
48.36141144338331 10.0722
48.38581812345755 10.0589
48.41022713920929 10.0681
48.434829215320704 10.0221
48.45924292604658 9.987160000000001
48.48365897780325 10.0034
48.50807737237308 9.9454
48.532688907799276 9.92838
48.55711201168574 9.93068
48.581537463754074 9.91125
48.60615611725119 9.901710000000001
48.63058628942721 9.90415
48.65501881516546 9.83575
48.6794536962573 9.81462
48.70408185970339 9.78651
48.72852147531801 9.80165
48.75296345168211 9.77801
48.77740779059232 9.78423
48.80204549302823 9.77375
48.82649458091802 9.74898
48.85094603676547 9.718760000000001
48.87539986237231 9.68833
48.90004713292306 9.6905
48.92450572200832 9.65426
48.94896668628025 9.66452
48.97343002754588 9.62315
48.99808689542115 9.60896
49.02255501470614 9.601189999999999
49.04702551642794 9.59287
49.0714984023988 9.55328
49.096164896893235 9.53076
49.120642575466796 9.525039999999999
49.145122643748394 9.515260000000001
49.16960510355558 9.4521
49.19428125404938 9.43646
49.2187685210852 9.45127
49.243258185121555 9.4367
49.26794160167084 9.38148
49.2924360839405 9.380419999999999
49.31693296869764 9.369539999999999
49.34143225776915 9.301860000000001
49.36612538195438 9.319360000000001
49.39062950396021 9.3193
49.41513603578346 9.2897
49.4396449792564 9.25935
49.46434784069503 9.2877
49.488861631846454 9.24922
49.513377840166804 9.23271
49.537896467493745 9.23203
49.56260909589029 9.20186
49.587132585683285 9.196530000000001
49.611658500018365 9.16947
49.636186840738596 9.09562
49.66090926588511 9.124260000000001
49.685442483902584 9.122689999999999
49.70997813385706 9.0829
49.734516217597076 9.03861
49.75924846937352 9.03421
49.7837914452858 9.01665
49.80833686055187 8.999319999999999
49.83288471702571 8.97371
49.85762682540054 8.97441
49.882179588965734 8.95309
49.9067347993235 8.92736
49.93129245833333 8.92323
49.95604445336378 8.90194
49.98060703442832 8.85098
50.005172069746266 8.8706
50.02993150438364 8.8723
50.05450147301533 8.87448
50.07907390151433 8.82447
50.10364879174981 8.81582
50.12841816587289 8.79951
50.1529980044635 8.79296
50.17758031042124 8.7654
50.20216508562089 8.7474
50.22694442953363 8.72007
50.25153416817468 8.67677
50.27612638170508 8.67887
50.300721072005196 8.65552
50.325510416102105 8.64635
50.350110084975064 8.64025
50.37471223628208 8.64613
50.39931687190919 8.61417
50.424116246675766 8.56512
50.44872587605249 8.586730000000001
50.47333799543065 8.56438
50.49795260670191 8.53837
50.52276204271512 8.5098
50.54738166295838 8.47963
50.57200378079314 8.4903
50.596628398116835 8.46284
50.62144792604559 8.43574
50.646077567609396 8.42798
50.670709714377715 8.42842
50.69553683636198 8.417760000000001
50.72017401885922 8.40493
50.7448137122895 8.36781
50.76945591856022 8.36762
50.79429318636823 8.34183
50.818940443716784 8.3172
50.84359021965163 8.333110000000001
50.868242516085964 8.31975
50.893089960641895 8.320789999999999
50.917747323549435 8.25602
50.94240721271973 8.19404
50.96706963007175 8.1811
50.99192728239342 8.23307
51.01659478166073 8.20182
51.04126481489051 8.163310000000001
51.06593738400761 8.133410000000001
51.090805275207074 8.13
51.11548294172845 8.15542
51.14016314993547 8.09733
51.164845901758845 8.09375
51.18972406304274 8.063239999999999
51.21441192780656 8.08539
51.23910234200271 8.03628
51.2637953075678 8.03158
51.288683770237945 8.02923
51.31338186432707 8.01089
51.33808251561888 7.99224
51.362978729967345 7.98195
51.387684521509755 7.97036
51.41239287610203 7.958410000000001
51.437103795691165 7.918839999999999
51.46201036644977 7.915839999999999
51.486726441956634 7.872210000000001
51.51144508832545 7.87392
51.536166307509156 7.8494
51.56108326624387 7.832039999999999
51.58580965706056 7.83405
51.61053862657523 7.79595
51.635270176746864 7.76158
51.66019755512065 7.75758
51.68493429268881 7.76043
51.70967361681515 7.75922
51.73441552946465 7.700360000000001
51.759353359237934 7.6873
51.7841004750961 7.67156
51.80885018539685 7.68911
51.833602492111254 7.66648
51.8585508051424 7.643739999999999
51.883308330926425 7.65695
51.90806845906181 7.6155800000000005
51.932831191525715 7.58035
51.95779001977161 7.56986
51.98255798721516 7.530589999999999
52.00732856494335 7.51721
52.03229530577543 7.52232
52.057071130455945 7.513510000000001
52.081849571391054 7.48227
52.106630630568695 7.5075
52.13160794279417 7.44067
52.15639426492067 7.426310000000001
52.18118321127822 7.446339999999999
52.205974783860896 7.419010000000001
52.23096269971011 7.40044
52.255759551287994 7.384180000000001
52.280559035098186 7.35084
52.30536115314103 7.3513
52.33035970494467 7.32827
52.35516711807904 7.33131
52.37997717147198 7.35543
52.40478986713005 7.34726
52.42979908731974 7.3032
52.454617094216 7.29108
52.47943774942214 7.2554
52.50426105495102 7.251119999999999
52.529280976059844 7.22668
52.554109609024096 7.203060000000001
52.57894089837482 7.218710000000001
52.60377484613117 7.2102
52.62880550079408 7.18107
52.65364479223379 7.147460000000001
52.67848674816189 7.12171
52.70352547971946 7.09951
52.72837279155837 7.08971
52.753222773982785 7.09444
52.778075429022984 7.073580000000001
52.80312495150885 7.091489999999999
52.827982978797436 7.04604
52.85284368481815 7.00087
52.87770707160767 7.00465
52.90276741793998 6.95228
52.92763619336701 6.95569
52.952507655698504 6.94698
52.977381806977576 7.00525
53.00245301017842 6.95448
53.02733256653592 6.935639999999999
53.052214817996074 6.9311
53.077099766608484 6.92425
53.102181859804446 6.87487
53.127072229988265 6.84972
53.15196530349892 6.85054
53.17686108239249 6.837969999999999
53.20195409881522 6.810989999999999
53.22685531582556 6.84231
53.25175924441303 6.82522
53.27666588664027 6.80417
53.30176985962693 6.77689
53.3266819565689 6.737889999999999
53.35159677336455 6.74949
53.376514312083096 6.745889999999999
53.40162927507703 6.720510000000001
53.42655228516116 6.720280000000001
53.45147802340193 6.72
53.47660125628886 6.723330000000001
53.50153247842639 6.68665
53.52646643496923 6.659960000000001
53.55140312799818 6.624739999999999
53.576537409691696 6.6113100000000005
53.60147960336152 6.588080000000001
53.626424539786164 6.5463
53.65137222105307 6.55132
53.67651758529126 6.57407
53.70147078399681 6.4897599999999995
53.72642673383343 6.53111
53.75138543689533 6.50479
53.776541917524526 6.53543
53.801506154876755 6.48939
53.826473151763246 6.47581
53.851442910284916 6.49464
53.87661054126026 6.47058
53.9015858509782 6.4404
53.92656392866066 6.408530000000001
53.95154477641532 6.41925
53.976723591801296 6.42235
54.00171000771266 6.398569999999999
54.02669920004598 6.3842099999999995
54.051691170915745 6.35913
54.076881204886796 6.3467400000000005
54.101878760928514 6.2995
54.12687910187696 6.2961800000000006
54.152077577768296 6.30311
54.1770835166946 6.25168
54.20209224691339 6.283180000000001
54.22710377055121 6.29282
54.25231352511594 6.22609
54.27733066384342 6.19287
54.30235060239643 6.21472
54.32737334290836 6.16878
54.35259441062629 6.118119999999999
54.377622783395324 6.11658
54.40265396455061 6.12592
54.42768795623251 6.11222
54.45292037169559 6.04841
54.477960012857906 6.0526
54.50300247099511 6.02529
54.52804774825457 6.03051
54.55329154616743 5.97316
54.57834249018678 5.97346
54.6033962597977 5.97644
54.6284528571545 5.937469999999999
54.653708072335164 5.88274
54.67877035378786 5.9392
54.70383546947698 5.85797
54.72890342156389 5.84008
54.7541700889442 5.81102
54.77924374251975 5.82129
54.8043202390049 5.78562
54.82959552413022 5.7622599999999995
54.8546777351945 5.76521
54.87976279569621 5.74627
54.90485070780914 5.72398
54.930137506558005 5.6748
54.95523115074295 5.69381
54.98032765308844 5.679069999999999
55.005427015775496 5.58844
55.03072536339621 5.64918
55.05583047570572 5.601319999999999
55.080938454927676 5.59135
55.10604930325027 5.55236
55.131359235107396 5.5667599999999995
55.15647585066083 5.514130000000001
55.181595341907496 5.44338
55.20671771104285 5.44649
55.232039262617704 5.4155
55.25716741665048 5.436719999999999
55.28229845518636 5.4223300000000005
55.30743238042802 5.32381
55.33276558731939 5.33001
55.357905315183636 5.3446
55.383047936390035 5.28949
55.40819345314859 5.22832
55.433538351073295 5.2011400000000005
55.458689688238415 5.22835
55.483843927614096 5.14406
55.509197623043605 5.1742
55.53435769621134 5.18354
55.55952067826466 5.15676
55.5846865714265 5.128769999999999
55.61005202069737 5.10738
55.63522376553902 5.08265
55.66039842818645 5.00031
55.68557601087004 5.05434
55.7109532500271 4.99327
55.73613670233794 5.0336099999999995
