TT I
1.2716486653135266 7.31583
1.2939594142134223 7.2561800000000005
1.3162702121660406 6.208130000000001
1.3385810600174564 6.35114
1.3608919586137629 6.388319999999999
1.383202908801069 6.19869
1.405513911425503 5.2941400000000005
1.4278249673332093 6.29764
1.4501343378461518 5.82263
1.4724455028545926 5.60073
1.4947567236847858 6.03624
1.517068001182951 5.88852
1.5393793361953272 5.82996
1.5616907295681737 4.95061
1.5840021821477681 5.61393
1.60631369478041 6.0083400000000005
1.6286252683124185 5.81973
1.6509369035901333 5.02144
1.6732468618895553 4.698980000000001
1.695558623192809 5.04345
1.7178704487808514 4.93912
1.7401823395001077 4.92626
1.7625012545597203 4.43768
1.7848028405262486 4.9968900000000005
1.8071218901122095 4.28059
1.8294236121921872 4.19959
1.8517427996910911 4.40361
1.8740620574440425 4.22799
1.8963639900671978 4.86543
1.9186833908139995 4.7657300000000005
1.9409854680117449 4.83098
1.9633050151394713 4.5797
1.9856246367570705 4.61325
2.0079269371922672 4.212619999999999
2.03024671027244 4.58024
2.0525491637446027 4.6658800000000005
2.074869091674931 4.5465599999999995
2.097171701569106 4.58858
2.1194917877373847 4.84699
2.141811954326636 5.17085
2.164114805233074 4.50711
2.186435135143035 5.8821699999999995
2.208738150935709 12.9649
2.231058647554722 27.1303
2.2533792288321184 21.0789
2.275682498336085 8.94643
2.298003251406138 5.45995
2.3203066942619714 5.429119999999999
2.3426276225136022 4.89407
2.3649486396617507 5.321330000000001
2.387252348930071 5.52111
2.4095735463442893 4.72735
2.4318774374315884 5.41573
2.4541988185014043 5.608969999999999
2.476502894794693 6.5498199999999995
2.498824462909887 6.42967
2.521146125856138 5.8722199999999996
2.5434504863470337 6.33677
2.5657723414244717 6.9962100000000005
2.588076895590662 6.92554
2.610398946189713 7.85654
2.6327210958598384 7.0506
2.6550259469304716 7.6623600000000005
2.6773482972090137 7.90755
2.6996533504259 7.58402
2.7219759047039602 8.03135
2.744298562293959 7.7759
2.7666039251246595 7.508610000000001
2.7889267918020164 7.587960000000001
2.8112323652516555 8.24685
2.833555444408179 7.97456
2.8558786311183852 8.321480000000001
2.8781845268938557 8.69196
2.9005079311721484 8.73317
2.9228140460410397 8.83419
2.9451376712799635 9.14795
2.967444008632326 9.0916
2.9897678582247247 10.0638
3.0120918213106695 10.4233
3.0343984987899373 10.6021
3.0567226913198637 11.2027
3.079029599759726 11.386
3.101354025127254 12.4721
3.123678568232338 12.7092
3.145985829517914 12.7407
3.16831061055229 13.0711
3.1906181112775593 14.01
3.212943133635653 14.5655
3.2352682779763207 14.5143
3.2575761442691227 15.2849
3.2799015350264273 16.0861
3.302209649240067 16.831
3.3245352898092655 16.6525
3.3468436553365257 17.6171
3.369169549113219 17.989
3.3914955708171384 18.5821
3.413804319727358 19.5037
3.4361305997334863 19.311
3.4584396084414553 19.748
3.4807661501462652 20.5526
3.503092824025881 21.1726
3.5254022288463154 21.4633
3.5477291695206588 21.8897
3.5700388426251948 22.649
3.5923660534916446 23.7205
3.6146934007816114 37.0294
3.637003482731501 85.0504
3.6593311053109985 94.1946
3.681641464033634 55.2417
3.7039693653009733 30.2225
3.726297407241705 26.1813
3.7486081875460804 25.8836
3.7709365132734978 26.6346
3.793247578841633 27.2168
3.8155761917550093 27.1649
3.8378875459837216 27.4858
3.8602164494827234 27.9754
3.882545499606844 28.8423
3.9048572932539183 29.5654
3.9271866390645718 29.3838
3.9494987298666713 29.91
3.971828374764527 30.570999999999998
3.9941581705403255 31.1236
4.016470713506008 31.6747
4.038800813471445 32.259
4.061113662089144 32.9769
4.0834440696459176 33.8189
4.105774632334751 34.5788
4.128087945865126 35.0112
4.150418821249301 35.7739
4.172732448931298 37.6758
4.195063640413578 39.0625
4.2173775856475215 43.0409
4.239709096631102 73.3705
4.262040768704612 225.047
4.284355196706267 299.29900000000004
4.306687193387355 194.345
4.329001947444346 78.9983
4.35133427213731 48.4831
4.373666762177566 45.2746
4.395982011761091 44.9698
4.418314834921175 46.1947
4.44063041906622 53.638999999999996
4.4629635787515625 64.2866
4.4852969080429785 63.8512
4.5076130004776225 54.5794
4.529946671403969 50.9898
4.552263106909177 51.2913
4.574597122877047 52.2861
4.596931312711224 53.3782
4.619248269273446 53.9711
4.6415828092605835 54.8357
4.663900117405352 56.3035
4.686235010953232 57.6628
4.708552674085913 58.6665
4.730887924602802 60.3694
4.753223354952695 62.2876
4.775541557023902 63.6442
4.797877349456786 64.80199999999999
4.820195915032126 67.1851
4.842532072957498 68.808
4.864868414979744 70.4383
4.88718753227192 72.4821
4.909524244902505 74.3758
4.931843734218147 76.5347
4.954180820867835 79.2017
4.976518095879839 82.4043
4.998838149695359 85.9271
5.021175803844231 89.7924
5.043496238205739 92.7216
5.065834274903528 97.2988
5.088172504230693 103.014
5.1104935158799565 110.745
5.132832132875765 134.856
5.155153533596801 180.67
5.1774925416746225 223.424
5.199814334878411 445.124
5.2221537374521505 1265.13
5.244493338631803 3227.53
5.266815727034316 7335.93
5.289155727832427 11752.0
5.311478517248165 8940.04
5.333818921080011 3186.37
5.356159527788849 663.424
5.3784829252032536 207.75900000000001
5.400823940070432 153.702
5.423147747031976 134.061
5.445489173474152 122.721
5.467830807066149 117.361
5.490155234831516 112.195
5.512497285125229 108.444
5.534822130975162 106.855
5.557164601388673 104.287
5.579489868738879 101.681
5.601832762690846 100.829
5.6241758697774475 99.4763
5.646501775867269 98.177
5.668845311622074 96.6519
5.691171647754637 95.9905
5.713515615597765 95.1845
5.735859800852677 94.1716
5.758186788542988 93.4199
5.780531411018185 94.0799
5.802858837297399 93.5312
5.825203900414495 93.9786
5.8475491852224 94.5853
5.869877275883075 94.8988
5.892223006467101 96.3393
5.914551544266608 98.1514
5.936897724049891 101.484
5.959244129804903 108.80799999999999
5.981573344815301 133.757
6.0039202049061 248.512
6.026249875609095 544.135
6.04859719346037 1108.4
6.070927323278297 2269.13
6.093275102315365 4178.84
6.115623113320588 5146.57
6.137953938319995 3439.92
6.160302415650845 1174.22
6.182633708324452 277.714
6.2049826554078376 122.175
6.227331838745022 97.3098
6.249663839443684 88.1405
6.27201349767565 85.3309
6.294345974611799 89.9647
6.316696111167083 100.079
6.339046488263839 96.0419
6.361379686074702 80.9014
6.383730546639482 73.2337
6.406064229255215 70.0668
6.428415576718203 69.4751
6.450749747566656 68.2437
6.47310158535871 67.1317
6.495453669698332 66.5785
6.517788579421056 65.7208
6.540141159237969 64.7281
6.562476565766648 64.3724
6.5848296444934045 63.7412
6.607182974060425 63.5514
6.6295191323281015 63.7706
6.651872965955752 66.8044
6.6742096296068985 90.762
6.6965639707294615 134.774
6.71891856698715 135.47299999999998
6.741255995248479 93.3371
6.763611104154477 68.3108
6.785949046381137 60.8722
6.808304671371482 59.1121
6.8306605557940046 58.6807
6.852999275508618 57.9471
6.875355681171544 57.6769
6.897694923437771 57.6153
6.92005185377892 57.4499
6.9423916220322655 57.4796
6.964749080490181 56.4903
6.987106804399774 56.5999
7.009447368180821 56.6792
7.031805625367033 56.4334
7.054146723727803 56.203
7.076505517631004 55.792
7.098864581288365 55.9824
7.121206488070854 55.9629
7.143566093607822 55.7512
7.165908543567245 56.4144
7.188268694426048 56.1061
7.2106291193438095 55.8855
7.232972390625943 57.6271
7.255333366030969 69.0815
7.277677189091925 119.346
7.300038718428332 163.718
7.322400526130865 140.745
7.344745183422596 88.2251
7.367107550224791 62.4026
7.389452767901992 57.2487
7.411815697249891 56.3337
7.434161478756298 55.0511
7.456524974096713 55.4585
7.478888753837185 55.2387
7.501235387657368 55.0641
7.523599738562711 55.3293
7.545946944825532 55.6999
7.568311870344528 56.2437
7.5906770845765665 56.6245
7.613025156078678 57.813
7.635390950099687 58.727
7.657739602662809 57.4812
7.680105979923558 56.3438
7.702472650212829 56.8606
7.724822180948224 56.7233
7.747189439655568 56.8903
7.769539560075357 57.1015
7.791907410653562 57.6947
7.81425812420825 57.5605
7.836626570110925 57.6405
7.858995315087906 58.7918
7.881346924933401 58.7394
7.903716270417482 59.2436
7.926068482028405 59.4679
7.948438431475253 60.3834
7.9708086843180235 61.0727
7.993161805171116 61.4308
8.015532667162402 61.7366
8.037886398416653 62.843999999999994
8.060257873014221 63.3269
8.082629655331942 64.0292
8.104984308787587 64.7308
8.127356708900503 67.7127
8.149711981398308 73.6521
8.172085002766314 75.7229
8.194458336181368 73.1524
8.216814543847752 70.3265
8.23918850371002 70.3927
8.26154533906492 71.107
8.283919928836452 73.104
8.306277395339652 74.2509
8.328652618483376 75.7279
8.351028159736202 77.7148
8.373386579575245 80.0918
8.395762759396959 82.0216
8.418121819038275 87.4229
8.440498640894003 100.45100000000001
8.462875785192262 115.32
8.485235811156207 131.857
8.507613602688501 185.48
8.529974277114228 289.098
8.552352719347912 437.168
8.574731488360351 703.742
8.59709314210385 1204.55
8.619472567021075 1775.85
8.64183487789147 2139.67
8.664214962183097 1862.05
8.686577933647762 1023.44
8.708958680784317 406.279
8.731339760774953 177.028
8.753703729764451 115.925
8.77608547780821 101.979
8.798450116065078 97.7684
8.820832535634787 94.3275
8.843215292401656 92.6055
8.865580941199045 91.1582
8.887964374703538 90.1942
8.910330701447199 90.9295
8.932714815164482 93.2498
8.955099270424924 92.4302
8.977466620733543 89.2619
8.999851761421976 86.4532
9.022219798361645 84.8793
9.04460562795561 84.4628
9.066991803441677 84.1115
9.089360876979615 84.1779
9.111747746589993 83.9248
9.13411751544971 83.30799999999999
9.156505082664324 83.0608
9.178875550323522 83.4495
9.20126381862328 83.6634
9.223652438908596 83.5468
9.246023961427412 83.7042
9.26841328802173 82.9802
9.290785518039224 83.4478
9.313175554425882 84.2168
9.335565947154315 84.2398
9.357939245086508 84.3212
9.380330352834827 84.2142
9.40270436697103 84.5174
9.425096193225055 84.2537
9.447488380180165 85.2675
9.469863475295412 85.4861
9.492256385987508 85.9226
9.514632206018318 86.5712
9.537025843935714 87.0744
9.559402392368193 87.9
9.581796761000229 88.9914
9.604191496441521 89.645
9.626569144158516 93.09700000000001
9.648964615551032 97.1611
9.671343000390081 99.3292
9.693739211225699 97.65899999999999
9.716135793237463 95.1238
9.738515290448102 94.5708
9.760912617143402 95.4967
9.783292860202891 96.8301
9.805690935076182 98.3129
9.828089385495742 99.1958
9.850470754023561 101.905
9.872869957865444 109.179
9.89525208097539 124.06
9.917652041736662 136.679
9.940052382417589 138.006
9.962435644102392 151.269
9.984836746950979 197.34599999999998
10.007220771957746 272.135
10.029622640473708 384.676
10.052007432299963 563.6669999999999
10.074410069984072 842.015
10.096813093716005 1237.01
10.119199042482517 1705.63
10.141602840636468 1940.9
10.163989564971628 1648.72
10.186394141051062 988.14
10.208799107559706 434.26800000000003
10.231187001965623 207.012
10.253592751657669 132.98
10.275981430388155 116.421
10.298387966769793 115.209
10.320794897965431 116.807
10.343184759907361 115.771
10.36559248305461 110.413
10.387983138083852 106.906
10.410391656691655 110.898
10.432800574501677 124.789
10.455192425893369 144.226
10.47760214443012 171.755
10.499994797678786 215.021
10.522405320453982 288.187
10.54479877906917 388.94300000000004
10.567210109595656 504.726
10.5896218454736 568.918
10.612016518879773 504.14099999999996
10.634429067781074 361.162
10.656824555333241 209.748
10.679237920773568 127.81700000000001
10.701651695961992 98.4226
10.724048411481384 90.7727
10.746463008485165 88.08200000000001
10.768860546937125 86.2951
10.791275969274796 84.4229
10.81369180576079 83.3257
10.836090585366925 81.8973
10.858507252467449 80.9482
10.88090686379991 79.773
10.903324365036394 79.60300000000001
10.925724811614439 79.6671
10.948143150509463 80.5608
10.970561909719066 79.5355
10.992963615930844 77.9318
11.015383218085756 75.7239
11.037785768347074 74.3173
11.06020621697282 73.8827
11.082627090322113 73.6116
11.105030913430326 72.8303
11.12745263854165 73.2035
11.149857314510728 76.314
11.172279894912576 82.0992
11.194702904450653 83.0869
11.217108866490921 79.1083
11.239532736615194 74.8611
11.26193956033512 72.7648
11.284364294577085 70.9035
11.306789462371718 69.1152
11.329197585398376 67.8122
11.351623622610898 67.8815
11.37403261614354 67.0831
11.396459526308487 67.27600000000001
11.418869393879497 66.7083
11.441297180532617 66.2322
11.463725406927658 65.7442
11.486136592353875 65.7992
11.508565700543707 66.1236
11.530977768845315 68.0648
11.553407762368774 68.7356
11.575838200059769 68.4038
11.598251599479612 66.2281
11.620682927815501 65.1461
11.64309721895548 64.4526
11.665529441478206 64.0152
11.687962112597958 63.8107
11.710377748130886 63.9757
11.732811318753434 63.9719
11.755227854859067 63.9145
11.777662328529495 63.5156
11.800079768750786 63.4136
11.822515149015453 63.235
11.844950984084935 63.6525
11.867369787303163 63.4601
11.889806534289491 63.3748
11.912226250487029 63.7476
11.934663912939751 63.9369
11.9571020346363 63.9872
11.979523127133968 63.8885
12.001962169624331 64.8173
12.024384183972964 66.4071
12.046824150809913 70.187
12.069264581333726 76.1409
12.091687985297767 82.655
12.11412934550045 91.6703
12.136553680195208 106.70299999999999
12.158995973632788 127.615
12.181438735204349 152.42
12.20386447284199 181.36
12.226308172985636 203.62400000000002
12.24873485024193 205.98
12.271179492516982 169.455
12.293607112949127 129.063
12.316052700916226 97.4983
12.338498763250042 79.4759
12.360927805303868 71.1638
12.383374818673879 67.3438
12.405804812803074 65.422
12.428252780773262 65.2883
12.45070122756722 65.3887
12.473132656675375 65.3293
12.49558206341869 65.4078
12.518014453510101 65.2103
12.540464823770117 65.486
12.562915677315177 65.7208
12.58534951575545 66.5951
12.607801338171472 68.7031
12.630236146511358 73.2901
12.652688941369085 78.2597
12.675124723177234 78.6244
12.697578494048786 75.0974
12.720032754458185 70.8073
12.742470003354093 68.7829
12.764925245138771 68.9363
12.787363476431278 69.2182
12.809819703166806 69.3563
12.83227642391173 70.2651
12.854716135692716 70.7494
12.877173846755147 71.9298
12.899614549869717 72.2904
12.9220732548287 73.01899999999999
12.94453245827299 73.4206
12.966974655289818 74.5138
12.989434858002571 75.2398
13.011878055298721 76.2428
13.034339260862497 77.3878
13.056800969391883 78.5346
13.079245674017244 80.6212
13.101708390774869 83.2272
13.12415410463411 91.8236
13.146617833206086 105.579
13.169064559883248 118.98299999999999
13.191529303857127 134.516
13.213994557076367 157.879
13.236442809902437 192.69400000000002
13.258909083908291 241.387
13.28135835851934 297.982
13.30382565690295 361.344
13.326293469022952 412.82300000000004
13.348744283242008 423.715
13.371213125129904 369.735
13.39366497011003 273.274
13.416134845360597 181.178
13.438605238843131 128.40200000000002
13.46105863690397 109.13
13.483530069144786 110.382
13.505984506951902 117.087
13.528456981549432 127.33
13.550929978879088 142.284
13.573385983253365 165.37099999999998
13.595860028340867 200.954
13.618317081455832 247.012
13.64079217790333 298.948
13.663250283359057 342.089
13.685726434770173 374.26199999999994
13.708203115221277 348.255
13.730662806148091 275.335
13.75314054697177 196.929
13.775601299246777 132.096
13.798080104050406 99.3499
13.820559442405358 87.1875
13.843021793671388 83.4901
13.865502201420897 81.5367
13.887965623051947 81.1667
13.910447103807167 79.639
13.932929122629764 78.3853
13.955394156785959 78.0908
13.977877254034569 76.9697
14.000343367582113 76.0718
14.022827546871707 75.5452
14.045294743423524 74.7744
14.06778000837062 74.2809
14.090265817715476 74.1342
14.112734645763819 73.7101
14.13522154619454 73.5719
14.157691466286913 73.521
14.180179461423874 73.2262
14.202668005486178 72.5853
14.22513957064374 72.0761
14.247629214846473 71.5876
14.270101881097517 71.2184
14.29259262906496 71.6094
14.315083930490205 72.4281
14.337558255389705 72.5031
14.360050666019726 72.3941
14.382526101071944 71.1808
14.405019624534942 70.4976
14.427513705993134 69.96600000000001
14.449990813291825 69.9139
14.47248601302899 69.6106
14.49496423954951 69.7662
14.517460561197822 70.085
14.539939910570322 69.8562
14.562437357763558 70.0686
14.58493536931253 71.2314
14.607416409993311 72.1284
14.62991555254159 72.7357
14.652397725157423 72.753
14.674898002342799 72.2324
14.697398848433282 71.5597
14.719882725991326 72.4491
14.74238471217934 73.6473
14.764869730765593 77.5478
14.787372860692983 82.0349
14.809876564079925 86.9091
14.83236330125751 93.0811
14.854868153850365 101.86
14.877356041159485 114.868
14.899862046604186 132.04399999999998
14.922351087688757 154.466
14.944858249632887 179.61700000000002
14.967365991421232 202.465
14.989856770231246 220.6
15.012365673994204 218.68
15.03485761569738 193.93
15.05736768508665 154.412
15.07987833888692 118.12100000000001
15.102372032001655 92.8809
15.124883856909658 78.2606
15.14737872204565 73.3996
15.169891721717274 71.82600000000001
15.192405310371893 71.5751
15.214901940621196 71.9314
15.237416709527137 71.9314
15.259914520936249 72.027
15.282430473753607 71.1479
15.304947020131227 69.9264
15.327446610371178 69.1839
15.349964346154254 68.3316
15.372465126703139 67.7644
15.394984055556009 67.4775
15.417486030076159 67.2713
15.44000615566487 66.9637
15.462526881230803 67.1801
15.485030653812652 67.5072
15.507552581617434 67.3869
15.530057557334603 67.4541
15.55258069104857 67.3964
15.575104429329837 67.3498
15.597611216864632 66.9491
15.620136166564563 67.1358
15.6426441664095 68.4899
15.665170331202765 71.251
15.687697105158826 75.0347
15.710206930593545 78.8062
15.732734925158933 83.336
15.755245972089478 89.90899999999999
15.77777519094324 98.9256
15.800287463046663 110.955
15.822817909869592 127.444
15.84534897229804 146.369
15.867863089299354 166.643
15.890395385222186 181.967
15.912910736597423 191.945
15.935444269699861 182.648
15.957978423016485 160.071
15.980495633101265 127.51100000000001
16.003031029129367 97.6675
16.02554948280019 78.8055
16.048086125229432 69.245
16.070623392487107 66.2588
16.09314371869582 65.5415
16.11568223789321 64.4916
16.13820381691126 63.5949
16.160743591742527 62.5496
16.183283996022084 61.4987
16.205807461423195 60.575
16.228349126881973 59.7917
16.25087385432698 59.93899999999999
16.27341678466365 59.2283
16.29594277784926 59.2222
16.31848697676433 59.519
16.341031811604868 59.9247
16.36355971058487 60.0594
16.3861058195587 59.7676
16.40863499352978 58.5886
16.431182380342005 57.6653
16.453730407713202 56.8923
16.476261501364792 56.6948
16.498810812136167 56.3242
16.52134319004079 56.5394
16.54389378792203 56.3311
16.566445031001553 56.2911
16.588979342490088 56.2237
16.61153187824822 55.9113
16.634067483263312 55.9771
16.656621315414416 55.6994
16.679175797408888 55.5994
16.701713349928728 55.4201
16.72426913389191 55.5959
16.74680798922351 55.8262
16.76936507887444 55.873000000000005
16.791905240734874 55.9792
16.814463639794468 55.8454
16.837022695210294 55.755
16.859564824093756 56.0276
16.882125194503903 56.7744
16.904668639217885 57.5251
16.927230328348003 57.702
16.949792678493612 57.8839
16.972338104193863 57.1784
16.994901778652235 56.6391
17.017448529496576 56.5698
17.040013531998152 56.8318
17.06257920018044 57.5141
17.0851279459922 58.41
17.107694947817667 59.2836
17.130245028099072 59.9679
17.15281336730298 61.7161
17.17536478578733 63.3359
17.19793446610687 65.2264
17.220504818648422 68.1655
17.243058251703697 70.7942
17.265629950971032 74.7124
17.288184731571736 78.7027
17.310757781306908 82.2187
17.33333150794385 83.7977
17.355888317140174 82.9148
17.37846339986244 78.4883
17.401021565958885 72.5392
17.42359800851343 67.0841
17.44617513265564 62.9899
17.468735341390783 60.9775
17.491261035594565 60.1963
17.51396340099364 59.9563
17.536490463869136 60.0326
17.559018209820174 60.0809
17.58154663977963 60.4762
17.604251766089718 60.3016
17.626781572227713 60.6524
17.64931206518155 60.8791
17.671843245885103 61.4246
17.69455114821572 61.6382
17.717083712612634 61.7222
17.739616967569667 62.071000000000005
17.762150914021706 62.3239
17.78486160749854 62.2354
17.807396945166804 63.1826
17.829932977143503 64.1139
17.85246970436452 65.8291
17.875183204129467 68.1242
17.897721330097664 70.5767
17.920260154126645 73.0776
17.942799677153296 76.3508
17.9655159983646 79.9991
17.988056927677544 85.20700000000001
18.010598558807683 92.2786
18.033140892692916 101.251
18.05586005052525 110.2
18.07840379824407 120.552
18.10094825154059 131.109
18.12366954819864 139.518
18.146215420998306 141.22299999999998
18.16876200220057 133.251
18.191309292745153 120.956
18.214033452627167 107.00200000000001
18.236582170236648 94.5204
18.259131600016456 88.5802
18.281681742907335 87.7403
18.304408781233683 91.2368
18.32696035875955 95.419
18.349512652227624 100.319
18.372065662579683 104.975
18.394795594587553 107.119
18.41735004715306 104.757
18.43990521943684 98.4116
18.46246111238171 88.9677
18.485193953325208 78.9479
18.507751296070428 71.2932
18.530309362314178 66.862
18.552868153000343 64.3738
18.57560391815056 63.2101
18.59816416623245 62.9007
18.620725141597372 62.4118
18.643286845190268 61.9866
18.666025549835414 61.4096
18.688588718427933 60.7763
18.711152618092243 60.5702
18.73389353884365 60.2672
18.75645890921984 59.9084
18.77902501351406 59.6422
18.801591852673102 59.6547
18.824335739722738 59.0962
18.846904057212626 59.192
18.8694731124168 58.6907
18.89204290628315 58.6271
18.914789774966803 58.3851
18.937361054791623 58.1708
18.959933076131318 57.8759
18.982505839934877 57.8839
19.00525570560582 57.93
19.027829963004184 57.777
19.05040496572238 57.8734
19.072980714710468 58.0449
19.095733592739563 58.2426
19.11831084296757 58.715
19.140888842324735 59.2733
19.16346759176222 59.6808
19.18622349753803 60.0328
19.208803755869358 60.7454
19.231384767143577 61.7801
19.253966532312948 63.3359
19.276725481241822 65.3558
19.29930876296784 67.425
19.3218928014549 70.112
19.34465404436217 73.0935
19.36723960516257 75.7298
19.389825925592426 77.5784
19.412413006605938 76.7955
19.43517731967805 73.827
19.457765930683355 69.282
19.48035530514408 64.7178
19.50294544401556 60.3409
19.525712842708348 57.5487
19.54830451925909 56.1461
19.570896963095727 55.1056
19.593490175174704 54.9342
19.616260674962184 54.9393
19.638855432416964 54.4609
19.661450960992624 54.7721
19.68404726164677 54.5637
19.706820878021247 54.3211
19.729418731756834 54.6
19.752017360452857 54.157
19.77461676506804 54.5327
19.797393513540218 54.6974
19.819994478951667 55.1394
19.84259622316767 55.5626
19.8651987471481 55.8833
19.887978643247177 56.1699
19.91058273574792 56.7557
19.933187610901943 57.4621
19.955969879466828 58.5375
19.97857632894404 60.0034
20.00118356396599 61.4402
20.023791585494575 63.2131
20.046577028914875 65.6741
20.069186632506966 67.9373
20.091797025500632 69.7973
20.114408208858933 70.7021
20.137196842715273 71.1223
20.159809615886765 69.738
20.18242318232135 66.7707
20.20503754298326 64.7113
20.227829382875154 63.364
20.250445341109344 62.8183
20.27306209647285 63.1894
20.29567964993108 64.3609
20.31847471147704 65.5898
20.34109387027612 66.5214
20.363713830075454 66.6541
20.386334591841646 65.2205
20.409132890679302 62.8641
20.431755265564437 59.7789
20.454378445325528 56.5489
20.477002430930366 54.5277
20.499803982716553 53.3669
20.522429589228004 52.4055
20.54505600449589 51.926
20.567683229489194 51.8091
20.590488049900088 51.521
20.61311690359731 51.181999999999995
20.63574656993626 50.9705
20.658553853717297 50.5678
20.681185154618298 50.4756
20.703817271080066 50.3622
20.72645020407368 49.9656
20.749260783967177 50.0158
20.771895359337133 49.8465
20.794530754161617 49.7801
20.817166969412938 49.716
20.83998086114876 49.6343
20.86261872660049 49.4006
20.885257415405402 49.4908
20.90789692853701 49.5924
20.930714147864748 49.5113
20.953355319030678 49.4765
20.97599731745334 49.5361
20.99864014410749 49.4199
21.021460706796564 49.4817
21.044105199328826 49.6669
21.06675052302631 49.995
21.089396678865015 50.0958
21.112220600704806 50.3349
21.134868430275347 50.726000000000006
21.15751709492456 50.985
21.180166595629693 51.2817
21.202993892429635 51.5627
21.22564507473034 51.8066
21.24829709602816 52.2052
21.27112693608965 52.3519
21.293780644891275 52.401
21.316435195634053 51.7204
21.339090589297417 51.1433
21.361923832041875 50.6768
21.384580921090404 49.994
21.407238856007325 49.4682
21.429897637773326 49.4542
21.45273429906592 49.2216
21.475394784108598 49.2452
21.498056118951983 49.2306
21.520718304578022 49.3219
21.543558400304388 49.519
21.566222297108816 49.6836
21.58888704765135 49.8231
21.61155265291521 50.2846
21.63439619898156 50.7939
21.657063523335786 50.8722
21.67973170537063 51.4859
21.7024007460706 51.9553
21.72524775840385 52.6191
21.747918526116475 53.8
21.770590155457388 54.9961
21.79326264741238 56.2997
21.816113141960237 58.0657
21.838787368860547 59.8489
21.861462461341976 61.5221
21.884315579735777 63.5723
21.90699241312273 64.8188
21.92967011506078 65.5281
21.95234868653799 65.5523
21.9752053151131 64.5557
21.997885635446785 62.57899999999999
22.020566828293532 60.6895
22.04324889464272 58.8236
22.066109049404666 57.4196
22.088792872571794 56.8058
22.111477572219204 56.8002
22.1341631493376 57.0133
22.157026846313123 56.9872
22.179714188221507 56.6065
22.202402410582668 55.519
22.22509151438863 54.0852
22.24795876962584 52.5384
22.270649646204486 51.4284
22.293341407213727 50.8654
22.316034053646906 50.2227
22.338904883215342 50.0073
22.36159931041458 49.9799
22.38429462602756 49.8959
22.40699083104897 49.786
22.429865251039757 49.7225
22.452563244831367 49.7712
22.47526213102522 49.8185
22.49813925616515 49.7136
22.520839937143307 49.5298
22.543541513520587 49.4829
22.56624398629403 49.2014
22.589124730075895 49.251000000000005
22.611829005656723 49.549
22.63453418063466 49.5118
22.657240256008077 49.7854
22.680124634582935 50.1018
22.70283252079775 50.3848
22.725541310413075 50.5694
22.74825100442868 50.6803
22.771139033969575 51.2954
22.79385054687155 51.4926
22.81656296718292 51.9726
22.83927629590484 52.9446
22.862167992606945 53.8516
22.88488314827121 54.6772
22.907599215359284 55.7544
22.93031619487366 56.8429
22.953211574954405 57.4662
22.975930389478226 58.5525
22.998650119445763 58.9644
23.02137076586092 58.2967
23.044269845560063 57.2039
23.06699233506288 55.5729
23.089715744034912 53.8037
23.112617610931565 52.1505
23.135342869061212 50.9026
23.158069049684816 50.0315
23.1807961538087 49.6646
23.20370174880544 49.6589
23.226430710184808 49.6502
23.249160598093425 49.7138
23.271891413539002 49.8368
23.294800752937697 49.8477
23.31753343374794 50.1045
23.340267045128353 50.2979
23.36300158808808 50.4811
23.38591468821339 50.7489
23.408651104658304 51.3264
23.431388455719986 51.832
23.454126742409 52.6354
23.4770436196085 53.5135
23.499783787914662 54.4681
23.522524894889884 55.3684
23.54526694154616 56.3622
23.56818761219047 57.5075
23.59093154860734 58.1295
23.613676427751283 58.7486
23.636422250635754 58.351000000000006
23.659346731118656 56.8869
23.68209445191868 55.0261
23.704843119509587 52.7943
23.72759273490623 50.7583
23.750521041644767 49.2551
23.77327256312355 48.2244
23.796025035462787 47.4344
23.818956224555475 46.9294
23.841710609113413 46.7861
23.86446594758979 46.5243
23.887222241002014 46.2642
23.910157285144578 46.1289
23.932915498962537 45.989
23.955674670778713 45.9041
23.978434801611975 45.7346
24.001373717286125 45.496
24.024135776723917 45.3929
24.046898798245582 45.2323
24.06966278287146 45.1773
24.092605586582614 44.9732
24.115371508023642 45.0264
24.1381383956401 44.8877
24.16090625045381 44.6776
24.183852958731244 44.7934
24.206622758582608 44.6165
24.229393528706886 44.4417
24.252165270127392 44.4789
24.27511589952438 44.3328
24.297889594216997 44.19
24.32066426328598 44.1652
24.34343990775613 43.9995
24.36639447485003 43.9088
24.38917208083877 43.9047
24.41195066531332 43.7509
24.43490819850244 43.8876
24.457688750692377 43.731
24.48047028445616 43.5912
24.503252800821233 43.8262
24.526214300784112 43.9258
24.548998793132213 43.8104
24.57178427117417 43.5745
24.59457073593893 43.6813
24.617536219319863 43.5175
24.64032466834748 43.7416
24.663114107195035 43.7413
24.685904536893013 43.2624
24.708874020360852 43.2185
24.731666442613744 43.261
24.754459858818787 43.1511
24.777254270007962 43.0141
24.80022777025625 42.9996
24.82302418230472 42.965
24.845821592443674 43.095
24.86862000170663 43.0391
24.891597535453727 42.9416
24.914397953892728 43.0789
24.93719937456671 43.0174
24.96000179851076 43.0801
24.98298338249997 43.3461
25.00578782394922 43.676
25.028593271784167 43.7394
25.05157790644186 43.8241
25.07438537804115 44.1636
25.097193859145293 44.4201
25.120003350792075 44.5809
25.142992065061257 44.8098
25.165803588823465 45.0924
25.18861612625217 45.4667
25.211429678386736 45.5835
25.234422489079968 45.6606
25.257238081693636 45.5589
25.280054692141732 45.6075
25.3028723214652 45.6371
25.325869245420463 45.7158
25.348688923599397 45.6763
25.371509623787006 45.7616
25.394331347025812 45.4355
25.41733240110666 45.0696
25.440156181590016 44.3969
25.46298098826268 43.913000000000004
25.48580682216873 43.1646
25.50881202326435 42.6938
25.53163992281684 42.2245
25.55446885274561 41.9594
25.577298814096377 41.6532
25.600308179121807 41.6459
25.623140214533745 41.6544
25.64597328451537 41.5485
25.66898578564376 41.218
25.691820936010206 41.24
25.714657124097695 41.2938
25.737494350954734 41.2936
25.760511045684957 41.2378
25.783350361364224 41.1918
25.806190718969255 41.2019
25.82903211955018 41.3582
25.852053024868923 41.5415
25.874896522722523 41.413000000000004
25.897741066713106 41.3509
25.920586657892454 41.5035
25.943611790812668 41.6194
25.966459487728237 41.7477
25.989308234998564 41.6152
26.01215803367705 42.0526
26.03518741123814 42.1889
26.05803932412957 42.2099
26.080892291600094 42.3629
26.10374631470478 42.3355
26.12677995397268 42.4232
26.14963609978026 42.4825
26.172493304397875 42.0889
26.19535156888223 41.9512
26.218389486949604 41.6197
26.241249882640123 41.2982
26.26411134137826 40.9909
26.28715248187403 41.0011
26.31001607820869 40.8691
26.3328807407756 40.7973
26.35574647063438 40.7797
26.37879191991473 40.7883
26.401659795896734 40.8834
26.424528742360263 40.9561
26.447398760366614 41.1043
26.470448535598294 41.2759
26.49332070826805 41.4074
26.516193955675355 41.7701
26.53906827888316 42.1271
26.562122397260108 42.1924
26.584998883685063 42.3787
26.607876449110325 42.5646
26.63075509460056 42.6051
26.65381357334404 42.8924
26.67669439061878 42.8735
26.699576291163382 42.7139
26.722459276044212 42.8257
26.745522132402975 42.395
26.768407297649354 42.1459
26.791293550442003 41.6797
26.814180891848974 41.5375
26.837248143099337 41.2344
26.860137673466657 41.1675
26.88302829566349 40.9144
26.90592001075963 40.8108
26.92899167420566 40.64
26.951885586870763 40.394
26.974780595655517 40.0194
26.99785558178161 39.8939
27.020752794605112 39.8049
27.043651106772522 39.5642
27.06655051935668 39.4836
27.089629948036183 39.3544
27.112531573292053 39.3005
27.135434302194138 39.4145
27.158338135817015 39.3596
27.181422024430987 39.3181
27.204328079372566 39.1025
27.22723524226965 39.2835
27.250143514198573 39.1927
27.273231880156334 39.1323
27.296142382065014 39.0823
27.319053996245536 39.0656
27.341966723775965 39.1586
27.365059584515222 39.1535
27.38797455070062 39.2852
27.410890633481237 39.0962
27.433807833936918 39.1072
27.456905206923906 39.165
27.47982465472398 39.2271
27.502745223449743 39.3432
27.525666914182825 39.2822
27.548768816912457 39.1999
27.571692763693633 39.0884
27.59461783573812 38.9502
27.617723149491244 38.8988
27.640650484125285 38.8135
27.66357894728264 38.9059
27.686508540048052 38.7021
27.709618414237887 38.6813
27.732550278321757 38.5178
27.755483275279115 38.5036
27.778417406196485 38.5658
27.801531858397514 38.5343
27.824468269376716 38.5696
27.847405817586786 38.4097
27.870344504116094 38.6131
27.893463551932008 38.7337
27.916404527281053 39.0411
27.93934664422563 38.9657
27.962289903855886 39.099000000000004
27.98541356491974 39.3495
28.00835912214229 39.3487
28.03130582533231 39.6615
28.054253675581805 39.8106
28.077381967556104 39.7333
28.100332124185126 39.7948
28.123283431160893 39.7746
28.146235889577238 39.3387
28.169368830154156 39.2472
28.192323603752033 39.1137
28.215279532083304 38.813
28.238415973016764 38.6014
28.261374223145094 38.4682
28.284333631303806 38.1962
28.307294198589954 38.1876
28.330435319167677 37.7946
28.353398217078915 37.5777
28.376362277420153 37.3536
28.39932750129032 37.2415
28.422473319286713 37.0859
28.44544088262495 37.001999999999995
28.468409612800283 36.971
28.491379510913497 36.7848
28.51453004413313 36.6034
28.53750229057244 36.5706
28.56047570826344 36.4419
28.583450298308804 36.5419
28.606605564586562 36.3063
28.629582511831156 36.3741
28.65256063474956 36.2695
28.675539934446338 36.3341
28.698699951647605 36.1981
28.72168161743193 36.1122
28.74466446331978 36.0951
28.767648490417624 36.0494
28.790813276438353 35.9673
28.813799678527303 36.0572
28.836787265157085 36.0582
28.859955641890075 36.0763
28.882945610203045 36.0509
28.905936766392035 36.0063
28.928929111566863 35.9845
28.952102288520145 35.8906
28.975097024308607 35.7093
28.998092952423807 35.6925
29.021090073977508 35.6442
29.04426806913204 35.4347
29.067267590245258 35.2841
29.090268308143695 35.2658
29.11327022394099 35.0903
29.13645305530891 35.0919
29.159457379627167 34.9969
29.18246290519685 35.0564
29.20546963313352 34.9559
29.22865731875826 34.9775
29.25166646419296 34.9413
29.27467681535305 34.7682
29.29768837335608 34.8572
29.320880931312562 34.9639
29.34389491580634 34.8939
29.366910110507334 34.8922
29.38992651653503 34.8295
29.41312396492981 34.8466
29.436142806456754 34.7408
29.45916286268059 34.6334
29.48236399319994 34.6279
29.50538649169417 34.521
29.528410208259935 34.2521
29.55143514402014 34.1224
29.574641196749695 34.0679
29.597668583816574 34.0064
29.6206971934585 33.7244
29.64372702680042 33.7777
29.666938019934474 33.7397
29.689970313635285 33.4819
29.713003834422636 33.5302
29.73603858342347 33.5109
29.759254535188578 33.4651
29.78229175361658 33.4075
29.80533020365064 33.5103
29.82836988641968 33.4221
29.85159081507472 33.3676
29.874632976355343 33.2662
29.89767637376955 33.3652
29.920721008448314 33.1349
29.9439469322847 33.1862
29.96699405457564 33.202
29.9900424175358 33.236
30.013092022298157 33.0603
30.03632295963995 32.986999999999995
30.059375061131373 33.0662
30.08242840783577 33.0756
30.105483000888153 33.2055
30.128718970092244 33.067
30.151776069006917 32.8659
30.17483441768648 32.991
30.198074175317235 33.0507
30.221135036724256 33.0437
30.24419715131772 32.9517
30.267260520236203 32.8152
30.290505341942243 32.9468
30.313571232750228 32.8326
30.336638381310948 32.7944
30.35970678876503 32.7495
30.38295669299435 32.6937
30.40602763151657 32.8034
30.429099832366074 32.6903
30.452173296685572 32.7134
30.47542830191959 32.6332
30.498504306502497 32.5413
30.521581577995562 32.6589
30.544660117543582 32.7098
30.56792024229725 32.6659
30.59100133132069 32.6655
30.614083691845494 32.5848
30.637167325018545 32.7396
30.660432587840603 32.7948
30.683518779717886 32.7503
30.70660624769615 32.7787
30.729694992924372 32.7925
30.75296541239743 32.8375
30.77605672557558 32.6748
30.799149319462742 32.6522
30.8224236211637 32.571999999999996
30.845518789950724 32.4484
30.868615242910597 32.3771
30.891712981195973 32.2432
30.91499247215866 32.1644
30.938092794619365 32.2337
30.96119440587579 32.129
30.984297307082752 31.9345
31.00758200598383 31.8549
31.030687500658694 31.7585
31.053794288760695 31.7612
31.076902371446767 31.5586
31.100192296997445 31.5967
31.12330298246119 31.5929
31.14641496599209 31.4931
31.169528248749216 31.4834
31.19282341969534 31.4041
31.215939314557186 31.5432
31.239056512134788 31.4314
31.262175013589378 31.5024
31.28547544871168 31.4632
31.30859657161541 31.2614
31.331719001892175 31.3395
31.35484274070538 31.6193
31.378148458819545 31.4956
31.401274828443725 31.3315
31.424402510106933 31.3407
31.447712205419993 31.4378
31.470842524931633 31.3495
31.493974159989783 31.3412
31.51710711176168 31.331999999999997
31.54042212308802 31.3188
31.563557722100917 31.4292
31.586694641341655 31.1544
31.609832881979628 31.0565
31.63315322823208 31.0559
31.656294125521327 30.9201
31.679436347728515 30.7799
31.70257989602529 30.7814
31.725905596152327 30.7343
31.74905181052835 30.6199
31.772199354521323 30.7161
31.79534822930507 30.7515
31.818679302290967 30.7138
31.84183085259981 30.6035
31.864983737233473 30.6296
31.88813795736804 30.6565
31.911474422233013 30.5246
31.934631327356435 30.59
31.9577895715215 30.5863
31.980949155906522 30.6047
32.004291031706956 30.5396
32.027453310562606 30.3826
32.05061693318573 30.2641
32.07396288236386 30.2752
32.09712920658542 30.3173
32.12029687812702 30.1377
32.14346589817093 30.0005
32.166817291729984 30.0169
32.18998902288583 29.9801
32.21316210610336 29.9104
32.23633654256711 29.7923
32.259693399663725 29.7415
32.282870556771144 29.6965
32.30604907069099 29.7155
32.329228942610065 29.5663
32.35259128243769 29.4441
32.375773884550505 29.4404
32.398957848235646 29.4065
32.422143174682176 29.4372
32.445511016471215 29.3159
32.468699082679954 29.2371
32.49188851523011 29.2785
32.51507931531304 29.1336
32.538452678331 29.1547
32.56164622776311 29.0275
32.58484114831493 28.9673
32.60803744118015 29.0856
32.631416344731896 28.9699
32.654615396551876 28.9996
32.67781582427913 28.9215
32.701198898634416 28.8282
32.72440209253756 28.857
32.747606665947124 28.7865
32.77081262006088 28.5973
32.79420126883317 28.5413
32.81740999876112 28.5853
32.840620112999424 28.5875
32.86383161274818 28.4325
32.88722585534586 28.538
32.91044014056596 28.554000000000002
32.933655814909734 28.4899
32.95687287957963 28.4883
32.98027273544904 28.4207
33.00349259526636 28.3285
33.026713849030116 28.3222
33.04993649794511 28.3245
33.073341986570746 28.2281
33.09656744032826 28.2413
33.11979429286444 28.2008
33.14302254538647 28.3511
33.166433686291185 28.2543
33.18966475336992 28.2261
33.212897224069096 28.1157
33.23613109959831 28.1478
33.259547912343415 28.0774
33.2827846121627 28.0114
33.306022720453775 27.9782
33.32926223842861 27.9423
33.352684742614166 27.9543
33.37592709463173 27.886999999999997
33.399170859982064 27.8055
33.422597648419426 27.749000000000002
33.44584425514446 27.5939
33.46909227885668 27.5886
33.4923417207723 27.3729
33.51577423505344 27.5683
33.539026528130385 27.3939
33.56228024307245 27.311
33.585535381098246 27.2288
33.60897364093058 27.164
33.63223163992385 27.2004
33.6554910656699 27.0801
33.678751919389796 27.1534
33.702195944520106 27.0243
33.72545966903325 27.1161
33.74872482519663 27.0139
33.771991414233746 27.0074
33.79544122444841 26.9939
33.81871069412428 26.9093
33.84198160035767 26.8862
33.86525394437455 26.9645
33.88870955949969 26.8179
33.911984794020626 26.8078
33.93526147001624 26.7654
33.958539588715006 26.7529
33.98200102861669 26.6798
34.0052820477047 26.4563
34.02856451319451 26.5374
34.05203033759056 26.5152
34.07531571090147 26.3776
34.09860253431845 26.4183
34.121890809074316 26.2953
34.145362493118924 26.4018
34.16865368561615 26.291999999999998
34.191946333164054 26.2549
34.21524043699793 26.268
34.23871800066799 26.218000000000004
34.26201503218366 26.129
34.28531352370466 26.0851
34.30861347646881 25.9746
34.33209693978188 25.9961
34.3553998301885 25.9609
34.378704185565205 25.8302
34.402010007152356 25.8486
34.42549939016683 25.8134
34.44880815937748 25.7021
34.472118398533134 25.6432
34.49543010887669 25.6511
34.51892543169198 25.5853
34.54224009966052 25.6258
34.56555624255917 25.6231
34.58887386163339 25.5582
34.61237514439016 25.432
34.6356957311114 25.377
34.65901779775809 25.2753
34.68252356662995 25.3207
34.705848608458616 25.3036
34.72917513396849 25.3307
34.75250314440949 25.261
34.77601490857862 25.1695
34.799345904259795 25.0761
34.82267838863559 25.0914
34.846012362958525 25.1053
34.869530142679984 25.0036
34.89286711232212 25.006999999999998
34.91620557568269 24.9986
34.93954553401677 24.9924
34.9630693495876 24.9022
34.986412313340814 24.9715
35.00975677584668 24.8828
35.033102738362956 24.8271
35.05663261012228 24.7798
35.0799815881786 24.7694
35.10333207003229 24.7539
35.12668405694369 24.7869
35.150220005273056 24.6432
35.17357501786656 24.6329
35.19693153931268 24.7363
35.220289570874385 24.6091
35.24383161619786 24.5877
35.267192683604904 24.5805
35.290555264930376 24.5426
35.314101899412165 24.5026
35.33746752422433 24.5266
35.36083466676374 24.476999999999997
35.38420332829803 24.3792
35.407756095629054 24.413
35.43112781085063 24.4266
35.45450104888391 24.3184
35.477875810999194 24.3529
35.50143473172161 24.2374
35.52481255774625 24.3599
35.54819191167777 24.2422
35.57157279478914 24.2352
35.595137889488406 24.1239
35.61852184675279 24.0777
35.641907337029984 24.0664
35.665294361595684 24.0219
35.68886565090076 23.9111
35.7122557598848 23.9198
35.73564740699838 23.9031
35.759040593519934 23.8177
35.78261809810353 23.9259
35.80601437933051 23.7249
35.829412203814705 23.6667
35.85281157283719 23.6375
35.876395313415884 23.6549
35.8997977874528 23.6147
35.92320180988546 23.6202
35.946790244133936 23.5009
35.97019737933222 23.5218
35.993606066789866 23.4644
36.01701630779276 23.401999999999997
36.04061101440684 23.4557
36.06402437852291 23.4579
36.08743930005611 23.38
36.1108557802951 23.2446
36.13445678011326 23.276999999999997
36.15787639383515 23.2462
36.18129757014299 23.2331
36.20472031032821 23.1831
36.22832762423364 23.2056
36.25175350829375 23.1215
36.275180960119776 23.0171
36.298609981005924 23.0511
36.32222362992669 23.0838
36.34565580510207 23.0041
36.36908955323448 22.9287
36.39252487562093 22.8101
36.416144880530226 22.8958
36.43958336764275 22.8175
36.463023432914625 22.886
36.486465077645676 22.7482
36.51009145956204 22.8226
36.53353627947859 22.7333
36.55698268276811 22.6694
36.58043067073321 22.6588
36.60406345072071 22.6253
36.62751462435344 22.6441
36.65096738658405 22.5761
36.67460498210655 22.5346
36.69806093788647 22.5048
36.72151848619297 22.4582
36.744977628333636 22.4292
36.76862165890998 22.3781
36.79208400512205 22.3425
36.81554794910557 22.339000000000002
36.83901349217101 22.2489
36.862663978991606 22.118000000000002
36.88613273667352 22.0957
36.90960309738324 22.109
36.933075062434064 22.0959
36.95673202673572 22.0079
36.98020721697122 22.0195
37.003684015502365 21.9842
37.027162423645365 21.9308
37.050825886711465 21.9341
37.07430753063053 21.8782
37.09779078812467 21.8749
37.121275660513014 21.8298
37.144945643673694 21.7741
37.16843376245278 21.7772
37.19192350009803 21.7342
37.215414857931435 21.7203
37.239091382563885 21.593000000000004
37.262585997426164 21.5181
37.28608223645736 21.6419
37.309763684451696 21.5474
37.33326318851098 21.5571
37.356764320726555 21.4469
37.380267082425526 21.546999999999997
37.40395510942588 21.4724
37.42746114683234 21.3751
37.45096881771841 21.2921
37.474478123414166 21.3305
37.49817275092816 21.3523
37.52168534303452 21.2817
37.54519957395567 21.2337
37.568715445024665 21.2177
37.592416694607714 21.1844
37.61593586281424 21.234
37.63945667518264 21.2892
37.66297913304891 21.144000000000002
37.68668702630454 21.0172
37.710212792059274 20.9581
37.733740207334854 20.8972
37.757269273470364 20.9377
37.780983832050374 20.9238
37.80451621684926 20.8589
37.82805025654007 20.8466
37.851585952464795 20.7131
37.8753071980695 20.7428
37.89884622345676 20.7253
37.92238690911902 20.688000000000002
37.94611318753442 20.5913
37.969657210779765 20.6213
37.99320289834801 20.6088
38.016750251586465 20.5684
38.04048325513017 20.4612
38.06403395679343 20.4809
38.087586328183946 20.4318
38.11114037065203 20.4683
38.13488012115898 20.4515
38.1584375229181 20.3195
38.181996599821 20.3186
38.205557353221124 20.3424
38.229303872575656 20.2947
38.2528679961576 20.2886
38.27643380031219 20.1574
38.30000128639589 20.1132
38.32375459653193 20.0994
38.34732546371299 20.1323
38.37089801690786 20.0828
38.39447225747609 19.9812
38.418232380377425 19.9994
38.441810012983396 19.9912
38.46538933705673 19.9127
38.488970353960084 19.9957
38.51273731166058 19.8611
38.536321731567014 19.8033
38.55990784840681 19.8548
38.58367995004091 19.7946
38.60726947812959 19.7405
38.63086070726198 19.6915
38.654453638806274 19.7387
38.678232613930824 19.5734
38.70182896773327 19.5624
38.72542702806741 19.5249
38.7490267963045 19.5397
38.77281266709232 19.5179
38.79641586862214 19.5202
38.8200207821842 19.5006
38.843627409152944 19.4516
38.86742019782782 19.417
38.891030269149255 19.3475
38.914642058016156 19.3795
38.938255565806124 19.393
38.96205529464307 19.2803
38.98567225787121 19.3047
39.00929094417078 19.2275
39.03291135492255 19.2163
39.05671804624804 19.1907
39.080341923549106 19.1599
39.103967529460334 19.1131
39.127594865365744 19.014
39.15140854155791 19.0572
39.17503935514948 18.9774
39.19867190290282 18.9765
39.22249083587951 18.9703
39.24612686969409 19.0052
39.269764641845306 18.9698
39.293404153722804 18.8865
39.317230110864074 18.9124
39.34087311998506 18.8739
39.36451787301696 18.8482
39.388164371352595 18.7556
39.41199737518003 18.6994
39.43564738196752 18.719
39.45929913825317 18.6731
39.48295264543308 18.5944
39.506792718520884 18.5358
39.530449745387216 18.5541
39.55410852735203 18.6157
39.57776906581474 18.5176
39.60161623079 18.4312
39.625280300200025 18.4959
39.64894613032202 18.4272
39.67261372255866 18.4431
39.6964680021016 18.4445
39.72013913657293 18.3215
39.74381203738292 18.3139
39.76748670593756 18.3481
39.79134812278169 18.3027
39.81502634488497 18.2541
39.83870633896685 18.2308
39.862388106436654 18.1444
39.88625668336918 18.12
39.90994201572829 18.166
39.933629125719285 18.1201
39.957503091207826 18.0654
39.9811937746168 18.0352
40.00488623990914 18.0179
40.02858048850006 17.9851
40.05246165409549 17.887999999999998
40.076159487492085 17.8958
40.099859108448875 17.8778
40.123560518384345 17.8647
40.1474489070226 17.8424
40.171153913178564 17.7878
40.194860712584955 17.7201
40.2185693066637 17.7558
40.242464941335314 17.7015
40.26617714307655 17.6642
40.289891143772046 17.6878
40.3136069448471 17.6284
40.33750984859743 17.5836
40.3612292688043 17.5482
40.3849504936829 17.5129
40.40867352466194 17.5529
40.43258372059144 17.4848
40.45631038219906 17.5117
40.48003885420956 17.4435
40.503769138055105 17.4037
40.52768664931955 17.4074
40.55142057531802 17.3774
40.57515631746428 17.2886
40.599079334038514 17.2848
40.62281872700477 17.2749
40.64655994043941 17.265
40.67030297578061 17.238
40.69423334835778 17.1961
40.71798004609188 17.1409
40.74172857006355 17.1369
40.76547892171441 17.1646
40.7894166736039 17.0794
40.813170699248566 17.0363
40.83692655691388 16.9413
40.86068424804498 17.0213
40.884629402612525 16.9313
40.908390779366385 16.9789
40.932153993938 16.8818
40.95591904777605 16.8419
40.979871628443995 16.8928
41.003640379561936 16.8418
41.02741097430883 16.8485
41.05118341413683 16.866
41.075143444384416 16.7558
41.098919593177826 16.7494
41.1226975914255 16.6858
41.14647744058318 16.6913
41.170444943946755 16.6449
41.19422851378379 16.6186
41.218013938914645 16.5992
41.24198706625173 16.5458
41.26577622087193 16.5657
41.289567235177785 16.4824
41.31336011063129 16.5204
41.337340752422875 16.4602
41.361137369129835 16.4382
41.38493585138705 16.4061
41.40873620066004 16.3548
41.43272438060107 16.3214
41.45652848292052 16.284000000000002
41.48033445666918 16.2189
41.50414230331616 16.208
41.528138045159764 16.2414
41.551949656675205 16.1817
41.575763145513235 16.1623
41.59957851314666 16.1251
41.62358184070442 16.1008
41.64740098505737 16.042
41.6712220126409 16.0836
41.69504492493139 15.9799
41.71905586207357 15.9828
41.74288256296395 15.9805
41.766711153007456 15.9549
41.79054163368412 15.9528
41.814560204340054 15.9299
41.838394485526365 15.9335
41.86223066180303 15.838
41.88625497706819 15.8301
41.910094962812 15.780999999999999
41.93393684811168 15.8273
41.95778063445365 15.7499
41.981812625263366 15.7441
42.00566023303407 15.675999999999998
42.029509746323676 15.6228
42.05336116662236 15.5848
42.077400857069705 15.6221
42.10125611078846 15.5843
42.12511327600405 15.5411
42.14897235421036 15.4942
42.173019768448455 15.4574
42.19688269209613 15.4466
42.22074753323349 15.4163
42.24461429335818 15.4459
42.268669455600495 15.3875
42.292540073217886 15.3785
42.31641261433284 15.3659
42.34028708044675 15.3221
42.36435001496739 15.2536
42.38822835065557 15.3108
42.41210861586426 15.2719
42.4359908120986 15.2184
42.46006154323262 15.1526
42.48394762115317 15.1325
42.507835634632315 15.1136
42.531912233047436 15.0972
42.55580413732265 15.0923
42.579697981698 15.1013
42.60359376768525 15.0339
42.62767820545945 15.0503
42.65157789440821 15.0128
42.67547952952185 14.9605
42.699383112316 14.9271
42.72347541395347 14.8677
42.74738291190531 14.845
42.771292362102166 14.8494
42.795203766063516 14.8731
42.819303956130405 14.811
42.843219287476536 14.7733
42.86713657716324 14.7461
42.89105582671383 14.757
42.91516392983864 14.7205
42.939087119032166 14.6911
42.963012272677304 14.6749
42.98693939230129 14.674000000000001
43.01105543317513 14.6563
43.034986504731386 14.6307
43.05891954686589 14.5532
43.08285456110972 14.544
43.10697856448665 14.482999999999999
43.130917542983475 14.4635
43.15485849820081 14.4901
43.17880143167367 14.4457
43.20293342237094 14.3957
43.226880332449 14.3405
43.25082922540554 14.3901
43.27496722682525 14.3369
43.29892010567796 14.2985
43.32287497204102 14.2957
43.34683182745632 14.2213
43.370977859791836 14.2283
43.39493871351105 14.1762
43.41890156092628 14.1941
43.44286640358341 14.1523
43.46702049182749 14.1095
43.49098934522816 14.0611
43.51496019852649 14.0865
43.5389330532723 14.0977
43.56309522248204 14.0374
43.58707210044314 14.0321
43.61105098451946 13.9731
43.63503187626491 13.9778
43.659202151562134 13.9344
43.68318707902681 13.9262
43.70717401884041 13.892000000000001
43.731162972560874 13.8538
43.75534137913236 13.8691
43.779334381108384 13.8244
43.803329401683186 13.8347
43.82732644241872 13.8028
43.8515130055166 13.7835
43.87551410707659 13.7661
43.89951723350145 13.7069
43.923709934595614 13.7034
43.94771713129917 13.6581
43.97172635758096 13.6526
43.99573761501002 13.6498
44.0199385169922 13.5788
44.04395385732619 13.5624
44.067971233533086 13.609000000000002
44.09199064718605 13.5291
44.11619977548961 13.4716
44.14022328470671 13.4874
44.16424883610785 13.4688
44.18827643127035 13.4784
44.21249381139513 13.3763
44.236525514814076 13.4185
44.26055926674478 13.3192
44.28459506876863 13.3621
44.3088207262813 13.2899
44.33286064928722 13.2801
44.35690262714919 13.2261
44.38094666145278 13.2087
44.4051806219871 13.2401
44.42922879003185 13.1565
44.45327901929361 13.1557
44.477331311362136 13.1626
44.501573600619416 13.1237
44.525630039221795 13.0962
44.54968854541895 13.0325
44.573937102200176 13.089
44.5979997645541 13.0659
44.622064499300315 12.9519
44.64613130803592 12.9324
44.67038823869318 12.975
44.69445921643748 12.9221
44.718532272981385 12.922
44.742607409926194 12.9211
44.76687274034801 12.8955
44.79095205918753 12.8279
44.81503346325094 12.833
44.839116954143876 12.8115
44.86339071028742 12.8148
44.88747839599524 12.7443
44.91156817336837 12.7335
44.93566004401666 12.7236
44.959942251908146 12.6897
44.984038330325966 12.6616
45.00813650686762 12.6096
45.03223678314731 12.617
45.05652746888232 12.6017
45.08063196592069 12.5832
45.104738567558705 12.5549
45.128847275414856 12.5237
45.15314646515866 12.5026
45.17725940679741 12.4924
45.20137445952892 12.4382
45.22568004865265 12.4609
45.24979934496396 12.4617
45.27392075725247 12.4242
45.29804428714431 12.3703
45.322358426247604 12.3507
45.346486212804315 12.3331
45.370616121861914 12.3455
45.39474815505086 12.3
45.41907087049246 12.2735
45.4432071734666 12.2015
45.46734560548283 12.2358
45.49148616817604 12.2641
45.51581748638564 12.2145
45.5399623320197 12.1413
45.56410931325473 12.100999999999999
45.58825843173002 12.1425
45.61259837920865 12.1286
45.636751793816 12.0989
45.66090735060093 12.0537
45.68506505120716 12.0544
45.7094136545275 12.032
45.73357566449271 11.9431
45.75773982322992 11.9385
45.78190613238733 11.9232
45.806263418194064 11.91
45.83043404997326 11.8885
45.85460683713677 11.9082
45.87897065658495 11.8345
45.90314777634752 11.8111
45.92732705646868 11.7757
45.9515084986045 11.7896
45.97588104735473 11.7699
46.00006683541565 11.7407
46.02425479047904 11.7317
46.04844491420549 11.7337
46.0728262191024 11.7301
46.09702070211635 11.7038
46.12121735879483 11.6712
46.14541619080294 11.661
46.169806278764455 11.6351
46.194009483459034 11.6059
46.21821486849841 11.5477
46.24242243555223 11.5208
46.266821333570014 11.5295
46.29103328674601 11.5327
46.31524742696538 11.5653
46.33946375590237 11.4638
46.36387149104216 11.4292
46.38809221957392 11.4166
46.41231514186606 11.3738
46.436540259597464 11.4132
46.460956858999374 11.3881
46.48518638983522 11.3482
46.509418121166966 11.3096
46.533652054678114 11.3022
46.55807754555709 11.2963
46.58231590571962 11.2566
46.60655647313217 11.2158
46.630988654873654 11.2549
46.655233659129024 11.1626
46.67948087571551 11.172
46.70373030632484 11.1328
46.72817142736393 11.1488
46.752425308428684 11.1099
46.77668140861147 11.1009
46.80093972960865 11.0639
46.82538981736788 11.0238
46.849652602470904 11.0042
46.87391761349769 10.9906
46.8981848521493 10.9879
46.9226439341274 10.9716
46.946915650573224 10.9349
46.97118959976749 10.9526
46.99546578341598 10.8659
47.019933887188216 10.8723
47.04421456235744 10.8738
47.06849747711879 10.8379
47.09278263318286 10.8408
47.11725978640143 10.7698
47.14154944775105 10.7492
47.165841355555656 10.7653
47.1901355115306 10.7194
47.214621741924994 10.7298
47.23892041698887 10.7216
47.26322134538975 10.6919
47.28771440635075 10.6507
47.31201986422527 10.6632
47.33632758061436 10.6531
47.360637557241866 10.6205
47.38513974410611 10.6087
47.40945426407847 10.6062
47.43377104948137 10.5476
47.45809010204344 10.5365
47.48260144275502 10.489
47.506925052572285 10.4919
47.53125093475548 10.4761
47.55557909103813 10.4755
47.58009961361992 10.4232
47.60443234110732 10.4255
47.62876734791564 10.3989
47.65310463578333 10.3709
47.6776343683373 10.3844
47.7019762413987 10.324000000000002
47.72632040075572 10.2865
47.75066684815169 10.2892
47.77520581885936 10.2464
47.799556865477655 10.2183
47.823910205386 10.2552
47.84826584033272 10.244000000000002
47.87281407745551 10.1914
47.89717432569297 10.193
47.92153687423484 10.1589
47.94609208429692 10.1497
47.97045925671401 10.1462
47.99482873471275 10.0963
48.01920052005013 10.068
48.04376504619224 10.0478
48.068141469543484 10.0788
48.09252020552573 10.0612
48.11690125590099 10.0346
48.1414751266064 9.98105
48.16586082917454 9.9452
48.19024885144316 9.94725
48.2146391951793 9.95928
48.239222439012764 9.938130000000001
48.26361744916137 9.91082
48.28801478610016 9.91838
48.31241445160131 9.91048
48.337007097209366 9.906839999999999
48.36141144338331 9.83877
48.38581812345755 9.82973
48.41022713920929 9.84347
48.434829215320704 9.801060000000001
48.45924292604658 9.802710000000001
48.48365897780325 9.76653
48.50807737237308 9.746189999999999
48.532688907799276 9.68177
48.55711201168574 9.6739
48.581537463754074 9.6619
48.60615611725119 9.68164
48.63058628942721 9.63826
48.65501881516546 9.61173
48.6794536962573 9.59043
48.70408185970339 9.625739999999999
48.72852147531801 9.5973
48.75296345168211 9.54069
48.77740779059232 9.52311
48.80204549302823 9.555860000000001
48.82649458091802 9.5383
48.85094603676547 9.51324
48.87539986237231 9.516919999999999
48.90004713292306 9.475610000000001
48.92450572200832 9.4519
48.94896668628025 9.43162
48.97343002754588 9.455969999999999
48.99808689542115 9.37852
49.02255501470614 9.37124
49.04702551642794 9.31913
49.0714984023988 9.31669
49.096164896893235 9.285739999999999
49.120642575466796 9.27688
49.145122643748394 9.2733
49.16960510355558 9.28754
49.19428125404938 9.26218
49.2187685210852 9.250739999999999
49.243258185121555 9.249830000000001
49.26794160167084 9.1919
49.2924360839405 9.14231
49.31693296869764 9.13761
49.34143225776915 9.163680000000001
49.36612538195438 9.12595
49.39062950396021 9.098230000000001
49.41513603578346 9.07824
49.4396449792564 9.07427
49.46434784069503 9.03628
49.488861631846454 9.046610000000001
49.513377840166804 9.01361
49.537896467493745 8.98437
49.56260909589029 8.96847
49.587132585683285 8.97513
49.611658500018365 8.96728
49.636186840738596 8.9506
49.66090926588511 8.948189999999999
49.685442483902584 8.88735
49.70997813385706 8.88959
49.734516217597076 8.87267
49.75924846937352 8.83283
49.7837914452858 8.85014
49.80833686055187 8.80203
49.83288471702571 8.79532
49.85762682540054 8.78099
49.882179588965734 8.7714
49.9067347993235 8.717830000000001
49.93129245833333 8.71562
49.95604445336378 8.695269999999999
49.98060703442832 8.70678
50.005172069746266 8.65439
50.02993150438364 8.664860000000001
50.05450147301533 8.69632
50.07907390151433 8.62297
50.10364879174981 8.62763
50.12841816587289 8.58046
50.1529980044635 8.56565
50.17758031042124 8.55175
50.20216508562089 8.537510000000001
50.22694442953363 8.516580000000001
50.25153416817468 8.50804
50.27612638170508 8.50018
50.300721072005196 8.46797
50.325510416102105 8.445260000000001
50.350110084975064 8.42888
50.37471223628208 8.4477
50.39931687190919 8.44165
50.424116246675766 8.43716
50.44872587605249 8.36233
50.47333799543065 8.338989999999999
50.49795260670191 8.35315
50.52276204271512 8.36485
50.54738166295838 8.321530000000001
50.57200378079314 8.27299
50.596628398116835 8.2821
50.62144792604559 8.23828
50.646077567609396 8.2297
50.670709714377715 8.24886
50.69553683636198 8.2146
50.72017401885922 8.22155
50.7448137122895 8.2093
50.76945591856022 8.19661
50.79429318636823 8.173630000000001
50.818940443716784 8.16129
50.84359021965163 8.1474
50.868242516085964 8.11242
50.893089960641895 8.10851
50.917747323549435 8.07062
50.94240721271973 8.06293
50.96706963007175 8.06044
50.99192728239342 8.02712
51.01659478166073 8.02783
51.04126481489051 7.979939999999999
51.06593738400761 7.98768
51.090805275207074 7.94066
51.11548294172845 7.9524
51.14016314993547 7.966660000000001
51.164845901758845 7.91442
51.18972406304274 7.91528
51.21441192780656 7.910489999999999
51.23910234200271 7.89135
51.2637953075678 7.83869
51.288683770237945 7.833189999999999
51.31338186432707 7.803910000000001
51.33808251561888 7.82525
51.362978729967345 7.787539999999999
51.387684521509755 7.809139999999999
51.41239287610203 7.7949600000000006
51.437103795691165 7.7495199999999995
51.46201036644977 7.73255
51.486726441956634 7.70158
51.51144508832545 7.72035
51.536166307509156 7.68669
51.56108326624387 7.662030000000001
51.58580965706056 7.67553
51.61053862657523 7.6113800000000005
51.635270176746864 7.58522
51.66019755512065 7.64158
51.68493429268881 7.59678
51.70967361681515 7.5634
51.73441552946465 7.5432
51.759353359237934 7.54482
51.7841004750961 7.511
51.80885018539685 7.54398
51.833602492111254 7.4668600000000005
51.8585508051424 7.45533
51.883308330926425 7.459560000000001
51.90806845906181 7.45265
51.932831191525715 7.40612
51.95779001977161 7.3839
51.98255798721516 7.3662600000000005
52.00732856494335 7.34698
52.03229530577543 7.340389999999999
52.057071130455945 7.3253699999999995
52.081849571391054 7.34134
52.106630630568695 7.30835
52.13160794279417 7.30047
52.15639426492067 7.274
52.18118321127822 7.26958
52.205974783860896 7.24597
52.23096269971011 7.21085
52.255759551287994 7.221839999999999
52.280559035098186 7.2114
52.30536115314103 7.202489999999999
52.33035970494467 7.233960000000001
52.35516711807904 7.20855
52.37997717147198 7.170380000000001
52.40478986713005 7.17161
52.42979908731974 7.15309
52.454617094216 7.10836
52.47943774942214 7.08316
52.50426105495102 7.08785
52.529280976059844 7.064539999999999
52.554109609024096 7.064030000000001
52.57894089837482 7.04968
52.60377484613117 7.03074
52.62880550079408 7.010669999999999
52.65364479223379 6.961360000000001
52.67848674816189 6.9675
52.70352547971946 6.955189999999999
52.72837279155837 6.97054
52.753222773982785 6.9177800000000005
52.778075429022984 6.92962
52.80312495150885 6.92955
52.827982978797436 6.90263
52.85284368481815 6.89842
52.87770707160767 6.852930000000001
52.90276741793998 6.84421
52.92763619336701 6.84567
52.952507655698504 6.82689
52.977381806977576 6.83379
53.00245301017842 6.8047
53.02733256653592 6.763889999999999
53.052214817996074 6.78038
53.077099766608484 6.758889999999999
53.102181859804446 6.7365699999999995
53.127072229988265 6.70448
53.15196530349892 6.684410000000001
53.17686108239249 6.67139
53.20195409881522 6.666119999999999
53.22685531582556 6.6977
53.25175924441303 6.64487
53.27666588664027 6.63152
53.30176985962693 6.63478
53.3266819565689 6.61792
53.35159677336455 6.595330000000001
53.376514312083096 6.61844
53.40162927507703 6.585719999999999
53.42655228516116 6.5347800000000005
53.45147802340193 6.53124
53.47660125628886 6.4953199999999995
53.50153247842639 6.52042
53.52646643496923 6.54791
53.55140312799818 6.51311
53.576537409691696 6.49329
53.60147960336152 6.43838
53.626424539786164 6.42583
53.65137222105307 6.4196599999999995
53.67651758529126 6.44576
53.70147078399681 6.34922
53.72642673383343 6.3975800000000005
53.75138543689533 6.40725
53.776541917524526 6.33587
53.801506154876755 6.312130000000001
53.826473151763246 6.30626
53.851442910284916 6.297619999999999
53.87661054126026 6.27104
53.9015858509782 6.2356
53.92656392866066 6.23278
53.95154477641532 6.26276
53.976723591801296 6.257969999999999
54.00171000771266 6.24421
54.02669920004598 6.23565
54.051691170915745 6.2238
54.076881204886796 6.197080000000001
54.101878760928514 6.19339
54.12687910187696 6.16364
54.152077577768296 6.162319999999999
54.1770835166946 6.14257
54.20209224691339 6.13223
54.22710377055121 6.1043199999999995
54.25231352511594 6.079330000000001
54.27733066384342 6.02134
54.30235060239643 6.073980000000001
54.32737334290836 6.01056
54.35259441062629 6.01154
54.377622783395324 6.01888
54.40265396455061 6.01502
54.42768795623251 5.98663
54.45292037169559 5.94027
54.477960012857906 5.944719999999999
54.50300247099511 5.9231300000000005
54.52804774825457 5.92429
54.55329154616743 5.87737
54.57834249018678 5.81499
54.6033962597977 5.8392800000000005
54.6284528571545 5.83028
54.653708072335164 5.747809999999999
54.67877035378786 5.78938
54.70383546947698 5.7543
54.72890342156389 5.69651
54.7541700889442 5.673430000000001
54.77924374251975 5.67661
54.8043202390049 5.69554
54.82959552413022 5.6502099999999995
54.8546777351945 5.6534
54.87976279569621 5.6546400000000006
54.90485070780914 5.6289
54.930137506558005 5.57929
54.95523115074295 5.61965
54.98032765308844 5.58603
55.005427015775496 5.55751
55.03072536339621 5.54684
55.05583047570572 5.44231
55.080938454927676 5.469069999999999
55.10604930325027 5.4464
55.131359235107396 5.427569999999999
55.15647585066083 5.3711199999999995
55.181595341907496 5.35665
55.20671771104285 5.3419300000000005
55.232039262617704 5.34464
55.25716741665048 5.282830000000001
55.28229845518636 5.29881
55.30743238042802 5.29868
55.33276558731939 5.24541
55.357905315183636 5.19214
55.383047936390035 5.16177
55.40819345314859 5.1275
55.433538351073295 5.12143
55.458689688238415 5.1389
55.483843927614096 5.10576
55.509197623043605 5.09045
55.53435769621134 5.1112
55.55952067826466 5.05816
55.5846865714265 4.972519999999999
55.61005202069737 4.9581
55.63522376553902 4.96676
55.66039842818645 4.983619999999999
55.68557601087004 4.95121
55.7109532500271 4.88103
55.73613670233794 4.91765
