TT I
1.2716486653135266 6.945530000000001
1.2939594142134223 6.95345
1.3162702121660406 7.024760000000001
1.3385810600174564 6.0721099999999995
1.3608919586137629 6.1041099999999995
1.383202908801069 5.99742
1.405513911425503 6.4073
1.4278249673332093 6.27944
1.4501343378461518 6.569369999999999
1.4724455028545926 6.04148
1.4947567236847858 5.8272699999999995
1.517068001182951 5.95708
1.5393793361953272 5.9743900000000005
1.5616907295681737 5.6647099999999995
1.5840021821477681 5.51325
1.60631369478041 4.85194
1.6286252683124185 5.48034
1.6509369035901333 4.98992
1.6732468618895553 5.49747
1.695558623192809 4.21352
1.7178704487808514 4.96725
1.7401823395001077 4.64991
1.7625012545597203 5.03501
1.7848028405262486 5.19676
1.8071218901122095 4.55295
1.8294236121921872 4.54568
1.8517427996910911 5.00111
1.8740620574440425 4.28135
1.8963639900671978 5.3627199999999995
1.9186833908139995 4.73841
1.9409854680117449 4.75291
1.9633050151394713 4.57024
1.9856246367570705 4.26209
2.0079269371922672 5.00172
2.03024671027244 5.10257
2.0525491637446027 4.62364
2.074869091674931 4.90257
2.097171701569106 4.74624
2.1194917877373847 5.30796
2.141811954326636 5.27456
2.164114805233074 4.67934
2.186435135143035 5.9541699999999995
2.208738150935709 13.3479
2.231058647554722 25.189
2.2533792288321184 19.1749
2.275682498336085 9.50711
2.298003251406138 6.30309
2.3203066942619714 5.94153
2.3426276225136022 5.49943
2.3649486396617507 5.92951
2.387252348930071 6.2228900000000005
2.4095735463442893 5.695880000000001
2.4318774374315884 6.50685
2.4541988185014043 6.7413300000000005
2.476502894794693 7.24724
2.498824462909887 7.886839999999999
2.521146125856138 7.426489999999999
2.5434504863470337 7.3442
2.5657723414244717 8.47446
2.588076895590662 8.72719
2.610398946189713 8.851569999999999
2.6327210958598384 8.87353
2.6550259469304716 9.00187
2.6773482972090137 8.87689
2.6996533504259 7.96643
2.7219759047039602 8.62504
2.744298562293959 9.00121
2.7666039251246595 8.935139999999999
2.7889267918020164 8.6016
2.8112323652516555 8.67892
2.833555444408179 9.080810000000001
2.8558786311183852 9.27261
2.8781845268938557 9.45491
2.9005079311721484 9.00022
2.9228140460410397 9.08963
2.9451376712799635 8.949580000000001
2.967444008632326 9.755
2.9897678582247247 10.1884
3.0120918213106695 10.6047
3.0343984987899373 11.3551
3.0567226913198637 11.1361
3.079029599759726 11.9285
3.101354025127254 12.3347
3.123678568232338 13.0373
3.145985829517914 13.1032
3.16831061055229 13.600999999999999
3.1906181112775593 14.3782
3.212943133635653 14.9883
3.2352682779763207 15.0579
3.2575761442691227 15.501
3.2799015350264273 15.7916
3.302209649240067 16.7441
3.3245352898092655 17.4993
3.3468436553365257 17.5459
3.369169549113219 18.0688
3.3914955708171384 18.9165
3.413804319727358 18.8017
3.4361305997334863 18.8892
3.4584396084414553 19.7938
3.4807661501462652 20.0919
3.503092824025881 20.7641
3.5254022288463154 20.7354
3.5477291695206588 21.4235
3.5700388426251948 22.3643
3.5923660534916446 23.4669
3.6146934007816114 36.1363
3.637003482731501 77.6649
3.6593311053109985 86.5648
3.681641464033634 51.7406
3.7039693653009733 29.1462
3.726297407241705 25.6649
3.7486081875460804 25.3116
3.7709365132734978 25.9328
3.793247578841633 26.4883
3.8155761917550093 26.6439
3.8378875459837216 26.7258
3.8602164494827234 27.475
3.882545499606844 28.046999999999997
3.9048572932539183 28.9257
3.9271866390645718 28.9766
3.9494987298666713 29.5688
3.971828374764527 30.0462
3.9941581705403255 30.0845
4.016470713506008 30.6891
4.038800813471445 31.4549
4.061113662089144 32.4746
4.0834440696459176 33.1389
4.105774632334751 33.4306
4.128087945865126 33.9901
4.150418821249301 34.5718
4.172732448931298 36.1408
4.195063640413578 37.4976
4.2173775856475215 40.7694
4.239709096631102 68.6905
4.262040768704612 202.52900000000002
4.284355196706267 274.906
4.306687193387355 182.331
4.329001947444346 75.2634
4.35133427213731 46.8268
4.373666762177566 43.9288
4.395982011761091 43.257
4.418314834921175 44.8901
4.44063041906622 51.7306
4.4629635787515625 61.1514
4.4852969080429785 61.606
4.5076130004776225 52.5022
4.529946671403969 49.3602
4.552263106909177 49.6289
4.574597122877047 50.3049
4.596931312711224 51.4157
4.619248269273446 52.8028
4.6415828092605835 53.4439
4.663900117405352 54.8882
4.686235010953232 55.8717
4.708552674085913 57.1721
4.730887924602802 58.5057
4.753223354952695 59.9169
4.775541557023902 61.1787
4.797877349456786 62.6621
4.820195915032126 64.8823
4.842532072957498 66.0764
4.864868414979744 68.1154
4.88718753227192 69.9913
4.909524244902505 71.9043
4.931843734218147 73.7174
4.954180820867835 76.5473
4.976518095879839 79.0823
4.998838149695359 81.7962
5.021175803844231 84.9604
5.043496238205739 88.3653
5.065834274903528 92.0601
5.088172504230693 96.8159
5.1104935158799565 102.431
5.132832132875765 122.08
5.155153533596801 158.618
5.1774925416746225 191.396
5.199814334878411 309.465
5.2221537374521505 857.8580000000001
5.244493338631803 2602.38
5.266815727034316 7781.65
5.289155727832427 13633.1
5.311478517248165 9144.24
5.333818921080011 2605.84
5.356159527788849 459.76599999999996
5.3784829252032536 169.265
5.400823940070432 136.86
5.423147747031976 123.26
5.445489173474152 114.27600000000001
5.467830807066149 109.087
5.490155234831516 105.921
5.512497285125229 103.039
5.534822130975162 101.411
5.557164601388673 99.1646
5.579489868738879 96.7681
5.601832762690846 95.7913
5.6241758697774475 95.4285
5.646501775867269 93.9142
5.668845311622074 92.4588
5.691171647754637 91.829
5.713515615597765 90.8327
5.735859800852677 90.2254
5.758186788542988 89.2487
5.780531411018185 89.5603
5.802858837297399 88.904
5.825203900414495 88.99
5.8475491852224 88.8955
5.869877275883075 89.7066
5.892223006467101 90.5264
5.914551544266608 91.9077
5.936897724049891 93.9249
5.959244129804903 99.2853
5.981573344815301 115.75299999999999
6.0039202049061 189.428
6.026249875609095 403.983
6.04859719346037 877.1360000000001
6.070927323278297 2158.81
6.093275102315365 4485.18
6.115623113320588 5204.49
6.137953938319995 3054.69
6.160302415650845 829.365
6.182633708324452 197.172
6.2049826554078376 105.74700000000001
6.227331838745022 87.8848
6.249663839443684 82.1571
6.27201349767565 79.4391
6.294345974611799 84.7277
6.316696111167083 93.7616
6.339046488263839 89.3164
6.361379686074702 77.1351
6.383730546639482 70.2179
6.406064229255215 67.3081
6.428415576718203 66.4584
6.450749747566656 65.9629
6.47310158535871 64.8974
6.495453669698332 63.8937
6.517788579421056 63.4183
6.540141159237969 62.6469
6.562476565766648 62.165
6.5848296444934045 61.608000000000004
6.607182974060425 61.4746
6.6295191323281015 61.2846
6.651872965955752 64.2182
6.6742096296068985 85.6312
6.6965639707294615 123.537
6.71891856698715 123.811
6.741255995248479 88.5446
6.763611104154477 65.7853
6.785949046381137 58.8152
6.808304671371482 57.2425
6.8306605557940046 57.0203
6.852999275508618 56.4379
6.875355681171544 56.1686
6.897694923437771 55.5511
6.92005185377892 55.2536
6.9423916220322655 55.2824
6.964749080490181 54.6626
6.987106804399774 54.8577
7.009447368180821 54.7774
7.031805625367033 54.3649
7.054146723727803 54.6099
7.076505517631004 54.0515
7.098864581288365 54.3269
7.121206488070854 53.8969
7.143566093607822 53.7087
7.165908543567245 54.3401
7.188268694426048 54.1573
7.2106291193438095 54.4264
7.232972390625943 55.5193
7.255333366030969 66.309
7.277677189091925 111.027
7.300038718428332 150.466
7.322400526130865 128.689
7.344745183422596 82.9956
7.367107550224791 59.9448
7.389452767901992 55.3133
7.411815697249891 54.2354
7.434161478756298 53.3927
7.456524974096713 53.5473
7.478888753837185 53.497
7.501235387657368 53.77
7.523599738562711 53.8571
7.545946944825532 53.8439
7.568311870344528 54.3009
7.5906770845765665 54.2381
7.613025156078678 55.5616
7.635390950099687 56.3694
7.657739602662809 55.7706
7.680105979923558 54.8349
7.702472650212829 54.9974
7.724822180948224 54.7993
7.747189439655568 55.0957
7.769539560075357 55.3613
7.791907410653562 55.6985
7.81425812420825 55.3846
7.836626570110925 55.677
7.858995315087906 56.3514
7.881346924933401 56.6289
7.903716270417482 57.2328
7.926068482028405 57.58
7.948438431475253 58.1788
7.9708086843180235 58.685
7.993161805171116 59.5362
8.015532667162402 59.8386
8.037886398416653 60.6068
8.060257873014221 60.8508
8.082629655331942 61.6539
8.104984308787587 62.5904
8.127356708900503 65.4289
8.149711981398308 70.498
8.172085002766314 72.3579
8.194458336181368 70.0693
8.216814543847752 67.635
8.23918850371002 68.1179
8.26154533906492 68.9077
8.283919928836452 70.7094
8.306277395339652 71.2949
8.328652618483376 72.4647
8.351028159736202 74.3337
8.373386579575245 76.5073
8.395762759396959 78.4703
8.418121819038275 82.9179
8.440498640894003 94.5378
8.462875785192262 107.31
8.485235811156207 118.89299999999999
8.507613602688501 155.341
8.529974277114228 234.40900000000002
8.552352719347912 351.49800000000005
8.574731488360351 601.837
8.59709314210385 1183.63
8.619472567021075 1926.58
8.64183487789147 2299.89
8.664214962183097 1756.8
8.686577933647762 893.034
8.708958680784317 318.738
8.731339760774953 145.548
8.753703729764451 105.28200000000001
8.77608547780821 95.6072
8.798450116065078 92.67299999999999
8.820832535634787 89.9664
8.843215292401656 88.5035
8.865580941199045 87.2494
8.887964374703538 86.3771
8.910330701447199 87.2395
8.932714815164482 89.3025
8.955099270424924 88.3905
8.977466620733543 86.1525
8.999851761421976 83.6952
9.022219798361645 82.04700000000001
9.04460562795561 81.6538
9.066991803441677 81.365
9.089360876979615 81.0172
9.111747746589993 80.8366
9.13411751544971 80.384
9.156505082664324 80.2333
9.178875550323522 80.1038
9.20126381862328 80.4695
9.223652438908596 80.9238
9.246023961427412 81.12
9.26841328802173 80.0755
9.290785518039224 80.2716
9.313175554425882 80.7593
9.335565947154315 80.7462
9.357939245086508 81.1327
9.380330352834827 81.3179
9.40270436697103 81.5628
9.425096193225055 81.109
9.447488380180165 82.2422
9.469863475295412 82.9006
9.492256385987508 82.9319
9.514632206018318 83.3162
9.537025843935714 83.43299999999999
9.559402392368193 84.5333
9.581796761000229 85.4638
9.604191496441521 86.1428
9.626569144158516 89.1098
9.648964615551032 92.9839
9.671343000390081 94.5378
9.693739211225699 93.1161
9.716135793237463 91.5008
9.738515290448102 91.3611
9.760912617143402 91.6645
9.783292860202891 93.0112
9.805690935076182 94.4136
9.828089385495742 95.0659
9.850470754023561 97.4204
9.872869957865444 103.98200000000001
9.89525208097539 117.366
9.917652041736662 128.69299999999998
9.940052382417589 129.804
9.962435644102392 135.85299999999998
9.984836746950979 166.514
10.007220771957746 224.852
10.029622640473708 316.694
10.052007432299963 486.912
10.074410069984072 786.5360000000001
10.096813093716005 1287.01
10.119199042482517 1856.05
10.141602840636468 2006.84
10.163989564971628 1484.05
10.186394141051062 820.569
10.208799107559706 339.577
10.231187001965623 163.632
10.253592751657669 118.459
10.275981430388155 108.947
10.298387966769793 109.09700000000001
10.320794897965431 111.009
10.343184759907361 109.77600000000001
10.36559248305461 105.587
10.387983138083852 102.149
10.410391656691655 104.245
10.432800574501677 114.111
10.455192425893369 129.95600000000002
10.47760214443012 154.425
10.499994797678786 193.62599999999998
10.522405320453982 278.754
10.54479877906917 407.72
10.567210109595656 534.399
10.5896218454736 602.831
10.612016518879773 504.789
10.634429067781074 321.03700000000003
10.656824555333241 182.385
10.679237920773568 115.329
10.701651695961992 92.3643
10.724048411481384 86.5811
10.746463008485165 84.2088
10.768860546937125 82.6903
10.791275969274796 81.1264
10.81369180576079 80.2827
10.836090585366925 79.1363
10.858507252467449 78.1799
10.88090686379991 77.1601
10.903324365036394 76.5765
10.925724811614439 76.3698
10.948143150509463 77.3015
10.970561909719066 76.2593
10.992963615930844 74.9559
11.015383218085756 73.1938
11.037785768347074 71.8704
11.06020621697282 71.258
11.082627090322113 70.6437
11.105030913430326 70.1965
11.12745263854165 70.3914
11.149857314510728 73.1381
11.172279894912576 78.4209
11.194702904450653 78.6806
11.217108866490921 75.5314
11.239532736615194 71.857
11.26193956033512 69.5842
11.284364294577085 68.6017
11.306789462371718 66.8022
11.329197585398376 65.82
11.351623622610898 65.4797
11.37403261614354 64.6804
11.396459526308487 64.5613
11.418869393879497 64.2538
11.441297180532617 64.1157
11.463725406927658 63.7438
11.486136592353875 63.4974
11.508565700543707 63.7957
11.530977768845315 65.692
11.553407762368774 66.1261
11.575838200059769 65.7892
11.598251599479612 63.9638
11.620682927815501 62.3593
11.64309721895548 62.251999999999995
11.665529441478206 61.8192
11.687962112597958 61.6354
11.710377748130886 61.7646
11.732811318753434 61.3652
11.755227854859067 61.534
11.777662328529495 61.3917
11.800079768750786 61.427
11.822515149015453 61.0189
11.844950984084935 61.356
11.867369787303163 61.233999999999995
11.889806534289491 61.2531
11.912226250487029 61.6503
11.934663912939751 61.5611
11.9571020346363 61.559
11.979523127133968 61.7208
12.001962169624331 62.2334
12.024384183972964 63.0677
12.046824150809913 65.9501
12.069264581333726 70.469
12.091687985297767 75.932
12.11412934550045 84.7022
12.136553680195208 99.5683
12.158995973632788 124.822
12.181438735204349 157.21
12.20386447284199 195.076
12.226308172985636 221.247
12.24873485024193 201.028
12.271179492516982 156.94299999999998
12.293607112949127 116.949
12.316052700916226 88.3305
12.338498763250042 73.8984
12.360927805303868 67.7757
12.383374818673879 64.6818
12.405804812803074 63.2606
12.428252780773262 62.7861
12.45070122756722 62.5656
12.473132656675375 62.6265
12.49558206341869 62.7279
12.518014453510101 62.8259
12.540464823770117 63.0726
12.562915677315177 63.2779
12.58534951575545 64.0146
12.607801338171472 65.6146
12.630236146511358 69.8495
12.652688941369085 73.8766
12.675124723177234 74.6086
12.697578494048786 71.7136
12.720032754458185 68.0133
12.742470003354093 66.4662
12.764925245138771 66.27600000000001
12.787363476431278 66.4225
12.809819703166806 66.7928
12.83227642391173 67.5213
12.854716135692716 68.2673
12.877173846755147 69.2525
12.899614549869717 69.4179
12.9220732548287 70.2799
12.94453245827299 70.8057
12.966974655289818 71.6044
12.989434858002571 72.1933
13.011878055298721 73.1837
13.034339260862497 74.1397
13.056800969391883 75.262
13.079245674017244 77.5637
13.101708390774869 79.3895
13.12415410463411 85.3967
13.146617833206086 96.4003
13.169064559883248 107.031
13.191529303857127 120.361
13.213994557076367 141.751
13.236442809902437 178.563
13.258909083908291 236.875
13.28135835851934 309.255
13.30382565690295 390.733
13.326293469022952 439.005
13.348744283242008 425.504
13.371213125129904 339.965
13.39366497011003 238.125
13.416134845360597 155.296
13.438605238843131 114.984
13.46105863690397 100.691
13.483530069144786 101.501
13.505984506951902 106.571
13.528456981549432 114.90799999999999
13.550929978879088 128.894
13.573385983253365 152.63299999999998
13.595860028340867 192.83700000000002
13.618317081455832 251.799
13.64079217790333 317.296
13.663250283359057 371.14
13.685726434770173 386.00199999999995
13.708203115221277 334.16
13.730662806148091 242.989
13.75314054697177 168.051
13.775601299246777 116.20700000000001
13.798080104050406 91.4166
13.820559442405358 82.3369
13.843021793671388 79.6738
13.865502201420897 78.0879
13.887965623051947 77.5752
13.910447103807167 76.633
13.932929122629764 75.266
13.955394156785959 74.9725
13.977877254034569 74.182
14.000343367582113 73.4143
14.022827546871707 72.6639
14.045294743423524 72.1051
14.06778000837062 71.2989
14.090265817715476 71.3056
14.112734645763819 70.8294
14.13522154619454 70.5215
14.157691466286913 70.6511
14.180179461423874 70.3653
14.202668005486178 69.8347
14.22513957064374 69.2651
14.247629214846473 68.7933
14.270101881097517 68.7374
14.29259262906496 68.7887
14.315083930490205 69.3482
14.337558255389705 69.6754
14.360050666019726 69.4855
14.382526101071944 68.418
14.405019624534942 67.8205
14.427513705993134 66.9959
14.449990813291825 67.1081
14.47248601302899 67.3515
14.49496423954951 67.5037
14.517460561197822 67.4486
14.539939910570322 67.2187
14.562437357763558 67.7675
14.58493536931253 68.4374
14.607416409993311 69.2118
14.62991555254159 69.9906
14.652397725157423 69.7643
14.674898002342799 69.2392
14.697398848433282 68.8362
14.719882725991326 69.6415
14.74238471217934 70.4287
14.764869730765593 73.0804
14.787372860692983 76.1543
14.809876564079925 80.6008
14.83236330125751 85.6586
14.854868153850365 93.7609
14.877356041159485 107.38600000000001
14.899862046604186 127.064
14.922351087688757 155.075
14.944858249632887 189.56099999999998
14.967365991421232 220.157
14.989856770231246 235.674
15.012365673994204 219.093
15.03485761569738 180.649
15.05736768508665 137.123
15.07987833888692 105.83
15.102372032001655 84.7709
15.124883856909658 74.0589
15.14737872204565 70.3379
15.169891721717274 68.8958
15.192405310371893 68.7617
15.214901940621196 68.9598
15.237416709527137 68.937
15.259914520936249 69.1657
15.282430473753607 68.2979
15.304947020131227 67.1355
15.327446610371178 66.40100000000001
15.349964346154254 65.7478
15.372465126703139 65.3481
15.394984055556009 65.1276
15.417486030076159 64.8811
15.44000615566487 64.5592
15.462526881230803 64.5557
15.485030653812652 64.6979
15.507552581617434 64.6886
15.530057557334603 64.7855
15.55258069104857 64.6851
15.575104429329837 64.7843
15.597611216864632 64.40100000000001
15.620136166564563 64.6715
15.6426441664095 65.1552
15.665170331202765 67.1826
15.687697105158826 70.2015
15.710206930593545 73.13600000000001
15.732734925158933 76.7347
15.755245972089478 82.7917
15.77777519094324 91.66799999999999
15.800287463046663 104.936
15.822817909869592 125.78299999999999
15.84534897229804 150.888
15.867863089299354 176.22400000000002
15.890395385222186 194.668
15.912910736597423 197.519
15.935444269699861 178.646
15.957978423016485 149.921
15.980495633101265 114.648
16.003031029129367 89.3216
16.02554948280019 72.3212
16.048086125229432 65.1832
16.070623392487107 63.3058
16.09314371869582 62.6338
16.11568223789321 61.8826
16.13820381691126 60.9881
16.160743591742527 60.0679
16.183283996022084 59.1132
16.205807461423195 58.3247
16.228349126881973 57.6369
16.25087385432698 57.6509
16.27341678466365 56.8969
16.29594277784926 56.8088
16.31848697676433 57.1892
16.341031811604868 57.318999999999996
16.36355971058487 57.4076
16.3861058195587 57.3394
16.40863499352978 56.3973
16.431182380342005 55.4758
16.453730407713202 54.875
16.476261501364792 54.5745
16.498810812136167 54.346000000000004
16.52134319004079 54.3261
16.54389378792203 54.2038
16.566445031001553 54.1046
16.588979342490088 53.8257
16.61153187824822 53.6825
16.634067483263312 53.5709
16.656621315414416 53.6116
16.679175797408888 53.2395
16.701713349928728 53.4019
16.72426913389191 53.5976
16.74680798922351 53.7332
16.76936507887444 53.6606
16.791905240734874 53.6157
16.814463639794468 53.6794
16.837022695210294 53.6792
16.859564824093756 54.0555
16.882125194503903 54.5007
16.904668639217885 55.1031
16.927230328348003 55.2403
16.949792678493612 55.556000000000004
16.972338104193863 54.9163
16.994901778652235 54.5746
17.017448529496576 54.3858
17.040013531998152 54.662
17.06257920018044 54.9547
17.0851279459922 55.6667
17.107694947817667 56.4199
17.130245028099072 57.1821
17.15281336730298 58.4131
17.17536478578733 60.0176
17.19793446610687 62.332
17.220504818648422 65.0775
17.243058251703697 68.8599
17.265629950971032 73.8654
17.288184731571736 79.5574
17.310757781306908 83.6716
17.33333150794385 83.4142
17.355888317140174 81.3273
17.37846339986244 75.264
17.401021565958885 68.0848
17.42359800851343 62.608000000000004
17.44617513265564 59.7092
17.468735341390783 58.4881
17.491261035594565 57.7472
17.51396340099364 57.8081
17.536490463869136 57.7922
17.559018209820174 57.8962
17.58154663977963 57.9049
17.604251766089718 58.1551
17.626781572227713 58.2997
17.64931206518155 58.5386
17.671843245885103 58.8677
17.69455114821572 59.0895
17.717083712612634 59.48
17.739616967569667 59.7392
17.762150914021706 60.0548
17.78486160749854 60.1227
17.807396945166804 60.6823
17.829932977143503 61.4634
17.85246970436452 62.5723
17.875183204129467 64.3503
17.897721330097664 66.2801
17.920260154126645 68.3545
17.942799677153296 71.221
17.9655159983646 74.8961
17.988056927677544 80.4707
18.010598558807683 88.3878
18.033140892692916 99.1863
18.05586005052525 111.97399999999999
18.07840379824407 124.869
18.10094825154059 134.79399999999998
18.12366954819864 140.029
18.146215420998306 137.003
18.16876200220057 126.329
18.191309292745153 111.288
18.214033452627167 96.9793
18.236582170236648 87.0956
18.259131600016456 82.7782
18.281681742907335 84.3857
18.304408781233683 89.7462
18.32696035875955 96.2513
18.349512652227624 102.086
18.372065662579683 106.866
18.394795594587553 107.171
18.41735004715306 100.904
18.43990521943684 92.3599
18.46246111238171 82.5617
18.485193953325208 73.6945
18.507751296070428 67.1729
18.530309362314178 63.9178
18.552868153000343 61.9246
18.57560391815056 60.5771
18.59816416623245 60.2303
18.620725141597372 60.008
18.643286845190268 59.4629
18.666025549835414 59.0096
18.688588718427933 58.3025
18.711152618092243 58.35
18.73389353884365 58.0554
18.75645890921984 57.6986
18.77902501351406 57.342
18.801591852673102 57.5424
18.824335739722738 57.0024
18.846904057212626 56.78
18.8694731124168 56.6453
18.89204290628315 56.4999
18.914789774966803 56.5101
18.937361054791623 56.0511
18.959933076131318 55.8107
18.982505839934877 55.8165
19.00525570560582 55.8082
19.027829963004184 55.6359
19.05040496572238 55.723
19.072980714710468 55.7969
19.095733592739563 55.7544
19.11831084296757 56.0203
19.140888842324735 56.5711
19.16346759176222 56.8086
19.18622349753803 57.2703
19.208803755869358 58.0846
19.231384767143577 59.181999999999995
19.253966532312948 60.8418
19.276725481241822 63.0365
19.29930876296784 65.8761
19.3218928014549 69.1188
19.34465404436217 72.5315
19.36723960516257 75.234
19.389825925592426 75.8758
19.412413006605938 74.04
19.43517731967805 70.154
19.457765930683355 65.47
19.48035530514408 60.8088
19.50294544401556 57.2178
19.525712842708348 54.8028
19.54830451925909 53.6348
19.570896963095727 53.1268
19.593490175174704 52.7799
19.616260674962184 52.6808
19.638855432416964 52.5061
19.661450960992624 52.5626
19.68404726164677 52.4781
19.706820878021247 52.2953
19.729418731756834 52.2716
19.752017360452857 52.0355
19.77461676506804 52.3841
19.797393513540218 52.5281
19.819994478951667 52.9106
19.84259622316767 53.3941
19.8651987471481 53.5696
19.887978643247177 53.8088
19.91058273574792 54.327
19.933187610901943 55.1813
19.955969879466828 56.2446
19.97857632894404 57.7224
20.00118356396599 59.361999999999995
20.023791585494575 61.6727
20.046577028914875 64.633
20.069186632506966 67.0177
20.091797025500632 68.9654
20.114408208858933 69.1676
20.137196842715273 68.1101
20.159809615886765 66.2988
20.18242318232135 63.3287
20.20503754298326 61.4198
20.227829382875154 60.7034
20.250445341109344 61.0286
20.27306209647285 62.3237
20.29567964993108 63.9346
20.31847471147704 65.2163
20.34109387027612 65.611
20.363713830075454 64.8777
20.386334591841646 62.8851
20.409132890679302 59.7294
20.431755265564437 56.4716
20.454378445325528 53.6398
20.477002430930366 52.0811
20.499803982716553 51.0483
20.522429589228004 50.1674
20.54505600449589 49.9749
20.567683229489194 49.8053
20.590488049900088 49.2579
20.61311690359731 49.1602
20.63574656993626 49.1607
20.658553853717297 48.6879
20.681185154618298 48.7566
20.703817271080066 48.4624
20.72645020407368 48.2831
20.749260783967177 48.0375
20.771895359337133 48.0012
20.794530754161617 48.001000000000005
20.817166969412938 47.9048
20.83998086114876 47.7488
20.86261872660049 47.7742
20.885257415405402 47.6807
20.90789692853701 47.7357
20.930714147864748 47.6019
20.953355319030678 47.7536
20.97599731745334 47.8466
20.99864014410749 47.4904
21.021460706796564 47.5842
21.044105199328826 47.9267
21.06675052302631 47.9541
21.089396678865015 48.2478
21.112220600704806 48.3296
21.134868430275347 48.7789
21.15751709492456 49.2658
21.180166595629693 49.6104
21.202993892429635 50.2168
21.22564507473034 50.5248
21.24829709602816 50.733999999999995
21.27112693608965 50.5155
21.293780644891275 50.1892
21.316435195634053 49.5001
21.339090589297417 48.821999999999996
21.361923832041875 48.4927
21.384580921090404 47.9231
21.407238856007325 47.3441
21.429897637773326 47.4029
21.45273429906592 47.5601
21.475394784108598 47.5391
21.498056118951983 47.2586
21.520718304578022 47.6349
21.543558400304388 47.7001
21.566222297108816 47.7777
21.58888704765135 48.1113
21.61155265291521 48.1509
21.63439619898156 48.5829
21.657063523335786 48.8546
21.67973170537063 49.3055
21.7024007460706 49.6217
21.72524775840385 50.5342
21.747918526116475 51.5401
21.770590155457388 52.8299
21.79326264741238 54.2979
21.816113141960237 56.3993
21.838787368860547 58.6818
21.861462461341976 60.9916
21.884315579735777 63.0038
21.90699241312273 64.0708
21.92967011506078 64.2546
21.95234868653799 63.3218
21.9752053151131 61.5187
21.997885635446785 59.3671
22.020566828293532 57.5802
22.04324889464272 56.1324
22.066109049404666 55.3918
22.088792872571794 55.151
22.111477572219204 55.5119
22.1341631493376 55.3106
22.157026846313123 54.9597
22.179714188221507 54.0617
22.202402410582668 52.9347
22.22509151438863 51.3617
22.24795876962584 49.8969
22.270649646204486 49.2792
22.293341407213727 48.5461
22.316034053646906 48.3659
22.338904883215342 47.9921
22.36159931041458 48.05
22.38429462602756 47.8524
22.40699083104897 47.7823
22.429865251039757 47.851000000000006
22.452563244831367 48.0102
22.47526213102522 47.9897
22.49813925616515 47.84
22.520839937143307 47.4741
22.543541513520587 47.6754
22.56624398629403 47.5945
22.589124730075895 47.387
22.611829005656723 47.6661
22.63453418063466 47.5578
22.657240256008077 47.7691
22.680124634582935 47.9773
22.70283252079775 48.2499
22.725541310413075 48.4713
22.74825100442868 48.5933
22.771139033969575 49.1577
22.79385054687155 49.3998
22.81656296718292 50.0793
22.83927629590484 50.9995
22.862167992606945 52.0256
22.88488314827121 53.3082
22.907599215359284 54.5674
22.93031619487366 55.8414
22.953211574954405 56.8126
22.975930389478226 57.5411
22.998650119445763 57.3168
23.02137076586092 56.3584
23.044269845560063 54.7847
23.06699233506288 52.9067
23.089715744034912 51.3408
23.112617610931565 49.6762
23.135342869061212 48.7429
23.158069049684816 48.0118
23.1807961538087 47.8203
23.20370174880544 47.8382
23.226430710184808 47.9514
23.249160598093425 47.8432
23.271891413539002 47.839
23.294800752937697 47.9013
23.31753343374794 48.0992
23.340267045128353 48.0522
23.36300158808808 48.4655
23.38591468821339 48.8733
23.408651104658304 49.1076
23.431388455719986 49.8001
23.454126742409 50.803000000000004
23.4770436196085 51.9722
23.499783787914662 53.3121
23.522524894889884 54.4058
23.54526694154616 55.7113
23.56818761219047 57.0296
23.59093154860734 57.4241
23.613676427751283 57.4259
23.636422250635754 56.1893
23.659346731118656 54.2518
23.68209445191868 52.3259
23.704843119509587 50.1042
23.72759273490623 48.3199
23.750521041644767 47.0709
23.77327256312355 46.0698
23.796025035462787 45.6509
23.818956224555475 45.2903
23.841710609113413 45.3928
23.86446594758979 44.9457
23.887222241002014 44.5675
23.910157285144578 44.297
23.932915498962537 44.4171
23.955674670778713 44.2791
23.978434801611975 43.9869
24.001373717286125 44.0303
24.024135776723917 43.975
24.046898798245582 43.5971
24.06966278287146 43.6019
24.092605586582614 43.4218
24.115371508023642 43.2243
24.1381383956401 43.0833
24.16090625045381 43.1236
24.183852958731244 43.1155
24.206622758582608 42.8248
24.229393528706886 42.5876
24.252165270127392 42.7763
24.27511589952438 42.7426
24.297889594216997 42.501999999999995
24.32066426328598 42.2752
24.34343990775613 42.41
24.36639447485003 42.3042
24.38917208083877 42.4774
24.41195066531332 42.3378
24.43490819850244 42.1747
24.457688750692377 42.2085
24.48047028445616 41.9055
24.503252800821233 42.2612
24.526214300784112 42.2113
24.548998793132213 42.244
24.57178427117417 42.2577
24.59457073593893 42.1298
24.617536219319863 42.1528
24.64032466834748 42.1279
24.663114107195035 41.8073
24.685904536893013 41.7123
24.708874020360852 41.7628
24.731666442613744 41.5848
24.754459858818787 41.5293
24.777254270007962 41.5756
24.80022777025625 41.4854
24.82302418230472 41.4389
24.845821592443674 41.3514
24.86862000170663 41.4355
24.891597535453727 41.053000000000004
24.914397953892728 41.3748
24.93719937456671 41.3894
24.96000179851076 41.5264
24.98298338249997 41.6069
25.00578782394922 41.8835
25.028593271784167 41.9784
25.05157790644186 42.5
25.07438537804115 42.5307
25.097193859145293 42.808
25.120003350792075 42.995
25.142992065061257 43.5469
25.165803588823465 43.6841
25.18861612625217 43.9342
25.211429678386736 43.9518
25.234422489079968 43.8977
25.257238081693636 44.0191
25.280054692141732 44.1627
25.3028723214652 44.2222
25.325869245420463 44.3211
25.348688923599397 44.2818
25.371509623787006 44.1769
25.394331347025812 43.7589
25.41733240110666 43.0854
25.440156181590016 42.4991
25.46298098826268 41.8369
25.48580682216873 41.4066
25.50881202326435 40.9668
25.53163992281684 40.6554
25.55446885274561 40.414
25.577298814096377 40.2427
25.600308179121807 39.9797
25.623140214533745 40.0281
25.64597328451537 39.9173
25.66898578564376 39.8238
25.691820936010206 39.7833
25.714657124097695 39.7968
25.737494350954734 39.8144
25.760511045684957 39.6412
25.783350361364224 39.7328
25.806190718969255 39.7483
25.82903211955018 39.9388
25.852053024868923 39.8805
25.874896522722523 39.8853
25.897741066713106 39.8211
25.920586657892454 40.0898
25.943611790812668 40.0132
25.966459487728237 40.1373
25.989308234998564 40.3476
26.01215803367705 40.7345
26.03518741123814 40.8843
26.05803932412957 41.0194
26.080892291600094 40.9321
26.10374631470478 41.0252
26.12677995397268 41.0688
26.14963609978026 40.9659
26.172493304397875 40.6219
26.19535156888223 40.3583
26.218389486949604 39.9075
26.241249882640123 39.7114
26.26411134137826 39.3806
26.28715248187403 39.4303
26.31001607820869 39.2741
26.3328807407756 39.1511
26.35574647063438 39.4
26.37879191991473 39.3747
26.401659795896734 39.4013
26.424528742360263 39.5231
26.447398760366614 39.5224
26.470448535598294 39.922
26.49332070826805 40.1519
26.516193955675355 40.3363
26.53906827888316 40.4361
26.562122397260108 40.7483
26.584998883685063 41.2354
26.607876449110325 41.3827
26.63075509460056 41.5589
26.65381357334404 41.5221
26.67669439061878 41.431000000000004
26.699576291163382 41.3752
26.722459276044212 41.2132
26.745522132402975 41.0244
26.768407297649354 40.7131
26.791293550442003 40.249
26.814180891848974 39.9804
26.837248143099337 39.7798
26.860137673466657 39.7385
26.88302829566349 39.5167
26.90592001075963 39.2921
26.92899167420566 38.9974
26.951885586870763 38.722
26.974780595655517 38.5486
26.99785558178161 38.441
27.020752794605112 38.3194
27.043651106772522 38.1459
27.06655051935668 38.0543
27.089629948036183 38.0932
27.112531573292053 38.0792
27.135434302194138 37.9829
27.158338135817015 37.7808
27.181422024430987 37.9019
27.204328079372566 37.7946
27.22723524226965 37.7245
27.250143514198573 37.8833
27.273231880156334 37.84
27.296142382065014 37.8052
27.319053996245536 37.5896
27.341966723775965 37.7464
27.365059584515222 37.8036
27.38797455070062 37.754
27.410890633481237 37.6711
27.433807833936918 37.6915
27.456905206923906 37.8223
27.47982465472398 37.7332
27.502745223449743 37.8061
27.525666914182825 38.0534
27.548768816912457 37.7492
27.571692763693633 37.8301
27.59461783573812 37.6216
27.617723149491244 37.5024
27.640650484125285 37.3465
27.66357894728264 37.2567
27.686508540048052 37.1822
27.709618414237887 37.2587
27.732550278321757 37.1572
27.755483275279115 37.0889
27.778417406196485 37.2338
27.801531858397514 37.1026
27.824468269376716 37.083
27.847405817586786 37.0298
27.870344504116094 37.3431
27.893463551932008 37.4496
27.916404527281053 37.5511
27.93934664422563 37.6651
27.962289903855886 37.756
27.98541356491974 38.0502
28.00835912214229 38.1427
28.03130582533231 38.4141
28.054253675581805 38.5406
28.077381967556104 38.3927
28.100332124185126 38.4097
28.123283431160893 38.2631
28.146235889577238 38.251
28.169368830154156 38.0201
28.192323603752033 37.7573
28.215279532083304 37.4378
28.238415973016764 37.2693
28.261374223145094 37.211
28.284333631303806 36.8663
28.307294198589954 36.7628
28.330435319167677 36.4314
28.353398217078915 36.1346
28.376362277420153 35.991
28.39932750129032 35.9532
28.422473319286713 35.6516
28.44544088262495 35.6617
28.468409612800283 35.5789
28.491379510913497 35.3814
28.51453004413313 35.3114
28.53750229057244 35.2053
28.56047570826344 35.1542
28.583450298308804 35.2676
28.606605564586562 35.0474
28.629582511831156 35.071999999999996
28.65256063474956 35.0044
28.675539934446338 35.0697
28.698699951647605 35.0781
28.72168161743193 34.8927
28.74466446331978 34.8639
28.767648490417624 34.8371
28.790813276438353 34.7878
28.813799678527303 34.9132
28.836787265157085 34.8543
28.859955641890075 34.8775
28.882945610203045 34.7798
28.905936766392035 34.7476
28.928929111566863 34.7088
28.952102288520145 34.7005
28.975097024308607 34.6083
28.998092952423807 34.3379
29.021090073977508 34.2054
29.04426806913204 34.1929
29.067267590245258 34.1599
29.090268308143695 34.0562
29.11327022394099 33.8594
29.13645305530891 33.7421
29.159457379627167 33.7856
29.18246290519685 33.7298
29.20546963313352 33.6292
29.22865731875826 33.7878
29.25166646419296 33.6373
29.27467681535305 33.544000000000004
29.29768837335608 33.717
29.320880931312562 33.6565
29.34389491580634 33.6963
29.366910110507334 33.6715
29.38992651653503 33.6342
29.41312396492981 33.6457
29.436142806456754 33.4826
29.45916286268059 33.4428
29.48236399319994 33.2704
29.50538649169417 33.1104
29.528410208259935 33.1775
29.55143514402014 32.7982
29.574641196749695 32.7486
29.597668583816574 32.7863
29.6206971934585 32.5656
29.64372702680042 32.5664
29.666938019934474 32.4423
29.689970313635285 32.3959
29.713003834422636 32.2976
29.73603858342347 32.2355
29.759254535188578 32.1362
29.78229175361658 32.2098
29.80533020365064 32.2223
29.82836988641968 32.1837
29.85159081507472 32.0829
29.874632976355343 32.1037
29.89767637376955 32.1942
29.920721008448314 32.092
29.9439469322847 32.068000000000005
29.96699405457564 32.0254
29.9900424175358 32.051
30.013092022298157 31.8458
30.03632295963995 31.8266
30.059375061131373 31.8543
30.08242840783577 31.9319
30.105483000888153 31.8915
30.128718970092244 31.7526
30.151776069006917 31.7233
30.17483441768648 31.8352
30.198074175317235 31.8331
30.221135036724256 31.8254
30.24419715131772 31.8646
30.267260520236203 31.7032
30.290505341942243 31.7421
30.313571232750228 31.8448
30.336638381310948 31.7431
30.35970678876503 31.5685
30.38295669299435 31.5746
30.40602763151657 31.5154
30.429099832366074 31.5719
30.452173296685572 31.4679
30.47542830191959 31.4802
30.498504306502497 31.3975
30.521581577995562 31.5365
30.544660117543582 31.6212
30.56792024229725 31.5555
30.59100133132069 31.6109
30.614083691845494 31.5313
30.637167325018545 31.6493
30.660432587840603 31.5755
30.683518779717886 31.6453
30.70660624769615 31.6755
30.729694992924372 31.6716
30.75296541239743 31.6103
30.77605672557558 31.5859
30.799149319462742 31.4429
30.8224236211637 31.3421
30.845518789950724 31.295
30.868615242910597 31.2435
30.891712981195973 31.0738
30.91499247215866 31.0697
30.938092794619365 30.9523
30.96119440587579 30.879
30.984297307082752 30.7301
31.00758200598383 30.7339
31.030687500658694 30.6506
31.053794288760695 30.6111
31.076902371446767 30.430999999999997
31.100192296997445 30.5326
31.12330298246119 30.5015
31.14641496599209 30.4115
31.169528248749216 30.3698
31.19282341969534 30.4359
31.215939314557186 30.4155
31.239056512134788 30.393
31.262175013589378 30.3716
31.28547544871168 30.2699
31.30859657161541 30.3018
31.331719001892175 30.3142
31.35484274070538 30.4324
31.378148458819545 30.4749
31.401274828443725 30.3115
31.424402510106933 30.358
31.447712205419993 30.4183
31.470842524931633 30.2636
31.493974159989783 30.3017
31.51710711176168 30.369
31.54042212308802 30.2229
31.563557722100917 30.0906
31.586694641341655 30.052
31.609832881979628 29.921
31.63315322823208 29.8815
31.656294125521327 29.7467
31.679436347728515 29.7891
31.70257989602529 29.6169
31.725905596152327 29.711
31.74905181052835 29.58
31.772199354521323 29.68
31.79534822930507 29.6555
31.818679302290967 29.664
31.84183085259981 29.6305
31.864983737233473 29.6193
31.88813795736804 29.6621
31.911474422233013 29.5021
31.934631327356435 29.5734
31.9577895715215 29.5308
31.980949155906522 29.5026
32.004291031706956 29.5029
32.027453310562606 29.3024
32.05061693318573 29.2187
32.07396288236386 29.1734
32.09712920658542 29.1555
32.12029687812702 29.0327
32.14346589817093 29.0331
32.166817291729984 29.0154
32.18998902288583 28.9701
32.21316210610336 28.9228
32.23633654256711 28.7983
32.259693399663725 28.7953
32.282870556771144 28.6202
32.30604907069099 28.5765
32.329228942610065 28.5663
32.35259128243769 28.4716
32.375773884550505 28.363000000000003
32.398957848235646 28.4573
32.422143174682176 28.3715
32.445511016471215 28.3576
32.468699082679954 28.2543
32.49188851523011 28.0504
32.51507931531304 28.0515
32.538452678331 28.0448
32.56164622776311 27.9569
32.58484114831493 28.0018
32.60803744118015 28.0316
32.631416344731896 28.0175
32.654615396551876 28.0304
32.67781582427913 27.9208
32.701198898634416 27.7695
32.72440209253756 27.8125
32.747606665947124 27.8352
32.77081262006088 27.7288
32.79420126883317 27.6443
32.81740999876112 27.6188
32.840620112999424 27.4578
32.86383161274818 27.4451
32.88722585534586 27.399
32.91044014056596 27.4921
32.933655814909734 27.4358
32.95687287957963 27.4822
32.98027273544904 27.4565
33.00349259526636 27.406999999999996
33.026713849030116 27.4114
33.04993649794511 27.4007
33.073341986570746 27.3172
33.09656744032826 27.3117
33.11979429286444 27.3244
33.14302254538647 27.3522
33.166433686291185 27.2494
33.18966475336992 27.1838
33.212897224069096 27.0496
33.23613109959831 27.1296
33.259547912343415 27.0849
33.2827846121627 27.1126
33.306022720453775 26.9899
33.32926223842861 26.8935
33.352684742614166 26.905
33.37592709463173 26.875999999999998
33.399170859982064 26.7824
33.422597648419426 26.7471
33.44584425514446 26.6315
33.46909227885668 26.6149
33.4923417207723 26.5158
33.51577423505344 26.5236
33.539026528130385 26.4657
33.56228024307245 26.4389
33.585535381098246 26.3197
33.60897364093058 26.1801
33.63223163992385 26.2984
33.6554910656699 26.2553
33.678751919389796 26.2041
33.702195944520106 26.0581
33.72545966903325 26.0932
33.74872482519663 25.9909
33.771991414233746 26.0232
33.79544122444841 25.9972
33.81871069412428 26.0046
33.84198160035767 25.9545
33.86525394437455 25.9052
33.88870955949969 25.8662
33.911984794020626 25.8153
33.93526147001624 25.8088
33.958539588715006 25.6704
33.98200102861669 25.6096
34.0052820477047 25.6679
34.02856451319451 25.5082
34.05203033759056 25.445
34.07531571090147 25.4555
34.09860253431845 25.4456
34.121890809074316 25.4406
34.145362493118924 25.3875
34.16865368561615 25.2825
34.191946333164054 25.3009
34.21524043699793 25.2894
34.23871800066799 25.3487
34.26201503218366 25.1882
34.28531352370466 25.1094
34.30861347646881 25.0478
34.33209693978188 25.0242
34.3553998301885 25.0747
34.378704185565205 24.943
34.402010007152356 24.8963
34.42549939016683 24.8851
34.44880815937748 24.8356
34.472118398533134 24.8311
34.49543010887669 24.795
34.51892543169198 24.7628
34.54224009966052 24.714000000000002
34.56555624255917 24.7724
34.58887386163339 24.6134
34.61237514439016 24.5113
34.6356957311114 24.4928
34.65901779775809 24.4124
34.68252356662995 24.5027
34.705848608458616 24.4386
34.72917513396849 24.3597
34.75250314440949 24.4005
34.77601490857862 24.3644
34.799345904259795 24.2546
34.82267838863559 24.2816
34.846012362958525 24.2765
34.869530142679984 24.2624
34.89286711232212 24.2342
34.91620557568269 24.1339
34.93954553401677 24.1155
34.9630693495876 24.0221
34.986412313340814 24.0852
35.00975677584668 24.0638
35.033102738362956 24.0113
35.05663261012228 23.9123
35.0799815881786 23.8957
35.10333207003229 23.7868
35.12668405694369 23.9295
35.150220005273056 23.855
35.17357501786656 23.8357
35.19693153931268 23.7823
35.220289570874385 23.6933
35.24383161619786 23.6729
35.267192683604904 23.8416
35.290555264930376 23.7084
35.314101899412165 23.6835
35.33746752422433 23.6508
35.36083466676374 23.7082
35.38420332829803 23.5581
35.407756095629054 23.6285
35.43112781085063 23.5247
35.45450104888391 23.5188
35.477875810999194 23.4919
35.50143473172161 23.3747
35.52481255774625 23.4295
35.54819191167777 23.3669
35.57157279478914 23.4219
35.595137889488406 23.2963
35.61852184675279 23.228
35.641907337029984 23.1555
35.665294361595684 23.2428
35.68886565090076 23.1456
35.7122557598848 23.0717
35.73564740699838 23.0715
35.759040593519934 23.1079
35.78261809810353 23.0116
35.80601437933051 22.8908
35.829412203814705 22.8864
35.85281157283719 22.8497
35.876395313415884 22.8257
35.8997977874528 22.7683
35.92320180988546 22.7184
35.946790244133936 22.7715
35.97019737933222 22.766
35.993606066789866 22.6918
36.01701630779276 22.6833
36.04061101440684 22.5958
36.06402437852291 22.6411
36.08743930005611 22.603
36.1108557802951 22.5396
36.13445678011326 22.4662
36.15787639383515 22.4874
36.18129757014299 22.4359
36.20472031032821 22.2916
36.22832762423364 22.2737
36.25175350829375 22.2893
36.275180960119776 22.2546
36.298609981005924 22.3288
36.32222362992669 22.2866
36.34565580510207 22.1581
36.36908955323448 22.2576
36.39252487562093 22.112
36.416144880530226 22.0537
36.43958336764275 22.0327
36.463023432914625 21.9937
36.486465077645676 21.9459
36.51009145956204 22.0624
36.53353627947859 21.916999999999998
36.55698268276811 21.9554
36.58043067073321 21.8726
36.60406345072071 21.7735
36.62751462435344 21.8606
36.65096738658405 21.776
36.67460498210655 21.7595
36.69806093788647 21.7802
36.72151848619297 21.6332
36.744977628333636 21.6771
36.76862165890998 21.6717
36.79208400512205 21.5834
36.81554794910557 21.5441
36.83901349217101 21.5359
36.862663978991606 21.4106
36.88613273667352 21.3965
36.90960309738324 21.4086
36.933075062434064 21.3804
36.95673202673572 21.3392
36.98020721697122 21.288
37.003684015502365 21.2565
37.027162423645365 21.2357
37.050825886711465 21.1529
37.07430753063053 21.1222
37.09779078812467 21.136999999999997
37.121275660513014 21.0547
37.144945643673694 21.0004
37.16843376245278 20.9887
37.19192350009803 21.0074
37.215414857931435 20.9146
37.239091382563885 20.9043
37.262585997426164 20.8512
37.28608223645736 20.9092
37.309763684451696 20.885
37.33326318851098 20.8353
37.356764320726555 20.7748
37.380267082425526 20.7557
37.40395510942588 20.6922
37.42746114683234 20.673000000000002
37.45096881771841 20.6167
37.474478123414166 20.5862
37.49817275092816 20.6187
37.52168534303452 20.5471
37.54519957395567 20.5146
37.568715445024665 20.4416
37.592416694607714 20.4439
37.61593586281424 20.4879
37.63945667518264 20.3962
37.66297913304891 20.3588
37.68668702630454 20.3518
37.710212792059274 20.2471
37.733740207334854 20.2636
37.757269273470364 20.2486
37.780983832050374 20.1699
37.80451621684926 20.2541
37.82805025654007 20.2316
37.851585952464795 20.0532
37.8753071980695 20.05
37.89884622345676 19.9339
37.92238690911902 19.9338
37.94611318753442 19.8993
37.969657210779765 19.8636
37.99320289834801 19.8588
38.016750251586465 19.8288
38.04048325513017 19.7604
38.06403395679343 19.6998
38.087586328183946 19.6939
38.11114037065203 19.7217
38.13488012115898 19.7309
38.1584375229181 19.6446
38.181996599821 19.6339
38.205557353221124 19.5447
38.229303872575656 19.5963
38.2528679961576 19.5744
38.27643380031219 19.4719
38.30000128639589 19.4371
38.32375459653193 19.4539
38.34732546371299 19.4395
38.37089801690786 19.3186
38.39447225747609 19.2663
38.418232380377425 19.2584
38.441810012983396 19.3183
38.46538933705673 19.2692
38.488970353960084 19.244
38.51273731166058 19.2097
38.536321731567014 19.1423
38.55990784840681 19.1691
38.58367995004091 19.1158
38.60726947812959 19.0122
38.63086070726198 19.0378
38.654453638806274 19.0789
38.678232613930824 18.9869
38.70182896773327 18.9808
38.72542702806741 18.887999999999998
38.7490267963045 18.9083
38.77281266709232 18.8849
38.79641586862214 18.8232
38.8200207821842 18.7386
38.843627409152944 18.7793
38.86742019782782 18.7171
38.891030269149255 18.6982
38.914642058016156 18.6663
38.938255565806124 18.7021
38.96205529464307 18.579
38.98567225787121 18.6217
39.00929094417078 18.6611
39.03291135492255 18.6188
39.05671804624804 18.5527
39.080341923549106 18.498
39.103967529460334 18.5259
39.127594865365744 18.4475
39.15140854155791 18.3908
39.17503935514948 18.3505
39.19867190290282 18.3804
39.22249083587951 18.3373
39.24612686969409 18.27
39.269764641845306 18.2951
39.293404153722804 18.1788
39.317230110864074 18.1265
39.34087311998506 18.1585
39.36451787301696 18.1204
39.388164371352595 18.1524
39.41199737518003 18.0557
39.43564738196752 17.9582
39.45929913825317 18.0263
39.48295264543308 18.0355
39.506792718520884 17.9948
39.530449745387216 17.9339
39.55410852735203 17.9069
39.57776906581474 17.8963
39.60161623079 17.8661
39.625280300200025 17.8201
39.64894613032202 17.7554
39.67261372255866 17.7804
39.6964680021016 17.7209
39.72013913657293 17.7828
39.74381203738292 17.733
39.76748670593756 17.7175
39.79134812278169 17.6567
39.81502634488497 17.5755
39.83870633896685 17.5813
39.862388106436654 17.5464
39.88625668336918 17.5546
39.90994201572829 17.5103
39.933629125719285 17.4366
39.957503091207826 17.4203
39.9811937746168 17.469
40.00488623990914 17.4004
40.02858048850006 17.3385
40.05246165409549 17.3244
40.076159487492085 17.3118
40.099859108448875 17.2901
40.123560518384345 17.2074
40.1474489070226 17.221
40.171153913178564 17.1509
40.194860712584955 17.1514
40.2185693066637 17.0978
40.242464941335314 17.1017
40.26617714307655 17.0884
40.289891143772046 17.0646
40.3136069448471 17.0845
40.33750984859743 17.0464
40.3612292688043 16.9674
40.3849504936829 16.9389
40.40867352466194 16.9133
40.43258372059144 16.9079
40.45631038219906 16.9113
40.48003885420956 16.8333
40.503769138055105 16.7772
40.52768664931955 16.8187
40.55142057531802 16.8207
40.57515631746428 16.7494
40.599079334038514 16.7265
40.62281872700477 16.7209
40.64655994043941 16.7091
40.67030297578061 16.5904
40.69423334835778 16.5661
40.71798004609188 16.5685
40.74172857006355 16.5392
40.76547892171441 16.5415
40.7894166736039 16.4925
40.813170699248566 16.424
40.83692655691388 16.4162
40.86068424804498 16.4472
40.884629402612525 16.4375
40.908390779366385 16.3853
40.932153993938 16.3149
40.95591904777605 16.3315
40.979871628443995 16.3196
41.003640379561936 16.2877
41.02741097430883 16.2324
41.05118341413683 16.2005
41.075143444384416 16.2514
41.098919593177826 16.1785
41.1226975914255 16.1531
41.14647744058318 16.1065
41.170444943946755 16.0541
41.19422851378379 16.0348
41.218013938914645 16.0171
41.24198706625173 15.9392
41.26577622087193 15.9686
41.289567235177785 15.9568
41.31336011063129 15.8979
41.337340752422875 15.9161
41.361137369129835 15.8602
41.38493585138705 15.8047
41.40873620066004 15.7919
41.43272438060107 15.8016
41.45652848292052 15.7626
41.48033445666918 15.689
41.50414230331616 15.6297
41.528138045159764 15.6811
41.551949656675205 15.6459
41.575763145513235 15.6432
41.59957851314666 15.5556
41.62358184070442 15.5735
41.64740098505737 15.5049
41.6712220126409 15.5526
41.69504492493139 15.5027
41.71905586207357 15.4513
41.74288256296395 15.4152
41.766711153007456 15.3865
41.79054163368412 15.3856
41.814560204340054 15.3665
41.838394485526365 15.3842
41.86223066180303 15.2798
41.88625497706819 15.3038
41.910094962812 15.2659
41.93393684811168 15.2227
41.95778063445365 15.2055
41.981812625263366 15.2038
42.00566023303407 15.1753
42.029509746323676 15.1389
42.05336116662236 15.1128
42.077400857069705 15.0824
42.10125611078846 15.0688
42.12511327600405 15.0522
42.14897235421036 14.9546
42.173019768448455 14.9987
42.19688269209613 14.9424
42.22074753323349 14.9267
42.24461429335818 14.9082
42.268669455600495 14.9006
42.292540073217886 14.8937
42.31641261433284 14.8488
42.34028708044675 14.7849
42.36435001496739 14.7333
42.38822835065557 14.7603
42.41210861586426 14.7504
42.4359908120986 14.7411
42.46006154323262 14.686
42.48394762115317 14.6234
42.507835634632315 14.6516
42.531912233047436 14.6054
42.55580413732265 14.5729
42.579697981698 14.5827
42.60359376768525 14.5683
42.62767820545945 14.5201
42.65157789440821 14.5078
42.67547952952185 14.4412
42.699383112316 14.4594
42.72347541395347 14.4049
42.74738291190531 14.3798
42.771292362102166 14.3737
42.795203766063516 14.3388
42.819303956130405 14.3092
42.843219287476536 14.2672
42.86713657716324 14.25
42.89105582671383 14.1988
42.91516392983864 14.1902
42.939087119032166 14.2402
42.963012272677304 14.1537
42.98693939230129 14.1308
43.01105543317513 14.1048
43.034986504731386 14.0695
43.05891954686589 14.0872
43.08285456110972 14.0599
43.10697856448665 14.0629
43.130917542983475 14.030999999999999
43.15485849820081 13.9838
43.17880143167367 13.945
43.20293342237094 13.9522
43.226880332449 13.8941
43.25082922540554 13.8915
43.27496722682525 13.8167
43.29892010567796 13.7803
43.32287497204102 13.8049
43.34683182745632 13.7599
43.370977859791836 13.7857
43.39493871351105 13.7893
43.41890156092628 13.7529
43.44286640358341 13.7023
43.46702049182749 13.6881
43.49098934522816 13.6724
43.51496019852649 13.6314
43.5389330532723 13.6133
43.56309522248204 13.5853
43.58707210044314 13.5614
43.61105098451946 13.5084
43.63503187626491 13.4831
43.659202151562134 13.4949
43.68318707902681 13.4947
43.70717401884041 13.412
43.731162972560874 13.3577
43.75534137913236 13.3397
43.779334381108384 13.3516
43.803329401683186 13.3451
43.82732644241872 13.3042
43.8515130055166 13.2776
43.87551410707659 13.277999999999999
43.89951723350145 13.2517
43.923709934595614 13.2129
43.94771713129917 13.18
43.97172635758096 13.1691
43.99573761501002 13.1498
44.0199385169922 13.1398
44.04395385732619 13.1114
44.067971233533086 13.0929
44.09199064718605 13.0744
44.11619977548961 13.036
44.14022328470671 13.0386
44.16424883610785 12.987
44.18827643127035 12.9687
44.21249381139513 12.9643
44.236525514814076 12.9343
44.26055926674478 12.9378
44.28459506876863 12.8934
44.3088207262813 12.8461
44.33286064928722 12.8377
44.35690262714919 12.8083
44.38094666145278 12.7574
44.4051806219871 12.7973
44.42922879003185 12.7948
44.45327901929361 12.7631
44.477331311362136 12.7584
44.501573600619416 12.6738
44.525630039221795 12.6465
44.54968854541895 12.6347
44.573937102200176 12.5795
44.5979997645541 12.6084
44.622064499300315 12.5696
44.64613130803592 12.5409
44.67038823869318 12.5391
44.69445921643748 12.475
44.718532272981385 12.4495
44.742607409926194 12.4386
44.76687274034801 12.4252
44.79095205918753 12.4192
44.81503346325094 12.4014
44.839116954143876 12.3357
44.86339071028742 12.3464
44.88747839599524 12.3356
44.91156817336837 12.3266
44.93566004401666 12.3005
44.959942251908146 12.3127
44.984038330325966 12.2569
45.00813650686762 12.2281
45.03223678314731 12.2318
45.05652746888232 12.172
45.08063196592069 12.1515
45.104738567558705 12.122
45.128847275414856 12.1262
45.15314646515866 12.0847
45.17725940679741 12.0925
45.20137445952892 12.0147
45.22568004865265 11.9721
45.24979934496396 12.005
45.27392075725247 11.9628
45.29804428714431 11.9713
45.322358426247604 11.9591
45.346486212804315 11.9148
45.370616121861914 11.8866
45.39474815505086 11.8467
45.41907087049246 11.8416
45.4432071734666 11.7955
45.46734560548283 11.8097
45.49148616817604 11.8336
45.51581748638564 11.8172
45.5399623320197 11.7686
45.56410931325473 11.7076
45.58825843173002 11.7533
45.61259837920865 11.7219
45.636751793816 11.6845
45.66090735060093 11.6297
45.68506505120716 11.6335
45.7094136545275 11.5954
45.73357566449271 11.5229
45.75773982322992 11.5397
45.78190613238733 11.5225
45.806263418194064 11.4756
45.83043404997326 11.5044
45.85460683713677 11.4909
45.87897065658495 11.4564
45.90314777634752 11.4438
45.92732705646868 11.4136
45.9515084986045 11.3999
45.97588104735473 11.3791
46.00006683541565 11.3452
46.02425479047904 11.3713
46.04844491420549 11.3246
46.0728262191024 11.2837
46.09702070211635 11.29
46.12121735879483 11.2832
46.14541619080294 11.2467
46.169806278764455 11.2285
46.194009483459034 11.2115
46.21821486849841 11.1966
46.24242243555223 11.1436
46.266821333570014 11.1302
46.29103328674601 11.1061
46.31524742696538 11.1082
46.33946375590237 11.0842
46.36387149104216 11.0771
46.38809221957392 11.0486
46.41231514186606 11.0257
46.436540259597464 10.999
46.460956858999374 11.0035
46.48518638983522 10.9637
46.509418121166966 10.931
46.533652054678114 10.91
46.55807754555709 10.894
46.58231590571962 10.9263
46.60655647313217 10.8822
46.630988654873654 10.8482
46.655233659129024 10.8072
46.67948087571551 10.8155
46.70373030632484 10.7857
46.72817142736393 10.754000000000001
46.752425308428684 10.7318
46.77668140861147 10.7107
46.80093972960865 10.6703
46.82538981736788 10.7058
46.849652602470904 10.6599
46.87391761349769 10.6463
46.8981848521493 10.6234
46.9226439341274 10.5876
46.946915650573224 10.5596
46.97118959976749 10.5401
46.99546578341598 10.5436
47.019933887188216 10.5058
47.04421456235744 10.4732
47.06849747711879 10.4899
47.09278263318286 10.4589
47.11725978640143 10.4689
47.14154944775105 10.4238
47.165841355555656 10.3946
47.1901355115306 10.3824
47.214621741924994 10.3886
47.23892041698887 10.3585
47.26322134538975 10.3586
47.28771440635075 10.2965
47.31201986422527 10.2877
47.33632758061436 10.2806
47.360637557241866 10.2155
47.38513974410611 10.2322
47.40945426407847 10.2197
47.43377104948137 10.1805
47.45809010204344 10.1642
47.48260144275502 10.1442
47.506925052572285 10.1535
47.53125093475548 10.1431
47.55557909103813 10.0886
47.58009961361992 10.0538
47.60443234110732 10.0391
47.62876734791564 10.0578
47.65310463578333 10.0315
47.6776343683373 9.973310000000001
47.7019762413987 9.9805
47.72632040075572 10.0049
47.75066684815169 9.96922
47.77520581885936 9.9142
47.799556865477655 9.91633
47.823910205386 9.90195
47.84826584033272 9.86478
47.87281407745551 9.845989999999999
47.89717432569297 9.83141
47.92153687423484 9.85507
47.94609208429692 9.81364
47.97045925671401 9.80839
47.99482873471275 9.75778
48.01920052005013 9.76566
48.04376504619224 9.72899
48.068141469543484 9.72514
48.09252020552573 9.72984
48.11690125590099 9.71755
48.1414751266064 9.675180000000001
48.16586082917454 9.69156
48.19024885144316 9.64654
48.2146391951793 9.61656
48.239222439012764 9.66051
48.26361744916137 9.60803
48.28801478610016 9.56241
48.31241445160131 9.57512
48.337007097209366 9.55836
48.36141144338331 9.50692
48.38581812345755 9.49142
48.41022713920929 9.48823
48.434829215320704 9.46422
48.45924292604658 9.470130000000001
48.48365897780325 9.462019999999999
48.50807737237308 9.41089
48.532688907799276 9.388060000000001
48.55711201168574 9.37766
48.581537463754074 9.35722
48.60615611725119 9.35445
48.63058628942721 9.3311
48.65501881516546 9.316930000000001
48.6794536962573 9.27812
48.70408185970339 9.2637
48.72852147531801 9.24126
48.75296345168211 9.194360000000001
48.77740779059232 9.266860000000001
48.80204549302823 9.23903
48.82649458091802 9.21308
48.85094603676547 9.161660000000001
48.87539986237231 9.15653
48.90004713292306 9.13418
48.92450572200832 9.10864
48.94896668628025 9.13087
48.97343002754588 9.11693
48.99808689542115 9.10334
49.02255501470614 9.074019999999999
49.04702551642794 9.05241
49.0714984023988 9.05633
49.096164896893235 9.02252
49.120642575466796 8.98514
49.145122643748394 9.02126
49.16960510355558 8.95331
49.19428125404938 8.93667
49.2187685210852 8.93143
49.243258185121555 8.9108
49.26794160167084 8.88322
49.2924360839405 8.864230000000001
49.31693296869764 8.836160000000001
49.34143225776915 8.83578
49.36612538195438 8.80166
49.39062950396021 8.79761
49.41513603578346 8.770589999999999
49.4396449792564 8.775889999999999
49.46434784069503 8.731530000000001
49.488861631846454 8.70322
49.513377840166804 8.689
49.537896467493745 8.66184
49.56260909589029 8.65955
49.587132585683285 8.671669999999999
49.611658500018365 8.607000000000001
49.636186840738596 8.6195
49.66090926588511 8.64605
49.685442483902584 8.61197
49.70997813385706 8.579830000000001
49.734516217597076 8.57255
49.75924846937352 8.53924
49.7837914452858 8.52395
49.80833686055187 8.49563
49.83288471702571 8.52213
49.85762682540054 8.50838
49.882179588965734 8.45392
49.9067347993235 8.44557
49.93129245833333 8.4278
49.95604445336378 8.39081
49.98060703442832 8.37846
50.005172069746266 8.38935
50.02993150438364 8.34544
50.05450147301533 8.3348
50.07907390151433 8.35566
50.10364879174981 8.33695
50.12841816587289 8.283430000000001
50.1529980044635 8.27983
50.17758031042124 8.27228
50.20216508562089 8.23775
50.22694442953363 8.22229
50.25153416817468 8.206539999999999
50.27612638170508 8.20641
50.300721072005196 8.172189999999999
50.325510416102105 8.17328
50.350110084975064 8.16222
50.37471223628208 8.13524
50.39931687190919 8.1216
50.424116246675766 8.090160000000001
50.44872587605249 8.09338
50.47333799543065 8.0616
50.49795260670191 8.072000000000001
50.52276204271512 8.05293
50.54738166295838 8.032639999999999
50.57200378079314 7.9955300000000005
50.596628398116835 7.99683
50.62144792604559 7.991210000000001
50.646077567609396 7.9851399999999995
50.670709714377715 7.986560000000001
50.69553683636198 7.94508
50.72017401885922 7.9401
50.7448137122895 7.91834
50.76945591856022 7.915369999999999
50.79429318636823 7.91281
50.818940443716784 7.884810000000001
50.84359021965163 7.8251
50.868242516085964 7.821000000000001
50.893089960641895 7.84753
50.917747323549435 7.79547
50.94240721271973 7.806010000000001
50.96706963007175 7.7533199999999995
50.99192728239342 7.77187
51.01659478166073 7.772819999999999
51.04126481489051 7.777019999999999
51.06593738400761 7.73637
51.090805275207074 7.722510000000001
51.11548294172845 7.6927
51.14016314993547 7.64526
51.164845901758845 7.631469999999999
51.18972406304274 7.64169
51.21441192780656 7.62558
51.23910234200271 7.630439999999999
51.2637953075678 7.59312
51.288683770237945 7.56359
51.31338186432707 7.544339999999999
51.33808251561888 7.5277
51.362978729967345 7.50712
51.387684521509755 7.52157
51.41239287610203 7.487419999999999
51.437103795691165 7.5064
51.46201036644977 7.4504
51.486726441956634 7.411789999999999
51.51144508832545 7.436489999999999
51.536166307509156 7.426410000000001
51.56108326624387 7.43226
51.58580965706056 7.41713
51.61053862657523 7.34812
51.635270176746864 7.31325
51.66019755512065 7.32683
51.68493429268881 7.32694
51.70967361681515 7.3014399999999995
51.73441552946465 7.335839999999999
51.759353359237934 7.31445
51.7841004750961 7.27307
51.80885018539685 7.24085
51.833602492111254 7.260089999999999
51.8585508051424 7.2262699999999995
51.883308330926425 7.21316
51.90806845906181 7.16275
51.932831191525715 7.169239999999999
51.95779001977161 7.175039999999999
51.98255798721516 7.13342
52.00732856494335 7.1314
52.03229530577543 7.1495
52.057071130455945 7.14346
52.081849571391054 7.09812
52.106630630568695 7.070530000000001
52.13160794279417 7.092219999999999
52.15639426492067 7.038010000000001
52.18118321127822 7.04055
52.205974783860896 7.037389999999999
52.23096269971011 6.991510000000001
52.255759551287994 6.9980199999999995
52.280559035098186 6.981380000000001
52.30536115314103 6.96099
52.33035970494467 6.950060000000001
52.35516711807904 6.93376
52.37997717147198 6.8739300000000005
52.40478986713005 6.90523
52.42979908731974 6.85198
52.454617094216 6.8733699999999995
52.47943774942214 6.8543899999999995
52.50426105495102 6.845110000000001
52.529280976059844 6.84623
52.554109609024096 6.84928
52.57894089837482 6.8101199999999995
52.60377484613117 6.777880000000001
52.62880550079408 6.79254
52.65364479223379 6.76473
52.67848674816189 6.7641100000000005
52.70352547971946 6.76991
52.72837279155837 6.73147
52.753222773982785 6.66282
52.778075429022984 6.680689999999999
52.80312495150885 6.69647
52.827982978797436 6.65993
52.85284368481815 6.60959
52.87770707160767 6.63195
52.90276741793998 6.647060000000001
52.92763619336701 6.62003
52.952507655698504 6.60084
52.977381806977576 6.63191
53.00245301017842 6.583289999999999
53.02733256653592 6.56894
53.052214817996074 6.57773
53.077099766608484 6.5124699999999995
53.102181859804446 6.4983
53.127072229988265 6.51668
53.15196530349892 6.46844
53.17686108239249 6.4770199999999996
53.20195409881522 6.50116
53.22685531582556 6.42604
53.25175924441303 6.42074
53.27666588664027 6.43821
53.30176985962693 6.41878
53.3266819565689 6.39461
53.35159677336455 6.38093
53.376514312083096 6.34817
53.40162927507703 6.35109
53.42655228516116 6.33997
53.45147802340193 6.33868
53.47660125628886 6.31415
53.50153247842639 6.289969999999999
53.52646643496923 6.266369999999999
53.55140312799818 6.28867
53.576537409691696 6.23566
53.60147960336152 6.2051300000000005
53.626424539786164 6.2335199999999995
53.65137222105307 6.2293400000000005
53.67651758529126 6.20063
53.70147078399681 6.16384
53.72642673383343 6.190980000000001
53.75138543689533 6.1550199999999995
53.776541917524526 6.1881900000000005
53.801506154876755 6.12854
53.826473151763246 6.11636
53.851442910284916 6.068
53.87661054126026 6.0995099999999995
53.9015858509782 6.03746
53.92656392866066 6.02834
53.95154477641532 6.055680000000001
53.976723591801296 6.04889
54.00171000771266 6.04168
54.02669920004598 5.9997
54.051691170915745 5.97253
54.076881204886796 6.00685
54.101878760928514 5.97772
54.12687910187696 5.9484900000000005
54.152077577768296 5.95464
54.1770835166946 5.926769999999999
54.20209224691339 5.92049
54.22710377055121 5.886830000000001
54.25231352511594 5.872269999999999
54.27733066384342 5.8285
54.30235060239643 5.86032
54.32737334290836 5.8628
54.35259441062629 5.77994
54.377622783395324 5.74288
54.40265396455061 5.80843
54.42768795623251 5.77519
54.45292037169559 5.73335
54.477960012857906 5.76771
54.50300247099511 5.7333300000000005
54.52804774825457 5.7070300000000005
54.55329154616743 5.6523
54.57834249018678 5.65437
54.6033962597977 5.66085
54.6284528571545 5.6193599999999995
54.653708072335164 5.57868
54.67877035378786 5.56498
54.70383546947698 5.56285
54.72890342156389 5.55018
54.7541700889442 5.5094199999999995
54.77924374251975 5.56233
54.8043202390049 5.47369
54.82959552413022 5.46019
54.8546777351945 5.46997
54.87976279569621 5.43675
54.90485070780914 5.44785
54.930137506558005 5.40227
54.95523115074295 5.411969999999999
54.98032765308844 5.37064
55.005427015775496 5.33226
55.03072536339621 5.32977
55.05583047570572 5.27669
55.080938454927676 5.28443
55.10604930325027 5.31609
55.131359235107396 5.24805
55.15647585066083 5.19335
55.181595341907496 5.15875
55.20671771104285 5.20248
55.232039262617704 5.13129
55.25716741665048 5.11618
55.28229845518636 5.07
55.30743238042802 5.045380000000001
55.33276558731939 5.05577
55.357905315183636 5.0308
55.383047936390035 4.9816199999999995
55.40819345314859 4.988919999999999
55.433538351073295 4.9709
55.458689688238415 4.9425
55.483843927614096 4.8555
55.509197623043605 4.91903
55.53435769621134 4.87439
55.55952067826466 4.83936
55.5846865714265 4.83943
55.61005202069737 4.819319999999999
55.63522376553902 4.79544
55.66039842818645 4.80359
55.68557601087004 4.753019999999999
55.7109532500271 4.69095
55.73613670233794 4.71404
