TT I
1.2716486653135266 7.77367
1.2939594142134223 7.46828
1.3162702121660406 6.786410000000001
1.3385810600174564 7.008539999999999
1.3608919586137629 7.004760000000001
1.383202908801069 6.92152
1.405513911425503 6.103619999999999
1.4278249673332093 6.631410000000001
1.4501343378461518 6.76463
1.4724455028545926 6.3058
1.4947567236847858 6.83473
1.517068001182951 6.59191
1.5393793361953272 6.59863
1.5616907295681737 6.06948
1.5840021821477681 5.88811
1.60631369478041 5.3522
1.6286252683124185 5.04951
1.6509369035901333 5.09915
1.6732468618895553 5.3120400000000005
1.695558623192809 4.69758
1.7178704487808514 5.3970199999999995
1.7401823395001077 5.25165
1.7625012545597203 4.9516599999999995
1.7848028405262486 4.73653
1.8071218901122095 4.81803
1.8294236121921872 4.77894
1.8517427996910911 4.5949
1.8740620574440425 4.71673
1.8963639900671978 4.54344
1.9186833908139995 5.01996
1.9409854680117449 4.78786
1.9633050151394713 4.64759
1.9856246367570705 4.78142
2.0079269371922672 4.37259
2.03024671027244 4.85537
2.0525491637446027 4.9898
2.074869091674931 5.00481
2.097171701569106 4.79555
2.1194917877373847 4.37525
2.141811954326636 5.342630000000001
2.164114805233074 4.78465
2.186435135143035 6.38146
2.208738150935709 13.7542
2.231058647554722 26.448
2.2533792288321184 20.0296
2.275682498336085 9.43805
2.298003251406138 5.73142
2.3203066942619714 4.78766
2.3426276225136022 5.43331
2.3649486396617507 4.8594800000000005
2.387252348930071 5.01679
2.4095735463442893 5.20346
2.4318774374315884 4.81349
2.4541988185014043 5.45348
2.476502894794693 5.604419999999999
2.498824462909887 5.72914
2.521146125856138 5.7988599999999995
2.5434504863470337 6.03704
2.5657723414244717 6.32876
2.588076895590662 7.22962
2.610398946189713 6.86188
2.6327210958598384 6.01467
2.6550259469304716 7.17006
2.6773482972090137 6.8625
2.6996533504259 6.872319999999999
2.7219759047039602 7.25719
2.744298562293959 7.5578199999999995
2.7666039251246595 7.11568
2.7889267918020164 7.656289999999999
2.8112323652516555 7.2801100000000005
2.833555444408179 7.6425399999999994
2.8558786311183852 7.9521
2.8781845268938557 8.36428
2.9005079311721484 9.00578
2.9228140460410397 8.99415
2.9451376712799635 9.27369
2.967444008632326 9.82125
2.9897678582247247 9.991060000000001
3.0120918213106695 10.0541
3.0343984987899373 10.5313
3.0567226913198637 11.4807
3.079029599759726 12.0109
3.101354025127254 12.4859
3.123678568232338 12.9326
3.145985829517914 12.7531
3.16831061055229 13.4534
3.1906181112775593 13.7237
3.212943133635653 14.9046
3.2352682779763207 15.2429
3.2575761442691227 15.6927
3.2799015350264273 15.838
3.302209649240067 16.4842
3.3245352898092655 16.9184
3.3468436553365257 16.9314
3.369169549113219 17.604
3.3914955708171384 18.8897
3.413804319727358 19.2777
3.4361305997334863 19.5445
3.4584396084414553 19.7904
3.4807661501462652 20.4131
3.503092824025881 21.1988
3.5254022288463154 21.6976
3.5477291695206588 22.0906
3.5700388426251948 23.0155
3.5923660534916446 24.4648
3.6146934007816114 37.9496
3.637003482731501 87.3171
3.6593311053109985 95.5373
3.681641464033634 55.6304
3.7039693653009733 30.9792
3.726297407241705 26.9733
3.7486081875460804 26.1046
3.7709365132734978 26.3775
3.793247578841633 27.1241
3.8155761917550093 27.2302
3.8378875459837216 27.2753
3.8602164494827234 27.8161
3.882545499606844 29.0246
3.9048572932539183 29.4907
3.9271866390645718 30.0225
3.9494987298666713 30.0345
3.971828374764527 30.5252
3.9941581705403255 31.4254
4.016470713506008 32.4129
4.038800813471445 32.9908
4.061113662089144 33.5491
4.0834440696459176 34.2949
4.105774632334751 34.8768
4.128087945865126 35.4794
4.150418821249301 36.3454
4.172732448931298 38.147
4.195063640413578 39.6454
4.2173775856475215 43.5088
4.239709096631102 73.1774
4.262040768704612 228.872
4.284355196706267 305.68
4.306687193387355 199.68
4.329001947444346 79.9794
4.35133427213731 48.8845
4.373666762177566 45.7967
4.395982011761091 45.3269
4.418314834921175 46.7974
4.44063041906622 54.77
4.4629635787515625 65.4133
4.4852969080429785 65.0782
4.5076130004776225 55.4458
4.529946671403969 51.9952
4.552263106909177 52.6098
4.574597122877047 53.6367
4.596931312711224 54.3595
4.619248269273446 54.8621
4.6415828092605835 55.9774
4.663900117405352 56.8517
4.686235010953232 58.4475
4.708552674085913 59.4449
4.730887924602802 61.0686
4.753223354952695 62.8597
4.775541557023902 64.7773
4.797877349456786 65.8863
4.820195915032126 67.9763
4.842532072957498 69.221
4.864868414979744 71.9328
4.88718753227192 74.1171
4.909524244902505 75.962
4.931843734218147 78.2233
4.954180820867835 80.9666
4.976518095879839 84.5779
4.998838149695359 87.6097
5.021175803844231 91.3902
5.043496238205739 94.9992
5.065834274903528 100.62
5.088172504230693 106.62700000000001
5.1104935158799565 115.537
5.132832132875765 142.035
5.155153533596801 189.80200000000002
5.1774925416746225 246.025
5.199814334878411 535.17
5.2221537374521505 1462.36
5.244493338631803 3465.52
5.266815727034316 7227.96
5.289155727832427 11386.0
5.311478517248165 9172.75
5.333818921080011 3612.39
5.356159527788849 791.7639999999999
5.3784829252032536 231.373
5.400823940070432 164.155
5.423147747031976 140.52
5.445489173474152 127.229
5.467830807066149 121.094
5.490155234831516 115.46700000000001
5.512497285125229 110.948
5.534822130975162 108.947
5.557164601388673 106.67299999999999
5.579489868738879 103.588
5.601832762690846 102.571
5.6241758697774475 101.65799999999999
5.646501775867269 100.771
5.668845311622074 99.1618
5.691171647754637 98.14
5.713515615597765 96.7348
5.735859800852677 95.9072
5.758186788542988 95.4985
5.780531411018185 96.3191
5.802858837297399 96.2498
5.825203900414495 96.4416
5.8475491852224 97.2931
5.869877275883075 98.0466
5.892223006467101 99.0763
5.914551544266608 100.927
5.936897724049891 105.484
5.959244129804903 114.48700000000001
5.981573344815301 144.622
6.0039202049061 283.541
6.026249875609095 610.285
6.04859719346037 1187.42
6.070927323278297 2228.65
6.093275102315365 3938.82
6.115623113320588 4744.99
6.137953938319995 3469.63
6.160302415650845 1242.99
6.182633708324452 304.149
6.2049826554078376 131.114
6.227331838745022 101.59299999999999
6.249663839443684 91.0459
6.27201349767565 87.0345
6.294345974611799 92.4001
6.316696111167083 102.944
6.339046488263839 97.3969
6.361379686074702 82.5304
6.383730546639482 74.8397
6.406064229255215 71.7362
6.428415576718203 71.2212
6.450749747566656 69.5963
6.47310158535871 68.294
6.495453669698332 67.6692
6.517788579421056 66.4004
6.540141159237969 65.6684
6.562476565766648 65.21600000000001
6.5848296444934045 64.6119
6.607182974060425 64.6699
6.6295191323281015 64.8896
6.651872965955752 67.5337
6.6742096296068985 92.042
6.6965639707294615 136.373
6.71891856698715 137.303
6.741255995248479 95.3794
6.763611104154477 69.0111
6.785949046381137 61.908
6.808304671371482 60.4202
6.8306605557940046 60.0173
6.852999275508618 59.321000000000005
6.875355681171544 58.4181
6.897694923437771 58.451
6.92005185377892 57.9523
6.9423916220322655 57.7258
6.964749080490181 57.6103
6.987106804399774 57.5631
7.009447368180821 57.4468
7.031805625367033 57.2138
7.054146723727803 57.153999999999996
7.076505517631004 56.7531
7.098864581288365 56.6772
7.121206488070854 56.4694
7.143566093607822 56.238
7.165908543567245 57.0932
7.188268694426048 56.7829
7.2106291193438095 56.9729
7.232972390625943 58.5294
7.255333366030969 70.435
7.277677189091925 122.85600000000001
7.300038718428332 166.93400000000003
7.322400526130865 141.111
7.344745183422596 89.1251
7.367107550224791 62.7139
7.389452767901992 57.7923
7.411815697249891 57.1376
7.434161478756298 56.1346
7.456524974096713 55.8893
7.478888753837185 55.7562
7.501235387657368 56.1212
7.523599738562711 56.2026
7.545946944825532 56.3104
7.568311870344528 57.0263
7.5906770845765665 57.1024
7.613025156078678 58.4255
7.635390950099687 59.3812
7.657739602662809 58.3597
7.680105979923558 57.7016
7.702472650212829 57.8836
7.724822180948224 57.5227
7.747189439655568 57.6315
7.769539560075357 57.8695
7.791907410653562 58.0397
7.81425812420825 58.2017
7.836626570110925 58.5867
7.858995315087906 59.163999999999994
7.881346924933401 59.3208
7.903716270417482 60.0062
7.926068482028405 60.3862
7.948438431475253 60.5979
7.9708086843180235 61.4927
7.993161805171116 62.2121
8.015532667162402 62.8591
8.037886398416653 63.8652
8.060257873014221 64.3601
8.082629655331942 65.0324
8.104984308787587 65.9882
8.127356708900503 68.9874
8.149711981398308 74.9937
8.172085002766314 77.0039
8.194458336181368 74.1136
8.216814543847752 71.5778
8.23918850371002 71.9944
8.26154533906492 72.6619
8.283919928836452 74.1677
8.306277395339652 75.2292
8.328652618483376 76.8075
8.351028159736202 78.9701
8.373386579575245 81.8799
8.395762759396959 83.2949
8.418121819038275 89.1093
8.440498640894003 103.148
8.462875785192262 118.76100000000001
8.485235811156207 140.528
8.507613602688501 204.66099999999997
8.529974277114228 317.607
8.552352719347912 467.819
8.574731488360351 717.7489999999999
8.59709314210385 1138.0
8.619472567021075 1660.32
8.64183487789147 2093.63
8.664214962183097 1891.5
8.686577933647762 1108.27
8.708958680784317 456.435
8.731339760774953 190.829
8.753703729764451 120.64299999999999
8.77608547780821 105.245
8.798450116065078 100.10700000000001
8.820832535634787 96.6181
8.843215292401656 94.7656
8.865580941199045 92.8983
8.887964374703538 91.6771
8.910330701447199 92.4548
8.932714815164482 94.5993
8.955099270424924 93.3923
8.977466620733543 90.6984
8.999851761421976 87.6869
9.022219798361645 86.22200000000001
9.04460562795561 86.3812
9.066991803441677 85.4729
9.089360876979615 85.3619
9.111747746589993 85.2267
9.13411751544971 84.2519
9.156505082664324 83.977
9.178875550323522 84.6532
9.20126381862328 84.931
9.223652438908596 85.3329
9.246023961427412 85.1941
9.26841328802173 84.6644
9.290785518039224 84.6651
9.313175554425882 85.7937
9.335565947154315 85.537
9.357939245086508 85.652
9.380330352834827 85.7117
9.40270436697103 85.9974
9.425096193225055 85.3124
9.447488380180165 86.4265
9.469863475295412 87.135
9.492256385987508 87.4296
9.514632206018318 88.0873
9.537025843935714 88.0187
9.559402392368193 89.1319
9.581796761000229 90.2945
9.604191496441521 91.5084
9.626569144158516 94.831
9.648964615551032 99.1309
9.671343000390081 100.494
9.693739211225699 98.6575
9.716135793237463 96.3628
9.738515290448102 95.8488
9.760912617143402 97.1043
9.783292860202891 98.926
9.805690935076182 100.12899999999999
9.828089385495742 101.12700000000001
9.850470754023561 103.553
9.872869957865444 111.311
9.89525208097539 126.43799999999999
9.917652041736662 139.796
9.940052382417589 142.651
9.962435644102392 160.27700000000002
9.984836746950979 213.916
10.007220771957746 294.312
10.029622640473708 409.418
10.052007432299963 586.885
10.074410069984072 826.7080000000001
10.096813093716005 1183.22
10.119199042482517 1620.74
10.141602840636468 1899.99
10.163989564971628 1727.56
10.186394141051062 1090.16
10.208799107559706 497.501
10.231187001965623 229.021
10.253592751657669 140.101
10.275981430388155 120.03299999999999
10.298387966769793 117.434
10.320794897965431 119.635
10.343184759907361 118.24799999999999
10.36559248305461 112.542
10.387983138083852 109.21700000000001
10.410391656691655 114.866
10.432800574501677 130.59
10.455192425893369 151.43
10.47760214443012 178.873
10.499994797678786 220.732
10.522405320453982 285.33299999999997
10.54479877906917 377.707
10.567210109595656 479.134
10.5896218454736 542.485
10.612016518879773 526.851
10.634429067781074 377.416
10.656824555333241 222.188
10.679237920773568 133.60299999999998
10.701651695961992 101.18299999999999
10.724048411481384 93.0609
10.746463008485165 89.6004
10.768860546937125 87.9849
10.791275969274796 86.0706
10.81369180576079 84.8997
10.836090585366925 83.3566
10.858507252467449 82.4797
10.88090686379991 81.4191
10.903324365036394 80.6546
10.925724811614439 80.9148
10.948143150509463 81.8977
10.970561909719066 81.0732
10.992963615930844 79.2307
11.015383218085756 77.0776
11.037785768347074 75.6201
11.06020621697282 75.2099
11.082627090322113 74.3503
11.105030913430326 74.0234
11.12745263854165 74.6298
11.149857314510728 77.935
11.172279894912576 83.6075
11.194702904450653 84.2756
11.217108866490921 80.2788
11.239532736615194 76.0717
11.26193956033512 73.7205
11.284364294577085 71.9877
11.306789462371718 70.5313
11.329197585398376 69.2766
11.351623622610898 68.7672
11.37403261614354 68.0678
11.396459526308487 68.04
11.418869393879497 67.6533
11.441297180532617 67.251
11.463725406927658 66.8619
11.486136592353875 66.6209
11.508565700543707 67.2402
11.530977768845315 69.0142
11.553407762368774 69.9876
11.575838200059769 69.2272
11.598251599479612 67.3659
11.620682927815501 65.9575
11.64309721895548 65.7615
11.665529441478206 65.1703
11.687962112597958 64.8902
11.710377748130886 64.8893
11.732811318753434 64.8893
11.755227854859067 64.8219
11.777662328529495 64.6889
11.800079768750786 64.3033
11.822515149015453 64.4034
11.844950984084935 64.5718
11.867369787303163 64.2132
11.889806534289491 64.2306
11.912226250487029 65.001
11.934663912939751 64.7558
11.9571020346363 64.9011
11.979523127133968 64.9704
12.001962169624331 65.8361
12.024384183972964 67.7462
12.046824150809913 72.2014
12.069264581333726 78.5104
12.091687985297767 85.5069
12.11412934550045 94.1528
12.136553680195208 107.445
12.158995973632788 125.925
12.181438735204349 150.001
12.20386447284199 176.555
12.226308172985636 201.72400000000002
12.24873485024193 208.59
12.271179492516982 179.449
12.293607112949127 135.191
12.316052700916226 102.242
12.338498763250042 82.3296
12.360927805303868 72.7078
12.383374818673879 68.6092
12.405804812803074 67.0561
12.428252780773262 66.4864
12.45070122756722 66.48100000000001
12.473132656675375 66.2994
12.49558206341869 66.6109
12.518014453510101 66.5931
12.540464823770117 66.5693
12.562915677315177 66.5849
12.58534951575545 67.5655
12.607801338171472 69.4845
12.630236146511358 74.2844
12.652688941369085 79.319
12.675124723177234 79.839
12.697578494048786 76.2361
12.720032754458185 71.9855
12.742470003354093 69.9026
12.764925245138771 69.6587
12.787363476431278 70.1396
12.809819703166806 70.3485
12.83227642391173 71.0827
12.854716135692716 71.7309
12.877173846755147 73.1734
12.899614549869717 73.2515
12.9220732548287 74.0634
12.94453245827299 74.8694
12.966974655289818 75.8385
12.989434858002571 76.3731
13.011878055298721 77.3093
13.034339260862497 78.3371
13.056800969391883 79.8242
13.079245674017244 82.01799999999999
13.101708390774869 85.5417
13.12415410463411 95.4934
13.146617833206086 110.066
13.169064559883248 124.056
13.191529303857127 140.414
13.213994557076367 161.847
13.236442809902437 193.53400000000002
13.258909083908291 237.785
13.28135835851934 289.76099999999997
13.30382565690295 347.028
13.326293469022952 404.94
13.348744283242008 428.32300000000004
13.371213125129904 382.64
13.39366497011003 288.715
13.416134845360597 192.609
13.438605238843131 134.781
13.46105863690397 114.456
13.483530069144786 114.94
13.505984506951902 121.90100000000001
13.528456981549432 132.779
13.550929978879088 147.347
13.573385983253365 167.887
13.595860028340867 198.178
13.618317081455832 236.584
13.64079217790333 283.313
13.663250283359057 328.327
13.685726434770173 360.291
13.708203115221277 345.858
13.730662806148091 284.319
13.75314054697177 207.926
13.775601299246777 139.878
13.798080104050406 103.86
13.820559442405358 89.2151
13.843021793671388 84.3952
13.865502201420897 82.8026
13.887965623051947 82.1411
13.910447103807167 80.9232
13.932929122629764 79.2661
13.955394156785959 79.1208
13.977877254034569 78.0262
14.000343367582113 77.3183
14.022827546871707 76.9125
14.045294743423524 75.9683
14.06778000837062 75.1416
14.090265817715476 75.2397
14.112734645763819 74.7009
14.13522154619454 74.3731
14.157691466286913 74.5633
14.180179461423874 74.2481
14.202668005486178 73.6755
14.22513957064374 73.0488
14.247629214846473 72.6501
14.270101881097517 72.1862
14.29259262906496 72.5468
14.315083930490205 73.6027
14.337558255389705 73.8111
14.360050666019726 73.5402
14.382526101071944 72.3809
14.405019624534942 71.5907
14.427513705993134 71.0775
14.449990813291825 70.9823
14.47248601302899 71.1921
14.49496423954951 71.2478
14.517460561197822 71.0664
14.539939910570322 70.7897
14.562437357763558 71.2307
14.58493536931253 72.3085
14.607416409993311 73.1149
14.62991555254159 73.7053
14.652397725157423 73.7796
14.674898002342799 73.1542
14.697398848433282 72.801
14.719882725991326 73.8224
14.74238471217934 75.3443
14.764869730765593 79.891
14.787372860692983 84.4391
14.809876564079925 89.6403
14.83236330125751 96.0216
14.854868153850365 104.177
14.877356041159485 116.42299999999999
14.899862046604186 131.428
14.922351087688757 151.143
14.944858249632887 173.872
14.967365991421232 199.15200000000002
14.989856770231246 218.19
15.012365673994204 221.892
15.03485761569738 197.922
15.05736768508665 158.789
15.07987833888692 122.54
15.102372032001655 95.8834
15.124883856909658 80.0933
15.14737872204565 74.9318
15.169891721717274 73.1294
15.192405310371893 72.8086
15.214901940621196 73.2141
15.237416709527137 73.1914
15.259914520936249 73.2996
15.282430473753607 72.3613
15.304947020131227 71.1588
15.327446610371178 70.1528
15.349964346154254 69.4614
15.372465126703139 68.8634
15.394984055556009 68.5736
15.417486030076159 68.3661
15.44000615566487 68.0703
15.462526881230803 68.0647
15.485030653812652 68.1463
15.507552581617434 68.4049
15.530057557334603 68.4364
15.55258069104857 68.192
15.575104429329837 68.3279
15.597611216864632 68.008
15.620136166564563 68.4658
15.6426441664095 69.8674
15.665170331202765 73.072
15.687697105158826 77.2014
15.710206930593545 81.541
15.732734925158933 85.9882
15.755245972089478 91.7166
15.77777519094324 100.322
15.800287463046663 111.177
15.822817909869592 126.23899999999999
15.84534897229804 142.702
15.867863089299354 162.881
15.890395385222186 181.248
15.912910736597423 195.049
15.935444269699861 191.054
15.957978423016485 168.065
15.980495633101265 134.599
16.003031029129367 104.876
16.02554948280019 81.417
16.048086125229432 70.642
16.070623392487107 67.7461
16.09314371869582 66.5411
16.11568223789321 65.7232
16.13820381691126 64.6592
16.160743591742527 63.4385
16.183283996022084 62.4654
16.205807461423195 61.3534
16.228349126881973 60.8104
16.25087385432698 60.821999999999996
16.27341678466365 60.068999999999996
16.29594277784926 60.1149
16.31848697676433 60.3271
16.341031811604868 60.5572
16.36355971058487 61.0991
16.3861058195587 60.8099
16.40863499352978 59.5207
16.431182380342005 58.6115
16.453730407713202 57.9402
16.476261501364792 57.4653
16.498810812136167 57.2669
16.52134319004079 57.2834
16.54389378792203 57.0513
16.566445031001553 57.1353
16.588979342490088 56.8675
16.61153187824822 56.726000000000006
16.634067483263312 56.553000000000004
16.656621315414416 56.4896
16.679175797408888 56.0504
16.701713349928728 56.3175
16.72426913389191 56.5538
16.74680798922351 56.4027
16.76936507887444 56.6797
16.791905240734874 56.7009
16.814463639794468 56.4308
16.837022695210294 56.589
16.859564824093756 56.9864
16.882125194503903 57.7193
16.904668639217885 58.255
16.927230328348003 58.5213
16.949792678493612 58.7091
16.972338104193863 58.0659
16.994901778652235 57.5356
17.017448529496576 57.1816
17.040013531998152 57.6044
17.06257920018044 58.3163
17.0851279459922 59.5765
17.107694947817667 60.2521
17.130245028099072 61.2208
17.15281336730298 62.588
17.17536478578733 64.332
17.19793446610687 66.2443
17.220504818648422 68.7162
17.243058251703697 71.0486
17.265629950971032 74.5673
17.288184731571736 78.541
17.310757781306908 82.6705
17.33333150794385 84.3912
17.355888317140174 83.8404
17.37846339986244 80.4655
17.401021565958885 74.5103
17.42359800851343 68.7468
17.44617513265564 64.73899999999999
17.468735341390783 62.2361
17.491261035594565 61.0182
17.51396340099364 60.7221
17.536490463869136 61.1131
17.559018209820174 61.1113
17.58154663977963 61.1631
17.604251766089718 61.1445
17.626781572227713 61.5671
17.64931206518155 61.6989
17.671843245885103 62.4432
17.69455114821572 62.4391
17.717083712612634 62.9565
17.739616967569667 63.1465
17.762150914021706 63.2673
17.78486160749854 63.3026
17.807396945166804 64.1067
17.829932977143503 65.3581
17.85246970436452 67.4569
17.875183204129467 69.6918
17.897721330097664 72.1596
17.920260154126645 74.7535
17.942799677153296 77.9019
17.9655159983646 81.7827
17.988056927677544 86.2787
18.010598558807683 92.8309
18.033140892692916 100.796
18.05586005052525 108.84700000000001
18.07840379824407 118.734
18.10094825154059 129.28
18.12366954819864 139.72
18.146215420998306 143.923
18.16876200220057 138.534
18.191309292745153 125.89200000000001
18.214033452627167 111.736
18.236582170236648 98.41799999999999
18.259131600016456 90.9004
18.281681742907335 88.7976
18.304408781233683 91.1351
18.32696035875955 94.9783
18.349512652227624 99.2104
18.372065662579683 104.295
18.394795594587553 107.32799999999999
18.41735004715306 106.38
18.43990521943684 100.167
18.46246111238171 91.4466
18.485193953325208 80.9625
18.507751296070428 73.0397
18.530309362314178 68.3119
18.552868153000343 65.711
18.57560391815056 64.2585
18.59816416623245 63.6132
18.620725141597372 63.2172
18.643286845190268 62.7867
18.666025549835414 62.1738
18.688588718427933 61.6341
18.711152618092243 61.4274
18.73389353884365 61.3695
18.75645890921984 60.8729
18.77902501351406 60.7215
18.801591852673102 60.5587
18.824335739722738 59.9931
18.846904057212626 59.8213
18.8694731124168 59.5716
18.89204290628315 59.4122
18.914789774966803 59.343999999999994
18.937361054791623 59.1493
18.959933076131318 58.9152
18.982505839934877 58.9469
19.00525570560582 58.9884
19.027829963004184 58.5368
19.05040496572238 58.8588
19.072980714710468 58.93600000000001
19.095733592739563 59.1191
19.11831084296757 59.8267
19.140888842324735 60.34
19.16346759176222 60.4821
19.18622349753803 61.0404
19.208803755869358 61.7233
19.231384767143577 62.6782
19.253966532312948 64.1553
19.276725481241822 65.9266
19.29930876296784 67.5307
19.3218928014549 69.9914
19.34465404436217 72.7463
19.36723960516257 75.7599
19.389825925592426 77.8945
19.412413006605938 77.7263
19.43517731967805 75.3543
19.457765930683355 71.2665
19.48035530514408 66.3857
19.50294544401556 62.3198
19.525712842708348 59.0326
19.54830451925909 57.2952
19.570896963095727 56.0935
19.593490175174704 55.7414
19.616260674962184 55.6901
19.638855432416964 55.3666
19.661450960992624 55.321000000000005
19.68404726164677 55.357
19.706820878021247 55.0063
19.729418731756834 55.1819
19.752017360452857 55.0031
19.77461676506804 55.3735
19.797393513540218 55.623999999999995
19.819994478951667 55.638999999999996
19.84259622316767 56.3108
19.8651987471481 56.8228
19.887978643247177 57.2205
19.91058273574792 57.7115
19.933187610901943 58.4021
19.955969879466828 59.4421
19.97857632894404 60.5553
20.00118356396599 61.9607
20.023791585494575 63.6054
20.046577028914875 65.7977
20.069186632506966 67.6242
20.091797025500632 69.815
20.114408208858933 71.3035
20.137196842715273 71.9301
20.159809615886765 70.8923
20.18242318232135 68.5813
20.20503754298326 66.3082
20.227829382875154 64.3166
20.250445341109344 63.4917
20.27306209647285 63.7008
20.29567964993108 64.5462
20.31847471147704 65.767
20.34109387027612 66.7523
20.363713830075454 67.1401
20.386334591841646 66.4911
20.409132890679302 64.1618
20.431755265564437 61.0304
20.454378445325528 57.7803
20.477002430930366 55.467
20.499803982716553 54.2421
20.522429589228004 53.2697
20.54505600449589 52.761
20.567683229489194 52.6281
20.590488049900088 52.2343
20.61311690359731 51.8893
20.63574656993626 51.614
20.658553853717297 51.2711
20.681185154618298 51.312
20.703817271080066 51.2177
20.72645020407368 50.7461
20.749260783967177 50.7418
20.771895359337133 50.6752
20.794530754161617 50.5201
20.817166969412938 50.663000000000004
20.83998086114876 50.4048
20.86261872660049 50.3255
20.885257415405402 50.3524
20.90789692853701 50.1889
20.930714147864748 50.1079
20.953355319030678 50.083
20.97599731745334 50.2021
20.99864014410749 50.1709
21.021460706796564 50.3451
21.044105199328826 50.5445
21.06675052302631 50.7855
21.089396678865015 50.7491
21.112220600704806 51.0742
21.134868430275347 51.4318
21.15751709492456 51.6181
21.180166595629693 51.8163
21.202993892429635 52.1038
21.22564507473034 52.5647
21.24829709602816 52.7667
21.27112693608965 52.9841
21.293780644891275 53.2215
21.316435195634053 52.5626
21.339090589297417 51.948
21.361923832041875 51.4483
21.384580921090404 50.5223
21.407238856007325 50.0134
21.429897637773326 50.1212
21.45273429906592 50.0913
21.475394784108598 50.0288
21.498056118951983 49.8143
21.520718304578022 50.0285
21.543558400304388 50.1642
21.566222297108816 50.4028
21.58888704765135 50.5918
21.61155265291521 51.0319
21.63439619898156 51.6223
21.657063523335786 51.8428
21.67973170537063 52.236999999999995
21.7024007460706 52.793
21.72524775840385 53.4034
21.747918526116475 54.4436
21.770590155457388 55.6217
21.79326264741238 56.8321
21.816113141960237 58.3778
21.838787368860547 60.0031
21.861462461341976 61.5921
21.884315579735777 63.3166
21.90699241312273 65.1103
21.92967011506078 66.4951
21.95234868653799 66.6528
21.9752053151131 65.9832
21.997885635446785 64.0977
22.020566828293532 62.0966
22.04324889464272 59.9585
22.066109049404666 58.1384
22.088792872571794 57.2663
22.111477572219204 57.2393
22.1341631493376 57.388999999999996
22.157026846313123 57.5369
22.179714188221507 57.1931
22.202402410582668 56.3121
22.22509151438863 54.7817
22.24795876962584 53.4711
22.270649646204486 52.5247
22.293341407213727 51.6158
22.316034053646906 51.0636
22.338904883215342 50.5771
22.36159931041458 50.5739
22.38429462602756 50.6272
22.40699083104897 50.3564
22.429865251039757 50.3131
22.452563244831367 50.5401
22.47526213102522 50.4113
22.49813925616515 50.3241
22.520839937143307 50.2099
22.543541513520587 50.3342
22.56624398629403 50.1318
22.589124730075895 50.0524
22.611829005656723 50.2163
22.63453418063466 50.2607
22.657240256008077 50.6073
22.680124634582935 50.8164
22.70283252079775 51.0351
22.725541310413075 51.4836
22.74825100442868 51.4996
22.771139033969575 52.1186
22.79385054687155 52.3158
22.81656296718292 52.8333
22.83927629590484 53.7134
22.862167992606945 54.3159
22.88488314827121 55.2545
22.907599215359284 56.0159
22.93031619487366 57.0639
22.953211574954405 57.8407
22.975930389478226 58.9929
22.998650119445763 59.6227
23.02137076586092 59.3223
23.044269845560063 58.3344
23.06699233506288 56.68
23.089715744034912 54.7848
23.112617610931565 53.025
23.135342869061212 51.7876
23.158069049684816 50.8285
23.1807961538087 50.4566
23.20370174880544 50.5457
23.226430710184808 50.522
23.249160598093425 50.5309
23.271891413539002 50.6275
23.294800752937697 50.6853
23.31753343374794 50.7978
23.340267045128353 51.0083
23.36300158808808 51.4226
23.38591468821339 51.5637
23.408651104658304 51.9743
23.431388455719986 52.4519
23.454126742409 53.1221
23.4770436196085 54.0141
23.499783787914662 55.031000000000006
23.522524894889884 55.6465
23.54526694154616 56.5466
23.56818761219047 57.7072
23.59093154860734 58.4596
23.613676427751283 59.4252
23.636422250635754 59.101000000000006
23.659346731118656 57.9005
23.68209445191868 56.0528
23.704843119509587 53.7824
23.72759273490623 51.8191
23.750521041644767 50.013999999999996
23.77327256312355 48.7227
23.796025035462787 48.1773
23.818956224555475 47.6491
23.841710609113413 47.4575
23.86446594758979 47.38399999999999
23.887222241002014 47.0484
23.910157285144578 46.6751
23.932915498962537 46.6823
23.955674670778713 46.4783
23.978434801611975 46.213
24.001373717286125 46.1922
24.024135776723917 46.0598
24.046898798245582 46.001000000000005
24.06966278287146 45.8088
24.092605586582614 45.6502
24.115371508023642 45.6021
24.1381383956401 45.4695
24.16090625045381 45.3331
24.183852958731244 45.2603
24.206622758582608 45.1136
24.229393528706886 45.063
24.252165270127392 45.1017
24.27511589952438 44.948
24.297889594216997 44.8402
24.32066426328598 44.6976
24.34343990775613 44.7874
24.36639447485003 44.6663
24.38917208083877 44.6248
24.41195066531332 44.4349
24.43490819850244 44.5311
24.457688750692377 44.2295
24.48047028445616 44.2142
24.503252800821233 44.574
24.526214300784112 44.5663
24.548998793132213 44.4588
24.57178427117417 44.1214
24.59457073593893 44.2686
24.617536219319863 44.39
24.64032466834748 44.3703
24.663114107195035 44.2448
24.685904536893013 43.9995
24.708874020360852 44.022
24.731666442613744 43.8762
24.754459858818787 43.7149
24.777254270007962 43.7434
24.80022777025625 43.5792
24.82302418230472 43.6469
24.845821592443674 43.5492
24.86862000170663 43.5537
24.891597535453727 43.363
24.914397953892728 43.6075
24.93719937456671 43.6017
24.96000179851076 43.8106
24.98298338249997 43.9263
25.00578782394922 44.3311
25.028593271784167 44.3779
25.05157790644186 44.5176
25.07438537804115 44.5904
25.097193859145293 44.7214
25.120003350792075 44.9662
25.142992065061257 45.5009
25.165803588823465 45.6928
25.18861612625217 46.0366
25.211429678386736 46.0803
25.234422489079968 46.1304
25.257238081693636 45.9434
25.280054692141732 46.0368
25.3028723214652 46.0846
25.325869245420463 46.0352
25.348688923599397 46.1746
25.371509623787006 46.2362
25.394331347025812 46.1345
25.41733240110666 45.6809
25.440156181590016 45.0523
25.46298098826268 44.5342
25.48580682216873 44.0832
25.50881202326435 43.2524
25.53163992281684 42.716
25.55446885274561 42.5648
25.577298814096377 42.3388
25.600308179121807 42.1867
25.623140214533745 42.1651
25.64597328451537 42.0381
25.66898578564376 41.7968
25.691820936010206 41.8533
25.714657124097695 41.9558
25.737494350954734 41.908
25.760511045684957 41.6277
25.783350361364224 41.79
25.806190718969255 41.8359
25.82903211955018 41.9654
25.852053024868923 41.9291
25.874896522722523 41.9387
25.897741066713106 41.8043
25.920586657892454 42.0356
25.943611790812668 42.1609
25.966459487728237 42.2943
25.989308234998564 42.1479
26.01215803367705 42.5425
26.03518741123814 42.6835
26.05803932412957 42.7825
26.080892291600094 42.7679
26.10374631470478 42.885
26.12677995397268 43.0256
26.14963609978026 43.0819
26.172493304397875 42.6007
26.19535156888223 42.5389
26.218389486949604 42.2067
26.241249882640123 41.9991
26.26411134137826 41.6669
26.28715248187403 41.6442
26.31001607820869 41.5318
26.3328807407756 41.4251
26.35574647063438 41.461000000000006
26.37879191991473 41.5086
26.401659795896734 41.5091
26.424528742360263 41.6289
26.447398760366614 41.7859
26.470448535598294 41.8665
26.49332070826805 42.0659
26.516193955675355 42.3535
26.53906827888316 42.5018
26.562122397260108 42.4976
26.584998883685063 42.7844
26.607876449110325 43.1068
26.63075509460056 43.1842
26.65381357334404 43.3691
26.67669439061878 43.2337
26.699576291163382 43.3693
26.722459276044212 43.2561
26.745522132402975 43.097
26.768407297649354 42.7008
26.791293550442003 42.3023
26.814180891848974 42.2611
26.837248143099337 41.7755
26.860137673466657 41.7153
26.88302829566349 41.4014
26.90592001075963 41.3916
26.92899167420566 41.1908
26.951885586870763 40.8179
26.974780595655517 40.5839
26.99785558178161 40.4903
27.020752794605112 40.3791
27.043651106772522 40.1292
27.06655051935668 40.1213
27.089629948036183 40.0981
27.112531573292053 39.982
27.135434302194138 40.1329
27.158338135817015 39.8514
27.181422024430987 39.9353
27.204328079372566 39.7378
27.22723524226965 39.7345
27.250143514198573 39.8105
27.273231880156334 39.7135
27.296142382065014 39.4597
27.319053996245536 39.5303
27.341966723775965 39.5217
27.365059584515222 39.6536
27.38797455070062 39.7856
27.410890633481237 39.6042
27.433807833936918 39.5621
27.456905206923906 39.6217
27.47982465472398 39.6333
27.502745223449743 39.6523
27.525666914182825 39.8338
27.548768816912457 39.864000000000004
27.571692763693633 39.7492
27.59461783573812 39.6172
27.617723149491244 39.3926
27.640650484125285 39.3159
27.66357894728264 39.3596
27.686508540048052 39.2958
27.709618414237887 39.2995
27.732550278321757 38.9992
27.755483275279115 39.0127
27.778417406196485 39.0949
27.801531858397514 39.0406
27.824468269376716 38.8795
27.847405817586786 39.1393
27.870344504116094 39.1708
27.893463551932008 39.308
27.916404527281053 39.3779
27.93934664422563 39.4549
27.962289903855886 39.4248
27.98541356491974 39.7376
28.00835912214229 39.7576
28.03130582533231 40.0932
28.054253675581805 40.2368
28.077381967556104 40.1686
28.100332124185126 40.1706
28.123283431160893 40.0365
28.146235889577238 39.9768
28.169368830154156 39.8628
28.192323603752033 39.6979
28.215279532083304 39.3369
28.238415973016764 39.1504
28.261374223145094 39.025
28.284333631303806 38.8173
28.307294198589954 38.7168
28.330435319167677 38.3501
28.353398217078915 38.1262
28.376362277420153 37.9535
28.39932750129032 37.676
28.422473319286713 37.5833
28.44544088262495 37.5967
28.468409612800283 37.448
28.491379510913497 37.2633
28.51453004413313 37.0907
28.53750229057244 37.0302
28.56047570826344 36.9909
28.583450298308804 36.9395
28.606605564586562 36.8314
28.629582511831156 36.9453
28.65256063474956 36.774
28.675539934446338 36.802
28.698699951647605 36.7486
28.72168161743193 36.626
28.74466446331978 36.5064
28.767648490417624 36.6465
28.790813276438353 36.4918
28.813799678527303 36.5842
28.836787265157085 36.6023
28.859955641890075 36.5213
28.882945610203045 36.446
28.905936766392035 36.3844
28.928929111566863 36.3862
28.952102288520145 36.442
28.975097024308607 36.2047
28.998092952423807 36.0573
29.021090073977508 36.0741
29.04426806913204 36.0042
29.067267590245258 35.8029
29.090268308143695 35.7379
29.11327022394099 35.6489
29.13645305530891 35.4611
29.159457379627167 35.525
29.18246290519685 35.5079
29.20546963313352 35.4342
29.22865731875826 35.4286
29.25166646419296 35.3668
29.27467681535305 35.2792
29.29768837335608 35.2216
29.320880931312562 35.2504
29.34389491580634 35.2009
29.366910110507334 35.1355
29.38992651653503 35.2968
29.41312396492981 35.1994
29.436142806456754 35.1615
29.45916286268059 35.2278
29.48236399319994 35.0536
29.50538649169417 34.8451
29.528410208259935 34.8854
29.55143514402014 34.4651
29.574641196749695 34.4945
29.597668583816574 34.3783
29.6206971934585 34.135999999999996
29.64372702680042 34.2283
29.666938019934474 34.1265
29.689970313635285 34.0606
29.713003834422636 34.043
29.73603858342347 34.0165
29.759254535188578 33.8759
29.78229175361658 33.8058
29.80533020365064 33.9
29.82836988641968 33.9225
29.85159081507472 33.7166
29.874632976355343 33.8101
29.89767637376955 33.8335
29.920721008448314 33.6897
29.9439469322847 33.6544
29.96699405457564 33.4961
29.9900424175358 33.5974
30.013092022298157 33.4511
30.03632295963995 33.4367
30.059375061131373 33.404
30.08242840783577 33.503
30.105483000888153 33.4283
30.128718970092244 33.3781
30.151776069006917 33.5028
30.17483441768648 33.4377
30.198074175317235 33.3635
30.221135036724256 33.3829
30.24419715131772 33.2972
30.267260520236203 33.2205
30.290505341942243 33.4138
30.313571232750228 33.451
30.336638381310948 33.304
30.35970678876503 33.3053
30.38295669299435 33.1736
30.40602763151657 33.1406
30.429099832366074 33.0611
30.452173296685572 33.0963
30.47542830191959 33.0565
30.498504306502497 33.0365
30.521581577995562 33.0756
30.544660117543582 33.0845
30.56792024229725 33.1283
30.59100133132069 33.0937
30.614083691845494 33.1127
30.637167325018545 33.1891
30.660432587840603 33.1242
30.683518779717886 33.0363
30.70660624769615 33.0517
30.729694992924372 33.1595
30.75296541239743 33.1995
30.77605672557558 33.1463
30.799149319462742 33.1007
30.8224236211637 32.9768
30.845518789950724 32.8652
30.868615242910597 32.8527
30.891712981195973 32.7163
30.91499247215866 32.5341
30.938092794619365 32.5578
30.96119440587579 32.418
30.984297307082752 32.4
31.00758200598383 32.1986
31.030687500658694 32.1375
31.053794288760695 32.1331
31.076902371446767 32.0118
31.100192296997445 32.04
31.12330298246119 31.9993
31.14641496599209 31.9071
31.169528248749216 31.928
31.19282341969534 31.8649
31.215939314557186 31.9251
31.239056512134788 31.9229
31.262175013589378 31.8874
31.28547544871168 31.8591
31.30859657161541 31.7149
31.331719001892175 31.7896
31.35484274070538 31.8865
31.378148458819545 31.8239
31.401274828443725 31.9058
31.424402510106933 31.8243
31.447712205419993 31.8625
31.470842524931633 31.7482
31.493974159989783 31.7365
31.51710711176168 31.7704
31.54042212308802 31.8069
31.563557722100917 31.7413
31.586694641341655 31.5467
31.609832881979628 31.5512
31.63315322823208 31.3668
31.656294125521327 31.2349
31.679436347728515 31.2027
31.70257989602529 31.2033
31.725905596152327 31.0797
31.74905181052835 31.0924
31.772199354521323 31.2199
31.79534822930507 31.068
31.818679302290967 31.0549
31.84183085259981 30.9908
31.864983737233473 31.0539
31.88813795736804 31.1173
31.911474422233013 30.932
31.934631327356435 30.9822
31.9577895715215 30.9457
31.980949155906522 30.9989
32.004291031706956 30.9516
32.027453310562606 30.8702
32.05061693318573 30.7791
32.07396288236386 30.7665
32.09712920658542 30.7461
32.12029687812702 30.5366
32.14346589817093 30.3939
32.166817291729984 30.4082
32.18998902288583 30.3335
32.21316210610336 30.2863
32.23633654256711 30.1856
32.259693399663725 30.1865
32.282870556771144 30.1156
32.30604907069099 30.1192
32.329228942610065 30.0531
32.35259128243769 30.0036
32.375773884550505 29.8389
32.398957848235646 29.8294
32.422143174682176 29.9081
32.445511016471215 29.7686
32.468699082679954 29.6974
32.49188851523011 29.5851
32.51507931531304 29.4638
32.538452678331 29.6095
32.56164622776311 29.4366
32.58484114831493 29.3414
32.60803744118015 29.5465
32.631416344731896 29.4301
32.654615396551876 29.3592
32.67781582427913 29.2755
32.701198898634416 29.2476
32.72440209253756 29.1955
32.747606665947124 29.1107
32.77081262006088 29.0451
32.79420126883317 29.048000000000002
32.81740999876112 29.0288
32.840620112999424 28.9849
32.86383161274818 28.8698
32.88722585534586 28.9098
32.91044014056596 28.9855
32.933655814909734 28.8846
32.95687287957963 28.8923
32.98027273544904 28.7368
33.00349259526636 28.7256
33.026713849030116 28.7263
33.04993649794511 28.7201
33.073341986570746 28.6121
33.09656744032826 28.7344
33.11979429286444 28.6842
33.14302254538647 28.6622
33.166433686291185 28.54
33.18966475336992 28.5603
33.212897224069096 28.445999999999998
33.23613109959831 28.4606
33.259547912343415 28.3836
33.2827846121627 28.4092
33.306022720453775 28.428
33.32926223842861 28.2782
33.352684742614166 28.2974
33.37592709463173 28.3034
33.399170859982064 28.1324
33.422597648419426 28.0394
33.44584425514446 27.9918
33.46909227885668 27.924
33.4923417207723 27.7998
33.51577423505344 27.9042
33.539026528130385 27.7648
33.56228024307245 27.8377
33.585535381098246 27.6419
33.60897364093058 27.5808
33.63223163992385 27.5372
33.6554910656699 27.4584
33.678751919389796 27.427
33.702195944520106 27.4054
33.72545966903325 27.4785
33.74872482519663 27.4398
33.771991414233746 27.4182
33.79544122444841 27.3191
33.81871069412428 27.320999999999998
33.84198160035767 27.2057
33.86525394437455 27.3541
33.88870955949969 27.1442
33.911984794020626 27.1189
33.93526147001624 27.0244
33.958539588715006 26.9928
33.98200102861669 26.8978
34.0052820477047 26.8986
34.02856451319451 26.8673
34.05203033759056 26.7432
34.07531571090147 26.7715
34.09860253431845 26.7897
34.121890809074316 26.7235
34.145362493118924 26.7304
34.16865368561615 26.7198
34.191946333164054 26.6006
34.21524043699793 26.5745
34.23871800066799 26.5947
34.26201503218366 26.5083
34.28531352370466 26.406
34.30861347646881 26.3092
34.33209693978188 26.3632
34.3553998301885 26.3712
34.378704185565205 26.2434
34.402010007152356 26.1994
34.42549939016683 26.1706
34.44880815937748 26.1478
34.472118398533134 26.0748
34.49543010887669 26.0614
34.51892543169198 25.9848
34.54224009966052 25.9555
34.56555624255917 25.8959
34.58887386163339 25.826
34.61237514439016 25.8033
34.6356957311114 25.7865
34.65901779775809 25.7024
34.68252356662995 25.7024
34.705848608458616 25.6945
34.72917513396849 25.6957
34.75250314440949 25.5612
34.77601490857862 25.4867
34.799345904259795 25.3662
34.82267838863559 25.4875
34.846012362958525 25.5188
34.869530142679984 25.4087
34.89286711232212 25.4332
34.91620557568269 25.3211
34.93954553401677 25.3534
34.9630693495876 25.2197
34.986412313340814 25.2716
35.00975677584668 25.2163
35.033102738362956 25.1869
35.05663261012228 25.1467
35.0799815881786 25.1089
35.10333207003229 25.0425
35.12668405694369 25.0887
35.150220005273056 25.0409
35.17357501786656 25.0621
35.19693153931268 24.9263
35.220289570874385 24.8416
35.24383161619786 24.8807
35.267192683604904 24.8727
35.290555264930376 24.8453
35.314101899412165 24.7931
35.33746752422433 24.759
35.36083466676374 24.7797
35.38420332829803 24.6936
35.407756095629054 24.712
35.43112781085063 24.6393
35.45450104888391 24.671999999999997
35.477875810999194 24.6382
35.50143473172161 24.6099
35.52481255774625 24.6269
35.54819191167777 24.5635
35.57157279478914 24.5194
35.595137889488406 24.4516
35.61852184675279 24.4514
35.641907337029984 24.3932
35.665294361595684 24.2773
35.68886565090076 24.3207
35.7122557598848 24.3405
35.73564740699838 24.2547
35.759040593519934 24.1606
35.78261809810353 24.1147
35.80601437933051 24.0839
35.829412203814705 24.0344
35.85281157283719 23.9191
35.876395313415884 23.9334
35.8997977874528 23.8885
35.92320180988546 23.9186
35.946790244133936 23.864
35.97019737933222 23.8682
35.993606066789866 23.8065
36.01701630779276 23.7055
36.04061101440684 23.6909
36.06402437852291 23.6636
36.08743930005611 23.6976
36.1108557802951 23.6224
36.13445678011326 23.61
36.15787639383515 23.5122
36.18129757014299 23.4514
36.20472031032821 23.4932
36.22832762423364 23.3678
36.25175350829375 23.4214
36.275180960119776 23.2715
36.298609981005924 23.3763
36.32222362992669 23.3382
36.34565580510207 23.2879
36.36908955323448 23.2489
36.39252487562093 23.1404
36.416144880530226 23.0293
36.43958336764275 23.086
36.463023432914625 23.1789
36.486465077645676 23.0828
36.51009145956204 23.1378
36.53353627947859 23.0765
36.55698268276811 23.063000000000002
36.58043067073321 22.8905
36.60406345072071 22.9366
36.62751462435344 22.9191
36.65096738658405 22.8476
36.67460498210655 22.8503
36.69806093788647 22.8118
36.72151848619297 22.6903
36.744977628333636 22.7295
36.76862165890998 22.6635
36.79208400512205 22.7271
36.81554794910557 22.6313
36.83901349217101 22.5323
36.862663978991606 22.4974
36.88613273667352 22.4687
36.90960309738324 22.4704
36.933075062434064 22.3627
36.95673202673572 22.391
36.98020721697122 22.3745
37.003684015502365 22.271
37.027162423645365 22.246
37.050825886711465 22.2471
37.07430753063053 22.141
37.09779078812467 22.1457
37.121275660513014 22.1533
37.144945643673694 22.0892
37.16843376245278 22.0546
37.19192350009803 21.9997
37.215414857931435 22.058000000000003
37.239091382563885 21.9413
37.262585997426164 21.9134
37.28608223645736 21.9205
37.309763684451696 21.8847
37.33326318851098 21.8293
37.356764320726555 21.8381
37.380267082425526 21.8114
37.40395510942588 21.756999999999998
37.42746114683234 21.6633
37.45096881771841 21.6349
37.474478123414166 21.6377
37.49817275092816 21.5769
37.52168534303452 21.5783
37.54519957395567 21.4832
37.568715445024665 21.4685
37.592416694607714 21.4396
37.61593586281424 21.4404
37.63945667518264 21.4346
37.66297913304891 21.307
37.68668702630454 21.3347
37.710212792059274 21.2666
37.733740207334854 21.2413
37.757269273470364 21.1699
37.780983832050374 21.2083
37.80451621684926 21.1183
37.82805025654007 21.0494
37.851585952464795 21.0423
37.8753071980695 20.9693
37.89884622345676 21.0431
37.92238690911902 21.0167
37.94611318753442 20.9375
37.969657210779765 20.9037
37.99320289834801 20.9152
38.016750251586465 20.8429
38.04048325513017 20.7558
38.06403395679343 20.7187
38.087586328183946 20.7587
38.11114037065203 20.7269
38.13488012115898 20.738000000000003
38.1584375229181 20.6527
38.181996599821 20.5677
38.205557353221124 20.5517
38.229303872575656 20.5668
38.2528679961576 20.5026
38.27643380031219 20.4483
38.30000128639589 20.4152
38.32375459653193 20.4493
38.34732546371299 20.4789
38.37089801690786 20.339000000000002
38.39447225747609 20.2435
38.418232380377425 20.3007
38.441810012983396 20.2768
38.46538933705673 20.195999999999998
38.488970353960084 20.2217
38.51273731166058 20.153
38.536321731567014 20.0983
38.55990784840681 20.1292
38.58367995004091 20.0366
38.60726947812959 19.9539
38.63086070726198 20.0153
38.654453638806274 20.0568
38.678232613930824 19.9923
38.70182896773327 19.8517
38.72542702806741 19.855999999999998
38.7490267963045 19.8697
38.77281266709232 19.7926
38.79641586862214 19.757
38.8200207821842 19.6817
38.843627409152944 19.7276
38.86742019782782 19.682000000000002
38.891030269149255 19.6057
38.914642058016156 19.6121
38.938255565806124 19.5991
38.96205529464307 19.5819
38.98567225787121 19.5324
39.00929094417078 19.5084
39.03291135492255 19.5308
39.05671804624804 19.4192
39.080341923549106 19.4005
39.103967529460334 19.3984
39.127594865365744 19.3326
39.15140854155791 19.234
39.17503935514948 19.2955
39.19867190290282 19.2859
39.22249083587951 19.2676
39.24612686969409 19.2208
39.269764641845306 19.2229
39.293404153722804 19.2015
39.317230110864074 19.0941
39.34087311998506 19.0508
39.36451787301696 19.0046
39.388164371352595 18.9723
39.41199737518003 18.9276
39.43564738196752 18.8862
39.45929913825317 18.8475
39.48295264543308 18.8676
39.506792718520884 18.8495
39.530449745387216 18.829
39.55410852735203 18.7924
39.57776906581474 18.805
39.60161623079 18.6946
39.625280300200025 18.6752
39.64894613032202 18.6289
39.67261372255866 18.6977
39.6964680021016 18.627
39.72013913657293 18.5961
39.74381203738292 18.5828
39.76748670593756 18.5297
39.79134812278169 18.4914
39.81502634488497 18.4713
39.83870633896685 18.436
39.862388106436654 18.359
39.88625668336918 18.3659
39.90994201572829 18.4261
39.933629125719285 18.3485
39.957503091207826 18.2895
39.9811937746168 18.2948
40.00488623990914 18.2043
40.02858048850006 18.1971
40.05246165409549 18.1461
40.076159487492085 18.067
40.099859108448875 18.1112
40.123560518384345 18.0683
40.1474489070226 18.1458
40.171153913178564 18.0213
40.194860712584955 17.94
40.2185693066637 17.9235
40.242464941335314 17.9068
40.26617714307655 17.9389
40.289891143772046 17.8284
40.3136069448471 17.8466
40.33750984859743 17.8666
40.3612292688043 17.8209
40.3849504936829 17.8212
40.40867352466194 17.787
40.43258372059144 17.6566
40.45631038219906 17.7117
40.48003885420956 17.6786
40.503769138055105 17.6758
40.52768664931955 17.6608
40.55142057531802 17.5819
40.57515631746428 17.5591
40.599079334038514 17.5
40.62281872700477 17.4512
40.64655994043941 17.4011
40.67030297578061 17.444000000000003
40.69423334835778 17.3979
40.71798004609188 17.3709
40.74172857006355 17.3597
40.76547892171441 17.3562
40.7894166736039 17.3388
40.813170699248566 17.3045
40.83692655691388 17.2445
40.86068424804498 17.2703
40.884629402612525 17.2321
40.908390779366385 17.1806
40.932153993938 17.1327
40.95591904777605 17.1448
40.979871628443995 17.1142
41.003640379561936 17.0842
41.02741097430883 17.0124
41.05118341413683 16.9913
41.075143444384416 16.9276
41.098919593177826 16.9366
41.1226975914255 16.9603
41.14647744058318 16.9084
41.170444943946755 16.8608
41.19422851378379 16.8496
41.218013938914645 16.7756
41.24198706625173 16.7835
41.26577622087193 16.7226
41.289567235177785 16.709
41.31336011063129 16.6626
41.337340752422875 16.6778
41.361137369129835 16.6821
41.38493585138705 16.6277
41.40873620066004 16.5809
41.43272438060107 16.5246
41.45652848292052 16.4992
41.48033445666918 16.4599
41.50414230331616 16.4059
41.528138045159764 16.4154
41.551949656675205 16.4129
41.575763145513235 16.3932
41.59957851314666 16.3479
41.62358184070442 16.2972
41.64740098505737 16.2815
41.6712220126409 16.2403
41.69504492493139 16.2769
41.71905586207357 16.1903
41.74288256296395 16.1495
41.766711153007456 16.1585
41.79054163368412 16.1061
41.814560204340054 16.1258
41.838394485526365 16.1696
41.86223066180303 16.1326
41.88625497706819 16.0794
41.910094962812 15.9862
41.93393684811168 15.9964
41.95778063445365 15.9523
41.981812625263366 15.9104
42.00566023303407 15.8796
42.029509746323676 15.8625
42.05336116662236 15.8558
42.077400857069705 15.8566
42.10125611078846 15.829
42.12511327600405 15.8011
42.14897235421036 15.7155
42.173019768448455 15.6727
42.19688269209613 15.6948
42.22074753323349 15.6652
42.24461429335818 15.5783
42.268669455600495 15.6181
42.292540073217886 15.5962
42.31641261433284 15.5676
42.34028708044675 15.4826
42.36435001496739 15.5187
42.38822835065557 15.5021
42.41210861586426 15.4682
42.4359908120986 15.4481
42.46006154323262 15.4012
42.48394762115317 15.3735
42.507835634632315 15.4027
42.531912233047436 15.3566
42.55580413732265 15.2761
42.579697981698 15.2394
42.60359376768525 15.2169
42.62767820545945 15.2004
42.65157789440821 15.1876
42.67547952952185 15.1718
42.699383112316 15.1404
42.72347541395347 15.0877
42.74738291190531 15.0487
42.771292362102166 15.0861
42.795203766063516 15.0302
42.819303956130405 14.9568
42.843219287476536 14.967
42.86713657716324 15.0025
42.89105582671383 14.9898
42.91516392983864 14.9823
42.939087119032166 14.8928
42.963012272677304 14.8809
42.98693939230129 14.8239
43.01105543317513 14.777999999999999
43.034986504731386 14.8238
43.05891954686589 14.7877
43.08285456110972 14.7769
43.10697856448665 14.7002
43.130917542983475 14.6488
43.15485849820081 14.6653
43.17880143167367 14.6534
43.20293342237094 14.5859
43.226880332449 14.5998
43.25082922540554 14.540999999999999
43.27496722682525 14.5455
43.29892010567796 14.4547
43.32287497204102 14.4283
43.34683182745632 14.4296
43.370977859791836 14.3729
43.39493871351105 14.4273
43.41890156092628 14.4366
43.44286640358341 14.3422
43.46702049182749 14.3028
43.49098934522816 14.3142
43.51496019852649 14.3147
43.5389330532723 14.2978
43.56309522248204 14.2044
43.58707210044314 14.2367
43.61105098451946 14.1802
43.63503187626491 14.1162
43.659202151562134 14.0988
43.68318707902681 14.0983
43.70717401884041 14.0747
43.731162972560874 14.0476
43.75534137913236 14.0561
43.779334381108384 14.0086
43.803329401683186 13.9918
43.82732644241872 13.9414
43.8515130055166 13.9629
43.87551410707659 13.8953
43.89951723350145 13.8907
43.923709934595614 13.8478
43.94771713129917 13.8546
43.97172635758096 13.8315
43.99573761501002 13.8354
44.0199385169922 13.8131
44.04395385732619 13.770999999999999
44.067971233533086 13.7116
44.09199064718605 13.6631
44.11619977548961 13.6512
44.14022328470671 13.6243
44.16424883610785 13.6216
44.18827643127035 13.6134
44.21249381139513 13.6086
44.236525514814076 13.5221
44.26055926674478 13.5257
44.28459506876863 13.575999999999999
44.3088207262813 13.5279
44.33286064928722 13.4411
44.35690262714919 13.4474
44.38094666145278 13.4082
44.4051806219871 13.4288
44.42922879003185 13.3885
44.45327901929361 13.3033
44.477331311362136 13.2984
44.501573600619416 13.2652
44.525630039221795 13.2998
44.54968854541895 13.2875
44.573937102200176 13.2566
44.5979997645541 13.206
44.622064499300315 13.177
44.64613130803592 13.1514
44.67038823869318 13.1174
44.69445921643748 13.1001
44.718532272981385 13.0604
44.742607409926194 13.0693
44.76687274034801 13.0607
44.79095205918753 13.0097
44.81503346325094 12.9937
44.839116954143876 12.9572
44.86339071028742 12.9854
44.88747839599524 12.9626
44.91156817336837 12.8673
44.93566004401666 12.9074
44.959942251908146 12.855
44.984038330325966 12.8507
45.00813650686762 12.8132
45.03223678314731 12.8006
45.05652746888232 12.7795
45.08063196592069 12.7567
45.104738567558705 12.751
45.128847275414856 12.6893
45.15314646515866 12.6272
45.17725940679741 12.6172
45.20137445952892 12.6463
45.22568004865265 12.6494
45.24979934496396 12.5972
45.27392075725247 12.5787
45.29804428714431 12.54
45.322358426247604 12.5385
45.346486212804315 12.5255
45.370616121861914 12.5219
45.39474815505086 12.4358
45.41907087049246 12.3776
45.4432071734666 12.3852
45.46734560548283 12.4025
45.49148616817604 12.3856
45.51581748638564 12.354000000000001
45.5399623320197 12.3648
45.56410931325473 12.315
45.58825843173002 12.2906
45.61259837920865 12.2911
45.636751793816 12.2743
45.66090735060093 12.2238
45.68506505120716 12.1749
45.7094136545275 12.1244
45.73357566449271 12.1048
45.75773982322992 12.1456
45.78190613238733 12.1149
45.806263418194064 12.0637
45.83043404997326 12.0454
45.85460683713677 12.0511
45.87897065658495 12.0119
45.90314777634752 12.0049
45.92732705646868 11.9873
45.9515084986045 11.94
45.97588104735473 11.9345
46.00006683541565 11.9157
46.02425479047904 11.8741
46.04844491420549 11.9031
46.0728262191024 11.8763
46.09702070211635 11.8231
46.12121735879483 11.8415
46.14541619080294 11.8033
46.169806278764455 11.7757
46.194009483459034 11.686
46.21821486849841 11.7067
46.24242243555223 11.6796
46.266821333570014 11.6578
46.29103328674601 11.6469
46.31524742696538 11.6515
46.33946375590237 11.6143
46.36387149104216 11.6083
46.38809221957392 11.5173
46.41231514186606 11.5656
46.436540259597464 11.5726
46.460956858999374 11.5199
46.48518638983522 11.52
46.509418121166966 11.4749
46.533652054678114 11.4597
46.55807754555709 11.4351
46.58231590571962 11.446
46.60655647313217 11.394
46.630988654873654 11.3178
46.655233659129024 11.2922
46.67948087571551 11.3369
46.70373030632484 11.3274
46.72817142736393 11.2961
46.752425308428684 11.2419
46.77668140861147 11.2221
46.80093972960865 11.1778
46.82538981736788 11.1415
46.849652602470904 11.1602
46.87391761349769 11.137
46.8981848521493 11.1364
46.9226439341274 11.091
46.946915650573224 11.0812
46.97118959976749 11.079
46.99546578341598 11.0751
47.019933887188216 11.0449
47.04421456235744 11.0308
47.06849747711879 11.0403
47.09278263318286 10.9397
47.11725978640143 10.9312
47.14154944775105 10.9032
47.165841355555656 10.9081
47.1901355115306 10.8613
47.214621741924994 10.8807
47.23892041698887 10.8422
47.26322134538975 10.8392
47.28771440635075 10.7721
47.31201986422527 10.7458
47.33632758061436 10.7496
47.360637557241866 10.7252
47.38513974410611 10.6855
47.40945426407847 10.6871
47.43377104948137 10.6878
47.45809010204344 10.6484
47.48260144275502 10.6347
47.506925052572285 10.6023
47.53125093475548 10.5988
47.55557909103813 10.5691
47.58009961361992 10.5544
47.60443234110732 10.5151
47.62876734791564 10.4873
47.65310463578333 10.4829
47.6776343683373 10.4823
47.7019762413987 10.4799
47.72632040075572 10.4305
47.75066684815169 10.3984
47.77520581885936 10.4059
47.799556865477655 10.3976
47.823910205386 10.3925
47.84826584033272 10.3764
47.87281407745551 10.3248
47.89717432569297 10.3055
47.92153687423484 10.3078
47.94609208429692 10.3182
47.97045925671401 10.2863
47.99482873471275 10.242
48.01920052005013 10.2235
48.04376504619224 10.2127
48.068141469543484 10.2002
48.09252020552573 10.1844
48.11690125590099 10.1285
48.1414751266064 10.149
48.16586082917454 10.0906
48.19024885144316 10.0868
48.2146391951793 10.0703
48.239222439012764 10.064
48.26361744916137 10.04
48.28801478610016 10.0409
48.31241445160131 10.0156
48.337007097209366 9.99107
48.36141144338331 9.95112
48.38581812345755 9.94025
48.41022713920929 9.93478
48.434829215320704 9.925989999999999
48.45924292604658 9.90517
48.48365897780325 9.91
48.50807737237308 9.86508
48.532688907799276 9.83328
48.55711201168574 9.83456
48.581537463754074 9.8229
48.60615611725119 9.81968
48.63058628942721 9.791830000000001
48.65501881516546 9.74841
48.6794536962573 9.748619999999999
48.70408185970339 9.72955
48.72852147531801 9.70818
48.75296345168211 9.70018
48.77740779059232 9.64725
48.80204549302823 9.68347
48.82649458091802 9.65864
48.85094603676547 9.60924
48.87539986237231 9.60019
48.90004713292306 9.6099
48.92450572200832 9.592419999999999
48.94896668628025 9.53566
48.97343002754588 9.52635
48.99808689542115 9.49943
49.02255501470614 9.502939999999999
49.04702551642794 9.49317
49.0714984023988 9.4895
49.096164896893235 9.47793
49.120642575466796 9.41991
49.145122643748394 9.37699
49.16960510355558 9.368319999999999
49.19428125404938 9.37018
49.2187685210852 9.349310000000001
49.243258185121555 9.35617
49.26794160167084 9.35655
49.2924360839405 9.28118
49.31693296869764 9.27782
49.34143225776915 9.26085
49.36612538195438 9.23821
49.39062950396021 9.25613
49.41513603578346 9.22362
49.4396449792564 9.189630000000001
49.46434784069503 9.16805
49.488861631846454 9.11916
49.513377840166804 9.113430000000001
49.537896467493745 9.11624
49.56260909589029 9.07827
49.587132585683285 9.10763
49.611658500018365 9.05585
49.636186840738596 9.02833
49.66090926588511 9.03626
49.685442483902584 9.01191
49.70997813385706 8.95514
49.734516217597076 8.98243
49.75924846937352 8.97885
49.7837914452858 8.93913
49.80833686055187 8.92913
49.83288471702571 8.89766
49.85762682540054 8.91773
49.882179588965734 8.85467
49.9067347993235 8.86299
49.93129245833333 8.84384
49.95604445336378 8.8479
49.98060703442832 8.81108
50.005172069746266 8.78844
50.02993150438364 8.783389999999999
50.05450147301533 8.780619999999999
50.07907390151433 8.76597
50.10364879174981 8.7562
50.12841816587289 8.720839999999999
50.1529980044635 8.697000000000001
50.17758031042124 8.65893
50.20216508562089 8.658660000000001
50.22694442953363 8.640130000000001
50.25153416817468 8.64021
50.27612638170508 8.6077
50.300721072005196 8.590489999999999
50.325510416102105 8.55896
50.350110084975064 8.57123
50.37471223628208 8.55687
50.39931687190919 8.515039999999999
50.424116246675766 8.4972
50.44872587605249 8.5187
50.47333799543065 8.47513
50.49795260670191 8.469669999999999
50.52276204271512 8.43223
50.54738166295838 8.4229
50.57200378079314 8.43096
50.596628398116835 8.369580000000001
50.62144792604559 8.37842
50.646077567609396 8.39209
50.670709714377715 8.3545
50.69553683636198 8.37095
50.72017401885922 8.310130000000001
50.7448137122895 8.32749
50.76945591856022 8.280560000000001
50.79429318636823 8.2879
50.818940443716784 8.28002
50.84359021965163 8.22782
50.868242516085964 8.21476
50.893089960641895 8.19408
50.917747323549435 8.18175
50.94240721271973 8.146460000000001
50.96706963007175 8.131269999999999
50.99192728239342 8.099639999999999
51.01659478166073 8.09055
51.04126481489051 8.12143
51.06593738400761 8.10308
51.090805275207074 8.05567
51.11548294172845 8.06369
51.14016314993547 8.03935
51.164845901758845 8.03715
51.18972406304274 8.009269999999999
51.21441192780656 7.98906
51.23910234200271 7.98986
51.2637953075678 7.960889999999999
51.288683770237945 7.93462
51.31338186432707 7.94998
51.33808251561888 7.89257
51.362978729967345 7.896839999999999
51.387684521509755 7.8491800000000005
51.41239287610203 7.85924
51.437103795691165 7.8599
51.46201036644977 7.82074
51.486726441956634 7.7885
51.51144508832545 7.80403
51.536166307509156 7.7587
51.56108326624387 7.7550300000000005
51.58580965706056 7.75418
51.61053862657523 7.73805
51.635270176746864 7.69095
51.66019755512065 7.718369999999999
51.68493429268881 7.68385
51.70967361681515 7.6919699999999995
51.73441552946465 7.658710000000001
51.759353359237934 7.64536
51.7841004750961 7.60763
51.80885018539685 7.638439999999999
51.833602492111254 7.5693399999999995
51.8585508051424 7.55571
51.883308330926425 7.565410000000001
51.90806845906181 7.523560000000001
51.932831191525715 7.5033
51.95779001977161 7.49361
51.98255798721516 7.497000000000001
52.00732856494335 7.466310000000001
52.03229530577543 7.43164
52.057071130455945 7.43558
52.081849571391054 7.4360800000000005
52.106630630568695 7.453060000000001
52.13160794279417 7.390860000000001
52.15639426492067 7.39129
52.18118321127822 7.383839999999999
52.205974783860896 7.3049
52.23096269971011 7.30513
52.255759551287994 7.3181
52.280559035098186 7.304989999999999
52.30536115314103 7.286110000000001
52.33035970494467 7.2809800000000005
52.35516711807904 7.26213
52.37997717147198 7.26514
52.40478986713005 7.263719999999999
52.42979908731974 7.238989999999999
52.454617094216 7.21961
52.47943774942214 7.14717
52.50426105495102 7.17166
52.529280976059844 7.19642
52.554109609024096 7.137919999999999
52.57894089837482 7.104
52.60377484613117 7.127339999999999
52.62880550079408 7.10686
52.65364479223379 7.105389999999999
52.67848674816189 7.070410000000001
52.70352547971946 7.08067
52.72837279155837 7.01496
52.753222773982785 7.02007
52.778075429022984 7.027089999999999
52.80312495150885 6.9995199999999995
52.827982978797436 6.989839999999999
52.85284368481815 6.9508
52.87770707160767 6.97887
52.90276741793998 6.95896
52.92763619336701 6.949269999999999
52.952507655698504 6.91856
52.977381806977576 6.889760000000001
53.00245301017842 6.91144
53.02733256653592 6.87458
53.052214817996074 6.8585
53.077099766608484 6.83208
53.102181859804446 6.83362
53.127072229988265 6.792660000000001
53.15196530349892 6.78948
53.17686108239249 6.752260000000001
53.20195409881522 6.786230000000001
53.22685531582556 6.744039999999999
53.25175924441303 6.69433
53.27666588664027 6.73314
53.30176985962693 6.70633
53.3266819565689 6.7005
53.35159677336455 6.69265
53.376514312083096 6.691669999999999
53.40162927507703 6.667039999999999
53.42655228516116 6.614960000000001
53.45147802340193 6.60768
53.47660125628886 6.62845
53.50153247842639 6.58333
53.52646643496923 6.53121
53.55140312799818 6.56947
53.576537409691696 6.53
53.60147960336152 6.53331
53.626424539786164 6.52745
53.65137222105307 6.50899
53.67651758529126 6.49951
53.70147078399681 6.47887
53.72642673383343 6.47366
53.75138543689533 6.47635
53.776541917524526 6.4737599999999995
53.801506154876755 6.43101
53.826473151763246 6.406680000000001
53.851442910284916 6.38473
53.87661054126026 6.37282
53.9015858509782 6.393730000000001
53.92656392866066 6.37686
53.95154477641532 6.34796
53.976723591801296 6.33218
54.00171000771266 6.34773
54.02669920004598 6.290030000000001
54.051691170915745 6.29988
54.076881204886796 6.30304
54.101878760928514 6.2592
54.12687910187696 6.2682199999999995
54.152077577768296 6.26406
54.1770835166946 6.1833800000000005
54.20209224691339 6.19811
54.22710377055121 6.19121
54.25231352511594 6.1719800000000005
54.27733066384342 6.18613
54.30235060239643 6.1579999999999995
54.32737334290836 6.1083
54.35259441062629 6.08932
54.377622783395324 6.06237
54.40265396455061 6.05924
54.42768795623251 6.0625
54.45292037169559 6.03562
54.477960012857906 6.01339
54.50300247099511 5.96398
54.52804774825457 5.96427
54.55329154616743 5.912380000000001
54.57834249018678 5.91391
54.6033962597977 5.916980000000001
54.6284528571545 5.9101
54.653708072335164 5.8634900000000005
54.67877035378786 5.8421199999999995
54.70383546947698 5.78428
54.72890342156389 5.80593
54.7541700889442 5.77721
54.77924374251975 5.7778599999999996
54.8043202390049 5.707380000000001
54.82959552413022 5.70585
54.8546777351945 5.67282
54.87976279569621 5.6684
54.90485070780914 5.6843
54.930137506558005 5.67548
54.95523115074295 5.64241
54.98032765308844 5.61801
55.005427015775496 5.58785
55.03072536339621 5.62737
55.05583047570572 5.56358
55.080938454927676 5.56835
55.10604930325027 5.51388
55.131359235107396 5.4941
55.15647585066083 5.47898
55.181595341907496 5.4517
55.20671771104285 5.42848
55.232039262617704 5.40324
55.25716741665048 5.356269999999999
55.28229845518636 5.34021
55.30743238042802 5.28177
55.33276558731939 5.285830000000001
55.357905315183636 5.28408
55.383047936390035 5.22692
55.40819345314859 5.24415
55.433538351073295 5.2354400000000005
55.458689688238415 5.22537
55.483843927614096 5.17126
55.509197623043605 5.15573
55.53435769621134 5.16849
55.55952067826466 5.09671
55.5846865714265 5.056109999999999
55.61005202069737 5.03227
55.63522376553902 5.01821
55.66039842818645 5.0126800000000005
55.68557601087004 4.96856
55.7109532500271 4.96149
55.73613670233794 4.93325
