TT I
1.2716486653135266 7.39732
1.2939594142134223 7.25431
1.3162702121660406 6.98147
1.3385810600174564 6.74688
1.3608919586137629 7.26317
1.383202908801069 6.6447199999999995
1.405513911425503 6.20827
1.4278249673332093 5.75694
1.4501343378461518 6.3288
1.4724455028545926 5.83386
1.4947567236847858 6.10891
1.517068001182951 6.215730000000001
1.5393793361953272 6.18889
1.5616907295681737 5.6149
1.5840021821477681 5.39531
1.60631369478041 5.26452
1.6286252683124185 5.14842
1.6509369035901333 5.19461
1.6732468618895553 5.05808
1.695558623192809 4.778630000000001
1.7178704487808514 5.41826
1.7401823395001077 4.781680000000001
1.7625012545597203 4.94299
1.7848028405262486 5.44696
1.8071218901122095 5.3725
1.8294236121921872 5.55471
1.8517427996910911 5.266830000000001
1.8740620574440425 4.76595
1.8963639900671978 5.0201400000000005
1.9186833908139995 4.99648
1.9409854680117449 4.82764
1.9633050151394713 4.98163
1.9856246367570705 5.03135
2.0079269371922672 5.4098
2.03024671027244 4.600969999999999
2.0525491637446027 5.08296
2.074869091674931 4.85105
2.097171701569106 5.11186
2.1194917877373847 5.01575
2.141811954326636 5.16656
2.164114805233074 5.1340900000000005
2.186435135143035 6.34128
2.208738150935709 14.0319
2.231058647554722 28.8336
2.2533792288321184 22.0642
2.275682498336085 9.65793
2.298003251406138 5.41055
2.3203066942619714 4.972090000000001
2.3426276225136022 5.33087
2.3649486396617507 5.22693
2.387252348930071 5.53067
2.4095735463442893 5.7783
2.4318774374315884 6.23937
2.4541988185014043 5.51626
2.476502894794693 6.44557
2.498824462909887 6.954289999999999
2.521146125856138 6.43023
2.5434504863470337 6.83678
2.5657723414244717 6.77353
2.588076895590662 7.884180000000001
2.610398946189713 8.22793
2.6327210958598384 7.16335
2.6550259469304716 7.18801
2.6773482972090137 7.290019999999999
2.6996533504259 7.27146
2.7219759047039602 7.563860000000001
2.744298562293959 7.66793
2.7666039251246595 7.718139999999999
2.7889267918020164 7.7413300000000005
2.8112323652516555 7.980360000000001
2.833555444408179 8.541139999999999
2.8558786311183852 8.1886
2.8781845268938557 8.72303
2.9005079311721484 8.89383
2.9228140460410397 9.50795
2.9451376712799635 9.1045
2.967444008632326 9.461739999999999
2.9897678582247247 9.86679
3.0120918213106695 10.3339
3.0343984987899373 10.5841
3.0567226913198637 10.7839
3.079029599759726 11.9477
3.101354025127254 12.2915
3.123678568232338 12.7414
3.145985829517914 12.9032
3.16831061055229 13.954
3.1906181112775593 14.5405
3.212943133635653 15.3211
3.2352682779763207 14.9967
3.2575761442691227 15.2945
3.2799015350264273 15.7129
3.302209649240067 16.1725
3.3245352898092655 16.9958
3.3468436553365257 17.7481
3.369169549113219 18.3315
3.3914955708171384 19.0618
3.413804319727358 19.1244
3.4361305997334863 19.5542
3.4584396084414553 19.9872
3.4807661501462652 20.592
3.503092824025881 21.7388
3.5254022288463154 21.8482
3.5477291695206588 22.3968
3.5700388426251948 22.4567
3.5923660534916446 24.7043
3.6146934007816114 39.6036
3.637003482731501 92.8672
3.6593311053109985 101.87299999999999
3.681641464033634 58.4031
3.7039693653009733 31.2617
3.726297407241705 26.5134
3.7486081875460804 25.8734
3.7709365132734978 26.7458
3.793247578841633 26.9797
3.8155761917550093 26.984
3.8378875459837216 27.3868
3.8602164494827234 27.7683
3.882545499606844 28.7977
3.9048572932539183 29.0698
3.9271866390645718 29.7686
3.9494987298666713 30.3463
3.971828374764527 30.8377
3.9941581705403255 31.3888
4.016470713506008 32.0358
4.038800813471445 32.8053
4.061113662089144 33.4981
4.0834440696459176 34.0308
4.105774632334751 34.8182
4.128087945865126 35.4799
4.150418821249301 36.1179
4.172732448931298 37.3578
4.195063640413578 38.9301
4.2173775856475215 43.3088
4.239709096631102 76.1951
4.262040768704612 246.495
4.284355196706267 330.63699999999994
4.306687193387355 214.34599999999998
4.329001947444346 83.7494
4.35133427213731 49.2884
4.373666762177566 45.547
4.395982011761091 44.9009
4.418314834921175 46.0849
4.44063041906622 54.5369
4.4629635787515625 65.9518
4.4852969080429785 66.086
4.5076130004776225 55.3502
4.529946671403969 51.0935
4.552263106909177 50.8022
4.574597122877047 51.9346
4.596931312711224 53.187
4.619248269273446 54.0916
4.6415828092605835 55.1652
4.663900117405352 56.4309
4.686235010953232 57.8626
4.708552674085913 59.0302
4.730887924602802 60.4382
4.753223354952695 62.185
4.775541557023902 62.9916
4.797877349456786 64.5038
4.820195915032126 67.0079
4.842532072957498 68.1184
4.864868414979744 70.3134
4.88718753227192 72.9467
4.909524244902505 74.5685
4.931843734218147 76.1816
4.954180820867835 79.626
4.976518095879839 82.5483
4.998838149695359 85.2892
5.021175803844231 89.0628
5.043496238205739 92.7437
5.065834274903528 97.56700000000001
5.088172504230693 102.72399999999999
5.1104935158799565 111.154
5.132832132875765 136.231
5.155153533596801 184.076
5.1774925416746225 226.433
5.199814334878411 430.69
5.2221537374521505 1219.38
5.244493338631803 3143.67
5.266815727034316 7262.26
5.289155727832427 11616.4
5.311478517248165 8979.04
5.333818921080011 3187.89
5.356159527788849 660.5939999999999
5.3784829252032536 207.609
5.400823940070432 153.493
5.423147747031976 134.441
5.445489173474152 122.944
5.467830807066149 116.37799999999999
5.490155234831516 112.344
5.512497285125229 108.17399999999999
5.534822130975162 106.46700000000001
5.557164601388673 104.088
5.579489868738879 100.96600000000001
5.601832762690846 100.40100000000001
5.6241758697774475 99.4799
5.646501775867269 98.2962
5.668845311622074 97.0549
5.691171647754637 96.1066
5.713515615597765 94.98100000000001
5.735859800852677 94.2122
5.758186788542988 93.3711
5.780531411018185 93.4478
5.802858837297399 93.6772
5.825203900414495 93.5373
5.8475491852224 94.0947
5.869877275883075 94.6587
5.892223006467101 96.0452
5.914551544266608 97.4625
5.936897724049891 100.73
5.959244129804903 107.735
5.981573344815301 131.542
6.0039202049061 241.895
6.026249875609095 527.725
6.04859719346037 1076.63
6.070927323278297 2241.77
6.093275102315365 4169.26
6.115623113320588 5181.67
6.137953938319995 3495.59
6.160302415650845 1169.27
6.182633708324452 277.129
6.2049826554078376 123.236
6.227331838745022 97.6631
6.249663839443684 88.7301
6.27201349767565 84.9046
6.294345974611799 91.0814
6.316696111167083 103.573
6.339046488263839 97.906
6.361379686074702 81.7192
6.383730546639482 73.3278
6.406064229255215 69.9704
6.428415576718203 69.4509
6.450749747566656 68.7454
6.47310158535871 67.4855
6.495453669698332 66.25
6.517788579421056 66.0065
6.540141159237969 64.7885
6.562476565766648 64.126
6.5848296444934045 63.7228
6.607182974060425 63.5534
6.6295191323281015 63.727
6.651872965955752 66.8647
6.6742096296068985 93.9517
6.6965639707294615 142.52700000000002
6.71891856698715 143.75799999999998
6.741255995248479 97.6257
6.763611104154477 69.7023
6.785949046381137 61.711999999999996
6.808304671371482 59.6763
6.8306605557940046 59.2942
6.852999275508618 58.3876
6.875355681171544 57.9113
6.897694923437771 58.0139
6.92005185377892 57.7006
6.9423916220322655 57.2731
6.964749080490181 56.656000000000006
6.987106804399774 56.4109
7.009447368180821 56.8878
7.031805625367033 56.4798
7.054146723727803 56.4875
7.076505517631004 56.2159
7.098864581288365 56.3816
7.121206488070854 56.2894
7.143566093607822 55.989
7.165908543567245 56.4439
7.188268694426048 56.3752
7.2106291193438095 56.4125
7.232972390625943 57.7904
7.255333366030969 70.9677
7.277677189091925 126.87799999999999
7.300038718428332 176.952
7.322400526130865 150.234
7.344745183422596 92.2989
7.367107550224791 63.3779
7.389452767901992 57.3284
7.411815697249891 56.8322
7.434161478756298 55.2509
7.456524974096713 55.1379
7.478888753837185 54.9629
7.501235387657368 55.5698
7.523599738562711 55.6268
7.545946944825532 55.6376
7.568311870344528 56.1846
7.5906770845765665 56.4772
7.613025156078678 58.1072
7.635390950099687 59.3863
7.657739602662809 58.3376
7.680105979923558 56.7376
7.702472650212829 56.9592
7.724822180948224 56.7291
7.747189439655568 56.8872
7.769539560075357 57.1732
7.791907410653562 57.4916
7.81425812420825 57.5943
7.836626570110925 57.846000000000004
7.858995315087906 58.544
7.881346924933401 58.7469
7.903716270417482 59.1584
7.926068482028405 59.6511
7.948438431475253 60.3393
7.9708086843180235 60.9218
7.993161805171116 61.4601
8.015532667162402 61.886
8.037886398416653 62.8533
8.060257873014221 63.1973
8.082629655331942 63.7845
8.104984308787587 65.0799
8.127356708900503 68.5523
8.149711981398308 74.1542
8.172085002766314 76.646
8.194458336181368 73.1869
8.216814543847752 70.4901
8.23918850371002 70.9274
8.26154533906492 71.5559
8.283919928836452 73.0476
8.306277395339652 73.9618
8.328652618483376 75.0084
8.351028159736202 77.4473
8.373386579575245 79.7663
8.395762759396959 81.7847
8.418121819038275 87.1537
8.440498640894003 101.40100000000001
8.462875785192262 117.164
8.485235811156207 132.129
8.507613602688501 179.649
8.529974277114228 279.95099999999996
8.552352719347912 427.716
8.574731488360351 687.443
8.59709314210385 1179.54
8.619472567021075 1766.47
8.64183487789147 2156.34
8.664214962183097 1870.47
8.686577933647762 1033.87
8.708958680784317 413.60699999999997
8.731339760774953 178.863
8.753703729764451 116.08
8.77608547780821 102.133
8.798450116065078 97.6108
8.820832535634787 94.6074
8.843215292401656 92.7607
8.865580941199045 91.2445
8.887964374703538 90.2195
8.910330701447199 91.2424
8.932714815164482 93.8086
8.955099270424924 92.9958
8.977466620733543 89.4969
8.999851761421976 86.3817
9.022219798361645 84.9706
9.04460562795561 84.76700000000001
9.066991803441677 84.2969
9.089360876979615 83.9158
9.111747746589993 83.9914
9.13411751544971 83.0507
9.156505082664324 82.5376
9.178875550323522 82.9075
9.20126381862328 83.5936
9.223652438908596 84.1011
9.246023961427412 83.8794
9.26841328802173 83.2763
9.290785518039224 83.0985
9.313175554425882 83.8704
9.335565947154315 83.721
9.357939245086508 83.96799999999999
9.380330352834827 84.1871
9.40270436697103 84.7183
9.425096193225055 84.2284
9.447488380180165 84.9167
9.469863475295412 85.3232
9.492256385987508 85.7737
9.514632206018318 86.5263
9.537025843935714 86.5013
9.559402392368193 87.4664
9.581796761000229 88.6786
9.604191496441521 89.806
9.626569144158516 93.4425
9.648964615551032 98.0092
9.671343000390081 100.10799999999999
9.693739211225699 97.7543
9.716135793237463 95.4976
9.738515290448102 94.7968
9.760912617143402 95.6194
9.783292860202891 96.7087
9.805690935076182 98.1406
9.828089385495742 99.012
9.850470754023561 102.01
9.872869957865444 109.92
9.89525208097539 126.015
9.917652041736662 139.497
9.940052382417589 140.18
9.962435644102392 150.392
9.984836746950979 192.24900000000002
10.007220771957746 265.469
10.029622640473708 374.352
10.052007432299963 550.7819999999999
10.074410069984072 823.5089999999999
10.096813093716005 1221.72
10.119199042482517 1694.34
10.141602840636468 1934.56
10.163989564971628 1674.28
10.186394141051062 998.7239999999999
10.208799107559706 440.413
10.231187001965623 210.093
10.253592751657669 133.65
10.275981430388155 116.844
10.298387966769793 115.29700000000001
10.320794897965431 118.03399999999999
10.343184759907361 116.976
10.36559248305461 110.809
10.387983138083852 106.936
10.410391656691655 110.01100000000001
10.432800574501677 122.958
10.455192425893369 142.525
10.47760214443012 169.62900000000002
10.499994797678786 211.785
10.522405320453982 283.748
10.54479877906917 384.096
10.567210109595656 503.629
10.5896218454736 570.002
10.612016518879773 506.4
10.634429067781074 367.277
10.656824555333241 214.834
10.679237920773568 129.382
10.701651695961992 98.5037
10.724048411481384 90.8783
10.746463008485165 87.8171
10.768860546937125 86.1809
10.791275969274796 84.4185
10.81369180576079 83.60700000000001
10.836090585366925 82.3316
10.858507252467449 80.8987
10.88090686379991 80.2813
10.903324365036394 79.4798
10.925724811614439 79.5264
10.948143150509463 80.6571
10.970561909719066 80.1115
10.992963615930844 78.2818
11.015383218085756 76.1989
11.037785768347074 74.417
11.06020621697282 73.6253
11.082627090322113 73.2148
11.105030913430326 73.0981
11.12745263854165 73.6051
11.149857314510728 77.0316
11.172279894912576 83.493
11.194702904450653 84.1929
11.217108866490921 80.3033
11.239532736615194 75.8494
11.26193956033512 73.1295
11.284364294577085 71.2368
11.306789462371718 69.6883
11.329197585398376 68.4258
11.351623622610898 68.249
11.37403261614354 67.1665
11.396459526308487 67.1958
11.418869393879497 66.7256
11.441297180532617 66.1464
11.463725406927658 65.8826
11.486136592353875 65.9529
11.508565700543707 66.392
11.530977768845315 68.4583
11.553407762368774 69.4293
11.575838200059769 68.7937
11.598251599479612 66.6771
11.620682927815501 65.199
11.64309721895548 64.5584
11.665529441478206 64.2006
11.687962112597958 63.9131
11.710377748130886 64.1754
11.732811318753434 63.9132
11.755227854859067 63.7935
11.777662328529495 63.8712
11.800079768750786 63.533
11.822515149015453 63.2563
11.844950984084935 63.7893
11.867369787303163 63.2611
11.889806534289491 63.4354
11.912226250487029 64.0917
11.934663912939751 64.0139
11.9571020346363 64.1587
11.979523127133968 64.1797
12.001962169624331 64.8093
12.024384183972964 65.9346
12.046824150809913 69.7219
12.069264581333726 75.669
12.091687985297767 82.0143
12.11412934550045 91.2627
12.136553680195208 105.56299999999999
12.158995973632788 126.32600000000001
12.181438735204349 152.83700000000002
12.20386447284199 180.90900000000002
12.226308172985636 205.31599999999997
12.24873485024193 208.015
12.271179492516982 170.834
12.293607112949127 130.703
12.316052700916226 98.7998
12.338498763250042 80.8789
12.360927805303868 71.7618
12.383374818673879 68.0245
12.405804812803074 65.7778
12.428252780773262 65.3402
12.45070122756722 65.3039
12.473132656675375 65.1737
12.49558206341869 65.514
12.518014453510101 65.4241
12.540464823770117 65.6418
12.562915677315177 65.7443
12.58534951575545 66.7219
12.607801338171472 68.7813
12.630236146511358 74.1775
12.652688941369085 79.4706
12.675124723177234 79.806
12.697578494048786 76.1061
12.720032754458185 71.3722
12.742470003354093 69.2423
12.764925245138771 68.9188
12.787363476431278 69.1482
12.809819703166806 69.5304
12.83227642391173 70.1559
12.854716135692716 70.7898
12.877173846755147 71.9142
12.899614549869717 72.1031
12.9220732548287 72.8273
12.94453245827299 73.2256
12.966974655289818 74.2129
12.989434858002571 75.3355
13.011878055298721 75.99
13.034339260862497 77.0414
13.056800969391883 78.4173
13.079245674017244 80.5272
13.101708390774869 83.1345
13.12415410463411 91.0329
13.146617833206086 104.345
13.169064559883248 117.462
13.191529303857127 133.024
13.213994557076367 155.82399999999998
13.236442809902437 189.925
13.258909083908291 238.83599999999998
13.28135835851934 296.373
13.30382565690295 362.204
13.326293469022952 415.278
13.348744283242008 426.537
13.371213125129904 374.82800000000003
13.39366497011003 276.368
13.416134845360597 183.35299999999998
13.438605238843131 130.04
13.46105863690397 109.251
13.483530069144786 109.531
13.505984506951902 115.804
13.528456981549432 126.295
13.550929978879088 141.048
13.573385983253365 163.37
13.595860028340867 198.4
13.618317081455832 244.58700000000002
13.64079217790333 295.629
13.663250283359057 342.43300000000005
13.685726434770173 373.595
13.708203115221277 351.48800000000006
13.730662806148091 279.009
13.75314054697177 199.115
13.775601299246777 133.798
13.798080104050406 100.205
13.820559442405358 87.084
13.843021793671388 83.2648
13.865502201420897 81.6434
13.887965623051947 81.036
13.910447103807167 79.9109
13.932929122629764 78.3507
13.955394156785959 77.8569
13.977877254034569 77.1561
14.000343367582113 76.1309
14.022827546871707 75.3494
14.045294743423524 74.8709
14.06778000837062 74.1356
14.090265817715476 74.2256
14.112734645763819 74.1009
14.13522154619454 73.6587
14.157691466286913 73.5663
14.180179461423874 73.3866
14.202668005486178 72.6926
14.22513957064374 71.9427
14.247629214846473 71.7075
14.270101881097517 71.4529
14.29259262906496 71.7517
14.315083930490205 72.359
14.337558255389705 72.8147
14.360050666019726 72.4659
14.382526101071944 71.5392
14.405019624534942 70.387
14.427513705993134 69.8939
14.449990813291825 69.8983
14.47248601302899 69.9114
14.49496423954951 69.9667
14.517460561197822 70.1999
14.539939910570322 69.9417
14.562437357763558 70.4229
14.58493536931253 71.4186
14.607416409993311 72.3851
14.62991555254159 73.0967
14.652397725157423 72.9107
14.674898002342799 72.3083
14.697398848433282 71.76
14.719882725991326 72.3617
14.74238471217934 73.4028
14.764869730765593 77.0788
14.787372860692983 81.1636
14.809876564079925 86.2635
14.83236330125751 92.544
14.854868153850365 100.961
14.877356041159485 113.603
14.899862046604186 130.418
14.922351087688757 152.967
14.944858249632887 178.94400000000002
14.967365991421232 203.408
14.989856770231246 222.963
15.012365673994204 220.685
15.03485761569738 197.842
15.05736768508665 155.88
15.07987833888692 119.29799999999999
15.102372032001655 94.0483
15.124883856909658 78.8386
15.14737872204565 73.7443
15.169891721717274 71.844
15.192405310371893 71.646
15.214901940621196 72.0301
15.237416709527137 71.961
15.259914520936249 72.4268
15.282430473753607 71.4054
15.304947020131227 70.2936
15.327446610371178 69.2039
15.349964346154254 68.3361
15.372465126703139 67.8549
15.394984055556009 67.6077
15.417486030076159 67.3442
15.44000615566487 67.2165
15.462526881230803 67.4019
15.485030653812652 67.3121
15.507552581617434 67.2433
15.530057557334603 67.631
15.55258069104857 67.2732
15.575104429329837 67.3902
15.597611216864632 67.0236
15.620136166564563 67.2539
15.6426441664095 68.2263
15.665170331202765 70.7765
15.687697105158826 74.407
15.710206930593545 78.3016
15.732734925158933 82.9141
15.755245972089478 88.9588
15.77777519094324 97.876
15.800287463046663 109.679
15.822817909869592 126.18
15.84534897229804 145.399
15.867863089299354 166.63400000000001
15.890395385222186 182.984
15.912910736597423 192.805
15.935444269699861 184.28900000000002
15.957978423016485 160.399
15.980495633101265 128.776
16.003031029129367 98.37799999999999
16.02554948280019 78.9524
16.048086125229432 69.4121
16.070623392487107 66.5163
16.09314371869582 65.6553
16.11568223789321 64.9442
16.13820381691126 63.9729
16.160743591742527 62.7505
16.183283996022084 61.7348
16.205807461423195 60.6011
16.228349126881973 59.8339
16.25087385432698 60.06399999999999
16.27341678466365 59.5395
16.29594277784926 59.43600000000001
16.31848697676433 59.67
16.341031811604868 60.2023
16.36355971058487 60.503
16.3861058195587 60.1246
16.40863499352978 58.8422
16.431182380342005 57.7585
16.453730407713202 57.2417
16.476261501364792 56.9282
16.498810812136167 56.4935
16.52134319004079 56.6711
16.54389378792203 56.5689
16.566445031001553 56.4064
16.588979342490088 56.0192
16.61153187824822 55.854
16.634067483263312 55.8585
16.656621315414416 55.8175
16.679175797408888 55.4365
16.701713349928728 55.6003
16.72426913389191 55.9135
16.74680798922351 56.0584
16.76936507887444 55.8208
16.791905240734874 55.8505
16.814463639794468 55.7422
16.837022695210294 55.7751
16.859564824093756 56.1044
16.882125194503903 56.7255
16.904668639217885 57.9118
16.927230328348003 57.8819
16.949792678493612 57.8303
16.972338104193863 57.2331
16.994901778652235 56.6324
17.017448529496576 56.6796
17.040013531998152 56.8958
17.06257920018044 57.323
17.0851279459922 58.3092
17.107694947817667 59.2213
17.130245028099072 59.9865
17.15281336730298 61.6363
17.17536478578733 63.2427
17.19793446610687 65.2157
17.220504818648422 68.0083
17.243058251703697 70.822
17.265629950971032 74.4535
17.288184731571736 78.6665
17.310757781306908 82.1291
17.33333150794385 84.3061
17.355888317140174 83.3882
17.37846339986244 78.4969
17.401021565958885 72.7107
17.42359800851343 67.1967
17.44617513265564 63.0135
17.468735341390783 61.0157
17.491261035594565 60.1773
17.51396340099364 59.9733
17.536490463869136 60.0869
17.559018209820174 60.1578
17.58154663977963 60.4356
17.604251766089718 60.5433
17.626781572227713 60.6352
17.64931206518155 60.7867
17.671843245885103 61.2717
17.69455114821572 61.5602
17.717083712612634 62.035
17.739616967569667 62.2116
17.762150914021706 62.4863
17.78486160749854 62.3342
17.807396945166804 63.0837
17.829932977143503 63.9427
17.85246970436452 65.7011
17.875183204129467 67.7004
17.897721330097664 70.1697
17.920260154126645 72.9214
17.942799677153296 76.0193
17.9655159983646 79.6479
17.988056927677544 84.5428
18.010598558807683 91.5287
18.033140892692916 100.413
18.05586005052525 109.676
18.07840379824407 120.344
18.10094825154059 131.04399999999998
18.12366954819864 139.812
18.146215420998306 141.52100000000002
18.16876200220057 133.87
18.191309292745153 121.709
18.214033452627167 107.471
18.236582170236648 94.6923
18.259131600016456 88.5706
18.281681742907335 87.8519
18.304408781233683 91.0185
18.32696035875955 95.4272
18.349512652227624 100.22
18.372065662579683 105.117
18.394795594587553 107.191
18.41735004715306 104.87799999999999
18.43990521943684 99.0872
18.46246111238171 89.2165
18.485193953325208 79.0439
18.507751296070428 71.4829
18.530309362314178 67.2061
18.552868153000343 65.0673
18.57560391815056 63.3117
18.59816416623245 62.7149
18.620725141597372 62.3762
18.643286845190268 61.9298
18.666025549835414 61.5167
18.688588718427933 60.8438
18.711152618092243 60.63399999999999
18.73389353884365 60.4319
18.75645890921984 59.8924
18.77902501351406 59.5999
18.801591852673102 59.7802
18.824335739722738 59.1511
18.846904057212626 59.0979
18.8694731124168 58.8614
18.89204290628315 58.716
18.914789774966803 58.5497
18.937361054791623 58.2911
18.959933076131318 58.2587
18.982505839934877 58.0326
19.00525570560582 58.1251
19.027829963004184 57.9884
19.05040496572238 58.0679
19.072980714710468 58.0705
19.095733592739563 58.0383
19.11831084296757 58.4251
19.140888842324735 59.1316
19.16346759176222 59.4691
19.18622349753803 60.0138
19.208803755869358 60.7864
19.231384767143577 61.9374
19.253966532312948 63.3301
19.276725481241822 65.0642
19.29930876296784 67.3418
19.3218928014549 70.2475
19.34465404436217 73.2389
19.36723960516257 76.1113
19.389825925592426 77.8164
19.412413006605938 77.3297
19.43517731967805 74.268
19.457765930683355 69.774
19.48035530514408 64.781
19.50294544401556 60.6012
19.525712842708348 57.7683
19.54830451925909 56.1498
19.570896963095727 55.1002
19.593490175174704 54.8316
19.616260674962184 54.7848
19.638855432416964 54.6104
19.661450960992624 54.7634
19.68404726164677 54.4832
19.706820878021247 54.1146
19.729418731756834 54.5194
19.752017360452857 54.2499
19.77461676506804 54.4714
19.797393513540218 54.7044
19.819994478951667 54.9371
19.84259622316767 55.6921
19.8651987471481 55.9713
19.887978643247177 56.141000000000005
19.91058273574792 56.9294
19.933187610901943 57.6054
19.955969879466828 58.244
19.97857632894404 59.6754
20.00118356396599 61.4098
20.023791585494575 63.3388
20.046577028914875 65.6657
20.069186632506966 67.8439
20.091797025500632 70.1029
20.114408208858933 70.9161
20.137196842715273 70.9745
20.159809615886765 69.9483
20.18242318232135 67.1348
20.20503754298326 64.865
20.227829382875154 63.2372
20.250445341109344 62.8983
20.27306209647285 63.5282
20.29567964993108 64.5237
20.31847471147704 65.568
20.34109387027612 66.7928
20.363713830075454 66.6806
20.386334591841646 65.5535
20.409132890679302 62.9438
20.431755265564437 59.809
20.454378445325528 56.93600000000001
20.477002430930366 54.7006
20.499803982716553 53.4695
20.522429589228004 52.4815
20.54505600449589 52.0295
20.567683229489194 51.9353
20.590488049900088 51.3138
20.61311690359731 51.1207
20.63574656993626 50.9614
20.658553853717297 50.6322
20.681185154618298 50.631
20.703817271080066 50.4247
20.72645020407368 50.1321
20.749260783967177 49.9582
20.771895359337133 50.0235
20.794530754161617 50.01
20.817166969412938 49.7091
20.83998086114876 49.6651
20.86261872660049 49.6031
20.885257415405402 49.7032
20.90789692853701 49.5989
20.930714147864748 49.3918
20.953355319030678 49.398999999999994
20.97599731745334 49.6404
20.99864014410749 49.602
21.021460706796564 49.6424
21.044105199328826 49.8242
21.06675052302631 50.0229
21.089396678865015 50.0156
21.112220600704806 50.2286
21.134868430275347 50.6738
21.15751709492456 50.9771
21.180166595629693 51.3458
21.202993892429635 51.7608
21.22564507473034 52.1161
21.24829709602816 52.1308
21.27112693608965 52.3165
21.293780644891275 52.4522
21.316435195634053 51.8725
21.339090589297417 51.0562
21.361923832041875 50.5625
21.384580921090404 49.8086
21.407238856007325 49.2474
21.429897637773326 49.2764
21.45273429906592 49.2412
21.475394784108598 49.2367
21.498056118951983 49.2189
21.520718304578022 49.41
21.543558400304388 49.5886
21.566222297108816 49.8695
21.58888704765135 49.9601
21.61155265291521 50.2333
21.63439619898156 50.6458
21.657063523335786 51.0026
21.67973170537063 51.3909
21.7024007460706 52.007
21.72524775840385 52.8387
21.747918526116475 53.651
21.770590155457388 54.8767
21.79326264741238 56.2451
21.816113141960237 58.0502
21.838787368860547 59.7759
21.861462461341976 61.5803
21.884315579735777 63.519
21.90699241312273 64.9217
21.92967011506078 65.6335
21.95234868653799 65.64
21.9752053151131 64.8778
21.997885635446785 63.0166
22.020566828293532 60.8676
22.04324889464272 58.8798
22.066109049404666 57.489
22.088792872571794 56.8126
22.111477572219204 56.861000000000004
22.1341631493376 57.1464
22.157026846313123 57.1292
22.179714188221507 56.5083
22.202402410582668 55.5063
22.22509151438863 54.0593
22.24795876962584 52.6702
22.270649646204486 51.7244
22.293341407213727 50.8675
22.316034053646906 50.3584
22.338904883215342 50.1076
22.36159931041458 50.0379
22.38429462602756 50.0368
22.40699083104897 49.87
22.429865251039757 49.8342
22.452563244831367 49.7626
22.47526213102522 49.9905
22.49813925616515 49.7715
22.520839937143307 49.498999999999995
22.543541513520587 49.4485
22.56624398629403 49.1995
22.589124730075895 49.383
22.611829005656723 49.5708
22.63453418063466 49.4934
22.657240256008077 49.7863
22.680124634582935 49.9371
22.70283252079775 50.2245
22.725541310413075 50.7848
22.74825100442868 50.8158
22.771139033969575 51.224
22.79385054687155 51.2647
22.81656296718292 52.1192
22.83927629590484 52.841
22.862167992606945 53.7564
22.88488314827121 54.9176
22.907599215359284 55.8159
22.93031619487366 56.7846
22.953211574954405 57.7427
22.975930389478226 58.7963
22.998650119445763 59.0708
23.02137076586092 58.4352
23.044269845560063 57.5141
23.06699233506288 55.7623
23.089715744034912 54.0284
23.112617610931565 52.1197
23.135342869061212 50.9925
23.158069049684816 50.146
23.1807961538087 49.8838
23.20370174880544 49.5979
23.226430710184808 49.7425
23.249160598093425 49.7563
23.271891413539002 49.715
23.294800752937697 49.8124
23.31753343374794 50.0242
23.340267045128353 50.3134
23.36300158808808 50.4622
23.38591468821339 50.8829
23.408651104658304 51.3158
23.431388455719986 51.8799
23.454126742409 52.5473
23.4770436196085 53.2873
23.499783787914662 54.5015
23.522524894889884 55.3887
23.54526694154616 56.4569
23.56818761219047 57.6829
23.59093154860734 58.1588
23.613676427751283 58.8792
23.636422250635754 58.4597
23.659346731118656 57.0285
23.68209445191868 55.098
23.704843119509587 53.0642
23.72759273490623 50.8391
23.750521041644767 49.2976
23.77327256312355 48.2753
23.796025035462787 47.589
23.818956224555475 46.997
23.841710609113413 46.6461
23.86446594758979 46.718999999999994
23.887222241002014 46.4553
23.910157285144578 46.2267
23.932915498962537 46.0932
23.955674670778713 46.0458
23.978434801611975 45.7527
24.001373717286125 45.5595
24.024135776723917 45.5112
24.046898798245582 45.2866
24.06966278287146 45.1942
24.092605586582614 45.1463
24.115371508023642 44.8026
24.1381383956401 44.8134
24.16090625045381 44.8518
24.183852958731244 44.8393
24.206622758582608 44.6541
24.229393528706886 44.4855
24.252165270127392 44.5481
24.27511589952438 44.4017
24.297889594216997 44.1594
24.32066426328598 44.1922
24.34343990775613 44.1625
24.36639447485003 44.0806
24.38917208083877 43.9851
24.41195066531332 43.9267
24.43490819850244 43.9229
24.457688750692377 43.7765
24.48047028445616 43.6928
24.503252800821233 43.93
24.526214300784112 43.9705
24.548998793132213 43.9345
24.57178427117417 43.843999999999994
24.59457073593893 43.855
24.617536219319863 43.6248
24.64032466834748 43.7656
24.663114107195035 43.5416
24.685904536893013 43.3432
24.708874020360852 43.4124
24.731666442613744 43.2941
24.754459858818787 43.1931
24.777254270007962 43.2105
24.80022777025625 43.0832
24.82302418230472 43.0581
24.845821592443674 43.1026
24.86862000170663 43.1606
24.891597535453727 42.9788
24.914397953892728 43.0986
24.93719937456671 43.0923
24.96000179851076 43.1555
24.98298338249997 43.2234
25.00578782394922 43.4977
25.028593271784167 43.6132
25.05157790644186 44.1348
25.07438537804115 44.1459
25.097193859145293 44.2306
25.120003350792075 44.6182
25.142992065061257 45.041000000000004
25.165803588823465 45.2464
25.18861612625217 45.3997
25.211429678386736 45.3512
25.234422489079968 45.5868
25.257238081693636 45.5411
25.280054692141732 45.675
25.3028723214652 45.5779
25.325869245420463 45.6263
25.348688923599397 45.7886
25.371509623787006 45.8785
25.394331347025812 45.5005
25.41733240110666 45.1045
25.440156181590016 44.4291
25.46298098826268 43.8817
25.48580682216873 43.4225
25.50881202326435 42.7529
25.53163992281684 42.211000000000006
25.55446885274561 42.0046
25.577298814096377 41.8698
25.600308179121807 41.56399999999999
25.623140214533745 41.6844
25.64597328451537 41.6087
25.66898578564376 41.2183
25.691820936010206 41.4359
25.714657124097695 41.2833
25.737494350954734 41.3276
25.760511045684957 41.2387
25.783350361364224 41.3574
25.806190718969255 41.2876
25.82903211955018 41.3813
25.852053024868923 41.4331
25.874896522722523 41.4748
25.897741066713106 41.3815
25.920586657892454 41.4566
25.943611790812668 41.5934
25.966459487728237 41.7255
25.989308234998564 41.8014
26.01215803367705 42.1257
26.03518741123814 42.1621
26.05803932412957 42.2609
26.080892291600094 42.3105
26.10374631470478 42.4248
26.12677995397268 42.5007
26.14963609978026 42.4452
26.172493304397875 42.0962
26.19535156888223 41.9769
26.218389486949604 41.655
26.241249882640123 41.1996
26.26411134137826 41.0246
26.28715248187403 40.9681
26.31001607820869 40.8955
26.3328807407756 40.7408
26.35574647063438 40.8393
26.37879191991473 40.7765
26.401659795896734 40.8738
26.424528742360263 41.0993
26.447398760366614 41.1891
26.470448535598294 41.4202
26.49332070826805 41.5437
26.516193955675355 41.8999
26.53906827888316 42.0985
26.562122397260108 42.1691
26.584998883685063 42.4582
26.607876449110325 42.6639
26.63075509460056 42.7503
26.65381357334404 42.9149
26.67669439061878 42.8673
26.699576291163382 42.9974
26.722459276044212 42.778
26.745522132402975 42.5661
26.768407297649354 42.3084
26.791293550442003 41.7223
26.814180891848974 41.5223
26.837248143099337 41.1795
26.860137673466657 41.2605
26.88302829566349 40.9891
26.90592001075963 40.7625
26.92899167420566 40.5512
26.951885586870763 40.1439
26.974780595655517 40.0993
26.99785558178161 39.9255
27.020752794605112 39.7073
27.043651106772522 39.679
27.06655051935668 39.5513
27.089629948036183 39.4913
27.112531573292053 39.3372
27.135434302194138 39.4817
27.158338135817015 39.3739
27.181422024430987 39.3282
27.204328079372566 39.1958
27.22723524226965 39.2793
27.250143514198573 39.3197
27.273231880156334 39.2893
27.296142382065014 39.2254
27.319053996245536 39.1192
27.341966723775965 39.1411
27.365059584515222 39.265
27.38797455070062 39.1692
27.410890633481237 39.2624
27.433807833936918 39.0883
27.456905206923906 39.2286
27.47982465472398 39.1663
27.502745223449743 39.1317
27.525666914182825 39.2531
27.548768816912457 39.2784
27.571692763693633 39.2898
27.59461783573812 39.0806
27.617723149491244 38.9614
27.640650484125285 38.8878
27.66357894728264 38.8575
27.686508540048052 38.792
27.709618414237887 38.7093
27.732550278321757 38.5409
27.755483275279115 38.4975
27.778417406196485 38.5396
27.801531858397514 38.6109
27.824468269376716 38.6453
27.847405817586786 38.7527
27.870344504116094 38.7447
27.893463551932008 38.7913
27.916404527281053 38.9708
27.93934664422563 39.0579
27.962289903855886 39.0263
27.98541356491974 39.2213
28.00835912214229 39.2553
28.03130582533231 39.5847
28.054253675581805 39.7683
28.077381967556104 39.7427
28.100332124185126 39.7943
28.123283431160893 39.6023
28.146235889577238 39.5748
28.169368830154156 39.4541
28.192323603752033 39.1127
28.215279532083304 38.9257
28.238415973016764 38.5952
28.261374223145094 38.464
28.284333631303806 38.3807
28.307294198589954 38.3292
28.330435319167677 37.8962
28.353398217078915 37.5828
28.376362277420153 37.3887
28.39932750129032 37.3218
28.422473319286713 37.052
28.44544088262495 37.1593
28.468409612800283 36.9045
28.491379510913497 36.622
28.51453004413313 36.6857
28.53750229057244 36.518
28.56047570826344 36.571
28.583450298308804 36.5657
28.606605564586562 36.3981
28.629582511831156 36.4405
28.65256063474956 36.3494
28.675539934446338 36.3282
28.698699951647605 36.2744
28.72168161743193 36.1604
28.74466446331978 36.0963
28.767648490417624 36.0595
28.790813276438353 36.0864
28.813799678527303 36.1556
28.836787265157085 36.0886
28.859955641890075 36.1416
28.882945610203045 36.14
28.905936766392035 35.8578
28.928929111566863 36.025999999999996
28.952102288520145 35.9984
28.975097024308607 35.7224
28.998092952423807 35.6132
29.021090073977508 35.6195
29.04426806913204 35.5816
29.067267590245258 35.3425
29.090268308143695 35.2432
29.11327022394099 35.1506
29.13645305530891 35.0878
29.159457379627167 35.1943
29.18246290519685 35.0349
29.20546963313352 34.9851
29.22865731875826 35.0529
29.25166646419296 35.0011
29.27467681535305 34.9709
29.29768837335608 34.9956
29.320880931312562 34.946
29.34389491580634 34.9689
29.366910110507334 34.8491
29.38992651653503 34.9266
29.41312396492981 34.941
29.436142806456754 34.7493
29.45916286268059 34.7762
29.48236399319994 34.5776
29.50538649169417 34.4159
29.528410208259935 34.3635
29.55143514402014 34.1449
29.574641196749695 33.9964
29.597668583816574 33.9222
29.6206971934585 33.7506
29.64372702680042 33.9312
29.666938019934474 33.6785
29.689970313635285 33.6017
29.713003834422636 33.5284
29.73603858342347 33.5275
29.759254535188578 33.4411
29.78229175361658 33.4494
29.80533020365064 33.5111
29.82836988641968 33.5014
29.85159081507472 33.3793
29.874632976355343 33.3971
29.89767637376955 33.3774
29.920721008448314 33.2476
29.9439469322847 33.2253
29.96699405457564 33.1667
29.9900424175358 33.1386
30.013092022298157 33.075
30.03632295963995 33.0963
30.059375061131373 33.0662
30.08242840783577 33.2237
30.105483000888153 33.1096
30.128718970092244 33.0209
30.151776069006917 32.9437
30.17483441768648 32.9333
30.198074175317235 32.969
30.221135036724256 33.0273
30.24419715131772 33.0376
30.267260520236203 32.8366
30.290505341942243 32.904
30.313571232750228 32.9152
30.336638381310948 32.9129
30.35970678876503 32.8823
30.38295669299435 32.7844
30.40602763151657 32.711
30.429099832366074 32.8075
30.452173296685572 32.723
30.47542830191959 32.7052
30.498504306502497 32.6641
30.521581577995562 32.6621
30.544660117543582 32.703
30.56792024229725 32.7358
30.59100133132069 32.7419
30.614083691845494 32.6896
30.637167325018545 32.705999999999996
30.660432587840603 32.7918
30.683518779717886 32.7089
30.70660624769615 32.8945
30.729694992924372 32.9032
30.75296541239743 32.8237
30.77605672557558 32.8491
30.799149319462742 32.7016
30.8224236211637 32.4909
30.845518789950724 32.4825
30.868615242910597 32.5838
30.891712981195973 32.2964
30.91499247215866 32.1513
30.938092794619365 32.2167
30.96119440587579 32.0433
30.984297307082752 31.9239
31.00758200598383 31.773000000000003
31.030687500658694 31.7686
31.053794288760695 31.7061
31.076902371446767 31.6709
31.100192296997445 31.7133
31.12330298246119 31.6247
31.14641496599209 31.4735
31.169528248749216 31.581
31.19282341969534 31.5629
31.215939314557186 31.5263
31.239056512134788 31.5659
31.262175013589378 31.4822
31.28547544871168 31.3514
31.30859657161541 31.3741
31.331719001892175 31.4469
31.35484274070538 31.5189
31.378148458819545 31.4438
31.401274828443725 31.3616
31.424402510106933 31.3695
31.447712205419993 31.4745
31.470842524931633 31.3828
31.493974159989783 31.3663
31.51710711176168 31.4218
31.54042212308802 31.3872
31.563557722100917 31.357
31.586694641341655 31.2124
31.609832881979628 31.1593
31.63315322823208 31.0334
31.656294125521327 30.8777
31.679436347728515 30.9337
31.70257989602529 30.7916
31.725905596152327 30.7963
31.74905181052835 30.689
31.772199354521323 30.7424
31.79534822930507 30.7308
31.818679302290967 30.7137
31.84183085259981 30.7519
31.864983737233473 30.7115
31.88813795736804 30.6114
31.911474422233013 30.5311
31.934631327356435 30.6172
31.9577895715215 30.5807
31.980949155906522 30.6082
32.004291031706956 30.5766
32.027453310562606 30.5743
32.05061693318573 30.3469
32.07396288236386 30.3673
32.09712920658542 30.34
32.12029687812702 30.147
32.14346589817093 30.1052
32.166817291729984 30.1072
32.18998902288583 29.9652
32.21316210610336 29.959
32.23633654256711 29.8616
32.259693399663725 29.7877
32.282870556771144 29.679000000000002
32.30604907069099 29.7201
32.329228942610065 29.6266
32.35259128243769 29.5071
32.375773884550505 29.4977
32.398957848235646 29.5121
32.422143174682176 29.406
32.445511016471215 29.2588
32.468699082679954 29.3222
32.49188851523011 29.2602
32.51507931531304 29.1931
32.538452678331 29.1701
32.56164622776311 29.0733
32.58484114831493 28.9531
32.60803744118015 29.0197
32.631416344731896 29.1273
32.654615396551876 29.0006
32.67781582427913 28.935
32.701198898634416 28.7965
32.72440209253756 28.7942
32.747606665947124 28.7858
32.77081262006088 28.6672
32.79420126883317 28.6696
32.81740999876112 28.691999999999997
32.840620112999424 28.5692
32.86383161274818 28.4769
32.88722585534586 28.5549
32.91044014056596 28.5831
32.933655814909734 28.447
32.95687287957963 28.4688
32.98027273544904 28.476999999999997
33.00349259526636 28.3635
33.026713849030116 28.369
33.04993649794511 28.3886
33.073341986570746 28.3888
33.09656744032826 28.3132
33.11979429286444 28.2809
33.14302254538647 28.3333
33.166433686291185 28.1841
33.18966475336992 28.2475
33.212897224069096 28.1357
33.23613109959831 28.1439
33.259547912343415 28.0308
33.2827846121627 28.095
33.306022720453775 28.0172
33.32926223842861 27.9273
33.352684742614166 27.9257
33.37592709463173 27.8963
33.399170859982064 27.8794
33.422597648419426 27.6971
33.44584425514446 27.6605
33.46909227885668 27.5915
33.4923417207723 27.5572
33.51577423505344 27.5815
33.539026528130385 27.3848
33.56228024307245 27.3761
33.585535381098246 27.2896
33.60897364093058 27.2516
33.63223163992385 27.3256
33.6554910656699 27.1825
33.678751919389796 27.1981
33.702195944520106 27.1295
33.72545966903325 27.0572
33.74872482519663 27.0301
33.771991414233746 27.0375
33.79544122444841 26.961
33.81871069412428 26.9385
33.84198160035767 26.8555
33.86525394437455 26.8882
33.88870955949969 26.8492
33.911984794020626 26.759
33.93526147001624 26.7078
33.958539588715006 26.6933
33.98200102861669 26.5561
34.0052820477047 26.5479
34.02856451319451 26.5907
34.05203033759056 26.4419
34.07531571090147 26.4045
34.09860253431845 26.4265
34.121890809074316 26.4011
34.145362493118924 26.4237
34.16865368561615 26.3445
34.191946333164054 26.283
34.21524043699793 26.3082
34.23871800066799 26.2156
34.26201503218366 26.1759
34.28531352370466 26.1355
34.30861347646881 26.0071
34.33209693978188 25.9744
34.3553998301885 25.9118
34.378704185565205 25.8955
34.402010007152356 25.8536
34.42549939016683 25.8454
34.44880815937748 25.7343
34.472118398533134 25.7032
34.49543010887669 25.7126
34.51892543169198 25.7025
34.54224009966052 25.6353
34.56555624255917 25.6166
34.58887386163339 25.5869
34.61237514439016 25.516
34.6356957311114 25.4479
34.65901779775809 25.4741
34.68252356662995 25.4491
34.705848608458616 25.3924
34.72917513396849 25.3143
34.75250314440949 25.2415
34.77601490857862 25.2512
34.799345904259795 25.1667
34.82267838863559 25.1962
34.846012362958525 25.1571
34.869530142679984 25.0327
34.89286711232212 25.0701
34.91620557568269 25.0928
34.93954553401677 24.9834
34.9630693495876 24.9421
34.986412313340814 24.9553
35.00975677584668 24.8995
35.033102738362956 24.8485
35.05663261012228 24.8151
35.0799815881786 24.7517
35.10333207003229 24.6887
35.12668405694369 24.7884
35.150220005273056 24.7146
35.17357501786656 24.6797
35.19693153931268 24.6596
35.220289570874385 24.5631
35.24383161619786 24.6194
35.267192683604904 24.6873
35.290555264930376 24.5498
35.314101899412165 24.5628
35.33746752422433 24.4771
35.36083466676374 24.4466
35.38420332829803 24.4221
35.407756095629054 24.4441
35.43112781085063 24.4635
35.45450104888391 24.3634
35.477875810999194 24.3921
35.50143473172161 24.3026
35.52481255774625 24.4659
35.54819191167777 24.2277
35.57157279478914 24.1802
35.595137889488406 24.1306
35.61852184675279 24.1564
35.641907337029984 23.9893
35.665294361595684 24.0255
35.68886565090076 23.9429
35.7122557598848 23.8803
35.73564740699838 23.8951
35.759040593519934 23.9451
35.78261809810353 23.9027
35.80601437933051 23.7296
35.829412203814705 23.7226
35.85281157283719 23.6172
35.876395313415884 23.631
35.8997977874528 23.6475
35.92320180988546 23.7025
35.946790244133936 23.5856
35.97019737933222 23.5107
35.993606066789866 23.487
36.01701630779276 23.456999999999997
36.04061101440684 23.4159
36.06402437852291 23.4393
36.08743930005611 23.4546
36.1108557802951 23.3359
36.13445678011326 23.3751
36.15787639383515 23.2432
36.18129757014299 23.2331
36.20472031032821 23.1796
36.22832762423364 23.1319
36.25175350829375 23.1012
36.275180960119776 22.963
36.298609981005924 23.086
36.32222362992669 23.1344
36.34565580510207 23.0417
36.36908955323448 22.9378
36.39252487562093 22.8995
36.416144880530226 22.8274
36.43958336764275 22.8344
36.463023432914625 22.7847
36.486465077645676 22.7344
36.51009145956204 22.8011
36.53353627947859 22.7459
36.55698268276811 22.7063
36.58043067073321 22.7395
36.60406345072071 22.604
36.62751462435344 22.5973
36.65096738658405 22.5714
36.67460498210655 22.5321
36.69806093788647 22.5727
36.72151848619297 22.4669
36.744977628333636 22.4983
36.76862165890998 22.4473
36.79208400512205 22.3741
36.81554794910557 22.355999999999998
36.83901349217101 22.2197
36.862663978991606 22.2074
36.88613273667352 22.2568
36.90960309738324 22.2416
36.933075062434064 22.1855
36.95673202673572 22.1205
36.98020721697122 22.0916
37.003684015502365 22.031999999999996
37.027162423645365 21.9774
37.050825886711465 21.9801
37.07430753063053 21.9017
37.09779078812467 21.8635
37.121275660513014 21.9078
37.144945643673694 21.8807
37.16843376245278 21.7763
37.19192350009803 21.7774
37.215414857931435 21.703000000000003
37.239091382563885 21.618000000000002
37.262585997426164 21.6356
37.28608223645736 21.6314
37.309763684451696 21.5745
37.33326318851098 21.5293
37.356764320726555 21.5046
37.380267082425526 21.5535
37.40395510942588 21.5193
37.42746114683234 21.4401
37.45096881771841 21.3227
37.474478123414166 21.2533
37.49817275092816 21.3176
37.52168534303452 21.2718
37.54519957395567 21.2107
37.568715445024665 21.2712
37.592416694607714 21.2033
37.61593586281424 21.2668
37.63945667518264 21.1959
37.66297913304891 21.1121
37.68668702630454 21.1645
37.710212792059274 21.0202
37.733740207334854 20.9788
37.757269273470364 20.969
37.780983832050374 20.9808
37.80451621684926 20.9042
37.82805025654007 20.8909
37.851585952464795 20.8507
37.8753071980695 20.7643
37.89884622345676 20.7477
37.92238690911902 20.7126
37.94611318753442 20.6141
37.969657210779765 20.6286
37.99320289834801 20.5871
38.016750251586465 20.5296
38.04048325513017 20.5079
38.06403395679343 20.5353
38.087586328183946 20.488000000000003
38.11114037065203 20.4868
38.13488012115898 20.494
38.1584375229181 20.4234
38.181996599821 20.331
38.205557353221124 20.3894
38.229303872575656 20.3038
38.2528679961576 20.237000000000002
38.27643380031219 20.2824
38.30000128639589 20.2143
38.32375459653193 20.2288
38.34732546371299 20.1798
38.37089801690786 20.1151
38.39447225747609 20.070999999999998
38.418232380377425 20.0341
38.441810012983396 20.0244
38.46538933705673 19.9776
38.488970353960084 19.9948
38.51273731166058 19.9486
38.536321731567014 19.9156
38.55990784840681 19.8285
38.58367995004091 19.8303
38.60726947812959 19.7802
38.63086070726198 19.8108
38.654453638806274 19.8222
38.678232613930824 19.6798
38.70182896773327 19.6158
38.72542702806741 19.6155
38.7490267963045 19.6062
38.77281266709232 19.585
38.79641586862214 19.5004
38.8200207821842 19.4403
38.843627409152944 19.4438
38.86742019782782 19.4128
38.891030269149255 19.4613
38.914642058016156 19.3909
38.938255565806124 19.3337
38.96205529464307 19.3238
38.98567225787121 19.2918
39.00929094417078 19.2901
39.03291135492255 19.2627
39.05671804624804 19.254
39.080341923549106 19.2372
39.103967529460334 19.1907
39.127594865365744 19.0737
39.15140854155791 19.0156
39.17503935514948 19.0477
39.19867190290282 18.9711
39.22249083587951 18.9726
39.24612686969409 18.9462
39.269764641845306 18.993
39.293404153722804 18.9197
39.317230110864074 18.8454
39.34087311998506 18.7551
39.36451787301696 18.7879
39.388164371352595 18.749000000000002
39.41199737518003 18.7198
39.43564738196752 18.7056
39.45929913825317 18.695
39.48295264543308 18.6544
39.506792718520884 18.6004
39.530449745387216 18.6122
39.55410852735203 18.5542
39.57776906581474 18.4894
39.60161623079 18.4725
39.625280300200025 18.5199
39.64894613032202 18.4278
39.67261372255866 18.4348
39.6964680021016 18.3976
39.72013913657293 18.3237
39.74381203738292 18.345
39.76748670593756 18.3531
39.79134812278169 18.3178
39.81502634488497 18.2627
39.83870633896685 18.2363
39.862388106436654 18.1911
39.88625668336918 18.1372
39.90994201572829 18.1835
39.933629125719285 18.1093
39.957503091207826 18.0823
39.9811937746168 18.0276
40.00488623990914 18.0295
40.02858048850006 17.9584
40.05246165409549 17.9457
40.076159487492085 17.8902
40.099859108448875 17.951
40.123560518384345 17.9363
40.1474489070226 17.8218
40.171153913178564 17.8238
40.194860712584955 17.7671
40.2185693066637 17.7487
40.242464941335314 17.7449
40.26617714307655 17.7328
40.289891143772046 17.7266
40.3136069448471 17.6129
40.33750984859743 17.5966
40.3612292688043 17.595
40.3849504936829 17.5429
40.40867352466194 17.574
40.43258372059144 17.4807
40.45631038219906 17.4932
40.48003885420956 17.4558
40.503769138055105 17.4766
40.52768664931955 17.4326
40.55142057531802 17.3443
40.57515631746428 17.3308
40.599079334038514 17.3211
40.62281872700477 17.2685
40.64655994043941 17.2222
40.67030297578061 17.1689
40.69423334835778 17.2002
40.71798004609188 17.1793
40.74172857006355 17.1166
40.76547892171441 17.1799
40.7894166736039 17.153
40.813170699248566 17.0444
40.83692655691388 17.0525
40.86068424804498 17.1038
40.884629402612525 16.9754
40.908390779366385 16.9645
40.932153993938 16.9327
40.95591904777605 16.9123
40.979871628443995 16.9495
41.003640379561936 16.8628
41.02741097430883 16.8561
41.05118341413683 16.8256
41.075143444384416 16.7683
41.098919593177826 16.7502
41.1226975914255 16.7366
41.14647744058318 16.671
41.170444943946755 16.6944
41.19422851378379 16.6371
41.218013938914645 16.5713
41.24198706625173 16.5434
41.26577622087193 16.5406
41.289567235177785 16.5252
41.31336011063129 16.5117
41.337340752422875 16.4789
41.361137369129835 16.4461
41.38493585138705 16.4145
41.40873620066004 16.3571
41.43272438060107 16.3749
41.45652848292052 16.3212
41.48033445666918 16.2511
41.50414230331616 16.2742
41.528138045159764 16.2519
41.551949656675205 16.2038
41.575763145513235 16.1661
41.59957851314666 16.2156
41.62358184070442 16.1122
41.64740098505737 16.1111
41.6712220126409 16.0788
41.69504492493139 16.0187
41.71905586207357 16.1075
41.74288256296395 16.0249
41.766711153007456 15.9807
41.79054163368412 15.9887
41.814560204340054 15.9964
41.838394485526365 15.9573
41.86223066180303 15.9145
41.88625497706819 15.8673
41.910094962812 15.8499
41.93393684811168 15.7942
41.95778063445365 15.687000000000001
41.981812625263366 15.6891
42.00566023303407 15.6804
42.029509746323676 15.6523
42.05336116662236 15.6675
42.077400857069705 15.6843
42.10125611078846 15.6236
42.12511327600405 15.5973
42.14897235421036 15.5195
42.173019768448455 15.5756
42.19688269209613 15.4667
42.22074753323349 15.4646
42.24461429335818 15.4447
42.268669455600495 15.4014
42.292540073217886 15.4222
42.31641261433284 15.3959
42.34028708044675 15.3565
42.36435001496739 15.2914
42.38822835065557 15.3467
42.41210861586426 15.2952
42.4359908120986 15.289000000000001
42.46006154323262 15.2084
42.48394762115317 15.1231
42.507835634632315 15.1957
42.531912233047436 15.1434
42.55580413732265 15.0811
42.579697981698 15.0988
42.60359376768525 15.0782
42.62767820545945 15.0594
42.65157789440821 15.02
42.67547952952185 15.0025
42.699383112316 14.9851
42.72347541395347 14.9593
42.74738291190531 14.874
42.771292362102166 14.8202
42.795203766063516 14.8258
42.819303956130405 14.8086
42.843219287476536 14.7933
42.86713657716324 14.7676
42.89105582671383 14.748
42.91516392983864 14.6656
42.939087119032166 14.6773
42.963012272677304 14.6885
42.98693939230129 14.6448
43.01105543317513 14.62
43.034986504731386 14.5908
43.05891954686589 14.5685
43.08285456110972 14.5844
43.10697856448665 14.5575
43.130917542983475 14.4882
43.15485849820081 14.5121
43.17880143167367 14.4324
43.20293342237094 14.4225
43.226880332449 14.3808
43.25082922540554 14.3747
43.27496722682525 14.3999
43.29892010567796 14.3466
43.32287497204102 14.2941
43.34683182745632 14.3188
43.370977859791836 14.2295
43.39493871351105 14.1883
43.41890156092628 14.2476
43.44286640358341 14.1893
43.46702049182749 14.2027
43.49098934522816 14.1971
43.51496019852649 14.1729
43.5389330532723 14.095
43.56309522248204 14.0584
43.58707210044314 14.0182
43.61105098451946 13.9607
43.63503187626491 13.9574
43.659202151562134 13.9486
43.68318707902681 13.9454
43.70717401884041 13.862
43.731162972560874 13.899000000000001
43.75534137913236 13.9027
43.779334381108384 13.8435
43.803329401683186 13.7671
43.82732644241872 13.7602
43.8515130055166 13.800999999999998
43.87551410707659 13.6971
43.89951723350145 13.7583
43.923709934595614 13.6917
43.94771713129917 13.6905
43.97172635758096 13.6353
43.99573761501002 13.582
44.0199385169922 13.597999999999999
44.04395385732619 13.6181
44.067971233533086 13.6345
44.09199064718605 13.5322
44.11619977548961 13.4898
44.14022328470671 13.4909
44.16424883610785 13.5157
44.18827643127035 13.4318
44.21249381139513 13.4721
44.236525514814076 13.3868
44.26055926674478 13.3792
44.28459506876863 13.4146
44.3088207262813 13.3278
44.33286064928722 13.318
44.35690262714919 13.2949
44.38094666145278 13.2593
44.4051806219871 13.2519
44.42922879003185 13.2188
44.45327901929361 13.1514
44.477331311362136 13.1727
44.501573600619416 13.1118
44.525630039221795 13.133
44.54968854541895 13.120999999999999
44.573937102200176 13.1098
44.5979997645541 13.0311
44.622064499300315 13.0118
44.64613130803592 12.9826
44.67038823869318 13.0191
44.69445921643748 12.9713
44.718532272981385 12.915999999999999
44.742607409926194 12.8996
44.76687274034801 12.8458
44.79095205918753 12.8619
44.81503346325094 12.8471
44.839116954143876 12.8133
44.86339071028742 12.835
44.88747839599524 12.7937
44.91156817336837 12.7483
44.93566004401666 12.7556
44.959942251908146 12.6846
44.984038330325966 12.6842
45.00813650686762 12.6395
45.03223678314731 12.6532
45.05652746888232 12.6544
45.08063196592069 12.6441
45.104738567558705 12.5965
45.128847275414856 12.5396
45.15314646515866 12.4911
45.17725940679741 12.5021
45.20137445952892 12.4681
45.22568004865265 12.4546
45.24979934496396 12.4659
45.27392075725247 12.4148
45.29804428714431 12.3635
45.322358426247604 12.3997
45.346486212804315 12.3203
45.370616121861914 12.3486
45.39474815505086 12.343
45.41907087049246 12.2849
45.4432071734666 12.2965
45.46734560548283 12.2607
45.49148616817604 12.2947
45.51581748638564 12.2177
45.5399623320197 12.1741
45.56410931325473 12.1462
45.58825843173002 12.1666
45.61259837920865 12.1598
45.636751793816 12.0985
45.66090735060093 12.0694
45.68506505120716 12.0634
45.7094136545275 12.0279
45.73357566449271 12.014000000000001
45.75773982322992 11.9863
45.78190613238733 11.9559
45.806263418194064 11.9231
45.83043404997326 11.8859
45.85460683713677 11.9453
45.87897065658495 11.9357
45.90314777634752 11.8952
45.92732705646868 11.8565
45.9515084986045 11.8097
45.97588104735473 11.8059
46.00006683541565 11.7812
46.02425479047904 11.7217
46.04844491420549 11.7625
46.0728262191024 11.7248
46.09702070211635 11.7049
46.12121735879483 11.6989
46.14541619080294 11.6529
46.169806278764455 11.6453
46.194009483459034 11.642000000000001
46.21821486849841 11.5883
46.24242243555223 11.5367
46.266821333570014 11.5226
46.29103328674601 11.504000000000001
46.31524742696538 11.5258
46.33946375590237 11.4617
46.36387149104216 11.4688
46.38809221957392 11.4117
46.41231514186606 11.3816
46.436540259597464 11.4231
46.460956858999374 11.3937
46.48518638983522 11.355
46.509418121166966 11.3421
46.533652054678114 11.2988
46.55807754555709 11.2748
46.58231590571962 11.3136
46.60655647313217 11.2813
46.630988654873654 11.2471
46.655233659129024 11.1788
46.67948087571551 11.1302
46.70373030632484 11.1389
46.72817142736393 11.1472
46.752425308428684 11.1259
46.77668140861147 11.1252
46.80093972960865 11.0611
46.82538981736788 11.0548
46.849652602470904 11.0414
46.87391761349769 11.0168
46.8981848521493 11.0006
46.9226439341274 10.9869
46.946915650573224 10.9612
46.97118959976749 10.9442
46.99546578341598 10.8932
47.019933887188216 10.8993
47.04421456235744 10.9123
47.06849747711879 10.8498
47.09278263318286 10.8496
47.11725978640143 10.87
47.14154944775105 10.7875
47.165841355555656 10.8024
47.1901355115306 10.7383
47.214621741924994 10.7692
47.23892041698887 10.712
47.26322134538975 10.6528
47.28771440635075 10.6524
47.31201986422527 10.6363
47.33632758061436 10.6085
47.360637557241866 10.5911
47.38513974410611 10.5611
47.40945426407847 10.5219
47.43377104948137 10.5572
47.45809010204344 10.5601
47.48260144275502 10.4976
47.506925052572285 10.5389
47.53125093475548 10.4968
47.55557909103813 10.4664
47.58009961361992 10.4849
47.60443234110732 10.4222
47.62876734791564 10.4056
47.65310463578333 10.423
47.6776343683373 10.365
47.7019762413987 10.3457
47.72632040075572 10.2922
47.75066684815169 10.2765
47.77520581885936 10.2579
47.799556865477655 10.2791
47.823910205386 10.277000000000001
47.84826584033272 10.2575
47.87281407745551 10.1961
47.89717432569297 10.2096
47.92153687423484 10.2067
47.94609208429692 10.1622
47.97045925671401 10.1675
47.99482873471275 10.1024
48.01920052005013 10.1226
48.04376504619224 10.1073
48.068141469543484 10.1151
48.09252020552573 10.0809
48.11690125590099 10.0815
48.1414751266064 10.0467
48.16586082917454 10.0315
48.19024885144316 9.96605
48.2146391951793 9.95854
48.239222439012764 9.95615
48.26361744916137 9.92075
48.28801478610016 9.93267
48.31241445160131 9.880930000000001
48.337007097209366 9.87215
48.36141144338331 9.89237
48.38581812345755 9.85431
48.41022713920929 9.833860000000001
48.434829215320704 9.7965
48.45924292604658 9.80938
48.48365897780325 9.78385
48.50807737237308 9.74923
48.532688907799276 9.72533
48.55711201168574 9.69672
48.581537463754074 9.70289
48.60615611725119 9.68722
48.63058628942721 9.6709
48.65501881516546 9.656130000000001
48.6794536962573 9.62942
48.70408185970339 9.59577
48.72852147531801 9.59937
48.75296345168211 9.57627
48.77740779059232 9.52246
48.80204549302823 9.531989999999999
48.82649458091802 9.541310000000001
48.85094603676547 9.49222
48.87539986237231 9.46291
48.90004713292306 9.44712
48.92450572200832 9.46992
48.94896668628025 9.46717
48.97343002754588 9.40974
48.99808689542115 9.41295
49.02255501470614 9.39092
49.04702551642794 9.36304
49.0714984023988 9.36001
49.096164896893235 9.36688
49.120642575466796 9.32188
49.145122643748394 9.316460000000001
49.16960510355558 9.26196
49.19428125404938 9.27449
49.2187685210852 9.256839999999999
49.243258185121555 9.22668
49.26794160167084 9.184239999999999
49.2924360839405 9.17799
49.31693296869764 9.11668
49.34143225776915 9.17426
49.36612538195438 9.125760000000001
49.39062950396021 9.13175
49.41513603578346 9.10112
49.4396449792564 9.07985
49.46434784069503 9.09505
49.488861631846454 9.06359
49.513377840166804 9.03919
49.537896467493745 9.020610000000001
49.56260909589029 8.9855
49.587132585683285 8.99393
49.611658500018365 8.96267
49.636186840738596 8.92654
49.66090926588511 8.95312
49.685442483902584 8.919030000000001
49.70997813385706 8.87771
49.734516217597076 8.87798
49.75924846937352 8.848139999999999
49.7837914452858 8.8421
49.80833686055187 8.78001
49.83288471702571 8.76228
49.85762682540054 8.80444
49.882179588965734 8.77899
49.9067347993235 8.73954
49.93129245833333 8.735389999999999
49.95604445336378 8.72995
49.98060703442832 8.70425
50.005172069746266 8.698089999999999
50.02993150438364 8.67688
50.05450147301533 8.67758
50.07907390151433 8.65065
50.10364879174981 8.62803
50.12841816587289 8.61096
50.1529980044635 8.58554
50.17758031042124 8.59925
50.20216508562089 8.57253
50.22694442953363 8.55101
50.25153416817468 8.49997
50.27612638170508 8.529160000000001
50.300721072005196 8.50083
50.325510416102105 8.45466
50.350110084975064 8.43591
50.37471223628208 8.44164
50.39931687190919 8.40135
50.424116246675766 8.43524
50.44872587605249 8.42258
50.47333799543065 8.38706
50.49795260670191 8.38155
50.52276204271512 8.331010000000001
50.54738166295838 8.35633
50.57200378079314 8.33618
50.596628398116835 8.292
50.62144792604559 8.25972
50.646077567609396 8.23247
50.670709714377715 8.27245
50.69553683636198 8.21533
50.72017401885922 8.21473
50.7448137122895 8.17755
50.76945591856022 8.18622
50.79429318636823 8.16383
50.818940443716784 8.17229
50.84359021965163 8.19266
50.868242516085964 8.1364
50.893089960641895 8.092139999999999
50.917747323549435 8.07205
50.94240721271973 8.09631
50.96706963007175 8.07247
50.99192728239342 8.03922
51.01659478166073 8.0274
51.04126481489051 8.01721
51.06593738400761 8.02598
51.090805275207074 8.01432
51.11548294172845 7.98832
51.14016314993547 7.92472
51.164845901758845 7.94767
51.18972406304274 7.9306600000000005
51.21441192780656 7.92762
51.23910234200271 7.9019699999999995
51.2637953075678 7.8437399999999995
51.288683770237945 7.8550699999999996
51.31338186432707 7.83644
51.33808251561888 7.8075
51.362978729967345 7.78091
51.387684521509755 7.77923
51.41239287610203 7.78965
51.437103795691165 7.7532
51.46201036644977 7.7218800000000005
51.486726441956634 7.72178
51.51144508832545 7.6931199999999995
51.536166307509156 7.68147
51.56108326624387 7.66352
51.58580965706056 7.6642
51.61053862657523 7.64905
51.635270176746864 7.6067
51.66019755512065 7.61335
51.68493429268881 7.585210000000001
51.70967361681515 7.589060000000001
51.73441552946465 7.565860000000001
51.759353359237934 7.53327
51.7841004750961 7.564769999999999
51.80885018539685 7.55064
51.833602492111254 7.47964
51.8585508051424 7.48068
51.883308330926425 7.482810000000001
51.90806845906181 7.43883
51.932831191525715 7.4631
51.95779001977161 7.43744
51.98255798721516 7.411510000000001
52.00732856494335 7.366689999999999
52.03229530577543 7.34018
52.057071130455945 7.3562899999999996
52.081849571391054 7.353269999999999
52.106630630568695 7.34638
52.13160794279417 7.30398
52.15639426492067 7.27505
52.18118321127822 7.25705
52.205974783860896 7.26903
52.23096269971011 7.2637100000000006
52.255759551287994 7.25905
52.280559035098186 7.23482
52.30536115314103 7.199889999999999
52.33035970494467 7.213889999999999
52.35516711807904 7.184360000000001
52.37997717147198 7.1788
52.40478986713005 7.15902
52.42979908731974 7.14032
52.454617094216 7.1113
52.47943774942214 7.11671
52.50426105495102 7.09997
52.529280976059844 7.06635
52.554109609024096 7.08064
52.57894089837482 7.071439999999999
52.60377484613117 7.0371
52.62880550079408 7.029889999999999
52.65364479223379 7.0094899999999996
52.67848674816189 6.950760000000001
52.70352547971946 6.95493
52.72837279155837 6.93105
52.753222773982785 6.9415
52.778075429022984 6.97587
52.80312495150885 6.94314
52.827982978797436 6.91667
52.85284368481815 6.883539999999999
52.87770707160767 6.87115
52.90276741793998 6.833410000000001
52.92763619336701 6.82958
52.952507655698504 6.819
52.977381806977576 6.78273
53.00245301017842 6.819960000000001
53.02733256653592 6.80505
53.052214817996074 6.784789999999999
53.077099766608484 6.767710000000001
53.102181859804446 6.73913
53.127072229988265 6.78937
53.15196530349892 6.76445
53.17686108239249 6.691319999999999
53.20195409881522 6.68015
53.22685531582556 6.65734
53.25175924441303 6.629110000000001
53.27666588664027 6.64498
53.30176985962693 6.61429
53.3266819565689 6.6090800000000005
53.35159677336455 6.5978
53.376514312083096 6.606669999999999
53.40162927507703 6.53763
53.42655228516116 6.57084
53.45147802340193 6.5285
53.47660125628886 6.5247
53.50153247842639 6.5355300000000005
53.52646643496923 6.507280000000001
53.55140312799818 6.52709
53.576537409691696 6.4685
53.60147960336152 6.45421
53.626424539786164 6.4717
53.65137222105307 6.44995
53.67651758529126 6.414969999999999
53.70147078399681 6.3831
53.72642673383343 6.3754
53.75138543689533 6.3818
53.776541917524526 6.34394
53.801506154876755 6.343999999999999
53.826473151763246 6.33427
53.851442910284916 6.32302
53.87661054126026 6.355519999999999
53.9015858509782 6.30607
53.92656392866066 6.25619
53.95154477641532 6.276680000000001
53.976723591801296 6.25246
54.00171000771266 6.29179
54.02669920004598 6.2203599999999994
54.051691170915745 6.21823
54.076881204886796 6.1864099999999995
54.101878760928514 6.18624
54.12687910187696 6.1535
54.152077577768296 6.19114
54.1770835166946 6.15142
54.20209224691339 6.1607
54.22710377055121 6.11334
54.25231352511594 6.10825
54.27733066384342 6.08493
54.30235060239643 6.07647
54.32737334290836 6.0715699999999995
54.35259441062629 6.03212
54.377622783395324 6.023969999999999
54.40265396455061 6.00002
54.42768795623251 5.99753
54.45292037169559 5.96934
54.477960012857906 5.93909
54.50300247099511 5.9234599999999995
54.52804774825457 5.91469
54.55329154616743 5.875719999999999
54.57834249018678 5.90606
54.6033962597977 5.85873
54.6284528571545 5.81538
54.653708072335164 5.78576
54.67877035378786 5.7881599999999995
54.70383546947698 5.7336
54.72890342156389 5.80431
54.7541700889442 5.7571900000000005
54.77924374251975 5.70696
54.8043202390049 5.71016
54.82959552413022 5.65065
54.8546777351945 5.64321
54.87976279569621 5.59905
54.90485070780914 5.61271
54.930137506558005 5.56259
54.95523115074295 5.60804
54.98032765308844 5.55739
55.005427015775496 5.5353
55.03072536339621 5.53311
55.05583047570572 5.51224
55.080938454927676 5.44401
55.10604930325027 5.45682
55.131359235107396 5.50494
55.15647585066083 5.38499
55.181595341907496 5.38437
55.20671771104285 5.3694
55.232039262617704 5.37689
55.25716741665048 5.28108
55.28229845518636 5.30063
55.30743238042802 5.23653
55.33276558731939 5.23378
55.357905315183636 5.2368
55.383047936390035 5.16488
55.40819345314859 5.1650599999999995
55.433538351073295 5.11811
55.458689688238415 5.18084
55.483843927614096 5.07852
55.509197623043605 5.0746
55.53435769621134 5.05293
55.55952067826466 5.05565
55.5846865714265 4.97661
55.61005202069737 4.95446
55.63522376553902 4.97112
55.66039842818645 4.94996
55.68557601087004 4.936319999999999
55.7109532500271 4.86331
55.73613670233794 4.8999
