TT I
1.2716486653135266 7.07752
1.2939594142134223 6.879110000000001
1.3162702121660406 6.56453
1.3385810600174564 6.25183
1.3608919586137629 6.81082
1.383202908801069 6.50033
1.405513911425503 6.894819999999999
1.4278249673332093 6.21772
1.4501343378461518 6.33279
1.4724455028545926 6.00165
1.4947567236847858 6.0079
1.517068001182951 6.847689999999999
1.5393793361953272 6.42624
1.5616907295681737 5.37495
1.5840021821477681 5.36324
1.60631369478041 5.38178
1.6286252683124185 5.13171
1.6509369035901333 4.38756
1.6732468618895553 5.0999099999999995
1.695558623192809 4.37403
1.7178704487808514 5.6984900000000005
1.7401823395001077 5.5621
1.7625012545597203 4.85064
1.7848028405262486 5.1115
1.8071218901122095 5.03525
1.8294236121921872 4.704269999999999
1.8517427996910911 4.60842
1.8740620574440425 5.01315
1.8963639900671978 4.71991
1.9186833908139995 5.31635
1.9409854680117449 5.31692
1.9633050151394713 5.11888
1.9856246367570705 4.77688
2.0079269371922672 4.96408
2.03024671027244 4.53224
2.0525491637446027 3.8442800000000004
2.074869091674931 4.48642
2.097171701569106 4.81955
2.1194917877373847 5.49049
2.141811954326636 5.2965
2.164114805233074 5.03026
2.186435135143035 6.10964
2.208738150935709 16.6029
2.231058647554722 38.6244
2.2533792288321184 29.9359
2.275682498336085 13.1045
2.298003251406138 6.685560000000001
2.3203066942619714 6.54245
2.3426276225136022 5.81588
2.3649486396617507 5.18783
2.387252348930071 6.07559
2.4095735463442893 6.35754
2.4318774374315884 6.4608099999999995
2.4541988185014043 6.05307
2.476502894794693 6.99032
2.498824462909887 7.046689999999999
2.521146125856138 7.189080000000001
2.5434504863470337 7.256060000000001
2.5657723414244717 7.876339999999999
2.588076895590662 7.869789999999999
2.610398946189713 8.39123
2.6327210958598384 8.0852
2.6550259469304716 7.53217
2.6773482972090137 8.38504
2.6996533504259 8.3151
2.7219759047039602 8.57414
2.744298562293959 8.32462
2.7666039251246595 8.37247
2.7889267918020164 7.866439999999999
2.8112323652516555 8.28075
2.833555444408179 8.6346
2.8558786311183852 8.53028
2.8781845268938557 8.86665
2.9005079311721484 8.73408
2.9228140460410397 8.92028
2.9451376712799635 9.41031
2.967444008632326 10.1816
2.9897678582247247 9.872639999999999
3.0120918213106695 10.3692
3.0343984987899373 10.1608
3.0567226913198637 10.4933
3.079029599759726 11.5611
3.101354025127254 12.4461
3.123678568232338 12.5935
3.145985829517914 12.9787
3.16831061055229 13.7222
3.1906181112775593 14.0545
3.212943133635653 14.6202
3.2352682779763207 15.0918
3.2575761442691227 15.2468
3.2799015350264273 15.6869
3.302209649240067 16.4441
3.3245352898092655 16.9542
3.3468436553365257 17.6915
3.369169549113219 17.7112
3.3914955708171384 18.5811
3.413804319727358 19.2062
3.4361305997334863 19.3556
3.4584396084414553 19.9197
3.4807661501462652 20.3419
3.503092824025881 20.7599
3.5254022288463154 21.1239
3.5477291695206588 22.4062
3.5700388426251948 23.1162
3.5923660534916446 24.985
3.6146934007816114 45.0544
3.637003482731501 117.65299999999999
3.6593311053109985 135.61700000000002
3.681641464033634 73.8087
3.7039693653009733 34.0602
3.726297407241705 26.7025
3.7486081875460804 26.3089
3.7709365132734978 26.6883
3.793247578841633 27.2731
3.8155761917550093 27.5533
3.8378875459837216 27.3488
3.8602164494827234 27.8283
3.882545499606844 28.8492
3.9048572932539183 29.4673
3.9271866390645718 29.6311
3.9494987298666713 29.8952
3.971828374764527 30.6501
3.9941581705403255 31.285
4.016470713506008 31.9504
4.038800813471445 32.6644
4.061113662089144 33.3232
4.0834440696459176 34.2832
4.105774632334751 34.3705
4.128087945865126 35.1864
4.150418821249301 36.066
4.172732448931298 37.2592
4.195063640413578 39.698
4.2173775856475215 44.6656
4.239709096631102 84.9614
4.262040768704612 323.545
4.284355196706267 455.814
4.306687193387355 293.402
4.329001947444346 102.529
4.35133427213731 51.3458
4.373666762177566 45.4643
4.395982011761091 45.1556
4.418314834921175 46.7948
4.44063041906622 57.0546
4.4629635787515625 72.4605
4.4852969080429785 72.4682
4.5076130004776225 57.0452
4.529946671403969 51.0343
4.552263106909177 50.5637
4.574597122877047 51.2032
4.596931312711224 52.5719
4.619248269273446 53.5105
4.6415828092605835 54.3654
4.663900117405352 55.0765
4.686235010953232 56.7397
4.708552674085913 58.1345
4.730887924602802 59.611000000000004
4.753223354952695 60.445
4.775541557023902 62.3914
4.797877349456786 62.9829
4.820195915032126 65.4271
4.842532072957498 67.1084
4.864868414979744 69.0357
4.88718753227192 70.6282
4.909524244902505 72.7083
4.931843734218147 74.2767
4.954180820867835 77.172
4.976518095879839 79.9168
4.998838149695359 82.8602
5.021175803844231 86.00399999999999
5.043496238205739 89.2407
5.065834274903528 93.3346
5.088172504230693 98.1387
5.1104935158799565 104.41799999999999
5.132832132875765 130.597
5.155153533596801 188.419
5.1774925416746225 223.817
5.199814334878411 326.543
5.2221537374521505 897.3
5.244493338631803 2561.01
5.266815727034316 6970.93
5.289155727832427 12699.0
5.311478517248165 9401.13
5.333818921080011 3248.59
5.356159527788849 644.721
5.3784829252032536 197.47799999999998
5.400823940070432 148.141
5.423147747031976 130.533
5.445489173474152 120.311
5.467830807066149 113.979
5.490155234831516 109.537
5.512497285125229 105.98100000000001
5.534822130975162 104.322
5.557164601388673 102.066
5.579489868738879 98.9307
5.601832762690846 98.5815
5.6241758697774475 98.0129
5.646501775867269 96.9177
5.668845311622074 94.9942
5.691171647754637 93.9814
5.713515615597765 92.5256
5.735859800852677 91.5353
5.758186788542988 90.36200000000001
5.780531411018185 91.2303
5.802858837297399 90.4714
5.825203900414495 90.8333
5.8475491852224 90.5015
5.869877275883075 91.2935
5.892223006467101 92.5034
5.914551544266608 92.9007
5.936897724049891 95.1482
5.959244129804903 99.4571
5.981573344815301 114.03299999999999
6.0039202049061 184.521
6.026249875609095 403.912
6.04859719346037 880.345
6.070927323278297 1983.74
6.093275102315365 4270.15
6.115623113320588 5242.2
6.137953938319995 3521.99
6.160302415650845 1140.3
6.182633708324452 268.43
6.2049826554078376 120.131
6.227331838745022 94.975
6.249663839443684 86.6186
6.27201349767565 84.2249
6.294345974611799 94.0716
6.316696111167083 112.814
6.339046488263839 106.5
6.361379686074702 84.8272
6.383730546639482 73.4288
6.406064229255215 69.3138
6.428415576718203 68.4898
6.450749747566656 67.4419
6.47310158535871 66.7164
6.495453669698332 65.6078
6.517788579421056 65.2252
6.540141159237969 64.335
6.562476565766648 63.8144
6.5848296444934045 63.6014
6.607182974060425 62.9743
6.6295191323281015 63.4753
6.651872965955752 68.2404
6.6742096296068985 104.35600000000001
6.6965639707294615 173.93599999999998
6.71891856698715 178.91299999999998
6.741255995248479 114.75
6.763611104154477 73.6787
6.785949046381137 61.9905
6.808304671371482 59.1835
6.8306605557940046 59.0146
6.852999275508618 58.1349
6.875355681171544 57.3932
6.897694923437771 57.5315
6.92005185377892 57.5432
6.9423916220322655 56.9302
6.964749080490181 56.33
6.987106804399774 56.251999999999995
7.009447368180821 55.9455
7.031805625367033 56.4706
7.054146723727803 56.1848
7.076505517631004 56.0169
7.098864581288365 55.8574
7.121206488070854 55.6913
7.143566093607822 55.4516
7.165908543567245 56.3399
7.188268694426048 56.0655
7.2106291193438095 56.817
7.232972390625943 58.5158
7.255333366030969 74.8211
7.277677189091925 151.338
7.300038718428332 228.167
7.322400526130865 192.424
7.344745183422596 108.368
7.367107550224791 66.467
7.389452767901992 57.9451
7.411815697249891 56.5956
7.434161478756298 55.3095
7.456524974096713 55.1282
7.478888753837185 55.0855
7.501235387657368 55.5405
7.523599738562711 54.9269
7.545946944825532 55.5542
7.568311870344528 55.7916
7.5906770845765665 56.1002
7.613025156078678 58.1864
7.635390950099687 59.9748
7.657739602662809 58.5416
7.680105979923558 56.684
7.702472650212829 56.6742
7.724822180948224 56.1839
7.747189439655568 56.4951
7.769539560075357 56.2191
7.791907410653562 56.9512
7.81425812420825 56.9005
7.836626570110925 57.2017
7.858995315087906 57.9834
7.881346924933401 58.2437
7.903716270417482 58.7369
7.926068482028405 58.9117
7.948438431475253 59.4514
7.9708086843180235 60.1828
7.993161805171116 60.8435
8.015532667162402 60.9669
8.037886398416653 61.8431
8.060257873014221 62.3524
8.082629655331942 62.9116
8.104984308787587 64.1447
8.127356708900503 68.3948
8.149711981398308 76.3492
8.172085002766314 79.8615
8.194458336181368 74.8918
8.216814543847752 70.3121
8.23918850371002 69.4685
8.26154533906492 70.2345
8.283919928836452 71.7628
8.306277395339652 72.709
8.328652618483376 73.8916
8.351028159736202 75.5379
8.373386579575245 77.782
8.395762759396959 79.9841
8.418121819038275 85.7288
8.440498640894003 102.68799999999999
8.462875785192262 122.11399999999999
8.485235811156207 129.624
8.507613602688501 155.577
8.529974277114228 232.081
8.552352719347912 356.94599999999997
8.574731488360351 591.664
8.59709314210385 1069.11
8.619472567021075 1759.64
8.64183487789147 2170.52
8.664214962183097 1950.66
8.686577933647762 1052.88
8.708958680784317 420.389
8.731339760774953 180.753
8.753703729764451 114.705
8.77608547780821 100.469
8.798450116065078 96.2767
8.820832535634787 93.2337
8.843215292401656 91.4206
8.865580941199045 89.6244
8.887964374703538 88.6138
8.910330701447199 90.5083
8.932714815164482 94.4198
8.955099270424924 94.0223
8.977466620733543 89.2865
8.999851761421976 85.6502
9.022219798361645 83.6734
9.04460562795561 83.3848
9.066991803441677 82.9677
9.089360876979615 82.6181
9.111747746589993 82.3984
9.13411751544971 81.8905
9.156505082664324 81.7626
9.178875550323522 81.9787
9.20126381862328 82.6195
9.223652438908596 83.0081
9.246023961427412 82.6414
9.26841328802173 81.8659
9.290785518039224 81.6803
9.313175554425882 82.2844
9.335565947154315 82.4181
9.357939245086508 82.8979
9.380330352834827 82.5163
9.40270436697103 82.8555
9.425096193225055 82.7037
9.447488380180165 83.7892
9.469863475295412 84.2065
9.492256385987508 84.4588
9.514632206018318 84.8226
9.537025843935714 85.1939
9.559402392368193 85.8117
9.581796761000229 86.8134
9.604191496441521 87.9807
9.626569144158516 92.8086
9.648964615551032 99.4438
9.671343000390081 101.93700000000001
9.693739211225699 98.3242
9.716135793237463 94.4239
9.738515290448102 93.4617
9.760912617143402 93.9229
9.783292860202891 95.1319
9.805690935076182 96.0081
9.828089385495742 96.9772
9.850470754023561 99.5307
9.872869957865444 109.285
9.89525208097539 129.974
9.917652041736662 148.507
9.940052382417589 145.593
9.962435644102392 141.141
9.984836746950979 165.38400000000001
10.007220771957746 222.25
10.029622640473708 313.144
10.052007432299963 475.463
10.074410069984072 737.9760000000001
10.096813093716005 1154.9
10.119199042482517 1657.58
10.141602840636468 1958.37
10.163989564971628 1691.52
10.186394141051062 988.438
10.208799107559706 458.501
10.231187001965623 212.085
10.253592751657669 132.5
10.275981430388155 115.787
10.298387966769793 115.89299999999999
10.320794897965431 120.34
10.343184759907361 119.971
10.36559248305461 111.854
10.387983138083852 106.064
10.410391656691655 105.964
10.432800574501677 114.199
10.455192425893369 129.237
10.47760214443012 152.127
10.499994797678786 190.021
10.522405320453982 260.623
10.54479877906917 362.653
10.567210109595656 483.43699999999995
10.5896218454736 571.8340000000001
10.612016518879773 532.415
10.634429067781074 377.62199999999996
10.656824555333241 222.19400000000002
10.679237920773568 134.67700000000002
10.701651695961992 99.4947
10.724048411481384 90.4396
10.746463008485165 86.8034
10.768860546937125 85.0301
10.791275969274796 83.348
10.81369180576079 82.3339
10.836090585366925 81.089
10.858507252467449 80.1601
10.88090686379991 79.3559
10.903324365036394 79.0544
10.925724811614439 79.0739
10.948143150509463 81.2515
10.970561909719066 80.642
10.992963615930844 78.1442
11.015383218085756 75.19
11.037785768347074 73.7206
11.06020621697282 73.0844
11.082627090322113 72.5202
11.105030913430326 72.0963
11.12745263854165 72.9152
11.149857314510728 78.4876
11.172279894912576 87.5344
11.194702904450653 89.6461
11.217108866490921 83.9484
11.239532736615194 77.6075
11.26193956033512 73.9489
11.284364294577085 71.6262
11.306789462371718 69.1388
11.329197585398376 67.6063
11.351623622610898 67.2583
11.37403261614354 66.267
11.396459526308487 66.3085
11.418869393879497 65.8472
11.441297180532617 65.4164
11.463725406927658 65.2191
11.486136592353875 65.2149
11.508565700543707 65.8355
11.530977768845315 68.5559
11.553407762368774 70.4201
11.575838200059769 69.7074
11.598251599479612 66.8973
11.620682927815501 64.5503
11.64309721895548 63.8533
11.665529441478206 63.4895
11.687962112597958 63.0261
11.710377748130886 62.9394
11.732811318753434 62.9926
11.755227854859067 63.2951
11.777662328529495 63.4646
11.800079768750786 63.0144
11.822515149015453 62.8766
11.844950984084935 63.1389
11.867369787303163 62.6497
11.889806534289491 62.655
11.912226250487029 62.7233
11.934663912939751 63.004
11.9571020346363 63.0181
11.979523127133968 62.6977
12.001962169624331 63.4772
12.024384183972964 64.3512
12.046824150809913 66.9304
12.069264581333726 71.8141
12.091687985297767 77.8596
12.11412934550045 86.5539
12.136553680195208 100.31
12.158995973632788 119.47200000000001
12.181438735204349 145.072
12.20386447284199 174.50400000000002
12.226308172985636 202.775
12.24873485024193 209.104
12.271179492516982 176.327
12.293607112949127 138.395
12.316052700916226 104.939
12.338498763250042 84.2282
12.360927805303868 73.4589
12.383374818673879 68.2195
12.405804812803074 65.69800000000001
12.428252780773262 64.8596
12.45070122756722 64.5019
12.473132656675375 64.6677
12.49558206341869 64.6997
12.518014453510101 64.8154
12.540464823770117 65.0675
12.562915677315177 64.991
12.58534951575545 65.9221
12.607801338171472 68.3452
12.630236146511358 76.0188
12.652688941369085 83.4835
12.675124723177234 84.3078
12.697578494048786 78.6161
12.720032754458185 71.9254
12.742470003354093 68.8035
12.764925245138771 68.1809
12.787363476431278 68.2263
12.809819703166806 68.4538
12.83227642391173 69.1968
12.854716135692716 69.6639
12.877173846755147 70.7106
12.899614549869717 70.7645
12.9220732548287 71.5314
12.94453245827299 72.146
12.966974655289818 73.3239
12.989434858002571 73.8916
13.011878055298721 74.5572
13.034339260862497 75.3978
13.056800969391883 76.5735
13.079245674017244 78.3418
13.101708390774869 79.5789
13.12415410463411 85.5787
13.146617833206086 97.0109
13.169064559883248 108.566
13.191529303857127 121.742
13.213994557076367 142.417
13.236442809902437 174.843
13.258909083908291 222.544
13.28135835851934 283.16200000000003
13.30382565690295 352.93
13.326293469022952 420.36300000000006
13.348744283242008 439.152
13.371213125129904 383.81699999999995
13.39366497011003 287.952
13.416134845360597 191.172
13.438605238843131 131.21
13.46105863690397 107.709
13.483530069144786 104.34100000000001
13.505984506951902 108.46600000000001
13.528456981549432 116.62700000000001
13.550929978879088 129.745
13.573385983253365 150.966
13.595860028340867 184.63299999999998
13.618317081455832 232.363
13.64079217790333 285.34
13.663250283359057 335.792
13.685726434770173 373.056
13.708203115221277 351.865
13.730662806148091 287.262
13.75314054697177 201.196
13.775601299246777 137.17700000000002
13.798080104050406 100.806
13.820559442405358 86.58
13.843021793671388 82.2684
13.865502201420897 80.3343
13.887965623051947 79.6746
13.910447103807167 78.8737
13.932929122629764 77.2063
13.955394156785959 76.7204
13.977877254034569 76.0104
14.000343367582113 75.2621
14.022827546871707 74.4353
14.045294743423524 73.6051
14.06778000837062 73.1659
14.090265817715476 72.9823
14.112734645763819 72.8079
14.13522154619454 72.6021
14.157691466286913 72.9904
14.180179461423874 72.9733
14.202668005486178 72.0199
14.22513957064374 70.9018
14.247629214846473 70.7046
14.270101881097517 70.1585
14.29259262906496 70.6332
14.315083930490205 72.16199999999999
14.337558255389705 72.6813
14.360050666019726 72.3224
14.382526101071944 70.889
14.405019624534942 69.73
14.427513705993134 69.0036
14.449990813291825 68.7752
14.47248601302899 68.7563
14.49496423954951 68.7454
14.517460561197822 68.9525
14.539939910570322 68.4087
14.562437357763558 69.0741
14.58493536931253 70.7359
14.607416409993311 71.98899999999999
14.62991555254159 72.8947
14.652397725157423 72.78399999999999
14.674898002342799 71.5567
14.697398848433282 70.6381
14.719882725991326 70.7562
14.74238471217934 71.1245
14.764869730765593 74.211
14.787372860692983 77.0831
14.809876564079925 81.4133
14.83236330125751 86.4629
14.854868153850365 94.1657
14.877356041159485 105.89299999999999
14.899862046604186 122.699
14.922351087688757 145.671
14.944858249632887 172.544
14.967365991421232 199.111
14.989856770231246 218.49099999999999
15.012365673994204 221.47799999999998
15.03485761569738 196.572
15.05736768508665 158.178
15.07987833888692 122.01700000000001
15.102372032001655 94.7485
15.124883856909658 78.8421
15.14737872204565 73.1364
15.169891721717274 70.9826
15.192405310371893 71.0179
15.214901940621196 71.6004
15.237416709527137 72.3
15.259914520936249 72.5375
15.282430473753607 71.2321
15.304947020131227 70.1027
15.327446610371178 68.5977
15.349964346154254 67.5212
15.372465126703139 67.0286
15.394984055556009 66.5879
15.417486030076159 66.3497
15.44000615566487 66.205
15.462526881230803 66.1519
15.485030653812652 66.566
15.507552581617434 66.6047
15.530057557334603 66.6992
15.55258069104857 66.5391
15.575104429329837 66.4444
15.597611216864632 65.7353
15.620136166564563 65.7485
15.6426441664095 66.3272
15.665170331202765 68.017
15.687697105158826 70.831
15.710206930593545 74.4482
15.732734925158933 78.0428
15.755245972089478 83.5751
15.77777519094324 91.6412
15.800287463046663 103.71799999999999
15.822817909869592 120.175
15.84534897229804 139.829
15.867863089299354 162.549
15.890395385222186 183.99200000000002
15.912910736597423 195.364
15.935444269699861 188.19
15.957978423016485 165.511
15.980495633101265 133.35399999999998
16.003031029129367 103.52600000000001
16.02554948280019 80.5369
16.048086125229432 69.6777
16.070623392487107 66.5255
16.09314371869582 65.9906
16.11568223789321 65.2824
16.13820381691126 63.9098
16.160743591742527 62.5202
16.183283996022084 61.1754
16.205807461423195 59.9376
16.228349126881973 59.2028
16.25087385432698 59.2107
16.27341678466365 58.6303
16.29594277784926 58.6413
16.31848697676433 59.3157
16.341031811604868 59.8506
16.36355971058487 60.6374
16.3861058195587 60.3103
16.40863499352978 58.8418
16.431182380342005 57.4503
16.453730407713202 56.5084
16.476261501364792 55.9218
16.498810812136167 55.8703
16.52134319004079 55.9914
16.54389378792203 55.7003
16.566445031001553 55.4686
16.588979342490088 55.5089
16.61153187824822 55.2091
16.634067483263312 54.9716
16.656621315414416 54.9746
16.679175797408888 54.5338
16.701713349928728 54.7702
16.72426913389191 55.018
16.74680798922351 55.0965
16.76936507887444 55.1341
16.791905240734874 55.3292
16.814463639794468 54.8845
16.837022695210294 55.0548
16.859564824093756 55.613
16.882125194503903 56.3201
16.904668639217885 57.4171
16.927230328348003 58.0285
16.949792678493612 57.9294
16.972338104193863 56.8637
16.994901778652235 56.2037
17.017448529496576 55.773999999999994
17.040013531998152 55.7522
17.06257920018044 56.0145
17.0851279459922 56.7921
17.107694947817667 57.6073
17.130245028099072 58.3956
17.15281336730298 59.6781
17.17536478578733 61.1363
17.19793446610687 63.38
17.220504818648422 65.7714
17.243058251703697 68.7905
17.265629950971032 73.0762
17.288184731571736 77.7602
17.310757781306908 82.2801
17.33333150794385 84.5349
17.355888317140174 83.6206
17.37846339986244 79.139
17.401021565958885 72.5698
17.42359800851343 67.0746
17.44617513265564 62.8204
17.468735341390783 60.4694
17.491261035594565 59.276
17.51396340099364 59.2031
17.536490463869136 59.0864
17.559018209820174 59.3374
17.58154663977963 59.4379
17.604251766089718 59.5101
17.626781572227713 59.7142
17.64931206518155 59.9623
17.671843245885103 60.4461
17.69455114821572 60.8553
17.717083712612634 61.0725
17.739616967569667 61.2561
17.762150914021706 61.2049
17.78486160749854 61.0645
17.807396945166804 61.6566
17.829932977143503 62.2461
17.85246970436452 63.6456
17.875183204129467 65.2084
17.897721330097664 67.3233
17.920260154126645 69.5594
17.942799677153296 72.4627
17.9655159983646 75.7639
17.988056927677544 80.3681
18.010598558807683 87.1058
18.033140892692916 95.9505
18.05586005052525 105.98299999999999
18.07840379824407 117.331
18.10094825154059 129.03
18.12366954819864 138.266
18.146215420998306 141.724
18.16876200220057 135.031
18.191309292745153 121.775
18.214033452627167 106.664
18.236582170236648 93.9717
18.259131600016456 86.6092
18.281681742907335 85.2358
18.304408781233683 88.5827
18.32696035875955 93.5705
18.349512652227624 98.7555
18.372065662579683 103.75
18.394795594587553 106.634
18.41735004715306 105.26
18.43990521943684 99.5907
18.46246111238171 90.4739
18.485193953325208 79.885
18.507751296070428 71.8349
18.530309362314178 66.9065
18.552868153000343 64.0567
18.57560391815056 62.4865
18.59816416623245 61.9237
18.620725141597372 61.4052
18.643286845190268 61.0414
18.666025549835414 60.5459
18.688588718427933 59.9794
18.711152618092243 59.7036
18.73389353884365 59.5075
18.75645890921984 58.9164
18.77902501351406 58.6238
18.801591852673102 58.8268
18.824335739722738 58.202
18.846904057212626 58.2188
18.8694731124168 57.8081
18.89204290628315 57.806000000000004
18.914789774966803 57.7421
18.937361054791623 57.468999999999994
18.959933076131318 57.123999999999995
18.982505839934877 57.2488
19.00525570560582 57.588
19.027829963004184 57.2584
19.05040496572238 57.3817
19.072980714710468 57.0563
19.095733592739563 57.0607
19.11831084296757 57.5715
19.140888842324735 58.1275
19.16346759176222 58.338
19.18622349753803 58.9231
19.208803755869358 59.5735
19.231384767143577 60.4984
19.253966532312948 61.4535
19.276725481241822 63.4279
19.29930876296784 65.7757
19.3218928014549 68.5924
19.34465404436217 71.8643
19.36723960516257 75.5605
19.389825925592426 77.2178
19.412413006605938 77.0954
19.43517731967805 74.0272
19.457765930683355 69.6323
19.48035530514408 64.8253
19.50294544401556 60.2221
19.525712842708348 57.2349
19.54830451925909 55.7721
19.570896963095727 54.3955
19.593490175174704 54.0364
19.616260674962184 54.0338
19.638855432416964 53.7053
19.661450960992624 53.8698
19.68404726164677 53.7273
19.706820878021247 53.545
19.729418731756834 53.6872
19.752017360452857 53.3532
19.77461676506804 53.573
19.797393513540218 53.6005
19.819994478951667 53.8487
19.84259622316767 54.4098
19.8651987471481 54.9054
19.887978643247177 55.2401
19.91058273574792 55.3796
19.933187610901943 55.9325
19.955969879466828 56.9863
19.97857632894404 58.1628
20.00118356396599 59.6792
20.023791585494575 61.5758
20.046577028914875 64.2667
20.069186632506966 66.4627
20.091797025500632 68.5572
20.114408208858933 69.8742
20.137196842715273 70.0763
20.159809615886765 68.9596
20.18242318232135 66.2728
20.20503754298326 63.9304
20.227829382875154 62.5445
20.250445341109344 62.0005
20.27306209647285 62.1672
20.29567964993108 63.3902
20.31847471147704 64.4504
20.34109387027612 65.6019
20.363713830075454 65.8529
20.386334591841646 64.8898
20.409132890679302 62.6868
20.431755265564437 59.5927
20.454378445325528 56.5385
20.477002430930366 54.3463
20.499803982716553 53.0586
20.522429589228004 52.0947
20.54505600449589 51.622
20.567683229489194 51.4727
20.590488049900088 50.7024
20.61311690359731 50.5182
20.63574656993626 50.3084
20.658553853717297 49.8561
20.681185154618298 49.82899999999999
20.703817271080066 49.6249
20.72645020407368 49.3492
20.749260783967177 49.2531
20.771895359337133 49.1394
20.794530754161617 49.2495
20.817166969412938 49.0276
20.83998086114876 49.0179
20.86261872660049 48.8782
20.885257415405402 48.7983
20.90789692853701 48.7289
20.930714147864748 48.5574
20.953355319030678 48.574
20.97599731745334 48.553999999999995
20.99864014410749 48.6688
21.021460706796564 48.9326
21.044105199328826 48.918
21.06675052302631 49.1049
21.089396678865015 49.2877
21.112220600704806 49.5057
21.134868430275347 49.8333
21.15751709492456 49.9087
21.180166595629693 50.4936
21.202993892429635 50.7529
21.22564507473034 51.1701
21.24829709602816 51.3987
21.27112693608965 51.5892
21.293780644891275 51.8211
21.316435195634053 50.8821
21.339090589297417 50.3178
21.361923832041875 49.8738
21.384580921090404 49.2405
21.407238856007325 48.7917
21.429897637773326 48.6258
21.45273429906592 48.5539
21.475394784108598 48.4858
21.498056118951983 48.49100000000001
21.520718304578022 48.5498
21.543558400304388 48.4375
21.566222297108816 48.7799
21.58888704765135 48.9269
21.61155265291521 49.0697
21.63439619898156 49.5809
21.657063523335786 49.7573
21.67973170537063 50.2685
21.7024007460706 50.631
21.72524775840385 51.372
21.747918526116475 52.4123
21.770590155457388 53.3897
21.79326264741238 54.868
21.816113141960237 56.4374
21.838787368860547 58.1326
21.861462461341976 59.9627
21.884315579735777 62.041000000000004
21.90699241312273 63.5463
21.92967011506078 64.6219
21.95234868653799 64.9459
21.9752053151131 64.0816
21.997885635446785 62.3903
22.020566828293532 60.423
22.04324889464272 58.2175
22.066109049404666 56.7923
22.088792872571794 56.1405
22.111477572219204 56.3163
22.1341631493376 56.2847
22.157026846313123 56.4849
22.179714188221507 55.8043
22.202402410582668 54.7583
22.22509151438863 53.3703
22.24795876962584 52.1396
22.270649646204486 50.9039
22.293341407213727 50.0918
22.316034053646906 49.6963
22.338904883215342 49.2945
22.36159931041458 49.1926
22.38429462602756 49.1093
22.40699083104897 49.0782
22.429865251039757 49.2857
22.452563244831367 49.2238
22.47526213102522 49.1749
22.49813925616515 48.831
22.520839937143307 48.6968
22.543541513520587 48.7603
22.56624398629403 48.7029
22.589124730075895 48.6017
22.611829005656723 48.8472
22.63453418063466 48.7011
22.657240256008077 48.8435
22.680124634582935 49.0423
22.70283252079775 49.2747
22.725541310413075 49.5698
22.74825100442868 49.755
22.771139033969575 50.1289
22.79385054687155 50.2809
22.81656296718292 50.8177
22.83927629590484 51.5929
22.862167992606945 52.5579
22.88488314827121 53.5574
22.907599215359284 54.5162
22.93031619487366 55.8445
22.953211574954405 56.7643
22.975930389478226 57.8609
22.998650119445763 58.483000000000004
23.02137076586092 58.2303
23.044269845560063 57.0519
23.06699233506288 55.3369
23.089715744034912 53.5791
23.112617610931565 51.7402
23.135342869061212 50.5221
23.158069049684816 49.6419
23.1807961538087 49.1312
23.20370174880544 48.8796
23.226430710184808 48.9724
23.249160598093425 48.8953
23.271891413539002 48.8866
23.294800752937697 49.0013
23.31753343374794 49.0905
23.340267045128353 49.1576
23.36300158808808 49.3785
23.38591468821339 49.6471
23.408651104658304 49.985
23.431388455719986 50.6263
23.454126742409 51.3163
23.4770436196085 52.2981
23.499783787914662 53.5014
23.522524894889884 54.3124
23.54526694154616 55.5453
23.56818761219047 56.6671
23.59093154860734 57.6859
23.613676427751283 58.2678
23.636422250635754 57.7431
23.659346731118656 56.5781
23.68209445191868 54.7703
23.704843119509587 52.565
23.72759273490623 50.4186
23.750521041644767 48.7952
23.77327256312355 47.6228
23.796025035462787 46.9741
23.818956224555475 46.4317
23.841710609113413 46.1295
23.86446594758979 45.8788
23.887222241002014 45.7611
23.910157285144578 45.2418
23.932915498962537 45.2503
23.955674670778713 45.2947
23.978434801611975 44.9305
24.001373717286125 44.8301
24.024135776723917 44.8654
24.046898798245582 44.7332
24.06966278287146 44.7067
24.092605586582614 44.4956
24.115371508023642 44.3253
24.1381383956401 44.0842
24.16090625045381 44.1411
24.183852958731244 44.1477
24.206622758582608 44.1429
24.229393528706886 43.8111
24.252165270127392 43.9787
24.27511589952438 43.8311
24.297889594216997 43.5558
24.32066426328598 43.4389
24.34343990775613 43.4806
24.36639447485003 43.3382
24.38917208083877 43.3967
24.41195066531332 43.3907
24.43490819850244 43.3763
24.457688750692377 43.1006
24.48047028445616 43.0214
24.503252800821233 43.1046
24.526214300784112 43.1637
24.548998793132213 43.1562
24.57178427117417 43.0399
24.59457073593893 43.0927
24.617536219319863 43.0126
24.64032466834748 43.0501
24.663114107195035 42.9782
24.685904536893013 42.7377
24.708874020360852 42.665
24.731666442613744 42.5871
24.754459858818787 42.5773
24.777254270007962 42.571999999999996
24.80022777025625 42.4626
24.82302418230472 42.3961
24.845821592443674 42.2151
24.86862000170663 42.3156
24.891597535453727 42.1487
24.914397953892728 42.3054
24.93719937456671 42.2233
24.96000179851076 42.3311
24.98298338249997 42.4652
25.00578782394922 42.6534
25.028593271784167 42.8494
25.05157790644186 43.2313
25.07438537804115 43.3277
25.097193859145293 43.4246
25.120003350792075 43.7324
25.142992065061257 44.0404
25.165803588823465 44.4013
25.18861612625217 44.5858
25.211429678386736 44.6586
25.234422489079968 44.8591
25.257238081693636 44.7429
25.280054692141732 44.98
25.3028723214652 44.9379
25.325869245420463 45.0799
25.348688923599397 45.1042
25.371509623787006 45.1624
25.394331347025812 44.937
25.41733240110666 44.4688
25.440156181590016 43.9405
25.46298098826268 43.5642
25.48580682216873 42.8935
25.50881202326435 42.3112
25.53163992281684 41.7217
25.55446885274561 41.4405
25.577298814096377 41.1388
25.600308179121807 41.0586
25.623140214533745 41.0763
25.64597328451537 40.9811
25.66898578564376 40.7716
25.691820936010206 40.7024
25.714657124097695 40.6357
25.737494350954734 40.6654
25.760511045684957 40.5906
25.783350361364224 40.711
25.806190718969255 40.6717
25.82903211955018 40.7553
25.852053024868923 40.6605
25.874896522722523 40.7602
25.897741066713106 40.7906
25.920586657892454 40.8331
25.943611790812668 40.9152
25.966459487728237 40.9143
25.989308234998564 40.9774
26.01215803367705 41.3423
26.03518741123814 41.5341
26.05803932412957 41.5591
26.080892291600094 41.6383
26.10374631470478 41.6624
26.12677995397268 41.8134
26.14963609978026 41.8612
26.172493304397875 41.6417
26.19535156888223 41.4421
26.218389486949604 40.9735
26.241249882640123 40.7298
26.26411134137826 40.467
26.28715248187403 40.3732
26.31001607820869 40.1956
26.3328807407756 40.1289
26.35574647063438 40.2606
26.37879191991473 40.1481
26.401659795896734 40.2683
26.424528742360263 40.336
26.447398760366614 40.5024
26.470448535598294 40.6366
26.49332070826805 40.7723
26.516193955675355 41.0305
26.53906827888316 41.2213
26.562122397260108 41.4918
26.584998883685063 41.701
26.607876449110325 41.9063
26.63075509460056 42.0847
26.65381357334404 42.2465
26.67669439061878 42.3333
26.699576291163382 42.2804
26.722459276044212 42.1955
26.745522132402975 41.9157
26.768407297649354 41.6135
26.791293550442003 41.1553
26.814180891848974 41.0627
26.837248143099337 40.6748
26.860137673466657 40.5219
26.88302829566349 40.47
26.90592001075963 40.2412
26.92899167420566 40.0491
26.951885586870763 39.7188
26.974780595655517 39.4907
26.99785558178161 39.3653
27.020752794605112 39.1802
27.043651106772522 39.0055
27.06655051935668 38.9839
27.089629948036183 38.8773
27.112531573292053 38.7794
27.135434302194138 38.7851
27.158338135817015 38.6037
27.181422024430987 38.7474
27.204328079372566 38.6863
27.22723524226965 38.6989
27.250143514198573 38.8684
27.273231880156334 38.6772
27.296142382065014 38.5468
27.319053996245536 38.4797
27.341966723775965 38.5471
27.365059584515222 38.5553
27.38797455070062 38.5793
27.410890633481237 38.4453
27.433807833936918 38.4805
27.456905206923906 38.5806
27.47982465472398 38.5899
27.502745223449743 38.5983
27.525666914182825 38.679
27.548768816912457 38.6698
27.571692763693633 38.6562
27.59461783573812 38.5033
27.617723149491244 38.3243
27.640650484125285 38.2063
27.66357894728264 38.2441
27.686508540048052 38.1763
27.709618414237887 38.0715
27.732550278321757 37.9611
27.755483275279115 37.833
27.778417406196485 37.9821
27.801531858397514 37.9685
27.824468269376716 37.8959
27.847405817586786 37.8914
27.870344504116094 38.0757
27.893463551932008 38.1488
27.916404527281053 38.3193
27.93934664422563 38.295
27.962289903855886 38.3579
27.98541356491974 38.5909
28.00835912214229 38.6194
28.03130582533231 38.9169
28.054253675581805 39.1885
28.077381967556104 39.1643
28.100332124185126 39.1275
28.123283431160893 39.0971
28.146235889577238 39.0072
28.169368830154156 38.8025
28.192323603752033 38.6449
28.215279532083304 38.4276
28.238415973016764 38.2159
28.261374223145094 38.0534
28.284333631303806 37.8592
28.307294198589954 37.6841
28.330435319167677 37.3832
28.353398217078915 37.1151
28.376362277420153 36.9708
28.39932750129032 36.7785
28.422473319286713 36.5636
28.44544088262495 36.4829
28.468409612800283 36.4424
28.491379510913497 36.1644
28.51453004413313 36.1435
28.53750229057244 36.0755
28.56047570826344 36.0912
28.583450298308804 36.0314
28.606605564586562 35.6739
28.629582511831156 35.7768
28.65256063474956 35.7917
28.675539934446338 35.7341
28.698699951647605 35.7443
28.72168161743193 35.5942
28.74466446331978 35.6369
28.767648490417624 35.6304
28.790813276438353 35.6223
28.813799678527303 35.5596
28.836787265157085 35.499
28.859955641890075 35.5762
28.882945610203045 35.5056
28.905936766392035 35.3694
28.928929111566863 35.5271
28.952102288520145 35.4359
28.975097024308607 35.2724
28.998092952423807 35.1874
29.021090073977508 35.0942
29.04426806913204 35.0841
29.067267590245258 34.8417
29.090268308143695 34.7649
29.11327022394099 34.7724
29.13645305530891 34.5052
29.159457379627167 34.4676
29.18246290519685 34.5164
29.20546963313352 34.4197
29.22865731875826 34.4662
29.25166646419296 34.4303
29.27467681535305 34.4117
29.29768837335608 34.3997
29.320880931312562 34.3518
29.34389491580634 34.3408
29.366910110507334 34.2832
29.38992651653503 34.3189
29.41312396492981 34.4133
29.436142806456754 34.2027
29.45916286268059 34.1533
29.48236399319994 34.1221
29.50538649169417 34.0961
29.528410208259935 33.9604
29.55143514402014 33.6056
29.574641196749695 33.5375
29.597668583816574 33.4642
29.6206971934585 33.2694
29.64372702680042 33.29
29.666938019934474 33.1429
29.689970313635285 33.0555
29.713003834422636 32.9131
29.73603858342347 33.0285
29.759254535188578 32.9852
29.78229175361658 32.9301
29.80533020365064 33.0595
29.82836988641968 33.0897
29.85159081507472 32.9425
29.874632976355343 32.8146
29.89767637376955 32.8376
29.920721008448314 32.7331
29.9439469322847 32.7054
29.96699405457564 32.6251
29.9900424175358 32.729
30.013092022298157 32.6569
30.03632295963995 32.5257
30.059375061131373 32.5586
30.08242840783577 32.686
30.105483000888153 32.6053
30.128718970092244 32.5445
30.151776069006917 32.4738
30.17483441768648 32.5161
30.198074175317235 32.5284
30.221135036724256 32.5181
30.24419715131772 32.5133
30.267260520236203 32.4342
30.290505341942243 32.4099
30.313571232750228 32.5068
30.336638381310948 32.4156
30.35970678876503 32.3806
30.38295669299435 32.358000000000004
30.40602763151657 32.2714
30.429099832366074 32.2028
30.452173296685572 32.2624
30.47542830191959 32.1759
30.498504306502497 32.1501
30.521581577995562 32.1782
30.544660117543582 32.2157
30.56792024229725 32.2552
30.59100133132069 32.2255
30.614083691845494 32.1729
30.637167325018545 32.2347
30.660432587840603 32.3408
30.683518779717886 32.1979
30.70660624769615 32.3601
30.729694992924372 32.3147
30.75296541239743 32.4206
30.77605672557558 32.2836
30.799149319462742 32.1751
30.8224236211637 32.1133
30.845518789950724 31.9281
30.868615242910597 31.9929
30.891712981195973 31.8207
30.91499247215866 31.7774
30.938092794619365 31.7496
30.96119440587579 31.6791
30.984297307082752 31.3826
31.00758200598383 31.4216
31.030687500658694 31.3513
31.053794288760695 31.3161
31.076902371446767 31.124000000000002
31.100192296997445 31.213
31.12330298246119 31.0898
31.14641496599209 30.945
31.169528248749216 31.022
31.19282341969534 30.9267
31.215939314557186 31.0335
31.239056512134788 31.0636
31.262175013589378 30.9781
31.28547544871168 30.9487
31.30859657161541 30.9521
31.331719001892175 31.026
31.35484274070538 31.0277
31.378148458819545 31.0584
31.401274828443725 31.0564
31.424402510106933 30.9868
31.447712205419993 31.0712
31.470842524931633 30.9301
31.493974159989783 31.0041
31.51710711176168 30.9424
31.54042212308802 30.9101
31.563557722100917 30.9014
31.586694641341655 30.7625
31.609832881979628 30.6628
31.63315322823208 30.5859
31.656294125521327 30.531
31.679436347728515 30.487
31.70257989602529 30.3951
31.725905596152327 30.3173
31.74905181052835 30.2654
31.772199354521323 30.2973
31.79534822930507 30.2612
31.818679302290967 30.2482
31.84183085259981 30.2511
31.864983737233473 30.2027
31.88813795736804 30.2262
31.911474422233013 30.05
31.934631327356435 30.1051
31.9577895715215 30.0976
31.980949155906522 30.138
32.004291031706956 30.2143
32.027453310562606 30.0893
32.05061693318573 29.9894
32.07396288236386 30.0273
32.09712920658542 29.9092
32.12029687812702 29.8201
32.14346589817093 29.7024
32.166817291729984 29.6515
32.18998902288583 29.6167
32.21316210610336 29.4877
32.23633654256711 29.4114
32.259693399663725 29.329
32.282870556771144 29.3223
32.30604907069099 29.2725
32.329228942610065 29.2301
32.35259128243769 29.1818
32.375773884550505 29.0772
32.398957848235646 29.1052
32.422143174682176 28.9625
32.445511016471215 28.9241
32.468699082679954 28.8632
32.49188851523011 28.7818
32.51507931531304 28.7002
32.538452678331 28.8168
32.56164622776311 28.7436
32.58484114831493 28.6526
32.60803744118015 28.6755
32.631416344731896 28.5554
32.654615396551876 28.6112
32.67781582427913 28.5707
32.701198898634416 28.4601
32.72440209253756 28.4087
32.747606665947124 28.4485
32.77081262006088 28.3028
32.79420126883317 28.258000000000003
32.81740999876112 28.2674
32.840620112999424 28.1517
32.86383161274818 28.1227
32.88722585534586 28.0994
32.91044014056596 28.1154
32.933655814909734 28.0572
32.95687287957963 28.0839
32.98027273544904 28.0264
33.00349259526636 27.9718
33.026713849030116 28.0153
33.04993649794511 27.9764
33.073341986570746 27.9681
33.09656744032826 27.8957
33.11979429286444 27.8791
33.14302254538647 27.8437
33.166433686291185 27.8252
33.18966475336992 27.7706
33.212897224069096 27.7104
33.23613109959831 27.6049
33.259547912343415 27.6282
33.2827846121627 27.686
33.306022720453775 27.5537
33.32926223842861 27.5299
33.352684742614166 27.5361
33.37592709463173 27.5147
33.399170859982064 27.4968
33.422597648419426 27.3173
33.44584425514446 27.2239
33.46909227885668 27.3132
33.4923417207723 27.1377
33.51577423505344 27.1929
33.539026528130385 27.1005
33.56228024307245 26.9724
33.585535381098246 26.9528
33.60897364093058 26.8522
33.63223163992385 26.8943
33.6554910656699 26.7623
33.678751919389796 26.859
33.702195944520106 26.7382
33.72545966903325 26.6359
33.74872482519663 26.6811
33.771991414233746 26.6967
33.79544122444841 26.5991
33.81871069412428 26.4769
33.84198160035767 26.4627
33.86525394437455 26.4492
33.88870955949969 26.4447
33.911984794020626 26.4244
33.93526147001624 26.4347
33.958539588715006 26.3032
33.98200102861669 26.1852
34.0052820477047 26.2007
34.02856451319451 26.2087
34.05203033759056 26.1798
34.07531571090147 26.1706
34.09860253431845 26.1048
34.121890809074316 25.9781
34.145362493118924 25.9865
34.16865368561615 26.0017
34.191946333164054 25.930999999999997
34.21524043699793 25.864
34.23871800066799 25.8946
34.26201503218366 25.7027
34.28531352370466 25.7297
34.30861347646881 25.712
34.33209693978188 25.6501
34.3553998301885 25.6516
34.378704185565205 25.5214
34.402010007152356 25.4482
34.42549939016683 25.4971
34.44880815937748 25.4041
34.472118398533134 25.3693
34.49543010887669 25.3795
34.51892543169198 25.3151
34.54224009966052 25.2298
34.56555624255917 25.3177
34.58887386163339 25.1662
34.61237514439016 25.0514
34.6356957311114 25.1093
34.65901779775809 25.0598
34.68252356662995 24.9902
34.705848608458616 25.0932
34.72917513396849 24.9498
34.75250314440949 24.9502
34.77601490857862 24.8757
34.799345904259795 24.8353
34.82267838863559 24.7982
34.846012362958525 24.82
34.869530142679984 24.8009
34.89286711232212 24.6919
34.91620557568269 24.644000000000002
34.93954553401677 24.6245
34.9630693495876 24.5485
34.986412313340814 24.5781
35.00975677584668 24.6052
35.033102738362956 24.5559
35.05663261012228 24.4672
35.0799815881786 24.5638
35.10333207003229 24.4363
35.12668405694369 24.3994
35.150220005273056 24.3765
35.17357501786656 24.3174
35.19693153931268 24.2647
35.220289570874385 24.2301
35.24383161619786 24.2465
35.267192683604904 24.2547
35.290555264930376 24.2092
35.314101899412165 24.1831
35.33746752422433 24.1262
35.36083466676374 24.2207
35.38420332829803 24.1348
35.407756095629054 24.0714
35.43112781085063 24.0525
35.45450104888391 24.0088
35.477875810999194 24.0135
35.50143473172161 23.921
35.52481255774625 23.9939
35.54819191167777 23.8875
35.57157279478914 23.8455
35.595137889488406 23.8951
35.61852184675279 23.8122
35.641907337029984 23.7179
35.665294361595684 23.7013
35.68886565090076 23.5952
35.7122557598848 23.6542
35.73564740699838 23.6324
35.759040593519934 23.5218
35.78261809810353 23.5595
35.80601437933051 23.4812
35.829412203814705 23.4317
35.85281157283719 23.4132
35.876395313415884 23.3973
35.8997977874528 23.2753
35.92320180988546 23.285
35.946790244133936 23.232
35.97019737933222 23.2414
35.993606066789866 23.2153
36.01701630779276 23.1872
36.04061101440684 23.1219
36.06402437852291 23.1409
36.08743930005611 23.1227
36.1108557802951 22.9727
36.13445678011326 22.9298
36.15787639383515 22.9494
36.18129757014299 22.938000000000002
36.20472031032821 22.9341
36.22832762423364 22.8006
36.25175350829375 22.7989
36.275180960119776 22.8087
36.298609981005924 22.8632
36.32222362992669 22.7491
36.34565580510207 22.7627
36.36908955323448 22.5945
36.39252487562093 22.4541
36.416144880530226 22.5588
36.43958336764275 22.5608
36.463023432914625 22.5274
36.486465077645676 22.4561
36.51009145956204 22.4562
36.53353627947859 22.4215
36.55698268276811 22.4068
36.58043067073321 22.4258
36.60406345072071 22.2928
36.62751462435344 22.2456
36.65096738658405 22.2369
36.67460498210655 22.1784
36.69806093788647 22.1497
36.72151848619297 22.1739
36.744977628333636 22.1702
36.76862165890998 22.0553
36.79208400512205 22.0188
36.81554794910557 22.0388
36.83901349217101 21.9229
36.862663978991606 21.8813
36.88613273667352 21.9191
36.90960309738324 21.956999999999997
36.933075062434064 21.8962
36.95673202673572 21.8218
36.98020721697122 21.7499
37.003684015502365 21.7348
37.027162423645365 21.6726
37.050825886711465 21.6748
37.07430753063053 21.6039
37.09779078812467 21.5942
37.121275660513014 21.5913
37.144945643673694 21.5641
37.16843376245278 21.4897
37.19192350009803 21.5129
37.215414857931435 21.3986
37.239091382563885 21.3603
37.262585997426164 21.3626
37.28608223645736 21.3499
37.309763684451696 21.2772
37.33326318851098 21.2611
37.356764320726555 21.2123
37.380267082425526 21.2216
37.40395510942588 21.1758
37.42746114683234 21.1116
37.45096881771841 21.092
37.474478123414166 21.1138
37.49817275092816 21.0347
37.52168534303452 21.0692
37.54519957395567 20.9707
37.568715445024665 20.9034
37.592416694607714 20.8997
37.61593586281424 20.9225
37.63945667518264 20.9044
37.66297913304891 20.798000000000002
37.68668702630454 20.7795
37.710212792059274 20.6718
37.733740207334854 20.678
37.757269273470364 20.6304
37.780983832050374 20.6543
37.80451621684926 20.5623
37.82805025654007 20.5404
37.851585952464795 20.4963
37.8753071980695 20.4988
37.89884622345676 20.4103
37.92238690911902 20.4188
37.94611318753442 20.4207
37.969657210779765 20.3755
37.99320289834801 20.3298
38.016750251586465 20.354
38.04048325513017 20.243
38.06403395679343 20.1692
38.087586328183946 20.2114
38.11114037065203 20.1491
38.13488012115898 20.1482
38.1584375229181 20.1084
38.181996599821 20.0339
38.205557353221124 19.9956
38.229303872575656 20.0546
38.2528679961576 19.9977
38.27643380031219 19.9451
38.30000128639589 19.9276
38.32375459653193 19.9102
38.34732546371299 19.9562
38.37089801690786 19.8221
38.39447225747609 19.7946
38.418232380377425 19.8203
38.441810012983396 19.7104
38.46538933705673 19.6849
38.488970353960084 19.6785
38.51273731166058 19.7192
38.536321731567014 19.6038
38.55990784840681 19.6004
38.58367995004091 19.5516
38.60726947812959 19.445
38.63086070726198 19.499000000000002
38.654453638806274 19.4932
38.678232613930824 19.4715
38.70182896773327 19.3215
38.72542702806741 19.2989
38.7490267963045 19.2977
38.77281266709232 19.2484
38.79641586862214 19.2619
38.8200207821842 19.2347
38.843627409152944 19.2279
38.86742019782782 19.1958
38.891030269149255 19.1861
38.914642058016156 19.1085
38.938255565806124 19.0982
38.96205529464307 19.0241
38.98567225787121 19.054000000000002
39.00929094417078 19.0241
39.03291135492255 18.9974
39.05671804624804 18.9552
39.080341923549106 18.8847
39.103967529460334 18.8918
39.127594865365744 18.882
39.15140854155791 18.7986
39.17503935514948 18.7908
39.19867190290282 18.7487
39.22249083587951 18.7575
39.24612686969409 18.7533
39.269764641845306 18.7413
39.293404153722804 18.6673
39.317230110864074 18.6583
39.34087311998506 18.5522
39.36451787301696 18.5524
39.388164371352595 18.5035
39.41199737518003 18.4658
39.43564738196752 18.4756
39.45929913825317 18.4004
39.48295264543308 18.3951
39.506792718520884 18.3345
39.530449745387216 18.3429
39.55410852735203 18.3337
39.57776906581474 18.3591
39.60161623079 18.2907
39.625280300200025 18.1908
39.64894613032202 18.1338
39.67261372255866 18.1919
39.6964680021016 18.129
39.72013913657293 18.1559
39.74381203738292 18.1326
39.76748670593756 18.1072
39.79134812278169 18.0126
39.81502634488497 18.0131
39.83870633896685 17.9975
39.862388106436654 18.0084
39.88625668336918 17.9229
39.90994201572829 17.9072
39.933629125719285 17.8344
39.957503091207826 17.8019
39.9811937746168 17.9023
40.00488623990914 17.845
40.02858048850006 17.7279
40.05246165409549 17.7211
40.076159487492085 17.6744
40.099859108448875 17.6734
40.123560518384345 17.6212
40.1474489070226 17.6328
40.171153913178564 17.5529
40.194860712584955 17.5353
40.2185693066637 17.5748
40.242464941335314 17.4653
40.26617714307655 17.4483
40.289891143772046 17.4548
40.3136069448471 17.4136
40.33750984859743 17.3685
40.3612292688043 17.3649
40.3849504936829 17.3596
40.40867352466194 17.2613
40.43258372059144 17.311
40.45631038219906 17.3147
40.48003885420956 17.2112
40.503769138055105 17.2372
40.52768664931955 17.1707
40.55142057531802 17.1991
40.57515631746428 17.0644
40.599079334038514 17.0244
40.62281872700477 17.000999999999998
40.64655994043941 17.0405
40.67030297578061 16.9733
40.69423334835778 16.9586
40.71798004609188 16.9523
40.74172857006355 16.9209
40.76547892171441 16.9185
40.7894166736039 16.9264
40.813170699248566 16.7778
40.83692655691388 16.8094
40.86068424804498 16.8259
40.884629402612525 16.7901
40.908390779366385 16.8159
40.932153993938 16.7535
40.95591904777605 16.7018
40.979871628443995 16.6715
41.003640379561936 16.6532
41.02741097430883 16.5832
41.05118341413683 16.6083
41.075143444384416 16.5799
41.098919593177826 16.5353
41.1226975914255 16.5003
41.14647744058318 16.4899
41.170444943946755 16.4594
41.19422851378379 16.4309
41.218013938914645 16.3643
41.24198706625173 16.3275
41.26577622087193 16.2598
41.289567235177785 16.25
41.31336011063129 16.3024
41.337340752422875 16.2686
41.361137369129835 16.2701
41.38493585138705 16.2071
41.40873620066004 16.1359
41.43272438060107 16.0827
41.45652848292052 16.1412
41.48033445666918 16.0753
41.50414230331616 16.0487
41.528138045159764 16.0504
41.551949656675205 15.9706
41.575763145513235 15.9518
41.59957851314666 15.9108
41.62358184070442 15.9382
41.64740098505737 15.9077
41.6712220126409 15.8481
41.69504492493139 15.8353
41.71905586207357 15.7605
41.74288256296395 15.7531
41.766711153007456 15.7664
41.79054163368412 15.7205
41.814560204340054 15.695
41.838394485526365 15.7231
41.86223066180303 15.6867
41.88625497706819 15.6405
41.910094962812 15.6435
41.93393684811168 15.5917
41.95778063445365 15.5175
41.981812625263366 15.4855
42.00566023303407 15.4736
42.029509746323676 15.4814
42.05336116662236 15.4491
42.077400857069705 15.4433
42.10125611078846 15.4035
42.12511327600405 15.3655
42.14897235421036 15.3734
42.173019768448455 15.309000000000001
42.19688269209613 15.285
42.22074753323349 15.2917
42.24461429335818 15.2544
42.268669455600495 15.2245
42.292540073217886 15.2029
42.31641261433284 15.2083
42.34028708044675 15.1142
42.36435001496739 15.0956
42.38822835065557 15.1559
42.41210861586426 15.0944
42.4359908120986 15.0893
42.46006154323262 15.0267
42.48394762115317 15.0091
42.507835634632315 14.9823
42.531912233047436 14.9022
42.55580413732265 14.913
42.579697981698 14.8592
42.60359376768525 14.8834
42.62767820545945 14.8115
42.65157789440821 14.8302
42.67547952952185 14.8273
42.699383112316 14.8
42.72347541395347 14.6893
42.74738291190531 14.6529
42.771292362102166 14.6874
42.795203766063516 14.6123
42.819303956130405 14.6113
42.843219287476536 14.5982
42.86713657716324 14.6314
42.89105582671383 14.5844
42.91516392983864 14.5563
42.939087119032166 14.514000000000001
42.963012272677304 14.4963
42.98693939230129 14.4388
43.01105543317513 14.408
43.034986504731386 14.3986
43.05891954686589 14.4004
43.08285456110972 14.3752
43.10697856448665 14.3404
43.130917542983475 14.2835
43.15485849820081 14.3216
43.17880143167367 14.2572
43.20293342237094 14.213
43.226880332449 14.2503
43.25082922540554 14.24
43.27496722682525 14.1505
43.29892010567796 14.1663
43.32287497204102 14.1335
43.34683182745632 14.0576
43.370977859791836 14.0538
43.39493871351105 14.0253
43.41890156092628 13.9841
43.44286640358341 13.9929
43.46702049182749 14.0217
43.49098934522816 13.9763
43.51496019852649 13.9651
43.5389330532723 13.9462
43.56309522248204 13.8727
43.58707210044314 13.8484
43.61105098451946 13.8014
43.63503187626491 13.7814
43.659202151562134 13.7528
43.68318707902681 13.716
43.70717401884041 13.7072
43.731162972560874 13.6889
43.75534137913236 13.681
43.779334381108384 13.6597
43.803329401683186 13.6415
43.82732644241872 13.6157
43.8515130055166 13.6063
43.87551410707659 13.5666
43.89951723350145 13.5192
43.923709934595614 13.4669
43.94771713129917 13.4769
43.97172635758096 13.515999999999998
43.99573761501002 13.4856
44.0199385169922 13.4183
44.04395385732619 13.3842
44.067971233533086 13.4023
44.09199064718605 13.3667
44.11619977548961 13.3794
44.14022328470671 13.3234
44.16424883610785 13.3171
44.18827643127035 13.2627
44.21249381139513 13.2258
44.236525514814076 13.2071
44.26055926674478 13.1847
44.28459506876863 13.2216
44.3088207262813 13.1134
44.33286064928722 13.1428
44.35690262714919 13.1163
44.38094666145278 13.0674
44.4051806219871 13.0626
44.42922879003185 13.0054
44.45327901929361 13.0152
44.477331311362136 12.9935
44.501573600619416 12.9348
44.525630039221795 12.9479
44.54968854541895 13.0012
44.573937102200176 12.9824
44.5979997645541 12.8941
44.622064499300315 12.8515
44.64613130803592 12.8605
44.67038823869318 12.8067
44.69445921643748 12.7648
44.718532272981385 12.7567
44.742607409926194 12.7524
44.76687274034801 12.7609
44.79095205918753 12.6911
44.81503346325094 12.6365
44.839116954143876 12.652999999999999
44.86339071028742 12.6654
44.88747839599524 12.6359
44.91156817336837 12.6273
44.93566004401666 12.6088
44.959942251908146 12.5757
44.984038330325966 12.5103
45.00813650686762 12.463
45.03223678314731 12.492
45.05652746888232 12.4671
45.08063196592069 12.4255
45.104738567558705 12.4162
45.128847275414856 12.3837
45.15314646515866 12.3482
45.17725940679741 12.3173
45.20137445952892 12.2853
45.22568004865265 12.3255
45.24979934496396 12.2915
45.27392075725247 12.2692
45.29804428714431 12.2776
45.322358426247604 12.2382
45.346486212804315 12.2014
45.370616121861914 12.2417
45.39474815505086 12.1508
45.41907087049246 12.0713
45.4432071734666 12.0766
45.46734560548283 12.0595
45.49148616817604 12.0673
45.51581748638564 12.0726
45.5399623320197 12.054
45.56410931325473 11.9875
45.58825843173002 12.0185
45.61259837920865 11.9399
45.636751793816 11.9152
45.66090735060093 11.8928
45.68506505120716 11.8884
45.7094136545275 11.8402
45.73357566449271 11.8879
45.75773982322992 11.8155
45.78190613238733 11.8115
45.806263418194064 11.7798
45.83043404997326 11.7707
45.85460683713677 11.7925
45.87897065658495 11.7501
45.90314777634752 11.6822
45.92732705646868 11.6766
45.9515084986045 11.6806
45.97588104735473 11.6247
46.00006683541565 11.6671
46.02425479047904 11.5941
46.04844491420549 11.567
46.0728262191024 11.5541
46.09702070211635 11.5346
46.12121735879483 11.5022
46.14541619080294 11.5178
46.169806278764455 11.5071
46.194009483459034 11.4719
46.21821486849841 11.4713
46.24242243555223 11.3897
46.266821333570014 11.3935
46.29103328674601 11.3477
46.31524742696538 11.366
46.33946375590237 11.3703
46.36387149104216 11.3214
46.38809221957392 11.2854
46.41231514186606 11.2587
46.436540259597464 11.2908
46.460956858999374 11.2282
46.48518638983522 11.2203
46.509418121166966 11.1996
46.533652054678114 11.1972
46.55807754555709 11.125
46.58231590571962 11.1351
46.60655647313217 11.1149
46.630988654873654 11.0831
46.655233659129024 11.0777
46.67948087571551 11.0796
46.70373030632484 11.0521
46.72817142736393 11.0531
46.752425308428684 10.9904
46.77668140861147 10.9832
46.80093972960865 10.9691
46.82538981736788 10.9078
46.849652602470904 10.9216
46.87391761349769 10.8714
46.8981848521493 10.835999999999999
46.9226439341274 10.8218
46.946915650573224 10.8207
46.97118959976749 10.8325
46.99546578341598 10.7726
47.019933887188216 10.755999999999998
47.04421456235744 10.7801
47.06849747711879 10.7356
47.09278263318286 10.7243
47.11725978640143 10.7021
47.14154944775105 10.6608
47.165841355555656 10.648
47.1901355115306 10.5955
47.214621741924994 10.6117
47.23892041698887 10.565999999999999
47.26322134538975 10.5383
47.28771440635075 10.546
47.31201986422527 10.552
47.33632758061436 10.527999999999999
47.360637557241866 10.5013
47.38513974410611 10.4721
47.40945426407847 10.4279
47.43377104948137 10.4413
47.45809010204344 10.3982
47.48260144275502 10.3914
47.506925052572285 10.3631
47.53125093475548 10.3409
47.55557909103813 10.3822
47.58009961361992 10.2945
47.60443234110732 10.2926
47.62876734791564 10.2711
47.65310463578333 10.2692
47.6776343683373 10.2455
47.7019762413987 10.207
47.72632040075572 10.1802
47.75066684815169 10.1909
47.77520581885936 10.1602
47.799556865477655 10.1826
47.823910205386 10.1738
47.84826584033272 10.1048
47.87281407745551 10.0751
47.89717432569297 10.0782
47.92153687423484 10.0743
47.94609208429692 10.0369
47.97045925671401 10.0322
47.99482873471275 9.998610000000001
48.01920052005013 9.94842
48.04376504619224 9.953660000000001
48.068141469543484 9.9619
48.09252020552573 9.947389999999999
48.11690125590099 9.91183
48.1414751266064 9.90049
48.16586082917454 9.88664
48.19024885144316 9.87693
48.2146391951793 9.84707
48.239222439012764 9.87838
48.26361744916137 9.75464
48.28801478610016 9.80459
48.31241445160131 9.794360000000001
48.337007097209366 9.72887
48.36141144338331 9.76167
48.38581812345755 9.70594
48.41022713920929 9.73333
48.434829215320704 9.70492
48.45924292604658 9.65121
48.48365897780325 9.67211
48.50807737237308 9.60069
48.532688907799276 9.60261
48.55711201168574 9.602039999999999
48.581537463754074 9.59716
48.60615611725119 9.61474
48.63058628942721 9.54605
48.65501881516546 9.547930000000001
48.6794536962573 9.51425
48.70408185970339 9.47896
48.72852147531801 9.48276
48.75296345168211 9.46759
48.77740779059232 9.476460000000001
48.80204549302823 9.43865
48.82649458091802 9.42201
48.85094603676547 9.3831
48.87539986237231 9.36732
48.90004713292306 9.349039999999999
48.92450572200832 9.35637
48.94896668628025 9.32797
48.97343002754588 9.30772
48.99808689542115 9.25545
49.02255501470614 9.29434
49.04702551642794 9.24165
49.0714984023988 9.20175
49.096164896893235 9.18878
49.120642575466796 9.1756
49.145122643748394 9.15178
49.16960510355558 9.17763
49.19428125404938 9.14148
49.2187685210852 9.098130000000001
49.243258185121555 9.08201
49.26794160167084 9.06742
49.2924360839405 9.1001
49.31693296869764 9.058539999999999
49.34143225776915 9.038839999999999
49.36612538195438 9.02311
49.39062950396021 9.02882
49.41513603578346 8.98223
49.4396449792564 8.96152
49.46434784069503 8.965689999999999
49.488861631846454 8.9133
49.513377840166804 8.91245
49.537896467493745 8.867180000000001
49.56260909589029 8.85803
49.587132585683285 8.8711
49.611658500018365 8.833969999999999
49.636186840738596 8.83739
49.66090926588511 8.83029
49.685442483902584 8.80033
49.70997813385706 8.75859
49.734516217597076 8.73207
49.75924846937352 8.719380000000001
49.7837914452858 8.74339
49.80833686055187 8.69915
49.83288471702571 8.69975
49.85762682540054 8.67758
49.882179588965734 8.64823
49.9067347993235 8.64682
49.93129245833333 8.62942
49.95604445336378 8.63696
49.98060703442832 8.599160000000001
50.005172069746266 8.59808
50.02993150438364 8.56277
50.05450147301533 8.55154
50.07907390151433 8.536539999999999
50.10364879174981 8.52224
50.12841816587289 8.46472
50.1529980044635 8.48974
50.17758031042124 8.44951
50.20216508562089 8.435780000000001
50.22694442953363 8.43943
50.25153416817468 8.40498
50.27612638170508 8.42005
50.300721072005196 8.356910000000001
50.325510416102105 8.36703
50.350110084975064 8.38716
50.37471223628208 8.38236
50.39931687190919 8.35192
50.424116246675766 8.32615
50.44872587605249 8.27467
50.47333799543065 8.27399
50.49795260670191 8.22609
50.52276204271512 8.1855
50.54738166295838 8.22305
50.57200378079314 8.21135
50.596628398116835 8.194180000000001
50.62144792604559 8.196819999999999
50.646077567609396 8.156930000000001
50.670709714377715 8.121780000000001
50.69553683636198 8.12025
50.72017401885922 8.111889999999999
50.7448137122895 8.10063
50.76945591856022 8.10024
50.79429318636823 8.067969999999999
50.818940443716784 8.04525
50.84359021965163 8.04993
50.868242516085964 8.011330000000001
50.893089960641895 8.00584
50.917747323549435 7.967039999999999
50.94240721271973 7.95902
50.96706963007175 7.94225
50.99192728239342 7.937010000000001
51.01659478166073 7.9304
51.04126481489051 7.9299800000000005
51.06593738400761 7.895010000000001
51.090805275207074 7.87569
51.11548294172845 7.87207
51.14016314993547 7.846760000000001
51.164845901758845 7.86603
51.18972406304274 7.81482
51.21441192780656 7.816210000000001
51.23910234200271 7.7785
51.2637953075678 7.72565
51.288683770237945 7.748989999999999
51.31338186432707 7.74953
51.33808251561888 7.69487
51.362978729967345 7.741960000000001
51.387684521509755 7.666980000000001
51.41239287610203 7.68497
51.437103795691165 7.62713
51.46201036644977 7.64917
51.486726441956634 7.60765
51.51144508832545 7.597239999999999
51.536166307509156 7.57233
51.56108326624387 7.567830000000001
51.58580965706056 7.55133
51.61053862657523 7.56129
51.635270176746864 7.508360000000001
51.66019755512065 7.50597
51.68493429268881 7.5024
51.70967361681515 7.49057
51.73441552946465 7.47775
51.759353359237934 7.4673
51.7841004750961 7.45063
51.80885018539685 7.44758
51.833602492111254 7.394239999999999
51.8585508051424 7.39496
51.883308330926425 7.349539999999999
51.90806845906181 7.34698
51.932831191525715 7.33754
51.95779001977161 7.35894
51.98255798721516 7.28723
52.00732856494335 7.3028699999999995
52.03229530577543 7.27185
52.057071130455945 7.2173
52.081849571391054 7.20478
52.106630630568695 7.25155
52.13160794279417 7.20149
52.15639426492067 7.203060000000001
52.18118321127822 7.2149600000000005
52.205974783860896 7.180789999999999
52.23096269971011 7.13011
52.255759551287994 7.1419
52.280559035098186 7.0777600000000005
52.30536115314103 7.092789999999999
52.33035970494467 7.11912
52.35516711807904 7.08575
52.37997717147198 7.018089999999999
52.40478986713005 7.05271
52.42979908731974 7.06038
52.454617094216 7.0436
52.47943774942214 6.997330000000001
52.50426105495102 6.99907
52.529280976059844 6.975
52.554109609024096 6.97888
52.57894089837482 6.966589999999999
52.60377484613117 6.94089
52.62880550079408 6.93955
52.65364479223379 6.90839
52.67848674816189 6.916689999999999
52.70352547971946 6.90954
52.72837279155837 6.86782
52.753222773982785 6.85363
52.778075429022984 6.8658600000000005
52.80312495150885 6.844189999999999
52.827982978797436 6.83254
52.85284368481815 6.8212399999999995
52.87770707160767 6.74804
52.90276741793998 6.77382
52.92763619336701 6.764469999999999
52.952507655698504 6.7397
52.977381806977576 6.725860000000001
53.00245301017842 6.723560000000001
53.02733256653592 6.69285
53.052214817996074 6.7032
53.077099766608484 6.68009
53.102181859804446 6.65009
53.127072229988265 6.67545
53.15196530349892 6.64495
53.17686108239249 6.63095
53.20195409881522 6.599360000000001
53.22685531582556 6.60452
53.25175924441303 6.56383
53.27666588664027 6.556030000000001
53.30176985962693 6.5549100000000005
53.3266819565689 6.55973
53.35159677336455 6.50054
53.376514312083096 6.4636
53.40162927507703 6.50448
53.42655228516116 6.49605
53.45147802340193 6.45983
53.47660125628886 6.45869
53.50153247842639 6.4107199999999995
53.52646643496923 6.40217
53.55140312799818 6.403580000000001
53.576537409691696 6.391380000000001
53.60147960336152 6.36466
53.626424539786164 6.36076
53.65137222105307 6.33435
53.67651758529126 6.36025
53.70147078399681 6.31597
53.72642673383343 6.30698
53.75138543689533 6.2788699999999995
53.776541917524526 6.30658
53.801506154876755 6.28756
53.826473151763246 6.24322
53.851442910284916 6.22801
53.87661054126026 6.2188300000000005
53.9015858509782 6.197769999999999
53.92656392866066 6.20057
53.95154477641532 6.21744
53.976723591801296 6.20949
54.00171000771266 6.20629
54.02669920004598 6.17323
54.051691170915745 6.13266
54.076881204886796 6.142469999999999
54.101878760928514 6.10193
54.12687910187696 6.0782
54.152077577768296 6.0948400000000005
54.1770835166946 6.0669
54.20209224691339 6.02032
54.22710377055121 6.06091
54.25231352511594 6.0132
54.27733066384342 5.9879999999999995
54.30235060239643 6.05735
54.32737334290836 5.99371
54.35259441062629 5.97449
54.377622783395324 5.93053
54.40265396455061 5.91903
54.42768795623251 5.91648
54.45292037169559 5.86921
54.477960012857906 5.88141
54.50300247099511 5.87556
54.52804774825457 5.87369
54.55329154616743 5.80324
54.57834249018678 5.77923
54.6033962597977 5.77838
54.6284528571545 5.7657300000000005
54.653708072335164 5.6935199999999995
54.67877035378786 5.6925300000000005
54.70383546947698 5.6864300000000005
54.72890342156389 5.6860599999999994
54.7541700889442 5.64104
54.77924374251975 5.63324
54.8043202390049 5.60406
54.82959552413022 5.54747
54.8546777351945 5.6071
54.87976279569621 5.5488
54.90485070780914 5.49892
54.930137506558005 5.4845
54.95523115074295 5.5122599999999995
54.98032765308844 5.46778
55.005427015775496 5.47826
55.03072536339621 5.43671
55.05583047570572 5.37792
55.080938454927676 5.41902
55.10604930325027 5.43615
55.131359235107396 5.36417
55.15647585066083 5.28684
55.181595341907496 5.30363
55.20671771104285 5.2776
55.232039262617704 5.30355
55.25716741665048 5.23652
55.28229845518636 5.27415
55.30743238042802 5.19177
55.33276558731939 5.15794
55.357905315183636 5.13174
55.383047936390035 5.13659
55.40819345314859 5.1429
55.433538351073295 5.10423
55.458689688238415 5.0319
55.483843927614096 5.0194
55.509197623043605 5.003
55.53435769621134 4.99439
55.55952067826466 4.98382
55.5846865714265 4.93426
55.61005202069737 4.89058
55.63522376553902 4.93381
55.66039842818645 4.92004
55.68557601087004 4.8255300000000005
55.7109532500271 4.81299
55.73613670233794 4.82942
