TT I
1.2716486653135266 6.97695
1.2939594142134223 6.90568
1.3162702121660406 6.47698
1.3385810600174564 6.40085
1.3608919586137629 6.86079
1.383202908801069 6.5725
1.405513911425503 6.070819999999999
1.4278249673332093 6.19182
1.4501343378461518 6.13859
1.4724455028545926 5.95403
1.4947567236847858 6.28838
1.517068001182951 5.8961
1.5393793361953272 5.93329
1.5616907295681737 5.4246099999999995
1.5840021821477681 5.00902
1.60631369478041 5.3388800000000005
1.6286252683124185 4.90691
1.6509369035901333 5.198169999999999
1.6732468618895553 5.08039
1.695558623192809 4.72154
1.7178704487808514 4.87219
1.7401823395001077 4.9272599999999995
1.7625012545597203 4.41012
1.7848028405262486 4.76839
1.8071218901122095 4.63384
1.8294236121921872 4.61149
1.8517427996910911 4.5012
1.8740620574440425 4.5028
1.8963639900671978 5.0881300000000005
1.9186833908139995 4.99814
1.9409854680117449 4.73077
1.9633050151394713 4.84842
1.9856246367570705 4.81557
2.0079269371922672 5.0251
2.03024671027244 4.226459999999999
2.0525491637446027 4.783980000000001
2.074869091674931 4.74904
2.097171701569106 4.7666699999999995
2.1194917877373847 4.5458300000000005
2.141811954326636 4.713019999999999
2.164114805233074 4.6397699999999995
2.186435135143035 5.42606
2.208738150935709 9.13568
2.231058647554722 16.1361
2.2533792288321184 13.4316
2.275682498336085 7.57274
2.298003251406138 5.32327
2.3203066942619714 5.22325
2.3426276225136022 5.76961
2.3649486396617507 5.52833
2.387252348930071 6.5031099999999995
2.4095735463442893 6.68641
2.4318774374315884 6.41772
2.4541988185014043 6.939369999999999
2.476502894794693 6.776910000000001
2.498824462909887 6.821219999999999
2.521146125856138 6.61297
2.5434504863470337 7.37201
2.5657723414244717 7.439960000000001
2.588076895590662 8.4864
2.610398946189713 8.44404
2.6327210958598384 8.26639
2.6550259469304716 8.341380000000001
2.6773482972090137 9.14043
2.6996533504259 8.259319999999999
2.7219759047039602 8.65263
2.744298562293959 8.24498
2.7666039251246595 7.75926
2.7889267918020164 8.28615
2.8112323652516555 8.144919999999999
2.833555444408179 8.306230000000001
2.8558786311183852 8.25671
2.8781845268938557 8.4734
2.9005079311721484 9.05257
2.9228140460410397 8.63488
2.9451376712799635 9.16119
2.967444008632326 10.1446
2.9897678582247247 10.0533
3.0120918213106695 10.3055
3.0343984987899373 10.8435
3.0567226913198637 10.7567
3.079029599759726 11.5217
3.101354025127254 12.2156
3.123678568232338 12.6715
3.145985829517914 12.8766
3.16831061055229 13.1742
3.1906181112775593 14.3378
3.212943133635653 15.1636
3.2352682779763207 15.1144
3.2575761442691227 15.5875
3.2799015350264273 15.5499
3.302209649240067 15.8122
3.3245352898092655 16.5604
3.3468436553365257 17.4796
3.369169549113219 17.7922
3.3914955708171384 18.1761
3.413804319727358 18.9239
3.4361305997334863 19.1289
3.4584396084414553 19.9825
3.4807661501462652 20.2959
3.503092824025881 20.6223
3.5254022288463154 20.808000000000003
3.5477291695206588 20.9944
3.5700388426251948 22.0053
3.5923660534916446 23.4364
3.6146934007816114 31.357
3.637003482731501 55.9761
3.6593311053109985 60.7119
3.681641464033634 40.242
3.7039693653009733 27.2716
3.726297407241705 25.4239
3.7486081875460804 25.0586
3.7709365132734978 25.8493
3.793247578841633 26.2283
3.8155761917550093 26.377
3.8378875459837216 26.5512
3.8602164494827234 26.9097
3.882545499606844 28.0821
3.9048572932539183 29.0033
3.9271866390645718 28.9571
3.9494987298666713 29.4572
3.971828374764527 29.8395
3.9941581705403255 30.2167
4.016470713506008 30.7824
4.038800813471445 31.7981
4.061113662089144 32.1915
4.0834440696459176 32.9937
4.105774632334751 33.2552
4.128087945865126 34.2259
4.150418821249301 35.0186
4.172732448931298 35.4258
4.195063640413578 37.222
4.2173775856475215 39.841
4.239709096631102 57.2081
4.262040768704612 139.47
4.284355196706267 178.153
4.306687193387355 120.74600000000001
4.329001947444346 59.9924
4.35133427213731 44.1971
4.373666762177566 43.0438
4.395982011761091 43.4871
4.418314834921175 44.6172
4.44063041906622 48.696999999999996
4.4629635787515625 54.9283
4.4852969080429785 55.6344
4.5076130004776225 52.466
4.529946671403969 55.1129
4.552263106909177 57.7812
4.574597122877047 55.1489
4.596931312711224 53.2249
4.619248269273446 53.2356
4.6415828092605835 53.9228
4.663900117405352 55.1409
4.686235010953232 56.1368
4.708552674085913 57.6988
4.730887924602802 59.465
4.753223354952695 61.2004
4.775541557023902 64.0657
4.797877349456786 66.2826
4.820195915032126 67.8667
4.842532072957498 67.9137
4.864868414979744 70.3306
4.88718753227192 73.6684
4.909524244902505 75.4418
4.931843734218147 75.8168
4.954180820867835 78.0572
4.976518095879839 80.0762
4.998838149695359 83.0535
5.021175803844231 86.2145
5.043496238205739 90.0522
5.065834274903528 94.4407
5.088172504230693 99.5661
5.1104935158799565 105.447
5.132832132875765 125.28299999999999
5.155153533596801 156.773
5.1774925416746225 195.49099999999999
5.199814334878411 388.63
5.2221537374521505 1018.4
5.244493338631803 2831.13
5.266815727034316 7948.3
5.289155727832427 12318.6
5.311478517248165 8226.46
5.333818921080011 2506.0
5.356159527788849 480.31199999999995
5.3784829252032536 185.31599999999997
5.400823940070432 147.68200000000002
5.423147747031976 128.007
5.445489173474152 117.96799999999999
5.467830807066149 115.806
5.490155234831516 115.181
5.512497285125229 109.303
5.534822130975162 104.14299999999999
5.557164601388673 100.993
5.579489868738879 98.1922
5.601832762690846 97.0748
5.6241758697774475 96.4642
5.646501775867269 95.9721
5.668845311622074 94.4527
5.691171647754637 93.6311
5.713515615597765 92.4117
5.735859800852677 92.4191
5.758186788542988 92.8943
5.780531411018185 95.337
5.802858837297399 95.819
5.825203900414495 95.3679
5.8475491852224 97.8691
5.869877275883075 98.18799999999999
5.892223006467101 95.2987
5.914551544266608 94.1249
5.936897724049891 96.7166
5.959244129804903 103.60700000000001
5.981573344815301 128.62
6.0039202049061 235.99
6.026249875609095 476.48800000000006
6.04859719346037 962.235
6.070927323278297 2254.31
6.093275102315365 4533.84
6.115623113320588 5145.9
6.137953938319995 3024.43
6.160302415650845 863.0880000000001
6.182633708324452 205.132
6.2049826554078376 107.186
6.227331838745022 89.0197
6.249663839443684 82.8513
6.27201349767565 79.6574
6.294345974611799 81.8269
6.316696111167083 86.3915
6.339046488263839 82.9476
6.361379686074702 74.6862
6.383730546639482 70.1799
6.406064229255215 69.1655
6.428415576718203 69.5116
6.450749747566656 68.3889
6.47310158535871 66.0702
6.495453669698332 64.9724
6.517788579421056 63.8474
6.540141159237969 62.9538
6.562476565766648 62.3036
6.5848296444934045 62.2794
6.607182974060425 61.9743
6.6295191323281015 62.1288
6.651872965955752 63.6973
6.6742096296068985 76.2264
6.6965639707294615 98.2009
6.71891856698715 98.0425
6.741255995248479 76.3873
6.763611104154477 62.916000000000004
6.785949046381137 58.5924
6.808304671371482 58.7091
6.8306605557940046 59.5973
6.852999275508618 58.375
6.875355681171544 57.2112
6.897694923437771 56.3383
6.92005185377892 56.1762
6.9423916220322655 55.6815
6.964749080490181 54.9612
6.987106804399774 54.9446
7.009447368180821 55.7489
7.031805625367033 55.1846
7.054146723727803 55.0508
7.076505517631004 54.6906
7.098864581288365 54.8261
7.121206488070854 54.3468
7.143566093607822 54.5295
7.165908543567245 55.1672
7.188268694426048 55.3431
7.2106291193438095 54.5746
7.232972390625943 54.9735
7.255333366030969 61.9552
7.277677189091925 87.3895
7.300038718428332 111.23
7.322400526130865 99.8413
7.344745183422596 71.3829
7.367107550224791 57.5134
7.389452767901992 54.8434
7.411815697249891 54.206
7.434161478756298 53.3523
7.456524974096713 53.5107
7.478888753837185 53.3827
7.501235387657368 53.8209
7.523599738562711 54.0101
7.545946944825532 53.9665
7.568311870344528 54.549
7.5906770845765665 54.5524
7.613025156078678 55.1351
7.635390950099687 56.3334
7.657739602662809 55.8454
7.680105979923558 55.5486
7.702472650212829 56.1995
7.724822180948224 56.1922
7.747189439655568 55.7394
7.769539560075357 55.4306
7.791907410653562 55.8744
7.81425812420825 56.1252
7.836626570110925 56.4341
7.858995315087906 57.1143
7.881346924933401 57.0149
7.903716270417482 57.606
7.926068482028405 57.9097
7.948438431475253 58.7112
7.9708086843180235 59.2665
7.993161805171116 60.097
8.015532667162402 60.1682
8.037886398416653 61.6534
8.060257873014221 61.9591
8.082629655331942 62.4596
8.104984308787587 63.3872
8.127356708900503 66.1132
8.149711981398308 70.4235
8.172085002766314 72.4066
8.194458336181368 70.0849
8.216814543847752 68.275
8.23918850371002 68.9064
8.26154533906492 69.89
8.283919928836452 71.3711
8.306277395339652 72.1299
8.328652618483376 73.5772
8.351028159736202 75.3319
8.373386579575245 77.84899999999999
8.395762759396959 79.3958
8.418121819038275 83.65899999999999
8.440498640894003 92.1274
8.462875785192262 103.678
8.485235811156207 126.167
8.507613602688501 176.52
8.529974277114228 260.66900000000004
8.552352719347912 383.856
8.574731488360351 661.7280000000001
8.59709314210385 1217.64
8.619472567021075 1948.5
8.64183487789147 2178.73
8.664214962183097 1726.83
8.686577933647762 840.041
8.708958680784317 309.772
8.731339760774953 146.963
8.753703729764451 106.86399999999999
8.77608547780821 96.8488
8.798450116065078 93.6048
8.820832535634787 91.2603
8.843215292401656 91.0765
8.865580941199045 90.9097
8.887964374703538 90.3738
8.910330701447199 90.6118
8.932714815164482 90.7013
8.955099270424924 88.8708
8.977466620733543 86.3662
8.999851761421976 84.5864
9.022219798361645 83.4732
9.04460562795561 83.0713
9.066991803441677 83.0797
9.089360876979615 83.2131
9.111747746589993 83.0783
9.13411751544971 82.1031
9.156505082664324 81.2497
9.178875550323522 81.5111
9.20126381862328 81.5458
9.223652438908596 81.7049
9.246023961427412 81.6441
9.26841328802173 81.0621
9.290785518039224 81.5349
9.313175554425882 83.6542
9.335565947154315 84.7535
9.357939245086508 84.9598
9.380330352834827 84.553
9.40270436697103 84.6487
9.425096193225055 84.3836
9.447488380180165 84.4729
9.469863475295412 83.6339
9.492256385987508 83.8579
9.514632206018318 84.4759
9.537025843935714 84.883
9.559402392368193 86.0042
9.581796761000229 87.8543
9.604191496441521 89.9045
9.626569144158516 92.89399999999999
9.648964615551032 94.8192
9.671343000390081 95.1889
9.693739211225699 93.4311
9.716135793237463 92.1275
9.738515290448102 92.2146
9.760912617143402 93.7372
9.783292860202891 95.5755
9.805690935076182 97.7863
9.828089385495742 98.5265
9.850470754023561 100.279
9.872869957865444 104.794
9.89525208097539 113.03399999999999
9.917652041736662 121.041
9.940052382417589 127.28
9.962435644102392 149.10399999999998
9.984836746950979 188.75099999999998
10.007220771957746 245.679
10.029622640473708 343.129
10.052007432299963 518.309
10.074410069984072 830.1189999999999
10.096813093716005 1301.21
10.119199042482517 1795.68
10.141602840636468 1974.37
10.163989564971628 1500.61
10.186394141051062 804.243
10.208799107559706 343.23199999999997
10.231187001965623 167.209
10.253592751657669 119.785
10.275981430388155 110.50299999999999
10.298387966769793 108.90299999999999
10.320794897965431 109.564
10.343184759907361 108.40100000000001
10.36559248305461 104.97399999999999
10.387983138083852 104.345
10.410391656691655 109.9
10.432800574501677 121.33200000000001
10.455192425893369 136.441
10.47760214443012 161.681
10.499994797678786 207.62400000000002
10.522405320453982 292.21299999999997
10.54479877906917 423.035
10.567210109595656 533.499
10.5896218454736 578.11
10.612016518879773 485.12699999999995
10.634429067781074 322.22700000000003
10.656824555333241 184.825
10.679237920773568 117.11399999999999
10.701651695961992 94.1101
10.724048411481384 87.8153
10.746463008485165 85.7264
10.768860546937125 83.7198
10.791275969274796 82.2899
10.81369180576079 80.9214
10.836090585366925 79.9197
10.858507252467449 78.9544
10.88090686379991 77.8531
10.903324365036394 77.5441
10.925724811614439 77.4327
10.948143150509463 77.9789
10.970561909719066 77.2997
10.992963615930844 76.1632
11.015383218085756 74.264
11.037785768347074 72.8332
11.06020621697282 71.9576
11.082627090322113 71.4565
11.105030913430326 70.6899
11.12745263854165 71.15
11.149857314510728 72.2707
11.172279894912576 75.1272
11.194702904450653 74.9315
11.217108866490921 72.6129
11.239532736615194 70.2859
11.26193956033512 68.9004
11.284364294577085 68.0346
11.306789462371718 66.8275
11.329197585398376 66.4645
11.351623622610898 66.3105
11.37403261614354 65.3716
11.396459526308487 65.2284
11.418869393879497 64.8453
11.441297180532617 64.4947
11.463725406927658 63.8863
11.486136592353875 63.8653
11.508565700543707 64.0724
11.530977768845315 64.8466
11.553407762368774 65.304
11.575838200059769 65.0366
11.598251599479612 63.6796
11.620682927815501 62.966
11.64309721895548 62.6076
11.665529441478206 62.3297
11.687962112597958 62.3515
11.710377748130886 62.3687
11.732811318753434 62.4399
11.755227854859067 62.0878
11.777662328529495 62.0839
11.800079768750786 61.9117
11.822515149015453 61.8711
11.844950984084935 62.0463
11.867369787303163 61.9747
11.889806534289491 61.7883
11.912226250487029 61.9599
11.934663912939751 62.1435
11.9571020346363 62.4052
11.979523127133968 62.5908
12.001962169624331 63.4975
12.024384183972964 65.1754
12.046824150809913 68.1242
12.069264581333726 72.3617
12.091687985297767 77.8284
12.11412934550045 86.7104
12.136553680195208 102.361
12.158995973632788 127.279
12.181438735204349 158.099
12.20386447284199 190.787
12.226308172985636 214.148
12.24873485024193 202.59
12.271179492516982 167.112
12.293607112949127 117.61399999999999
12.316052700916226 88.0673
12.338498763250042 72.7444
12.360927805303868 66.5359
12.383374818673879 64.5024
12.405804812803074 63.6489
12.428252780773262 63.3871
12.45070122756722 63.5405
12.473132656675375 63.5926
12.49558206341869 63.9093
12.518014453510101 63.9965
12.540464823770117 63.9107
12.562915677315177 64.1949
12.58534951575545 64.6149
12.607801338171472 65.4744
12.630236146511358 67.9368
12.652688941369085 70.6087
12.675124723177234 71.0134
12.697578494048786 69.7925
12.720032754458185 67.7082
12.742470003354093 67.0875
12.764925245138771 67.1635
12.787363476431278 67.5001
12.809819703166806 67.8345
12.83227642391173 68.5682
12.854716135692716 69.0947
12.877173846755147 70.4236
12.899614549869717 70.6538
12.9220732548287 71.6912
12.94453245827299 71.8686
12.966974655289818 73.1081
12.989434858002571 73.7531
13.011878055298721 74.6541
13.034339260862497 75.2825
13.056800969391883 76.835
13.079245674017244 79.8468
13.101708390774869 83.2044
13.12415410463411 91.2316
13.146617833206086 101.04299999999999
13.169064559883248 111.446
13.191529303857127 125.671
13.213994557076367 148.683
13.236442809902437 188.168
13.258909083908291 248.96099999999998
13.28135835851934 315.769
13.30382565690295 389.536
13.326293469022952 433.62300000000005
13.348744283242008 415.825
13.371213125129904 337.16900000000004
13.39366497011003 238.96900000000002
13.416134845360597 156.94899999999998
13.438605238843131 116.98
13.46105863690397 104.961
13.483530069144786 105.788
13.505984506951902 110.382
13.528456981549432 119.715
13.550929978879088 134.838
13.573385983253365 159.52
13.595860028340867 200.57299999999998
13.618317081455832 257.06
13.64079217790333 315.998
13.663250283359057 364.889
13.685726434770173 375.181
13.708203115221277 327.39099999999996
13.730662806148091 243.088
13.75314054697177 167.019
13.775601299246777 117.241
13.798080104050406 92.4359
13.820559442405358 83.5021
13.843021793671388 80.5776
13.865502201420897 79.0254
13.887965623051947 78.7707
13.910447103807167 77.9194
13.932929122629764 76.4581
13.955394156785959 76.008
13.977877254034569 74.9973
14.000343367582113 74.3797
14.022827546871707 73.4415
14.045294743423524 72.7385
14.06778000837062 72.266
14.090265817715476 72.2135
14.112734645763819 71.7437
14.13522154619454 71.218
14.157691466286913 71.3239
14.180179461423874 70.9143
14.202668005486178 70.6105
14.22513957064374 70.1465
14.247629214846473 69.8021
14.270101881097517 69.4588
14.29259262906496 69.3491
14.315083930490205 69.6852
14.337558255389705 69.7682
14.360050666019726 69.6908
14.382526101071944 68.9616
14.405019624534942 68.4566
14.427513705993134 68.2719
14.449990813291825 68.5084
14.47248601302899 68.0324
14.49496423954951 68.0165
14.517460561197822 68.2655
14.539939910570322 67.9882
14.562437357763558 68.3868
14.58493536931253 69.2504
14.607416409993311 69.4043
14.62991555254159 69.8976
14.652397725157423 70.0729
14.674898002342799 70.0116
14.697398848433282 70.0936
14.719882725991326 71.3321
14.74238471217934 73.0996
14.764869730765593 76.3057
14.787372860692983 79.2105
14.809876564079925 83.1892
14.83236330125751 88.5113
14.854868153850365 97.4799
14.877356041159485 111.49600000000001
14.899862046604186 131.44799999999998
14.922351087688757 159.04399999999998
14.944858249632887 189.06400000000002
14.967365991421232 217.40099999999998
14.989856770231246 227.05200000000002
15.012365673994204 218.93599999999998
15.03485761569738 185.831
15.05736768508665 140.415
15.07987833888692 106.62899999999999
15.102372032001655 85.8418
15.124883856909658 74.5728
15.14737872204565 71.1194
15.169891721717274 69.5993
15.192405310371893 69.3439
15.214901940621196 69.3982
15.237416709527137 69.0619
15.259914520936249 68.8566
15.282430473753607 68.1938
15.304947020131227 67.3918
15.327446610371178 66.8358
15.349964346154254 66.3784
15.372465126703139 66.2021
15.394984055556009 65.9889
15.417486030076159 65.9226
15.44000615566487 65.291
15.462526881230803 65.2049
15.485030653812652 65.2542
15.507552581617434 65.2509
15.530057557334603 65.2349
15.55258069104857 65.3693
15.575104429329837 65.4131
15.597611216864632 65.2053
15.620136166564563 65.7861
15.6426441664095 67.282
15.665170331202765 69.8323
15.687697105158826 72.2461
15.710206930593545 75.3187
15.732734925158933 79.4435
15.755245972089478 85.7288
15.77777519094324 95.0848
15.800287463046663 109.47200000000001
15.822817909869592 129.769
15.84534897229804 152.88
15.867863089299354 178.567
15.890395385222186 195.555
15.912910736597423 197.0
15.935444269699861 179.15400000000002
15.957978423016485 145.263
15.980495633101265 112.65899999999999
16.003031029129367 88.0792
16.02554948280019 72.2523
16.048086125229432 65.4763
16.070623392487107 63.3308
16.09314371869582 62.493
16.11568223789321 61.79
16.13820381691126 60.8417
16.160743591742527 60.3933
16.183283996022084 59.5535
16.205807461423195 58.6616
16.228349126881973 58.1131
16.25087385432698 58.1872
16.27341678466365 57.5221
16.29594277784926 57.5723
16.31848697676433 57.4719
16.341031811604868 57.3553
16.36355971058487 57.2228
16.3861058195587 56.9436
16.40863499352978 56.2485
16.431182380342005 55.7179
16.453730407713202 55.3508
16.476261501364792 55.1396
16.498810812136167 54.7102
16.52134319004079 54.8461
16.54389378792203 54.7125
16.566445031001553 54.7279
16.588979342490088 54.5847
16.61153187824822 54.4444
16.634067483263312 54.1802
16.656621315414416 54.3668
16.679175797408888 53.8873
16.701713349928728 53.878
16.72426913389191 54.178000000000004
16.74680798922351 54.2745
16.76936507887444 53.95399999999999
16.791905240734874 54.2471
16.814463639794468 53.9886
16.837022695210294 54.0868
16.859564824093756 54.2234
16.882125194503903 54.7579
16.904668639217885 55.0818
16.927230328348003 55.0864
16.949792678493612 55.32899999999999
16.972338104193863 55.2143
16.994901778652235 54.7176
17.017448529496576 55.106
17.040013531998152 55.4718
17.06257920018044 55.97
17.0851279459922 56.7949
17.107694947817667 57.4417
17.130245028099072 58.1767
17.15281336730298 59.3866
17.17536478578733 61.1431
17.19793446610687 63.4874
17.220504818648422 66.7413
17.243058251703697 70.2474
17.265629950971032 75.278
17.288184731571736 80.0879
17.310757781306908 83.391
17.33333150794385 83.5705
17.355888317140174 81.0812
17.37846339986244 74.8569
17.401021565958885 68.582
17.42359800851343 63.5178
17.44617513265564 60.6996
17.468735341390783 59.083999999999996
17.491261035594565 58.4537
17.51396340099364 58.2298
17.536490463869136 58.5458
17.559018209820174 58.4185
17.58154663977963 58.6877
17.604251766089718 58.6753
17.626781572227713 58.9271
17.64931206518155 59.1998
17.671843245885103 59.5552
17.69455114821572 59.7533
17.717083712612634 60.0923
17.739616967569667 60.4005
17.762150914021706 60.8288
17.78486160749854 61.2438
17.807396945166804 61.9136
17.829932977143503 62.9289
17.85246970436452 64.6695
17.875183204129467 66.1268
17.897721330097664 67.6941
17.920260154126645 69.9935
17.942799677153296 73.2407
17.9655159983646 77.128
17.988056927677544 82.7637
18.010598558807683 90.8954
18.033140892692916 101.435
18.05586005052525 113.368
18.07840379824407 125.413
18.10094825154059 135.511
18.12366954819864 141.245
18.146215420998306 137.599
18.16876200220057 126.60600000000001
18.191309292745153 111.965
18.214033452627167 98.6948
18.236582170236648 88.5977
18.259131600016456 84.7738
18.281681742907335 86.0162
18.304408781233683 91.2121
18.32696035875955 97.0912
18.349512652227624 102.08
18.372065662579683 105.679
18.394795594587553 105.34200000000001
18.41735004715306 100.31700000000001
18.43990521943684 91.8635
18.46246111238171 82.4458
18.485193953325208 73.8843
18.507751296070428 67.6595
18.530309362314178 64.3926
18.552868153000343 62.3331
18.57560391815056 61.467
18.59816416623245 61.1224
18.620725141597372 60.508
18.643286845190268 60.0403
18.666025549835414 59.5801
18.688588718427933 59.005
18.711152618092243 58.9534
18.73389353884365 58.6751
18.75645890921984 58.3835
18.77902501351406 58.1137
18.801591852673102 57.9609
18.824335739722738 57.3901
18.846904057212626 57.4105
18.8694731124168 56.9926
18.89204290628315 57.1476
18.914789774966803 56.7967
18.937361054791623 56.5373
18.959933076131318 56.367
18.982505839934877 56.3006
19.00525570560582 56.5372
19.027829963004184 56.1794
19.05040496572238 56.3761
19.072980714710468 56.3549
19.095733592739563 56.5548
19.11831084296757 56.537
19.140888842324735 57.1008
19.16346759176222 57.3323
19.18622349753803 57.8617
19.208803755869358 58.6881
19.231384767143577 60.0205
19.253966532312948 61.6628
19.276725481241822 64.0774
19.29930876296784 66.6035
19.3218928014549 69.6171
19.34465404436217 72.4722
19.36723960516257 75.0313
19.389825925592426 75.6061
19.412413006605938 73.9017
19.43517731967805 70.0416
19.457765930683355 65.2845
19.48035530514408 61.104
19.50294544401556 57.5836
19.525712842708348 55.5732
19.54830451925909 54.4682
19.570896963095727 53.6097
19.593490175174704 53.2872
19.616260674962184 53.1429
19.638855432416964 53.047
19.661450960992624 53.085
19.68404726164677 53.0086
19.706820878021247 52.8355
19.729418731756834 53.1771
19.752017360452857 52.8252
19.77461676506804 53.1053
19.797393513540218 53.0727
19.819994478951667 53.4642
19.84259622316767 53.8816
19.8651987471481 54.0841
19.887978643247177 54.1826
19.91058273574792 54.8781
19.933187610901943 55.7429
19.955969879466828 57.0362
19.97857632894404 58.5078
20.00118356396599 60.4818
20.023791585494575 62.601000000000006
20.046577028914875 65.532
20.069186632506966 67.5038
20.091797025500632 69.4694
20.114408208858933 69.8275
20.137196842715273 69.0041
20.159809615886765 67.1689
20.18242318232135 64.3571
20.20503754298326 62.3526
20.227829382875154 61.5224
20.250445341109344 61.6519
20.27306209647285 62.7564
20.29567964993108 63.9912
20.31847471147704 65.2416
20.34109387027612 65.1365
20.363713830075454 64.617
20.386334591841646 62.9096
20.409132890679302 60.0441
20.431755265564437 56.8135
20.454378445325528 54.1671
20.477002430930366 52.4149
20.499803982716553 51.38399999999999
20.522429589228004 50.7309
20.54505600449589 50.0581
20.567683229489194 50.1823
20.590488049900088 50.0138
20.61311690359731 49.6477
20.63574656993626 49.4702
20.658553853717297 49.2101
20.681185154618298 49.2537
20.703817271080066 48.8973
20.72645020407368 48.5091
20.749260783967177 48.4823
20.771895359337133 48.5408
20.794530754161617 48.5309
20.817166969412938 48.3472
20.83998086114876 48.225
20.86261872660049 48.0685
20.885257415405402 48.295
20.90789692853701 48.3257
20.930714147864748 48.1464
20.953355319030678 48.1197
20.97599731745334 48.1599
20.99864014410749 48.0649
21.021460706796564 48.0649
21.044105199328826 48.2408
21.06675052302631 48.4438
21.089396678865015 48.6076
21.112220600704806 49.122
21.134868430275347 49.5156
21.15751709492456 49.6548
21.180166595629693 50.0406
21.202993892429635 50.5451
21.22564507473034 50.8923
21.24829709602816 50.9819
21.27112693608965 50.8362
21.293780644891275 50.7236
21.316435195634053 50.0869
21.339090589297417 49.4306
21.361923832041875 48.9521
21.384580921090404 48.2701
21.407238856007325 47.8676
21.429897637773326 47.865
21.45273429906592 47.8549
21.475394784108598 47.9386
21.498056118951983 47.8282
21.520718304578022 48.1728
21.543558400304388 48.2387
21.566222297108816 48.5521
21.58888704765135 48.6467
21.61155265291521 48.9221
21.63439619898156 49.4248
21.657063523335786 49.5137
21.67973170537063 49.8656
21.7024007460706 50.4899
21.72524775840385 51.0488
21.747918526116475 52.2626
21.770590155457388 53.7516
21.79326264741238 55.2811
21.816113141960237 57.2871
21.838787368860547 59.1755
21.861462461341976 61.1182
21.884315579735777 63.0038
21.90699241312273 63.9434
21.92967011506078 64.3953
21.95234868653799 63.6031
21.9752053151131 61.7201
21.997885635446785 59.8476
22.020566828293532 58.0916
22.04324889464272 56.6419
22.066109049404666 55.743
22.088792872571794 55.4753
22.111477572219204 55.8531
22.1341631493376 55.6693
22.157026846313123 55.1789
22.179714188221507 54.3918
22.202402410582668 53.247
22.22509151438863 51.8129
22.24795876962584 50.4196
22.270649646204486 49.7762
22.293341407213727 49.1771
22.316034053646906 48.6703
22.338904883215342 48.5303
22.36159931041458 48.4311
22.38429462602756 48.4598
22.40699083104897 48.1565
22.429865251039757 48.1607
22.452563244831367 48.1759
22.47526213102522 48.1972
22.49813925616515 48.2665
22.520839937143307 48.1237
22.543541513520587 48.0547
22.56624398629403 48.0254
22.589124730075895 47.9103
22.611829005656723 48.1636
22.63453418063466 48.1084
22.657240256008077 48.4406
22.680124634582935 48.5866
22.70283252079775 48.7668
22.725541310413075 49.0783
22.74825100442868 49.2979
22.771139033969575 49.5429
22.79385054687155 49.8374
22.81656296718292 50.5404
22.83927629590484 51.6611
22.862167992606945 52.8327
22.88488314827121 54.0105
22.907599215359284 54.9901
22.93031619487366 56.0714
22.953211574954405 57.0193
22.975930389478226 57.4934
22.998650119445763 57.5968
23.02137076586092 56.5114
23.044269845560063 54.9761
23.06699233506288 53.541000000000004
23.089715744034912 51.6409
23.112617610931565 50.341
23.135342869061212 49.2776
23.158069049684816 48.5108
23.1807961538087 48.1835
23.20370174880544 48.3138
23.226430710184808 48.3896
23.249160598093425 48.3953
23.271891413539002 48.2783
23.294800752937697 48.4365
23.31753343374794 48.5958
23.340267045128353 48.623999999999995
23.36300158808808 48.8892
23.38591468821339 49.2481
23.408651104658304 49.7646
23.431388455719986 50.555
23.454126742409 51.4982
23.4770436196085 52.4162
23.499783787914662 53.773
23.522524894889884 54.8856
23.54526694154616 55.9826
23.56818761219047 57.1649
23.59093154860734 57.5418
23.613676427751283 57.3934
23.636422250635754 56.1976
23.659346731118656 54.4668
23.68209445191868 52.4195
23.704843119509587 50.373999999999995
23.72759273490623 48.5521
23.750521041644767 47.3688
23.77327256312355 46.6006
23.796025035462787 46.0073
23.818956224555475 45.6343
23.841710609113413 45.391000000000005
23.86446594758979 45.181000000000004
23.887222241002014 45.0642
23.910157285144578 44.7324
23.932915498962537 44.6838
23.955674670778713 44.601000000000006
23.978434801611975 44.3523
24.001373717286125 44.2586
24.024135776723917 44.1161
24.046898798245582 43.927
24.06966278287146 43.8474
24.092605586582614 43.8199
24.115371508023642 43.6016
24.1381383956401 43.4513
24.16090625045381 43.3701
24.183852958731244 43.4373
24.206622758582608 43.2924
24.229393528706886 43.1335
24.252165270127392 43.4127
24.27511589952438 43.1555
24.297889594216997 42.9103
24.32066426328598 42.8615
24.34343990775613 42.7834
24.36639447485003 42.8588
24.38917208083877 42.7953
24.41195066531332 42.6627
24.43490819850244 42.6744
24.457688750692377 42.5401
24.48047028445616 42.4421
24.503252800821233 42.56100000000001
24.526214300784112 42.6026
24.548998793132213 42.5666
24.57178427117417 42.5784
24.59457073593893 42.7137
24.617536219319863 42.3985
24.64032466834748 42.3539
24.663114107195035 42.357
24.685904536893013 42.1472
24.708874020360852 41.979
24.731666442613744 42.0571
24.754459858818787 41.9905
24.777254270007962 41.9697
24.80022777025625 41.7988
24.82302418230472 41.776
24.845821592443674 41.8032
24.86862000170663 41.7031
24.891597535453727 41.6087
24.914397953892728 41.9284
24.93719937456671 41.8359
24.96000179851076 42.0017
24.98298338249997 42.2262
25.00578782394922 42.3324
25.028593271784167 42.498000000000005
25.05157790644186 42.7763
25.07438537804115 42.971000000000004
25.097193859145293 43.2249
25.120003350792075 43.5097
25.142992065061257 43.6784
25.165803588823465 44.0663
25.18861612625217 44.1446
25.211429678386736 44.2218
25.234422489079968 44.4006
25.257238081693636 44.4401
25.280054692141732 44.3878
25.3028723214652 44.3321
25.325869245420463 44.5675
25.348688923599397 44.5328
25.371509623787006 44.437
25.394331347025812 44.065
25.41733240110666 43.5495
25.440156181590016 42.833999999999996
25.46298098826268 42.2223
25.48580682216873 41.7959
25.50881202326435 41.3042
25.53163992281684 40.9014
25.55446885274561 40.7494
25.577298814096377 40.4623
25.600308179121807 40.4358
25.623140214533745 40.4606
25.64597328451537 40.2502
25.66898578564376 40.1068
25.691820936010206 40.0861
25.714657124097695 40.1919
25.737494350954734 40.1625
25.760511045684957 40.0809
25.783350361364224 40.0904
25.806190718969255 40.0614
25.82903211955018 40.084
25.852053024868923 40.1356
25.874896522722523 40.3434
25.897741066713106 40.1596
25.920586657892454 40.2877
25.943611790812668 40.4144
25.966459487728237 40.6321
25.989308234998564 40.681
26.01215803367705 41.0029
26.03518741123814 41.082
26.05803932412957 41.2595
26.080892291600094 41.2682
26.10374631470478 41.275
26.12677995397268 41.3134
26.14963609978026 41.23
26.172493304397875 40.8356
26.19535156888223 40.5895
26.218389486949604 40.3168
26.241249882640123 39.9418
26.26411134137826 39.7015
26.28715248187403 39.8561
26.31001607820869 39.6148
26.3328807407756 39.4285
26.35574647063438 39.6347
26.37879191991473 39.649
26.401659795896734 39.7136
26.424528742360263 39.8135
26.447398760366614 40.0046
26.470448535598294 40.1804
26.49332070826805 40.2734
26.516193955675355 40.8045
26.53906827888316 40.9545
26.562122397260108 41.1042
26.584998883685063 41.4052
26.607876449110325 41.537
26.63075509460056 41.6523
26.65381357334404 41.9249
26.67669439061878 41.8086
26.699576291163382 41.5517
26.722459276044212 41.549
26.745522132402975 41.168
26.768407297649354 40.8969
26.791293550442003 40.6373
26.814180891848974 40.4364
26.837248143099337 40.0245
26.860137673466657 40.029
26.88302829566349 39.6429
26.90592001075963 39.5095
26.92899167420566 39.4854
26.951885586870763 39.0441
26.974780595655517 38.9665
26.99785558178161 38.7425
27.020752794605112 38.6353
27.043651106772522 38.509
27.06655051935668 38.42
27.089629948036183 38.3929
27.112531573292053 38.2882
27.135434302194138 38.3884
27.158338135817015 38.1632
27.181422024430987 38.1865
27.204328079372566 38.1629
27.22723524226965 38.1145
27.250143514198573 38.1566
27.273231880156334 38.1797
27.296142382065014 38.0465
27.319053996245536 37.9809
27.341966723775965 38.034
27.365059584515222 38.0961
27.38797455070062 38.1217
27.410890633481237 38.0557
27.433807833936918 38.1107
27.456905206923906 38.2399
27.47982465472398 38.1383
27.502745223449743 38.1328
27.525666914182825 38.2553
27.548768816912457 38.2965
27.571692763693633 38.185
27.59461783573812 37.9999
27.617723149491244 37.8405
27.640650484125285 37.8359
27.66357894728264 37.6486
27.686508540048052 37.6511
27.709618414237887 37.5117
27.732550278321757 37.3827
27.755483275279115 37.4407
27.778417406196485 37.5715
27.801531858397514 37.5381
27.824468269376716 37.4801
27.847405817586786 37.4313
27.870344504116094 37.5581
27.893463551932008 37.7212
27.916404527281053 37.9643
27.93934664422563 38.0388
27.962289903855886 38.1716
27.98541356491974 38.3501
28.00835912214229 38.3705
28.03130582533231 38.6715
28.054253675581805 38.7337
28.077381967556104 38.5747
28.100332124185126 38.6849
28.123283431160893 38.6065
28.146235889577238 38.3648
28.169368830154156 38.1079
28.192323603752033 38.0243
28.215279532083304 37.6866
28.238415973016764 37.6457
28.261374223145094 37.3684
28.284333631303806 37.1687
28.307294198589954 37.0058
28.330435319167677 36.669000000000004
28.353398217078915 36.5601
28.376362277420153 36.2744
28.39932750129032 36.1254
28.422473319286713 35.9953
28.44544088262495 36.0437
28.468409612800283 35.9043
28.491379510913497 35.7075
28.51453004413313 35.5165
28.53750229057244 35.5415
28.56047570826344 35.4373
28.583450298308804 35.4957
28.606605564586562 35.3438
28.629582511831156 35.3704
28.65256063474956 35.2449
28.675539934446338 35.3041
28.698699951647605 35.2682
28.72168161743193 35.1274
28.74466446331978 35.0416
28.767648490417624 35.0026
28.790813276438353 35.0129
28.813799678527303 35.0725
28.836787265157085 35.1153
28.859955641890075 35.2639
28.882945610203045 35.0598
28.905936766392035 34.8813
28.928929111566863 34.908
28.952102288520145 34.8752
28.975097024308607 34.7262
28.998092952423807 34.501999999999995
29.021090073977508 34.42
29.04426806913204 34.5284
29.067267590245258 34.219
29.090268308143695 34.1798
29.11327022394099 34.2311
29.13645305530891 34.0279
29.159457379627167 33.9222
29.18246290519685 33.9164
29.20546963313352 33.8778
29.22865731875826 34.0997
29.25166646419296 33.9311
29.27467681535305 33.8561
29.29768837335608 34.0232
29.320880931312562 34.037
29.34389491580634 33.9321
29.366910110507334 33.8775
29.38992651653503 33.7415
29.41312396492981 33.8226
29.436142806456754 33.8662
29.45916286268059 33.6381
29.48236399319994 33.5069
29.50538649169417 33.3866
29.528410208259935 33.4521
29.55143514402014 33.0486
29.574641196749695 32.9892
29.597668583816574 32.9189
29.6206971934585 32.7135
29.64372702680042 32.8494
29.666938019934474 32.7374
29.689970313635285 32.6383
29.713003834422636 32.6462
29.73603858342347 32.5466
29.759254535188578 32.4168
29.78229175361658 32.4786
29.80533020365064 32.5662
29.82836988641968 32.6413
29.85159081507472 32.5625
29.874632976355343 32.4282
29.89767637376955 32.3907
29.920721008448314 32.2633
29.9439469322847 32.2421
29.96699405457564 32.1952
29.9900424175358 32.1634
30.013092022298157 32.2227
30.03632295963995 32.1246
30.059375061131373 32.068000000000005
30.08242840783577 32.1111
30.105483000888153 32.0826
30.128718970092244 32.0823
30.151776069006917 32.0129
30.17483441768648 32.0793
30.198074175317235 32.0867
30.221135036724256 32.1772
30.24419715131772 32.053000000000004
30.267260520236203 31.8093
30.290505341942243 31.9577
30.313571232750228 32.019
30.336638381310948 32.0721
30.35970678876503 31.874000000000002
30.38295669299435 31.8621
30.40602763151657 31.7318
30.429099832366074 31.7906
30.452173296685572 31.8027
30.47542830191959 31.7555
30.498504306502497 31.7444
30.521581577995562 31.7883
30.544660117543582 31.7877
30.56792024229725 31.7837
30.59100133132069 31.8056
30.614083691845494 31.899
30.637167325018545 31.8385
30.660432587840603 31.906999999999996
30.683518779717886 31.9445
30.70660624769615 31.8991
30.729694992924372 31.9496
30.75296541239743 31.894000000000002
30.77605672557558 31.8069
30.799149319462742 31.811999999999998
30.8224236211637 31.6679
30.845518789950724 31.592
30.868615242910597 31.5048
30.891712981195973 31.323
30.91499247215866 31.2248
30.938092794619365 31.2325
30.96119440587579 31.1814
30.984297307082752 31.0719
31.00758200598383 30.9691
31.030687500658694 30.8663
31.053794288760695 30.7545
31.076902371446767 30.594
31.100192296997445 30.6869
31.12330298246119 30.6067
31.14641496599209 30.5537
31.169528248749216 30.5728
31.19282341969534 30.5942
31.215939314557186 30.6523
31.239056512134788 30.6628
31.262175013589378 30.6648
31.28547544871168 30.5615
31.30859657161541 30.5265
31.331719001892175 30.5638
31.35484274070538 30.7975
31.378148458819545 30.7129
31.401274828443725 30.6501
31.424402510106933 30.6058
31.447712205419993 30.6694
31.470842524931633 30.5224
31.493974159989783 30.4523
31.51710711176168 30.482
31.54042212308802 30.4029
31.563557722100917 30.3974
31.586694641341655 30.2882
31.609832881979628 30.1512
31.63315322823208 30.1514
31.656294125521327 30.003
31.679436347728515 29.9564
31.70257989602529 29.9382
31.725905596152327 29.8704
31.74905181052835 29.8497
31.772199354521323 29.8837
31.79534822930507 29.8301
31.818679302290967 29.8664
31.84183085259981 29.8328
31.864983737233473 29.7848
31.88813795736804 29.8895
31.911474422233013 29.6695
31.934631327356435 29.7908
31.9577895715215 29.8097
31.980949155906522 29.6743
32.004291031706956 29.7221
32.027453310562606 29.5837
32.05061693318573 29.4569
32.07396288236386 29.5168
32.09712920658542 29.3583
32.12029687812702 29.2076
32.14346589817093 29.1702
32.166817291729984 29.1655
32.18998902288583 29.0925
32.21316210610336 29.0358
32.23633654256711 28.926
32.259693399663725 28.9519
32.282870556771144 28.8701
32.30604907069099 28.8257
32.329228942610065 28.7889
32.35259128243769 28.6428
32.375773884550505 28.6344
32.398957848235646 28.6453
32.422143174682176 28.6321
32.445511016471215 28.4884
32.468699082679954 28.5429
32.49188851523011 28.5302
32.51507931531304 28.3774
32.538452678331 28.3411
32.56164622776311 28.3144
32.58484114831493 28.1977
32.60803744118015 28.2687
32.631416344731896 28.1966
32.654615396551876 28.0889
32.67781582427913 28.0509
32.701198898634416 28.1105
32.72440209253756 27.9211
32.747606665947124 28.0187
32.77081262006088 27.7615
32.79420126883317 27.7976
32.81740999876112 27.9027
32.840620112999424 27.7995
32.86383161274818 27.6808
32.88722585534586 27.7504
32.91044014056596 27.7207
32.933655814909734 27.6854
32.95687287957963 27.7265
32.98027273544904 27.6413
33.00349259526636 27.6011
33.026713849030116 27.5774
33.04993649794511 27.5751
33.073341986570746 27.4363
33.09656744032826 27.5228
33.11979429286444 27.5262
33.14302254538647 27.5011
33.166433686291185 27.4406
33.18966475336992 27.479
33.212897224069096 27.3743
33.23613109959831 27.2431
33.259547912343415 27.2289
33.2827846121627 27.2594
33.306022720453775 27.2338
33.32926223842861 27.0916
33.352684742614166 27.0687
33.37592709463173 27.0349
33.399170859982064 27.0533
33.422597648419426 26.9199
33.44584425514446 26.8557
33.46909227885668 26.7887
33.4923417207723 26.7007
33.51577423505344 26.7057
33.539026528130385 26.6602
33.56228024307245 26.6027
33.585535381098246 26.4046
33.60897364093058 26.4619
33.63223163992385 26.5202
33.6554910656699 26.375999999999998
33.678751919389796 26.399
33.702195944520106 26.3233
33.72545966903325 26.3666
33.74872482519663 26.2263
33.771991414233746 26.2446
33.79544122444841 26.166999999999998
33.81871069412428 26.1848
33.84198160035767 26.1282
33.86525394437455 26.1034
33.88870955949969 26.0416
33.911984794020626 26.0555
33.93526147001624 25.9363
33.958539588715006 25.9809
33.98200102861669 25.8878
34.0052820477047 25.8017
34.02856451319451 25.7931
34.05203033759056 25.7148
34.07531571090147 25.7457
34.09860253431845 25.6826
34.121890809074316 25.6633
34.145362493118924 25.5432
34.16865368561615 25.5696
34.191946333164054 25.5286
34.21524043699793 25.5147
34.23871800066799 25.5285
34.26201503218366 25.4652
34.28531352370466 25.3264
34.30861347646881 25.3063
34.33209693978188 25.3053
34.3553998301885 25.1942
34.378704185565205 25.1197
34.402010007152356 25.1665
34.42549939016683 25.0823
34.44880815937748 25.0446
34.472118398533134 25.028000000000002
34.49543010887669 25.0406
34.51892543169198 24.9318
34.54224009966052 24.9179
34.56555624255917 24.9028
34.58887386163339 24.824
34.61237514439016 24.7665
34.6356957311114 24.6644
34.65901779775809 24.6905
34.68252356662995 24.6533
34.705848608458616 24.6047
34.72917513396849 24.6308
34.75250314440949 24.5832
34.77601490857862 24.4724
34.799345904259795 24.4289
34.82267838863559 24.4283
34.846012362958525 24.4119
34.869530142679984 24.4364
34.89286711232212 24.3788
34.91620557568269 24.2656
34.93954553401677 24.3381
34.9630693495876 24.263
34.986412313340814 24.2132
35.00975677584668 24.1723
35.033102738362956 24.0943
35.05663261012228 24.0563
35.0799815881786 24.1052
35.10333207003229 24.055999999999997
35.12668405694369 23.9992
35.150220005273056 23.9695
35.17357501786656 24.0026
35.19693153931268 23.9531
35.220289570874385 23.9079
35.24383161619786 23.8785
35.267192683604904 23.9348
35.290555264930376 23.8204
35.314101899412165 23.8062
35.33746752422433 23.7868
35.36083466676374 23.7897
35.38420332829803 23.6868
35.407756095629054 23.7645
35.43112781085063 23.684
35.45450104888391 23.7008
35.477875810999194 23.6731
35.50143473172161 23.6305
35.52481255774625 23.6663
35.54819191167777 23.5602
35.57157279478914 23.5536
35.595137889488406 23.5016
35.61852184675279 23.4592
35.641907337029984 23.4232
35.665294361595684 23.3776
35.68886565090076 23.2961
35.7122557598848 23.3283
35.73564740699838 23.2653
35.759040593519934 23.19
35.78261809810353 23.2457
35.80601437933051 23.0769
35.829412203814705 23.0392
35.85281157283719 22.9956
35.876395313415884 23.0532
35.8997977874528 22.9742
35.92320180988546 22.9221
35.946790244133936 22.8721
35.97019737933222 22.8346
35.993606066789866 22.8856
36.01701630779276 22.8258
36.04061101440684 22.7526
36.06402437852291 22.7742
36.08743930005611 22.7719
36.1108557802951 22.6521
36.13445678011326 22.6251
36.15787639383515 22.5574
36.18129757014299 22.5224
36.20472031032821 22.5993
36.22832762423364 22.511999999999997
36.25175350829375 22.4717
36.275180960119776 22.406
36.298609981005924 22.3871
36.32222362992669 22.3883
36.34565580510207 22.3125
36.36908955323448 22.2865
36.39252487562093 22.258000000000003
36.416144880530226 22.1565
36.43958336764275 22.2241
36.463023432914625 22.2408
36.486465077645676 22.1288
36.51009145956204 22.1908
36.53353627947859 22.2356
36.55698268276811 22.1118
36.58043067073321 21.9991
36.60406345072071 21.9621
36.62751462435344 21.9295
36.65096738658405 21.9017
36.67460498210655 21.9009
36.69806093788647 21.9613
36.72151848619297 21.826
36.744977628333636 21.8348
36.76862165890998 21.7317
36.79208400512205 21.7856
36.81554794910557 21.7524
36.83901349217101 21.6191
36.862663978991606 21.5947
36.88613273667352 21.5509
36.90960309738324 21.5468
36.933075062434064 21.5185
36.95673202673572 21.4705
36.98020721697122 21.445999999999998
37.003684015502365 21.379
37.027162423645365 21.3454
37.050825886711465 21.3188
37.07430753063053 21.333000000000002
37.09779078812467 21.2838
37.121275660513014 21.2028
37.144945643673694 21.1369
37.16843376245278 21.1841
37.19192350009803 21.2271
37.215414857931435 21.1546
37.239091382563885 20.9939
37.262585997426164 21.0356
37.28608223645736 21.0149
37.309763684451696 20.9217
37.33326318851098 20.9303
37.356764320726555 20.8999
37.380267082425526 20.9026
37.40395510942588 20.888
37.42746114683234 20.7908
37.45096881771841 20.7957
37.474478123414166 20.7992
37.49817275092816 20.7214
37.52168534303452 20.6904
37.54519957395567 20.6024
37.568715445024665 20.6015
37.592416694607714 20.5767
37.61593586281424 20.5715
37.63945667518264 20.5785
37.66297913304891 20.5374
37.68668702630454 20.5265
37.710212792059274 20.4288
37.733740207334854 20.3804
37.757269273470364 20.2851
37.780983832050374 20.3016
37.80451621684926 20.3593
37.82805025654007 20.2976
37.851585952464795 20.2285
37.8753071980695 20.1528
37.89884622345676 20.073
37.92238690911902 20.1284
37.94611318753442 20.1391
37.969657210779765 20.0595
37.99320289834801 20.0511
38.016750251586465 19.9082
38.04048325513017 19.9161
38.06403395679343 19.9494
38.087586328183946 19.9026
38.11114037065203 19.9375
38.13488012115898 19.8463
38.1584375229181 19.7599
38.181996599821 19.7971
38.205557353221124 19.7567
38.229303872575656 19.7055
38.2528679961576 19.7716
38.27643380031219 19.6432
38.30000128639589 19.5976
38.32375459653193 19.589000000000002
38.34732546371299 19.5731
38.37089801690786 19.4815
38.39447225747609 19.4525
38.418232380377425 19.4336
38.441810012983396 19.4732
38.46538933705673 19.4053
38.488970353960084 19.421
38.51273731166058 19.3372
38.536321731567014 19.2593
38.55990784840681 19.259
38.58367995004091 19.2168
38.60726947812959 19.2019
38.63086070726198 19.215999999999998
38.654453638806274 19.2106
38.678232613930824 19.1735
38.70182896773327 19.0525
38.72542702806741 19.0467
38.7490267963045 19.0642
38.77281266709232 18.9938
38.79641586862214 18.9248
38.8200207821842 18.9537
38.843627409152944 18.942
38.86742019782782 18.8865
38.891030269149255 18.8829
38.914642058016156 18.8332
38.938255565806124 18.8123
38.96205529464307 18.7712
38.98567225787121 18.7088
39.00929094417078 18.7161
39.03291135492255 18.7036
39.05671804624804 18.6389
39.080341923549106 18.6024
39.103967529460334 18.6155
39.127594865365744 18.5068
39.15140854155791 18.52
39.17503935514948 18.509
39.19867190290282 18.4648
39.22249083587951 18.42
39.24612686969409 18.3697
39.269764641845306 18.4539
39.293404153722804 18.4223
39.317230110864074 18.2818
39.34087311998506 18.2986
39.36451787301696 18.2506
39.388164371352595 18.1362
39.41199737518003 18.1502
39.43564738196752 18.1303
39.45929913825317 18.0992
39.48295264543308 18.1638
39.506792718520884 18.1041
39.530449745387216 18.0127
39.55410852735203 18.0195
39.57776906581474 17.9841
39.60161623079 18.0157
39.625280300200025 17.936
39.64894613032202 17.8938
39.67261372255866 17.8718
39.6964680021016 17.8668
39.72013913657293 17.8308
39.74381203738292 17.8136
39.76748670593756 17.8119
39.79134812278169 17.7916
39.81502634488497 17.6989
39.83870633896685 17.7337
39.862388106436654 17.6609
39.88625668336918 17.6628
39.90994201572829 17.6651
39.933629125719285 17.5703
39.957503091207826 17.561
39.9811937746168 17.5508
40.00488623990914 17.528
40.02858048850006 17.4303
40.05246165409549 17.4295
40.076159487492085 17.4082
40.099859108448875 17.4246
40.123560518384345 17.4069
40.1474489070226 17.4094
40.171153913178564 17.2593
40.194860712584955 17.2975
40.2185693066637 17.2552
40.242464941335314 17.1493
40.26617714307655 17.1581
40.289891143772046 17.1929
40.3136069448471 17.1457
40.33750984859743 17.1358
40.3612292688043 17.0767
40.3849504936829 17.0831
40.40867352466194 17.0137
40.43258372059144 16.9935
40.45631038219906 16.9911
40.48003885420956 16.901
40.503769138055105 16.8837
40.52768664931955 16.9088
40.55142057531802 16.9124
40.57515631746428 16.8339
40.599079334038514 16.8503
40.62281872700477 16.8168
40.64655994043941 16.7528
40.67030297578061 16.7526
40.69423334835778 16.7538
40.71798004609188 16.7058
40.74172857006355 16.6492
40.76547892171441 16.5911
40.7894166736039 16.6194
40.813170699248566 16.5795
40.83692655691388 16.5095
40.86068424804498 16.5581
40.884629402612525 16.5206
40.908390779366385 16.5305
40.932153993938 16.4867
40.95591904777605 16.3812
40.979871628443995 16.4923
41.003640379561936 16.4179
41.02741097430883 16.357
41.05118341413683 16.2953
41.075143444384416 16.2686
41.098919593177826 16.2863
41.1226975914255 16.2859
41.14647744058318 16.186
41.170444943946755 16.1445
41.19422851378379 16.1697
41.218013938914645 16.0991
41.24198706625173 16.082
41.26577622087193 16.0926
41.289567235177785 16.045
41.31336011063129 16.0549
41.337340752422875 16.0046
41.361137369129835 15.9783
41.38493585138705 15.9598
41.40873620066004 15.8883
41.43272438060107 15.8702
41.45652848292052 15.8814
41.48033445666918 15.8585
41.50414230331616 15.8076
41.528138045159764 15.7935
41.551949656675205 15.729000000000001
41.575763145513235 15.709000000000001
41.59957851314666 15.665
41.62358184070442 15.6241
41.64740098505737 15.637
41.6712220126409 15.6282
41.69504492493139 15.6024
41.71905586207357 15.5472
41.74288256296395 15.5447
41.766711153007456 15.5281
41.79054163368412 15.4675
41.814560204340054 15.5158
41.838394485526365 15.4904
41.86223066180303 15.4646
41.88625497706819 15.4368
41.910094962812 15.3618
41.93393684811168 15.3869
41.95778063445365 15.2655
41.981812625263366 15.2593
42.00566023303407 15.2919
42.029509746323676 15.2751
42.05336116662236 15.2092
42.077400857069705 15.2179
42.10125611078846 15.2063
42.12511327600405 15.169
42.14897235421036 15.1008
42.173019768448455 15.1172
42.19688269209613 15.0874
42.22074753323349 15.0422
42.24461429335818 14.9754
42.268669455600495 14.9244
42.292540073217886 14.9247
42.31641261433284 14.9733
42.34028708044675 14.927999999999999
42.36435001496739 14.8939
42.38822835065557 14.8844
42.41210861586426 14.8751
42.4359908120986 14.8596
42.46006154323262 14.8042
42.48394762115317 14.7189
42.507835634632315 14.7396
42.531912233047436 14.6832
42.55580413732265 14.6299
42.579697981698 14.6574
42.60359376768525 14.6386
42.62767820545945 14.6
42.65157789440821 14.6313
42.67547952952185 14.5844
42.699383112316 14.5809
42.72347541395347 14.5256
42.74738291190531 14.5189
42.771292362102166 14.4921
42.795203766063516 14.4463
42.819303956130405 14.3922
42.843219287476536 14.3588
42.86713657716324 14.3766
42.89105582671383 14.3612
42.91516392983864 14.2791
42.939087119032166 14.2997
42.963012272677304 14.2443
42.98693939230129 14.1885
43.01105543317513 14.1773
43.034986504731386 14.2074
43.05891954686589 14.1645
43.08285456110972 14.1301
43.10697856448665 14.062000000000001
43.130917542983475 14.1033
43.15485849820081 14.1266
43.17880143167367 14.0347
43.20293342237094 14.0094
43.226880332449 14.0082
43.25082922540554 14.0007
43.27496722682525 13.9397
43.29892010567796 13.8902
43.32287497204102 13.9418
43.34683182745632 13.9009
43.370977859791836 13.8293
43.39493871351105 13.8318
43.41890156092628 13.8298
43.44286640358341 13.7669
43.46702049182749 13.7669
43.49098934522816 13.735
43.51496019852649 13.7771
43.5389330532723 13.7259
43.56309522248204 13.6197
43.58707210044314 13.6825
43.61105098451946 13.5918
43.63503187626491 13.6218
43.659202151562134 13.5571
43.68318707902681 13.5378
43.70717401884041 13.5327
43.731162972560874 13.5239
43.75534137913236 13.4851
43.779334381108384 13.5061
43.803329401683186 13.4643
43.82732644241872 13.4181
43.8515130055166 13.4091
43.87551410707659 13.3923
43.89951723350145 13.3711
43.923709934595614 13.3024
43.94771713129917 13.3056
43.97172635758096 13.2787
43.99573761501002 13.2019
44.0199385169922 13.2224
44.04395385732619 13.2277
44.067971233533086 13.1916
44.09199064718605 13.1564
44.11619977548961 13.1082
44.14022328470671 13.1077
44.16424883610785 13.1257
44.18827643127035 13.0835
44.21249381139513 13.0309
44.236525514814076 13.052999999999999
44.26055926674478 13.0373
44.28459506876863 13.0201
44.3088207262813 12.9583
44.33286064928722 12.9119
44.35690262714919 12.8813
44.38094666145278 12.8481
44.4051806219871 12.8682
44.42922879003185 12.8288
44.45327901929361 12.8226
44.477331311362136 12.8117
44.501573600619416 12.7487
44.525630039221795 12.7937
44.54968854541895 12.714
44.573937102200176 12.7205
44.5979997645541 12.6956
44.622064499300315 12.6717
44.64613130803592 12.5992
44.67038823869318 12.66
44.69445921643748 12.5829
44.718532272981385 12.5312
44.742607409926194 12.5846
44.76687274034801 12.5491
44.79095205918753 12.509
44.81503346325094 12.4956
44.839116954143876 12.4985
44.86339071028742 12.4696
44.88747839599524 12.4002
44.91156817336837 12.343
44.93566004401666 12.3753
44.959942251908146 12.3322
44.984038330325966 12.3359
45.00813650686762 12.2646
45.03223678314731 12.3037
45.05652746888232 12.275
45.08063196592069 12.2836
45.104738567558705 12.1634
45.128847275414856 12.1988
45.15314646515866 12.1372
45.17725940679741 12.1435
45.20137445952892 12.134
45.22568004865265 12.1232
45.24979934496396 12.1162
45.27392075725247 12.0623
45.29804428714431 12.0678
45.322358426247604 12.0332
45.346486212804315 11.9791
45.370616121861914 11.9776
45.39474815505086 11.9644
45.41907087049246 11.9124
45.4432071734666 11.8747
45.46734560548283 11.8805
45.49148616817604 11.8555
45.51581748638564 11.8433
45.5399623320197 11.8367
45.56410931325473 11.7941
45.58825843173002 11.8206
45.61259837920865 11.7377
45.636751793816 11.7568
45.66090735060093 11.7109
45.68506505120716 11.6778
45.7094136545275 11.7053
45.73357566449271 11.6644
45.75773982322992 11.627
45.78190613238733 11.6319
45.806263418194064 11.5975
45.83043404997326 11.5704
45.85460683713677 11.6045
45.87897065658495 11.5609
45.90314777634752 11.5072
45.92732705646868 11.4701
45.9515084986045 11.5122
45.97588104735473 11.4601
46.00006683541565 11.4194
46.02425479047904 11.4001
46.04844491420549 11.4386
46.0728262191024 11.4109
46.09702070211635 11.3832
46.12121735879483 11.3435
46.14541619080294 11.2996
46.169806278764455 11.3045
46.194009483459034 11.265
46.21821486849841 11.2976
46.24242243555223 11.2312
46.266821333570014 11.1941
46.29103328674601 11.1723
46.31524742696538 11.1705
46.33946375590237 11.1474
46.36387149104216 11.1381
46.38809221957392 11.1217
46.41231514186606 11.1129
46.436540259597464 11.0995
46.460956858999374 11.0691
46.48518638983522 11.0275
46.509418121166966 11.0337
46.533652054678114 10.991
46.55807754555709 10.94
46.58231590571962 10.9333
46.60655647313217 10.8934
46.630988654873654 10.9022
46.655233659129024 10.8887
46.67948087571551 10.8861
46.70373030632484 10.8548
46.72817142736393 10.8298
46.752425308428684 10.8024
46.77668140861147 10.8026
46.80093972960865 10.7485
46.82538981736788 10.7065
46.849652602470904 10.7246
46.87391761349769 10.6868
46.8981848521493 10.7129
46.9226439341274 10.6889
46.946915650573224 10.659
46.97118959976749 10.6587
46.99546578341598 10.6329
47.019933887188216 10.5652
47.04421456235744 10.5997
47.06849747711879 10.5513
47.09278263318286 10.5252
47.11725978640143 10.5249
47.14154944775105 10.5052
47.165841355555656 10.4682
47.1901355115306 10.4223
47.214621741924994 10.4657
47.23892041698887 10.4084
47.26322134538975 10.4109
47.28771440635075 10.3999
47.31201986422527 10.3609
47.33632758061436 10.3208
47.360637557241866 10.3276
47.38513974410611 10.3092
47.40945426407847 10.2679
47.43377104948137 10.262
47.45809010204344 10.2458
47.48260144275502 10.2038
47.506925052572285 10.1962
47.53125093475548 10.1979
47.55557909103813 10.1444
47.58009961361992 10.1281
47.60443234110732 10.1196
47.62876734791564 10.1022
47.65310463578333 10.078
47.6776343683373 10.0764
47.7019762413987 10.0404
47.72632040075572 10.0362
47.75066684815169 10.0294
47.77520581885936 9.98794
47.799556865477655 9.95562
47.823910205386 10.0097
47.84826584033272 9.97492
47.87281407745551 9.908489999999999
47.89717432569297 9.924430000000001
47.92153687423484 9.887739999999999
47.94609208429692 9.88448
47.97045925671401 9.856060000000001
47.99482873471275 9.80637
48.01920052005013 9.80642
48.04376504619224 9.81911
48.068141469543484 9.831339999999999
48.09252020552573 9.788860000000001
48.11690125590099 9.76516
48.1414751266064 9.73436
48.16586082917454 9.708969999999999
48.19024885144316 9.70372
48.2146391951793 9.72529
48.239222439012764 9.68488
48.26361744916137 9.66821
48.28801478610016 9.668
48.31241445160131 9.61285
48.337007097209366 9.531889999999999
48.36141144338331 9.576789999999999
48.38581812345755 9.53507
48.41022713920929 9.571639999999999
48.434829215320704 9.54862
48.45924292604658 9.53858
48.48365897780325 9.52057
48.50807737237308 9.48787
48.532688907799276 9.459719999999999
48.55711201168574 9.46133
48.581537463754074 9.42481
48.60615611725119 9.44489
48.63058628942721 9.409939999999999
48.65501881516546 9.394639999999999
48.6794536962573 9.3545
48.70408185970339 9.352089999999999
48.72852147531801 9.32972
48.75296345168211 9.31193
48.77740779059232 9.31332
48.80204549302823 9.31893
48.82649458091802 9.25758
48.85094603676547 9.22536
48.87539986237231 9.213230000000001
48.90004713292306 9.185310000000001
48.92450572200832 9.204939999999999
48.94896668628025 9.172419999999999
48.97343002754588 9.16772
48.99808689542115 9.164760000000001
49.02255501470614 9.16488
49.04702551642794 9.11386
49.0714984023988 9.07747
49.096164896893235 9.021289999999999
49.120642575466796 9.054960000000001
49.145122643748394 9.06015
49.16960510355558 9.0262
49.19428125404938 8.97362
49.2187685210852 8.9579
49.243258185121555 8.97708
49.26794160167084 8.94908
49.2924360839405 8.9446
49.31693296869764 8.9012
49.34143225776915 8.86624
49.36612538195438 8.87003
49.39062950396021 8.83704
49.41513603578346 8.84402
49.4396449792564 8.84
49.46434784069503 8.8092
49.488861631846454 8.78336
49.513377840166804 8.75975
49.537896467493745 8.746839999999999
49.56260909589029 8.702010000000001
49.587132585683285 8.753810000000001
49.611658500018365 8.70523
49.636186840738596 8.673060000000001
49.66090926588511 8.65837
49.685442483902584 8.65371
49.70997813385706 8.60518
49.734516217597076 8.600530000000001
49.75924846937352 8.5882
49.7837914452858 8.56109
49.80833686055187 8.55965
49.83288471702571 8.55386
49.85762682540054 8.5373
49.882179588965734 8.49734
49.9067347993235 8.50955
49.93129245833333 8.52155
49.95604445336378 8.47294
49.98060703442832 8.44999
50.005172069746266 8.423630000000001
50.02993150438364 8.43915
50.05450147301533 8.3946
50.07907390151433 8.400160000000001
50.10364879174981 8.34777
50.12841816587289 8.34857
50.1529980044635 8.323939999999999
50.17758031042124 8.32117
50.20216508562089 8.34125
50.22694442953363 8.28622
50.25153416817468 8.2603
50.27612638170508 8.27613
50.300721072005196 8.24421
50.325510416102105 8.21894
50.350110084975064 8.20841
50.37471223628208 8.22231
50.39931687190919 8.17424
50.424116246675766 8.15397
50.44872587605249 8.12981
50.47333799543065 8.119010000000001
50.49795260670191 8.08805
50.52276204271512 8.077689999999999
50.54738166295838 8.06152
50.57200378079314 8.063889999999999
50.596628398116835 8.08571
50.62144792604559 8.07357
50.646077567609396 8.03652
50.670709714377715 8.05821
50.69553683636198 8.03699
50.72017401885922 7.962969999999999
50.7448137122895 7.978089999999999
50.76945591856022 7.94148
50.79429318636823 7.9581
50.818940443716784 7.964760000000001
50.84359021965163 7.902839999999999
50.868242516085964 7.9049
50.893089960641895 7.91904
50.917747323549435 7.8635600000000005
50.94240721271973 7.8396
50.96706963007175 7.84572
50.99192728239342 7.8090399999999995
51.01659478166073 7.810219999999999
51.04126481489051 7.7704
51.06593738400761 7.78269
51.090805275207074 7.76121
51.11548294172845 7.698639999999999
51.14016314993547 7.745019999999999
51.164845901758845 7.717169999999999
51.18972406304274 7.69994
51.21441192780656 7.70176
51.23910234200271 7.68013
51.2637953075678 7.645739999999999
51.288683770237945 7.60763
51.31338186432707 7.569960000000001
51.33808251561888 7.58927
51.362978729967345 7.5959
51.387684521509755 7.5624899999999995
51.41239287610203 7.55147
51.437103795691165 7.53407
51.46201036644977 7.502560000000001
51.486726441956634 7.48455
51.51144508832545 7.48105
51.536166307509156 7.487089999999999
51.56108326624387 7.47302
51.58580965706056 7.451410000000001
51.61053862657523 7.428160000000001
51.635270176746864 7.394539999999999
51.66019755512065 7.372719999999999
51.68493429268881 7.40867
51.70967361681515 7.3843
51.73441552946465 7.394889999999999
51.759353359237934 7.34059
51.7841004750961 7.380039999999999
51.80885018539685 7.305619999999999
51.833602492111254 7.27521
51.8585508051424 7.2644
51.883308330926425 7.253939999999999
51.90806845906181 7.222510000000001
51.932831191525715 7.24362
51.95779001977161 7.17855
51.98255798721516 7.157089999999999
52.00732856494335 7.142869999999999
52.03229530577543 7.18468
52.057071130455945 7.177389999999999
52.081849571391054 7.1516
52.106630630568695 7.14272
52.13160794279417 7.083880000000001
52.15639426492067 7.10389
52.18118321127822 7.09426
52.205974783860896 7.0520000000000005
52.23096269971011 7.039
52.255759551287994 7.02628
52.280559035098186 7.02279
52.30536115314103 7.02729
52.33035970494467 6.97174
52.35516711807904 6.976030000000001
52.37997717147198 6.97709
52.40478986713005 6.95035
52.42979908731974 6.939489999999999
52.454617094216 6.93071
52.47943774942214 6.91552
52.50426105495102 6.914510000000001
52.529280976059844 6.930910000000001
52.554109609024096 6.8867
52.57894089837482 6.87795
52.60377484613117 6.850860000000001
52.62880550079408 6.805160000000001
52.65364479223379 6.79824
52.67848674816189 6.798189999999999
52.70352547971946 6.76043
52.72837279155837 6.721430000000001
52.753222773982785 6.73588
52.778075429022984 6.7406
52.80312495150885 6.73037
52.827982978797436 6.704789999999999
52.85284368481815 6.6670300000000005
52.87770707160767 6.64146
52.90276741793998 6.60027
52.92763619336701 6.6460300000000005
52.952507655698504 6.63555
52.977381806977576 6.63399
53.00245301017842 6.6482399999999995
53.02733256653592 6.636889999999999
53.052214817996074 6.596939999999999
53.077099766608484 6.56977
53.102181859804446 6.576110000000001
53.127072229988265 6.53559
53.15196530349892 6.50177
53.17686108239249 6.5185
53.20195409881522 6.55467
53.22685531582556 6.53014
53.25175924441303 6.479369999999999
53.27666588664027 6.480090000000001
53.30176985962693 6.45821
53.3266819565689 6.45181
53.35159677336455 6.431780000000001
53.376514312083096 6.4255
53.40162927507703 6.43929
53.42655228516116 6.3855900000000005
53.45147802340193 6.34788
53.47660125628886 6.3457099999999995
53.50153247842639 6.33938
53.52646643496923 6.295640000000001
53.55140312799818 6.33526
53.576537409691696 6.3129800000000005
53.60147960336152 6.27958
53.626424539786164 6.28076
53.65137222105307 6.23571
53.67651758529126 6.22929
53.70147078399681 6.20681
53.72642673383343 6.19072
53.75138543689533 6.19156
53.776541917524526 6.20032
53.801506154876755 6.17971
53.826473151763246 6.2150300000000005
53.851442910284916 6.13468
53.87661054126026 6.12153
53.9015858509782 6.1058900000000005
53.92656392866066 6.061640000000001
53.95154477641532 6.123419999999999
53.976723591801296 6.07672
54.00171000771266 6.0944
54.02669920004598 6.04575
54.051691170915745 6.05523
54.076881204886796 6.01973
54.101878760928514 6.00352
54.12687910187696 5.964919999999999
54.152077577768296 5.98395
54.1770835166946 5.9351400000000005
54.20209224691339 5.916580000000001
54.22710377055121 5.92295
54.25231352511594 5.9275
54.27733066384342 5.88414
54.30235060239643 5.87921
54.32737334290836 5.8582
54.35259441062629 5.79044
54.377622783395324 5.90787
54.40265396455061 5.87105
54.42768795623251 5.80016
54.45292037169559 5.8192
54.477960012857906 5.781619999999999
54.50300247099511 5.76529
54.52804774825457 5.747319999999999
54.55329154616743 5.71015
54.57834249018678 5.69085
54.6033962597977 5.70507
54.6284528571545 5.70216
54.653708072335164 5.63727
54.67877035378786 5.63008
54.70383546947698 5.592280000000001
54.72890342156389 5.58138
54.7541700889442 5.5502199999999995
54.77924374251975 5.53103
54.8043202390049 5.5132
54.82959552413022 5.48944
54.8546777351945 5.45943
54.87976279569621 5.45811
54.90485070780914 5.45469
54.930137506558005 5.41667
54.95523115074295 5.44931
54.98032765308844 5.37777
55.005427015775496 5.33791
55.03072536339621 5.35139
55.05583047570572 5.30455
55.080938454927676 5.2983199999999995
55.10604930325027 5.28295
55.131359235107396 5.30061
55.15647585066083 5.24834
55.181595341907496 5.21554
55.20671771104285 5.21922
55.232039262617704 5.17335
55.25716741665048 5.18244
55.28229845518636 5.1003300000000005
55.30743238042802 5.15104
55.33276558731939 5.070069999999999
55.357905315183636 5.00203
55.383047936390035 4.99959
55.40819345314859 5.03442
55.433538351073295 5.0395199999999996
55.458689688238415 4.99758
55.483843927614096 4.945
55.509197623043605 4.9547099999999995
55.53435769621134 4.9071
55.55952067826466 4.91436
55.5846865714265 4.88871
55.61005202069737 4.8449800000000005
55.63522376553902 4.854480000000001
55.66039842818645 4.8022800000000005
55.68557601087004 4.80124
55.7109532500271 4.72328
55.73613670233794 4.799169999999999
