TT I
1.2716486653135266 7.15428
1.2939594142134223 6.64232
1.3162702121660406 6.599239999999999
1.3385810600174564 6.82067
1.3608919586137629 7.13081
1.383202908801069 7.02198
1.405513911425503 6.1622699999999995
1.4278249673332093 6.08735
1.4501343378461518 5.99092
1.4724455028545926 6.15305
1.4947567236847858 5.82154
1.517068001182951 5.85543
1.5393793361953272 5.84949
1.5616907295681737 6.58113
1.5840021821477681 5.26572
1.60631369478041 5.07224
1.6286252683124185 5.30576
1.6509369035901333 5.03509
1.6732468618895553 5.22941
1.695558623192809 4.6734
1.7178704487808514 4.68625
1.7401823395001077 4.5304400000000005
1.7625012545597203 4.2599
1.7848028405262486 4.83758
1.8071218901122095 5.01914
1.8294236121921872 5.0126
1.8517427996910911 4.460380000000001
1.8740620574440425 4.923
1.8963639900671978 4.9848
1.9186833908139995 4.56273
1.9409854680117449 4.83096
1.9633050151394713 5.00711
1.9856246367570705 4.75862
2.0079269371922672 4.5808599999999995
2.03024671027244 4.98688
2.0525491637446027 4.83973
2.074869091674931 4.540109999999999
2.097171701569106 5.31768
2.1194917877373847 5.2314300000000005
2.141811954326636 4.32841
2.164114805233074 4.963019999999999
2.186435135143035 6.945060000000001
2.208738150935709 16.2334
2.231058647554722 36.0626
2.2533792288321184 28.6629
2.275682498336085 12.8665
2.298003251406138 6.4431199999999995
2.3203066942619714 5.12482
2.3426276225136022 5.76293
2.3649486396617507 5.80666
2.387252348930071 5.66328
2.4095735463442893 5.66063
2.4318774374315884 5.47714
2.4541988185014043 6.04044
2.476502894794693 6.836139999999999
2.498824462909887 7.173030000000001
2.521146125856138 6.88553
2.5434504863470337 7.199110000000001
2.5657723414244717 7.671010000000001
2.588076895590662 8.23204
2.610398946189713 8.20542
2.6327210958598384 8.269169999999999
2.6550259469304716 8.11893
2.6773482972090137 8.11342
2.6996533504259 8.26453
2.7219759047039602 8.44994
2.744298562293959 8.54476
2.7666039251246595 7.877839999999999
2.7889267918020164 7.94353
2.8112323652516555 8.40813
2.833555444408179 8.13049
2.8558786311183852 8.34366
2.8781845268938557 8.89162
2.9005079311721484 8.97458
2.9228140460410397 9.01937
2.9451376712799635 9.3388
2.967444008632326 9.93527
2.9897678582247247 9.734919999999999
3.0120918213106695 10.6539
3.0343984987899373 10.7277
3.0567226913198637 11.127
3.079029599759726 12.0276
3.101354025127254 12.5032
3.123678568232338 12.4993
3.145985829517914 13.3227
3.16831061055229 14.0403
3.1906181112775593 14.5699
3.212943133635653 14.7627
3.2352682779763207 15.3078
3.2575761442691227 15.8433
3.2799015350264273 15.9678
3.302209649240067 16.4444
3.3245352898092655 17.2329
3.3468436553365257 17.3776
3.369169549113219 18.0056
3.3914955708171384 18.5372
3.413804319727358 18.8812
3.4361305997334863 19.6889
3.4584396084414553 19.7003
3.4807661501462652 20.1826
3.503092824025881 21.0434
3.5254022288463154 21.250999999999998
3.5477291695206588 22.1145
3.5700388426251948 23.0136
3.5923660534916446 24.5442
3.6146934007816114 43.975
3.637003482731501 112.932
3.6593311053109985 128.37
3.681641464033634 70.83800000000001
3.7039693653009733 33.3319
3.726297407241705 26.4433
3.7486081875460804 26.1729
3.7709365132734978 26.6042
3.793247578841633 26.5809
3.8155761917550093 26.8176
3.8378875459837216 26.802
3.8602164494827234 27.5381
3.882545499606844 28.454
3.9048572932539183 29.4028
3.9271866390645718 29.3096
3.9494987298666713 29.8977
3.971828374764527 30.2172
3.9941581705403255 30.5782
4.016470713506008 31.8432
4.038800813471445 32.1912
4.061113662089144 33.0021
4.0834440696459176 33.6734
4.105774632334751 34.4783
4.128087945865126 34.9043
4.150418821249301 35.599000000000004
4.172732448931298 37.2147
4.195063640413578 39.4758
4.2173775856475215 43.9861
4.239709096631102 84.4582
4.262040768704612 304.199
4.284355196706267 426.733
4.306687193387355 274.596
4.329001947444346 97.663
4.35133427213731 50.5177
4.373666762177566 45.4103
4.395982011761091 44.9186
4.418314834921175 46.1875
4.44063041906622 55.9836
4.4629635787515625 71.0776
4.4852969080429785 71.0627
4.5076130004776225 56.0955
4.529946671403969 50.1123
4.552263106909177 49.6019
4.574597122877047 51.2827
4.596931312711224 52.0759
4.619248269273446 52.857
4.6415828092605835 54.077
4.663900117405352 55.2146
4.686235010953232 56.1777
4.708552674085913 57.5456
4.730887924602802 59.407
4.753223354952695 60.6491
4.775541557023902 61.8793
4.797877349456786 63.0368
4.820195915032126 64.8049
4.842532072957498 66.5722
4.864868414979744 68.5993
4.88718753227192 70.2436
4.909524244902505 72.3973
4.931843734218147 74.2226
4.954180820867835 76.5857
4.976518095879839 79.5033
4.998838149695359 81.7762
5.021175803844231 85.1522
5.043496238205739 88.1481
5.065834274903528 92.367
5.088172504230693 96.5694
5.1104935158799565 102.664
5.132832132875765 126.736
5.155153533596801 180.74200000000002
5.1774925416746225 212.472
5.199814334878411 303.82
5.2221537374521505 804.725
5.244493338631803 2407.58
5.266815727034316 7191.4
5.289155727832427 12940.0
5.311478517248165 9315.92
5.333818921080011 3056.86
5.356159527788849 586.862
5.3784829252032536 188.125
5.400823940070432 144.22
5.423147747031976 127.79700000000001
5.445489173474152 118.03200000000001
5.467830807066149 112.8
5.490155234831516 108.234
5.512497285125229 104.492
5.534822130975162 103.149
5.557164601388673 100.524
5.579489868738879 98.1916
5.601832762690846 97.3465
5.6241758697774475 96.8646
5.646501775867269 95.536
5.668845311622074 93.7162
5.691171647754637 93.0829
5.713515615597765 92.1599
5.735859800852677 90.8933
5.758186788542988 89.9271
5.780531411018185 90.0625
5.802858837297399 89.4711
5.825203900414495 89.1423
5.8475491852224 89.4953
5.869877275883075 89.9671
5.892223006467101 91.1691
5.914551544266608 91.8448
5.936897724049891 93.84899999999999
5.959244129804903 97.8013
5.981573344815301 110.709
6.0039202049061 178.894
6.026249875609095 378.00300000000004
6.04859719346037 828.5039999999999
6.070927323278297 1944.43
6.093275102315365 4196.53
6.115623113320588 5297.81
6.137953938319995 3269.45
6.160302415650845 1029.21
6.182633708324452 249.611
6.2049826554078376 115.365
6.227331838745022 92.5975
6.249663839443684 84.8732
6.27201349767565 82.8998
6.294345974611799 92.587
6.316696111167083 109.848
6.339046488263839 103.24
6.361379686074702 83.3635
6.383730546639482 72.4158
6.406064229255215 68.6243
6.428415576718203 67.7677
6.450749747566656 66.9626
6.47310158535871 65.8104
6.495453669698332 65.1947
6.517788579421056 64.62100000000001
6.540141159237969 63.7911
6.562476565766648 63.4687
6.5848296444934045 62.7945
6.607182974060425 62.5855
6.6295191323281015 62.7826
6.651872965955752 67.4981
6.6742096296068985 102.051
6.6965639707294615 166.46200000000002
6.71891856698715 168.5
6.741255995248479 109.21
6.763611104154477 72.0622
6.785949046381137 61.3123
6.808304671371482 58.8338
6.8306605557940046 58.2992
6.852999275508618 57.5654
6.875355681171544 57.1856
6.897694923437771 56.6362
6.92005185377892 56.9363
6.9423916220322655 56.5813
6.964749080490181 55.6981
6.987106804399774 55.9678
7.009447368180821 55.8093
7.031805625367033 55.5224
7.054146723727803 55.6399
7.076505517631004 55.4575
7.098864581288365 55.7288
7.121206488070854 55.7236
7.143566093607822 55.1555
7.165908543567245 55.38
7.188268694426048 55.7337
7.2106291193438095 55.738
7.232972390625943 57.6287
7.255333366030969 73.9828
7.277677189091925 147.246
7.300038718428332 216.623
7.322400526130865 180.65900000000002
7.344745183422596 103.351
7.367107550224791 65.1027
7.389452767901992 57.2565
7.411815697249891 55.9815
7.434161478756298 54.7921
7.456524974096713 54.3867
7.478888753837185 54.3789
7.501235387657368 54.7921
7.523599738562711 54.8819
7.545946944825532 54.9627
7.568311870344528 55.6176
7.5906770845765665 55.8629
7.613025156078678 57.4085
7.635390950099687 59.0672
7.657739602662809 58.2361
7.680105979923558 56.4602
7.702472650212829 56.0647
7.724822180948224 55.7667
7.747189439655568 55.9858
7.769539560075357 55.8313
7.791907410653562 56.4516
7.81425812420825 56.555
7.836626570110925 56.9133
7.858995315087906 57.4424
7.881346924933401 58.0039
7.903716270417482 58.0621
7.926068482028405 58.4971
7.948438431475253 58.9425
7.9708086843180235 59.1753
7.993161805171116 59.9578
8.015532667162402 60.3852
8.037886398416653 61.5295
8.060257873014221 61.885
8.082629655331942 62.4329
8.104984308787587 63.6827
8.127356708900503 67.6021
8.149711981398308 74.7599
8.172085002766314 78.0582
8.194458336181368 73.4283
8.216814543847752 69.6524
8.23918850371002 68.8531
8.26154533906492 69.5393
8.283919928836452 71.0251
8.306277395339652 71.9432
8.328652618483376 73.4422
8.351028159736202 75.1201
8.373386579575245 77.268
8.395762759396959 78.9374
8.418121819038275 84.6736
8.440498640894003 100.76299999999999
8.462875785192262 117.90899999999999
8.485235811156207 125.51
8.507613602688501 150.321
8.529974277114228 220.21099999999998
8.552352719347912 341.921
8.574731488360351 585.056
8.59709314210385 1092.89
8.619472567021075 1778.62
8.64183487789147 2199.98
8.664214962183097 1870.18
8.686577933647762 1054.91
8.708958680784317 394.532
8.731339760774953 170.916
8.753703729764451 112.46700000000001
8.77608547780821 99.0079
8.798450116065078 94.891
8.820832535634787 91.7145
8.843215292401656 90.2854
8.865580941199045 88.6982
8.887964374703538 87.8998
8.910330701447199 89.6477
8.932714815164482 93.538
8.955099270424924 93.0162
8.977466620733543 88.749
8.999851761421976 85.0575
9.022219798361645 83.3722
9.04460562795561 82.8287
9.066991803441677 82.2115
9.089360876979615 82.0714
9.111747746589993 81.8011
9.13411751544971 81.1681
9.156505082664324 80.8343
9.178875550323522 80.9421
9.20126381862328 81.8346
9.223652438908596 82.2403
9.246023961427412 81.736
9.26841328802173 81.3954
9.290785518039224 81.205
9.313175554425882 81.6622
9.335565947154315 81.4232
9.357939245086508 81.6395
9.380330352834827 81.79
9.40270436697103 82.4542
9.425096193225055 82.1363
9.447488380180165 82.9369
9.469863475295412 83.329
9.492256385987508 83.7192
9.514632206018318 84.4065
9.537025843935714 84.7094
9.559402392368193 85.3341
9.581796761000229 86.225
9.604191496441521 87.2812
9.626569144158516 92.0323
9.648964615551032 98.1596
9.671343000390081 100.208
9.693739211225699 97.1422
9.716135793237463 93.3865
9.738515290448102 92.5891
9.760912617143402 93.2135
9.783292860202891 94.0318
9.805690935076182 94.9661
9.828089385495742 95.9746
9.850470754023561 98.7242
9.872869957865444 108.234
9.89525208097539 127.26
9.917652041736662 143.365
9.940052382417589 140.934
9.962435644102392 136.481
9.984836746950979 158.983
10.007220771957746 210.173
10.029622640473708 299.91
10.052007432299963 462.88699999999994
10.074410069984072 744.836
10.096813093716005 1210.67
10.119199042482517 1726.4
10.141602840636468 2017.73
10.163989564971628 1634.07
10.186394141051062 922.4810000000001
10.208799107559706 404.235
10.231187001965623 190.90099999999998
10.253592751657669 126.884
10.275981430388155 113.322
10.298387966769793 114.00200000000001
10.320794897965431 117.59700000000001
10.343184759907361 117.056
10.36559248305461 110.016
10.387983138083852 104.102
10.410391656691655 104.62899999999999
10.432800574501677 112.42299999999999
10.455192425893369 127.24600000000001
10.47760214443012 148.718
10.499994797678786 189.66099999999997
10.522405320453982 263.55
10.54479877906917 384.415
10.567210109595656 510.361
10.5896218454736 581.569
10.612016518879773 518.1709999999999
10.634429067781074 365.024
10.656824555333241 209.46200000000002
10.679237920773568 127.465
10.701651695961992 96.4984
10.724048411481384 88.8547
10.746463008485165 86.04799999999999
10.768860546937125 84.3872
10.791275969274796 82.7451
10.81369180576079 81.4649
10.836090585366925 80.5888
10.858507252467449 79.3999
10.88090686379991 78.5226
10.903324365036394 78.2527
10.925724811614439 78.5777
10.948143150509463 80.3029
10.970561909719066 79.7488
10.992963615930844 77.1073
11.015383218085756 74.6064
11.037785768347074 73.0567
11.06020621697282 72.3405
11.082627090322113 71.9149
11.105030913430326 71.476
11.12745263854165 72.307
11.149857314510728 77.1664
11.172279894912576 86.0077
11.194702904450653 87.4845
11.217108866490921 82.1529
11.239532736615194 76.08800000000001
11.26193956033512 73.4665
11.284364294577085 70.968
11.306789462371718 68.2799
11.329197585398376 67.0228
11.351623622610898 66.72399999999999
11.37403261614354 65.8809
11.396459526308487 65.635
11.418869393879497 65.3109
11.441297180532617 65.1432
11.463725406927658 64.5765
11.486136592353875 64.6247
11.508565700543707 65.4984
11.530977768845315 68.1232
11.553407762368774 69.5753
11.575838200059769 68.6793
11.598251599479612 66.0815
11.620682927815501 63.8495
11.64309721895548 63.2929
11.665529441478206 62.6244
11.687962112597958 62.3954
11.710377748130886 62.5822
11.732811318753434 62.4714
11.755227854859067 62.552
11.777662328529495 62.5413
11.800079768750786 62.2785
11.822515149015453 62.2161
11.844950984084935 62.2168
11.867369787303163 62.058
11.889806534289491 62.0338
11.912226250487029 62.163999999999994
11.934663912939751 62.39
11.9571020346363 62.2602
11.979523127133968 62.2725
12.001962169624331 62.8269
12.024384183972964 63.4132
12.046824150809913 65.9511
12.069264581333726 70.4976
12.091687985297767 75.7905
12.11412934550045 84.1261
12.136553680195208 97.6326
12.158995973632788 119.359
12.181438735204349 146.24200000000002
12.20386447284199 182.146
12.226308172985636 209.398
12.24873485024193 205.57299999999998
12.271179492516982 173.46400000000003
12.293607112949127 132.075
12.316052700916226 101.48
12.338498763250042 82.4077
12.360927805303868 71.7021
12.383374818673879 66.9362
12.405804812803074 64.6596
12.428252780773262 64.0869
12.45070122756722 63.9527
12.473132656675375 63.8979
12.49558206341869 64.0239
12.518014453510101 64.0175
12.540464823770117 64.3534
12.562915677315177 64.4357
12.58534951575545 65.3416
12.607801338171472 68.0121
12.630236146511358 75.1644
12.652688941369085 81.5073
12.675124723177234 81.9539
12.697578494048786 76.7646
12.720032754458185 70.5822
12.742470003354093 68.1258
12.764925245138771 67.6403
12.787363476431278 67.4842
12.809819703166806 67.7511
12.83227642391173 68.4209
12.854716135692716 69.0134
12.877173846755147 70.3061
12.899614549869717 70.3037
12.9220732548287 71.0595
12.94453245827299 71.5247
12.966974655289818 72.6525
12.989434858002571 72.9948
13.011878055298721 73.7235
13.034339260862497 74.6978
13.056800969391883 75.9834
13.079245674017244 77.9197
13.101708390774869 79.2956
13.12415410463411 84.7275
13.146617833206086 95.3256
13.169064559883248 105.916
13.191529303857127 118.90100000000001
13.213994557076367 139.31799999999998
13.236442809902437 172.488
13.258909083908291 223.90200000000002
13.28135835851934 290.2
13.30382565690295 362.45099999999996
13.326293469022952 421.042
13.348744283242008 433.309
13.371213125129904 375.749
13.39366497011003 279.328
13.416134845360597 184.4
13.438605238843131 127.81200000000001
13.46105863690397 105.301
13.483530069144786 102.15700000000001
13.505984506951902 105.79299999999999
13.528456981549432 114.152
13.550929978879088 127.069
13.573385983253365 148.547
13.595860028340867 184.19799999999998
13.618317081455832 234.55599999999998
13.64079217790333 293.64
13.663250283359057 344.19
13.685726434770173 373.283
13.708203115221277 347.19800000000004
13.730662806148091 269.452
13.75314054697177 190.803
13.775601299246777 132.066
13.798080104050406 98.4427
13.820559442405358 85.4494
13.843021793671388 81.229
13.865502201420897 79.6727
13.887965623051947 78.80199999999999
13.910447103807167 77.8309
13.932929122629764 76.4231
13.955394156785959 76.1911
13.977877254034569 75.171
14.000343367582113 74.415
14.022827546871707 73.7365
14.045294743423524 72.8919
14.06778000837062 72.1317
14.090265817715476 72.3513
14.112734645763819 72.1169
14.13522154619454 72.0422
14.157691466286913 72.3131
14.180179461423874 71.727
14.202668005486178 70.9701
14.22513957064374 70.4207
14.247629214846473 69.8105
14.270101881097517 69.5562
14.29259262906496 70.3298
14.315083930490205 71.2747
14.337558255389705 71.7294
14.360050666019726 71.5534
14.382526101071944 70.0987
14.405019624534942 69.0495
14.427513705993134 68.126
14.449990813291825 68.211
14.47248601302899 67.9855
14.49496423954951 68.17699999999999
14.517460561197822 68.1079
14.539939910570322 68.0295
14.562437357763558 68.4696
14.58493536931253 70.112
14.607416409993311 71.1569
14.62991555254159 72.1086
14.652397725157423 71.73899999999999
14.674898002342799 70.6792
14.697398848433282 69.8607
14.719882725991326 70.0866
14.74238471217934 70.5896
14.764869730765593 73.1637
14.787372860692983 76.1961
14.809876564079925 80.0642
14.83236330125751 85.2729
14.854868153850365 92.9371
14.877356041159485 105.42399999999999
14.899862046604186 122.50200000000001
14.922351087688757 146.37
14.944858249632887 174.95
14.967365991421232 203.271
14.989856770231246 221.646
15.012365673994204 221.984
15.03485761569738 193.357
15.05736768508665 151.94799999999998
15.07987833888692 117.814
15.102372032001655 92.5684
15.124883856909658 77.3358
15.14737872204565 72.2575
15.169891721717274 70.3511
15.192405310371893 70.2971
15.214901940621196 70.8197
15.237416709527137 71.0632
15.259914520936249 71.54899999999999
15.282430473753607 70.4137
15.304947020131227 69.2748
15.327446610371178 68.0908
15.349964346154254 67.1338
15.372465126703139 66.3854
15.394984055556009 66.2426
15.417486030076159 65.9109
15.44000615566487 65.5044
15.462526881230803 65.6029
15.485030653812652 65.8803
15.507552581617434 65.8268
15.530057557334603 66.105
15.55258069104857 65.8155
15.575104429329837 65.568
15.597611216864632 65.1772
15.620136166564563 65.0732
15.6426441664095 65.7336
15.665170331202765 67.3818
15.687697105158826 70.0447
15.710206930593545 73.082
15.732734925158933 76.8921
15.755245972089478 82.1978
15.77777519094324 90.5589
15.800287463046663 102.34
15.822817909869592 120.648
15.84534897229804 141.878
15.867863089299354 164.795
15.890395385222186 184.22
15.912910736597423 194.27599999999998
15.935444269699861 184.78400000000002
15.957978423016485 158.58
15.980495633101265 127.448
16.003031029129367 98.8178
16.02554948280019 78.1302
16.048086125229432 68.6475
16.070623392487107 65.6938
16.09314371869582 65.1265
16.11568223789321 64.2448
16.13820381691126 62.9617
16.160743591742527 61.5376
16.183283996022084 60.5219
16.205807461423195 59.3773
16.228349126881973 58.6613
16.25087385432698 58.7415
16.27341678466365 58.1153
16.29594277784926 58.2835
16.31848697676433 58.8186
16.341031811604868 59.5681
16.36355971058487 59.8467
16.3861058195587 59.4079
16.40863499352978 57.9713
16.431182380342005 56.8547
16.453730407713202 56.0042
16.476261501364792 55.4263
16.498810812136167 55.2637
16.52134319004079 55.3153
16.54389378792203 55.1448
16.566445031001553 54.8809
16.588979342490088 54.9262
16.61153187824822 54.6444
16.634067483263312 54.4495
16.656621315414416 54.4302
16.679175797408888 54.4539
16.701713349928728 54.3971
16.72426913389191 54.4089
16.74680798922351 54.6724
16.76936507887444 54.8409
16.791905240734874 54.7011
16.814463639794468 54.54600000000001
16.837022695210294 54.6543
16.859564824093756 54.9544
16.882125194503903 56.00899999999999
16.904668639217885 56.8553
16.927230328348003 57.1725
16.949792678493612 57.2264
16.972338104193863 56.3587
16.994901778652235 55.6945
17.017448529496576 55.3155
17.040013531998152 55.3679
17.06257920018044 55.6175
17.0851279459922 56.3728
17.107694947817667 56.8758
17.130245028099072 57.8217
17.15281336730298 58.945
17.17536478578733 60.4126
17.19793446610687 62.6661
17.220504818648422 65.4131
17.243058251703697 68.5758
17.265629950971032 73.7426
17.288184731571736 78.9309
17.310757781306908 83.1455
17.33333150794385 84.5365
17.355888317140174 83.3179
17.37846339986244 78.1214
17.401021565958885 71.0793
17.42359800851343 65.5155
17.44617513265564 61.552
17.468735341390783 59.5992
17.491261035594565 58.7143
17.51396340099364 58.5516
17.536490463869136 58.5557
17.559018209820174 58.5374
17.58154663977963 58.6805
17.604251766089718 58.8732
17.626781572227713 59.1313
17.64931206518155 59.3189
17.671843245885103 59.9699
17.69455114821572 60.284
17.717083712612634 60.4878
17.739616967569667 60.6364
17.762150914021706 60.5564
17.78486160749854 60.5514
17.807396945166804 61.1529
17.829932977143503 61.5096
17.85246970436452 62.7578
17.875183204129467 64.63600000000001
17.897721330097664 66.512
17.920260154126645 68.6618
17.942799677153296 71.5886
17.9655159983646 74.9512
17.988056927677544 79.8633
18.010598558807683 87.0774
18.033140892692916 96.4074
18.05586005052525 107.036
18.07840379824407 118.75200000000001
18.10094825154059 130.033
18.12366954819864 138.891
18.146215420998306 140.046
18.16876200220057 132.048
18.191309292745153 118.354
18.214033452627167 104.11
18.236582170236648 91.7423
18.259131600016456 85.7161
18.281681742907335 84.9627
18.304408781233683 88.5692
18.32696035875955 94.0651
18.349512652227624 99.1697
18.372065662579683 104.64200000000001
18.394795594587553 106.156
18.41735004715306 102.961
18.43990521943684 96.59200000000001
18.46246111238171 88.1348
18.485193953325208 78.2868
18.507751296070428 70.615
18.530309362314178 66.145
18.552868153000343 63.4374
18.57560391815056 61.8758
18.59816416623245 61.342
18.620725141597372 60.7989
18.643286845190268 60.5263
18.666025549835414 59.9992
18.688588718427933 59.4479
18.711152618092243 59.4509
18.73389353884365 59.0808
18.75645890921984 58.6907
18.77902501351406 58.3717
18.801591852673102 58.3291
18.824335739722738 57.5875
18.846904057212626 57.5492
18.8694731124168 57.3341
18.89204290628315 57.1554
18.914789774966803 57.1944
18.937361054791623 56.9206
18.959933076131318 56.6343
18.982505839934877 56.5809
19.00525570560582 56.6393
19.027829963004184 56.7182
19.05040496572238 56.6133
19.072980714710468 56.5695
19.095733592739563 56.492
19.11831084296757 56.9397
19.140888842324735 57.6123
19.16346759176222 57.6754
19.18622349753803 58.3313
19.208803755869358 58.919
19.231384767143577 59.6782
19.253966532312948 61.163000000000004
19.276725481241822 63.1458
19.29930876296784 65.1926
19.3218928014549 68.4941
19.34465404436217 71.9883
19.36723960516257 74.9676
19.389825925592426 76.8365
19.412413006605938 75.9461
19.43517731967805 72.6731
19.457765930683355 68.1827
19.48035530514408 63.2732
19.50294544401556 59.3246
19.525712842708348 56.575
19.54830451925909 54.901
19.570896963095727 53.8279
19.593490175174704 53.4331
19.616260674962184 53.5224
19.638855432416964 53.1187
19.661450960992624 53.4309
19.68404726164677 53.3543
19.706820878021247 52.7835
19.729418731756834 53.1029
19.752017360452857 52.8334
19.77461676506804 53.076
19.797393513540218 53.2697
19.819994478951667 53.3424
19.84259622316767 53.8377
19.8651987471481 54.1759
19.887978643247177 54.437
19.91058273574792 54.7216
19.933187610901943 55.495
19.955969879466828 56.5336
19.97857632894404 57.769
20.00118356396599 59.3198
20.023791585494575 61.3325
20.046577028914875 64.1403
20.069186632506966 66.4772
20.091797025500632 68.1312
20.114408208858933 69.2068
20.137196842715273 69.0934
20.159809615886765 68.0366
20.18242318232135 65.3941
20.20503754298326 63.2315
20.227829382875154 61.7805
20.250445341109344 61.4427
20.27306209647285 61.7954
20.29567964993108 63.1927
20.31847471147704 64.5454
20.34109387027612 65.5
20.363713830075454 65.491
20.386334591841646 64.2683
20.409132890679302 61.5642
20.431755265564437 58.4322
20.454378445325528 55.7237
20.477002430930366 53.7107
20.499803982716553 52.3733
20.522429589228004 51.5134
20.54505600449589 51.1153
20.567683229489194 50.8537
20.590488049900088 50.4805
20.61311690359731 50.0343
20.63574656993626 49.7366
20.658553853717297 49.3659
20.681185154618298 49.3152
20.703817271080066 49.1877
20.72645020407368 49.0155
20.749260783967177 48.9072
20.771895359337133 48.8588
20.794530754161617 48.6774
20.817166969412938 48.5143
20.83998086114876 48.4088
20.86261872660049 48.4053
20.885257415405402 48.3905
20.90789692853701 48.2443
20.930714147864748 48.1761
20.953355319030678 48.2381
20.97599731745334 48.32
20.99864014410749 48.1019
21.021460706796564 48.1648
21.044105199328826 48.5177
21.06675052302631 48.5997
21.089396678865015 48.7814
21.112220600704806 49.0235
21.134868430275347 49.2907
21.15751709492456 49.5503
21.180166595629693 49.9567
21.202993892429635 50.4484
21.22564507473034 50.8296
21.24829709602816 51.2053
21.27112693608965 51.0544
21.293780644891275 51.1712
21.316435195634053 50.3436
21.339090589297417 49.6824
21.361923832041875 49.222
21.384580921090404 48.5229
21.407238856007325 48.0369
21.429897637773326 48.0477
21.45273429906592 48.0326
21.475394784108598 48.0492
21.498056118951983 47.9075
21.520718304578022 48.0325
21.543558400304388 48.3339
21.566222297108816 48.3918
21.58888704765135 48.3442
21.61155265291521 48.6703
21.63439619898156 49.1584
21.657063523335786 49.2562
21.67973170537063 49.628
21.7024007460706 50.2039
21.72524775840385 50.7909
21.747918526116475 51.7018
21.770590155457388 52.9426
21.79326264741238 54.4949
21.816113141960237 56.1595
21.838787368860547 58.0577
21.861462461341976 59.9217
21.884315579735777 62.055
21.90699241312273 63.4845
21.92967011506078 64.4512
21.95234868653799 64.3366
21.9752053151131 63.2687
21.997885635446785 61.4517
22.020566828293532 59.4851
22.04324889464272 57.7004
22.066109049404666 56.255
22.088792872571794 55.663000000000004
22.111477572219204 55.6138
22.1341631493376 55.7872
22.157026846313123 55.6655
22.179714188221507 55.0936
22.202402410582668 53.9555
22.22509151438863 52.739
22.24795876962584 51.1479
22.270649646204486 50.4773
22.293341407213727 49.7667
22.316034053646906 49.2164
22.338904883215342 48.7611
22.36159931041458 48.7109
22.38429462602756 48.7456
22.40699083104897 48.5429
22.429865251039757 48.7989
22.452563244831367 48.7989
22.47526213102522 48.8392
22.49813925616515 48.5949
22.520839937143307 48.33
22.543541513520587 48.4176
22.56624398629403 48.0557
22.589124730075895 48.0917
22.611829005656723 48.3204
22.63453418063466 48.1614
22.657240256008077 48.3672
22.680124634582935 48.5201
22.70283252079775 48.7217
22.725541310413075 48.9171
22.74825100442868 49.0407
22.771139033969575 49.5526
22.79385054687155 49.7535
22.81656296718292 50.3314
22.83927629590484 51.1876
22.862167992606945 52.3371
22.88488314827121 53.4055
22.907599215359284 54.3966
22.93031619487366 55.5911
22.953211574954405 56.6588
22.975930389478226 57.6958
22.998650119445763 58.0053
23.02137076586092 57.3184
23.044269845560063 56.1345
23.06699233506288 54.6919
23.089715744034912 52.8412
23.112617610931565 51.0423
23.135342869061212 49.7656
23.158069049684816 49.00899999999999
23.1807961538087 48.4821
23.20370174880544 48.4082
23.226430710184808 48.3509
23.249160598093425 48.4688
23.271891413539002 48.5505
23.294800752937697 48.3934
23.31753343374794 48.542
23.340267045128353 48.6169
23.36300158808808 48.864
23.38591468821339 49.0238
23.408651104658304 49.4448
23.431388455719986 50.0557
23.454126742409 50.8901
23.4770436196085 51.9536
23.499783787914662 53.0426
23.522524894889884 54.01
23.54526694154616 55.3272
23.56818761219047 56.8001
23.59093154860734 57.2937
23.613676427751283 57.8253
23.636422250635754 57.0469
23.659346731118656 55.6833
23.68209445191868 53.8514
23.704843119509587 51.6042
23.72759273490623 49.6109
23.750521041644767 48.2716
23.77327256312355 47.1444
23.796025035462787 46.5371
23.818956224555475 45.9779
23.841710609113413 45.6856
23.86446594758979 45.3625
23.887222241002014 45.2645
23.910157285144578 45.0227
23.932915498962537 44.9563
23.955674670778713 44.9161
23.978434801611975 44.4955
24.001373717286125 44.5132
24.024135776723917 44.4566
24.046898798245582 44.2596
24.06966278287146 44.3108
24.092605586582614 43.9672
24.115371508023642 43.8146
24.1381383956401 43.8249
24.16090625045381 43.853
24.183852958731244 43.8476
24.206622758582608 43.6515
24.229393528706886 43.5258
24.252165270127392 43.5229
24.27511589952438 43.3844
24.297889594216997 43.13
24.32066426328598 42.9098
24.34343990775613 42.9899
24.36639447485003 42.9077
24.38917208083877 42.8718
24.41195066531332 42.8704
24.43490819850244 42.7797
24.457688750692377 42.7477
24.48047028445616 42.6685
24.503252800821233 42.7981
24.526214300784112 42.8728
24.548998793132213 42.7484
24.57178427117417 42.7012
24.59457073593893 42.8341
24.617536219319863 42.7633
24.64032466834748 42.7151
24.663114107195035 42.6003
24.685904536893013 42.2875
24.708874020360852 42.265
24.731666442613744 42.2041
24.754459858818787 42.1984
24.777254270007962 42.0647
24.80022777025625 42.0364
24.82302418230472 41.927
24.845821592443674 41.9139
24.86862000170663 41.9965
24.891597535453727 41.7013
24.914397953892728 42.0284
24.93719937456671 41.9595
24.96000179851076 42.0534
24.98298338249997 42.1608
25.00578782394922 42.3122
25.028593271784167 42.416000000000004
25.05157790644186 42.6372
25.07438537804115 42.861000000000004
25.097193859145293 43.1024
25.120003350792075 43.2535
25.142992065061257 43.608000000000004
25.165803588823465 43.9626
25.18861612625217 44.118
25.211429678386736 44.3251
25.234422489079968 44.3408
25.257238081693636 44.4617
25.280054692141732 44.5122
25.3028723214652 44.5861
25.325869245420463 44.5633
25.348688923599397 44.588
25.371509623787006 44.7161
25.394331347025812 44.4105
25.41733240110666 44.1478
25.440156181590016 43.4329
25.46298098826268 43.0202
25.48580682216873 42.3617
25.50881202326435 41.6654
25.53163992281684 41.3426
25.55446885274561 40.9625
25.577298814096377 40.8057
25.600308179121807 40.6609
25.623140214533745 40.6484
25.64597328451537 40.5036
25.66898578564376 40.2666
25.691820936010206 40.3355
25.714657124097695 40.4001
25.737494350954734 40.2005
25.760511045684957 40.1748
25.783350361364224 40.2837
25.806190718969255 40.2709
25.82903211955018 40.3604
25.852053024868923 40.3437
25.874896522722523 40.4154
25.897741066713106 40.3078
25.920586657892454 40.3622
25.943611790812668 40.5234
25.966459487728237 40.5812
25.989308234998564 40.5303
26.01215803367705 40.8911
26.03518741123814 41.1507
26.05803932412957 41.3017
26.080892291600094 41.2764
26.10374631470478 41.1952
26.12677995397268 41.4243
26.14963609978026 41.42100000000001
26.172493304397875 41.005
26.19535156888223 40.6929
26.218389486949604 40.4728
26.241249882640123 40.3426
26.26411134137826 40.0925
26.28715248187403 39.9661
26.31001607820869 39.7641
26.3328807407756 39.6663
26.35574647063438 39.8657
26.37879191991473 39.7993
26.401659795896734 39.8043
26.424528742360263 39.8979
26.447398760366614 40.0022
26.470448535598294 40.3335
26.49332070826805 40.4083
26.516193955675355 40.8532
26.53906827888316 41.0303
26.562122397260108 41.1563
26.584998883685063 41.3666
26.607876449110325 41.6118
26.63075509460056 41.8623
26.65381357334404 42.0341
26.67669439061878 42.0733
26.699576291163382 41.84
26.722459276044212 41.7337
26.745522132402975 41.4777
26.768407297649354 41.2437
26.791293550442003 40.8809
26.814180891848974 40.6515
26.837248143099337 40.3812
26.860137673466657 40.2456
26.88302829566349 40.0179
26.90592001075963 39.8268
26.92899167420566 39.698
26.951885586870763 39.2827
26.974780595655517 39.2179
26.99785558178161 38.9408
27.020752794605112 38.6935
27.043651106772522 38.5152
27.06655051935668 38.6004
27.089629948036183 38.5034
27.112531573292053 38.391
27.135434302194138 38.4438
27.158338135817015 38.1856
27.181422024430987 38.439
27.204328079372566 38.1832
27.22723524226965 38.233000000000004
27.250143514198573 38.367
27.273231880156334 38.2513
27.296142382065014 38.1578
27.319053996245536 38.0205
27.341966723775965 38.1048
27.365059584515222 38.259
27.38797455070062 38.1928
27.410890633481237 38.0693
27.433807833936918 38.1083
27.456905206923906 38.227
27.47982465472398 38.3488
27.502745223449743 38.2617
27.525666914182825 38.3657
27.548768816912457 38.3015
27.571692763693633 38.2231
27.59461783573812 38.1306
27.617723149491244 37.9736
27.640650484125285 37.8613
27.66357894728264 37.8818
27.686508540048052 37.8182
27.709618414237887 37.7251
27.732550278321757 37.7222
27.755483275279115 37.5002
27.778417406196485 37.5413
27.801531858397514 37.5641
27.824468269376716 37.4819
27.847405817586786 37.5486
27.870344504116094 37.7061
27.893463551932008 37.8049
27.916404527281053 38.0108
27.93934664422563 37.9807
27.962289903855886 38.1189
27.98541356491974 38.4644
28.00835912214229 38.3962
28.03130582533231 38.6695
28.054253675581805 38.8147
28.077381967556104 38.8053
28.100332124185126 38.7043
28.123283431160893 38.7363
28.146235889577238 38.596
28.169368830154156 38.3916
28.192323603752033 38.2101
28.215279532083304 38.0
28.238415973016764 37.8418
28.261374223145094 37.6395
28.284333631303806 37.4963
28.307294198589954 37.2964
28.330435319167677 36.9869
28.353398217078915 36.6819
28.376362277420153 36.5887
28.39932750129032 36.3643
28.422473319286713 36.2593
28.44544088262495 36.1885
28.468409612800283 36.0176
28.491379510913497 35.7488
28.51453004413313 35.7198
28.53750229057244 35.7201
28.56047570826344 35.5986
28.583450298308804 35.6835
28.606605564586562 35.5249
28.629582511831156 35.5151
28.65256063474956 35.4114
28.675539934446338 35.4475
28.698699951647605 35.4299
28.72168161743193 35.2909
28.74466446331978 35.306
28.767648490417624 35.2739
28.790813276438353 35.3058
28.813799678527303 35.2778
28.836787265157085 35.2463
28.859955641890075 35.3101
28.882945610203045 35.2495
28.905936766392035 35.0444
28.928929111566863 35.1491
28.952102288520145 35.1378
28.975097024308607 35.0517
28.998092952423807 34.8115
29.021090073977508 34.7465
29.04426806913204 34.6526
29.067267590245258 34.5705
29.090268308143695 34.3447
29.11327022394099 34.3709
29.13645305530891 34.207
29.159457379627167 34.1757
29.18246290519685 34.1637
29.20546963313352 34.0983
29.22865731875826 34.1558
29.25166646419296 34.1362
29.27467681535305 34.0266
29.29768837335608 34.1821
29.320880931312562 34.1275
29.34389491580634 33.9555
29.366910110507334 34.0434
29.38992651653503 34.0625
29.41312396492981 34.0849
29.436142806456754 34.0076
29.45916286268059 33.9524
29.48236399319994 33.8114
29.50538649169417 33.7543
29.528410208259935 33.5149
29.55143514402014 33.3821
29.574641196749695 33.1602
29.597668583816574 33.1083
29.6206971934585 32.9393
29.64372702680042 33.1026
29.666938019934474 32.8912
29.689970313635285 32.8055
29.713003834422636 32.7929
29.73603858342347 32.8454
29.759254535188578 32.6845
29.78229175361658 32.5795
29.80533020365064 32.6549
29.82836988641968 32.6808
29.85159081507472 32.6452
29.874632976355343 32.4479
29.89767637376955 32.5986
29.920721008448314 32.3736
29.9439469322847 32.3453
29.96699405457564 32.3656
29.9900424175358 32.4588
30.013092022298157 32.3772
30.03632295963995 32.2269
30.059375061131373 32.176
30.08242840783577 32.2604
30.105483000888153 32.3214
30.128718970092244 32.2419
30.151776069006917 32.2175
30.17483441768648 32.2365
30.198074175317235 32.2717
30.221135036724256 32.2532
30.24419715131772 32.2007
30.267260520236203 32.1342
30.290505341942243 32.1398
30.313571232750228 32.1691
30.336638381310948 32.1621
30.35970678876503 32.0178
30.38295669299435 31.998
30.40602763151657 32.0027
30.429099832366074 32.0179
30.452173296685572 31.8499
30.47542830191959 31.885
30.498504306502497 31.9068
30.521581577995562 31.9011
30.544660117543582 31.9656
30.56792024229725 31.9714
30.59100133132069 31.8377
30.614083691845494 31.869
30.637167325018545 32.0349
30.660432587840603 32.0788
30.683518779717886 31.9851
30.70660624769615 32.0581
30.729694992924372 32.0904
30.75296541239743 32.0339
30.77605672557558 32.0433
30.799149319462742 31.9176
30.8224236211637 31.8519
30.845518789950724 31.778000000000002
30.868615242910597 31.6876
30.891712981195973 31.5878
30.91499247215866 31.3962
30.938092794619365 31.4697
30.96119440587579 31.2836
30.984297307082752 31.2825
31.00758200598383 31.1299
31.030687500658694 30.9829
31.053794288760695 30.9519
31.076902371446767 30.9935
31.100192296997445 31.0056
31.12330298246119 30.8211
31.14641496599209 30.7421
31.169528248749216 30.7214
31.19282341969534 30.7063
31.215939314557186 30.8022
31.239056512134788 30.8641
31.262175013589378 30.7364
31.28547544871168 30.6493
31.30859657161541 30.5651
31.331719001892175 30.6436
31.35484274070538 30.7004
31.378148458819545 30.6741
31.401274828443725 30.6074
31.424402510106933 30.7663
31.447712205419993 30.7954
31.470842524931633 30.6522
31.493974159989783 30.642
31.51710711176168 30.62
31.54042212308802 30.601
31.563557722100917 30.5006
31.586694641341655 30.3983
31.609832881979628 30.3688
31.63315322823208 30.2324
31.656294125521327 30.1737
31.679436347728515 30.1467
31.70257989602529 30.0325
31.725905596152327 29.9824
31.74905181052835 29.8832
31.772199354521323 29.9976
31.79534822930507 29.9345
31.818679302290967 29.9205
31.84183085259981 29.9801
31.864983737233473 29.9485
31.88813795736804 30.0128
31.911474422233013 29.9081
31.934631327356435 29.9415
31.9577895715215 29.9458
31.980949155906522 29.7788
32.004291031706956 29.8528
32.027453310562606 29.6778
32.05061693318573 29.6415
32.07396288236386 29.6663
32.09712920658542 29.646
32.12029687812702 29.4114
32.14346589817093 29.4106
32.166817291729984 29.3787
32.18998902288583 29.2235
32.21316210610336 29.1575
32.23633654256711 29.075
32.259693399663725 29.0796
32.282870556771144 28.9486
32.30604907069099 29.0387
32.329228942610065 28.9573
32.35259128243769 28.8041
32.375773884550505 28.8304
32.398957848235646 28.7792
32.422143174682176 28.7116
32.445511016471215 28.6325
32.468699082679954 28.5855
32.49188851523011 28.4938
32.51507931531304 28.4355
32.538452678331 28.4983
32.56164622776311 28.3501
32.58484114831493 28.3135
32.60803744118015 28.3483
32.631416344731896 28.2623
32.654615396551876 28.287
32.67781582427913 28.2649
32.701198898634416 28.1713
32.72440209253756 28.1479
32.747606665947124 28.1196
32.77081262006088 27.989
32.79420126883317 27.9881
32.81740999876112 28.0071
32.840620112999424 27.9606
32.86383161274818 27.8352
32.88722585534586 27.8347
32.91044014056596 27.8185
32.933655814909734 27.7841
32.95687287957963 27.9233
32.98027273544904 27.7989
33.00349259526636 27.6881
33.026713849030116 27.7324
33.04993649794511 27.6624
33.073341986570746 27.6843
33.09656744032826 27.6827
33.11979429286444 27.6415
33.14302254538647 27.6776
33.166433686291185 27.5273
33.18966475336992 27.5163
33.212897224069096 27.4905
33.23613109959831 27.5045
33.259547912343415 27.4442
33.2827846121627 27.439
33.306022720453775 27.3914
33.32926223842861 27.2334
33.352684742614166 27.2933
33.37592709463173 27.2818
33.399170859982064 27.1546
33.422597648419426 27.1182
33.44584425514446 27.0011
33.46909227885668 26.9622
33.4923417207723 26.7679
33.51577423505344 26.8093
33.539026528130385 26.7527
33.56228024307245 26.8356
33.585535381098246 26.5865
33.60897364093058 26.5914
33.63223163992385 26.5758
33.6554910656699 26.5204
33.678751919389796 26.5169
33.702195944520106 26.5193
33.72545966903325 26.555999999999997
33.74872482519663 26.3958
33.771991414233746 26.3488
33.79544122444841 26.2747
33.81871069412428 26.2348
33.84198160035767 26.2391
33.86525394437455 26.2841
33.88870955949969 26.2161
33.911984794020626 26.1803
33.93526147001624 26.1621
33.958539588715006 26.0424
33.98200102861669 26.0683
34.0052820477047 25.9559
34.02856451319451 25.9333
34.05203033759056 25.9159
34.07531571090147 25.9317
34.09860253431845 25.8683
34.121890809074316 25.7817
34.145362493118924 25.7992
34.16865368561615 25.7584
34.191946333164054 25.7364
34.21524043699793 25.6503
34.23871800066799 25.6339
34.26201503218366 25.4619
34.28531352370466 25.505
34.30861347646881 25.412
34.33209693978188 25.4703
34.3553998301885 25.4574
34.378704185565205 25.2713
34.402010007152356 25.2259
34.42549939016683 25.2283
34.44880815937748 25.2153
34.472118398533134 25.1628
34.49543010887669 25.1517
34.51892543169198 24.9969
34.54224009966052 25.0385
34.56555624255917 25.0209
34.58887386163339 24.7979
34.61237514439016 24.823
34.6356957311114 24.7924
34.65901779775809 24.7838
34.68252356662995 24.7465
34.705848608458616 24.8287
34.72917513396849 24.6938
34.75250314440949 24.7196
34.77601490857862 24.6694
34.799345904259795 24.5014
34.82267838863559 24.6402
34.846012362958525 24.6251
34.869530142679984 24.476
34.89286711232212 24.4357
34.91620557568269 24.4562
34.93954553401677 24.3813
34.9630693495876 24.3814
34.986412313340814 24.4253
35.00975677584668 24.3126
35.033102738362956 24.2598
35.05663261012228 24.2161
35.0799815881786 24.1954
35.10333207003229 24.1392
35.12668405694369 24.1475
35.150220005273056 24.1398
35.17357501786656 24.0706
35.19693153931268 24.0785
35.220289570874385 23.9907
35.24383161619786 24.0536
35.267192683604904 23.9728
35.290555264930376 23.993000000000002
35.314101899412165 23.9476
35.33746752422433 23.9326
35.36083466676374 23.9126
35.38420332829803 23.8048
35.407756095629054 23.794
35.43112781085063 23.8128
35.45450104888391 23.7734
35.477875810999194 23.8158
35.50143473172161 23.6968
35.52481255774625 23.7588
35.54819191167777 23.7026
35.57157279478914 23.6353
35.595137889488406 23.6247
35.61852184675279 23.6382
35.641907337029984 23.4311
35.665294361595684 23.4371
35.68886565090076 23.4315
35.7122557598848 23.4764
35.73564740699838 23.3919
35.759040593519934 23.3082
35.78261809810353 23.3153
35.80601437933051 23.2988
35.829412203814705 23.1429
35.85281157283719 23.1432
35.876395313415884 23.2409
35.8997977874528 23.1699
35.92320180988546 23.076
35.946790244133936 23.0133
35.97019737933222 23.023000000000003
35.993606066789866 22.9747
36.01701630779276 22.9519
36.04061101440684 22.8208
36.06402437852291 22.8774
36.08743930005611 22.9523
36.1108557802951 22.7992
36.13445678011326 22.8042
36.15787639383515 22.7314
36.18129757014299 22.651999999999997
36.20472031032821 22.6586
36.22832762423364 22.6373
36.25175350829375 22.5947
36.275180960119776 22.6278
36.298609981005924 22.6503
36.32222362992669 22.5783
36.34565580510207 22.5746
36.36908955323448 22.5264
36.39252487562093 22.4195
36.416144880530226 22.3349
36.43958336764275 22.3084
36.463023432914625 22.3081
36.486465077645676 22.2054
36.51009145956204 22.3189
36.53353627947859 22.2653
36.55698268276811 22.1587
36.58043067073321 22.2179
36.60406345072071 22.0905
36.62751462435344 22.0551
36.65096738658405 22.0205
36.67460498210655 22.0521
36.69806093788647 22.0393
36.72151848619297 21.9705
36.744977628333636 21.9715
36.76862165890998 21.9025
36.79208400512205 21.8781
36.81554794910557 21.8791
36.83901349217101 21.7531
36.862663978991606 21.7514
36.88613273667352 21.7045
36.90960309738324 21.6356
36.933075062434064 21.6745
36.95673202673572 21.6394
36.98020721697122 21.5977
37.003684015502365 21.5586
37.027162423645365 21.4785
37.050825886711465 21.4563
37.07430753063053 21.3736
37.09779078812467 21.4569
37.121275660513014 21.3469
37.144945643673694 21.309
37.16843376245278 21.26
37.19192350009803 21.2721
37.215414857931435 21.2718
37.239091382563885 21.185
37.262585997426164 21.1818
37.28608223645736 21.1929
37.309763684451696 21.0869
37.33326318851098 21.03
37.356764320726555 20.9945
37.380267082425526 20.9762
37.40395510942588 21.0164
37.42746114683234 20.8959
37.45096881771841 20.8838
37.474478123414166 20.8801
37.49817275092816 20.8666
37.52168534303452 20.7957
37.54519957395567 20.721999999999998
37.568715445024665 20.7458
37.592416694607714 20.7072
37.61593586281424 20.7155
37.63945667518264 20.7599
37.66297913304891 20.5719
37.68668702630454 20.6319
37.710212792059274 20.5353
37.733740207334854 20.5429
37.757269273470364 20.4578
37.780983832050374 20.4068
37.80451621684926 20.4663
37.82805025654007 20.3719
37.851585952464795 20.352
37.8753071980695 20.29
37.89884622345676 20.2283
37.92238690911902 20.1998
37.94611318753442 20.2114
37.969657210779765 20.1955
37.99320289834801 20.2194
38.016750251586465 20.1272
38.04048325513017 20.0243
38.06403395679343 19.9948
38.087586328183946 19.9877
38.11114037065203 19.9952
38.13488012115898 19.9509
38.1584375229181 19.8459
38.181996599821 19.8782
38.205557353221124 19.8493
38.229303872575656 19.875999999999998
38.2528679961576 19.7976
38.27643380031219 19.7476
38.30000128639589 19.6966
38.32375459653193 19.7698
38.34732546371299 19.6863
38.37089801690786 19.6041
38.39447225747609 19.5891
38.418232380377425 19.5852
38.441810012983396 19.5668
38.46538933705673 19.5412
38.488970353960084 19.5517
38.51273731166058 19.4828
38.536321731567014 19.3992
38.55990784840681 19.426
38.58367995004091 19.3456
38.60726947812959 19.2618
38.63086070726198 19.2359
38.654453638806274 19.3162
38.678232613930824 19.2584
38.70182896773327 19.2299
38.72542702806741 19.1783
38.7490267963045 19.1158
38.77281266709232 19.186
38.79641586862214 19.0661
38.8200207821842 19.042
38.843627409152944 19.0521
38.86742019782782 18.9828
38.891030269149255 18.9661
38.914642058016156 18.9229
38.938255565806124 18.9271
38.96205529464307 18.8992
38.98567225787121 18.8485
39.00929094417078 18.7914
39.03291135492255 18.792
39.05671804624804 18.749000000000002
39.080341923549106 18.7166
39.103967529460334 18.6834
39.127594865365744 18.6167
39.15140854155791 18.5408
39.17503935514948 18.579
39.19867190290282 18.597
39.22249083587951 18.6148
39.24612686969409 18.5546
39.269764641845306 18.5371
39.293404153722804 18.5042
39.317230110864074 18.413
39.34087311998506 18.3684
39.36451787301696 18.3918
39.388164371352595 18.3692
39.41199737518003 18.2768
39.43564738196752 18.2866
39.45929913825317 18.2784
39.48295264543308 18.2172
39.506792718520884 18.204
39.530449745387216 18.1946
39.55410852735203 18.1392
39.57776906581474 18.1765
39.60161623079 18.1608
39.625280300200025 18.0928
39.64894613032202 18.0845
39.67261372255866 18.0159
39.6964680021016 17.9699
39.72013913657293 17.9838
39.74381203738292 17.9793
39.76748670593756 17.9659
39.79134812278169 17.9301
39.81502634488497 17.8098
39.83870633896685 17.7743
39.862388106436654 17.759
39.88625668336918 17.6702
39.90994201572829 17.7028
39.933629125719285 17.7104
39.957503091207826 17.6271
39.9811937746168 17.6842
40.00488623990914 17.5815
40.02858048850006 17.5871
40.05246165409549 17.5149
40.076159487492085 17.5132
40.099859108448875 17.5251
40.123560518384345 17.4461
40.1474489070226 17.437
40.171153913178564 17.375999999999998
40.194860712584955 17.3737
40.2185693066637 17.3957
40.242464941335314 17.3155
40.26617714307655 17.2385
40.289891143772046 17.3136
40.3136069448471 17.2233
40.33750984859743 17.2127
40.3612292688043 17.1918
40.3849504936829 17.172
40.40867352466194 17.1598
40.43258372059144 17.1073
40.45631038219906 17.1263
40.48003885420956 17.0476
40.503769138055105 17.0016
40.52768664931955 17.009
40.55142057531802 17.0266
40.57515631746428 16.9786
40.599079334038514 16.9223
40.62281872700477 16.7836
40.64655994043941 16.8815
40.67030297578061 16.8408
40.69423334835778 16.8079
40.71798004609188 16.8157
40.74172857006355 16.7748
40.76547892171441 16.6927
40.7894166736039 16.7313
40.813170699248566 16.6771
40.83692655691388 16.6447
40.86068424804498 16.6252
40.884629402612525 16.5905
40.908390779366385 16.5622
40.932153993938 16.5057
40.95591904777605 16.5598
40.979871628443995 16.5609
41.003640379561936 16.5266
41.02741097430883 16.5139
41.05118341413683 16.4045
41.075143444384416 16.41
41.098919593177826 16.403
41.1226975914255 16.385
41.14647744058318 16.3495
41.170444943946755 16.2177
41.19422851378379 16.2289
41.218013938914645 16.2244
41.24198706625173 16.1472
41.26577622087193 16.1812
41.289567235177785 16.1836
41.31336011063129 16.1288
41.337340752422875 16.0655
41.361137369129835 16.0994
41.38493585138705 16.0934
41.40873620066004 16.0146
41.43272438060107 15.9917
41.45652848292052 15.9281
41.48033445666918 15.9349
41.50414230331616 15.8619
41.528138045159764 15.8657
41.551949656675205 15.8268
41.575763145513235 15.8837
41.59957851314666 15.8204
41.62358184070442 15.7324
41.64740098505737 15.712
41.6712220126409 15.7422
41.69504492493139 15.6862
41.71905586207357 15.6318
41.74288256296395 15.6123
41.766711153007456 15.582
41.79054163368412 15.5356
41.814560204340054 15.5456
41.838394485526365 15.5227
41.86223066180303 15.4964
41.88625497706819 15.5382
41.910094962812 15.5009
41.93393684811168 15.4592
41.95778063445365 15.3817
41.981812625263366 15.359000000000002
42.00566023303407 15.3229
42.029509746323676 15.3041
42.05336116662236 15.2886
42.077400857069705 15.286
42.10125611078846 15.2525
42.12511327600405 15.2533
42.14897235421036 15.1332
42.173019768448455 15.1899
42.19688269209613 15.1452
42.22074753323349 15.0749
42.24461429335818 15.1052
42.268669455600495 15.0865
42.292540073217886 15.0077
42.31641261433284 15.0465
42.34028708044675 15.0187
42.36435001496739 15.0193
42.38822835065557 14.9973
42.41210861586426 14.9461
42.4359908120986 14.9775
42.46006154323262 14.8673
42.48394762115317 14.8063
42.507835634632315 14.8054
42.531912233047436 14.8099
42.55580413732265 14.7659
42.579697981698 14.8205
42.60359376768525 14.7362
42.62767820545945 14.7119
42.65157789440821 14.7099
42.67547952952185 14.7188
42.699383112316 14.6058
42.72347541395347 14.5785
42.74738291190531 14.5679
42.771292362102166 14.5761
42.795203766063516 14.5381
42.819303956130405 14.4481
42.843219287476536 14.4854
42.86713657716324 14.4454
42.89105582671383 14.3765
42.91516392983864 14.3724
42.939087119032166 14.3984
42.963012272677304 14.3693
42.98693939230129 14.3561
43.01105543317513 14.2969
43.034986504731386 14.2996
43.05891954686589 14.2789
43.08285456110972 14.2229
43.10697856448665 14.1874
43.130917542983475 14.2053
43.15485849820081 14.1995
43.17880143167367 14.0771
43.20293342237094 14.1186
43.226880332449 14.0929
43.25082922540554 14.093
43.27496722682525 14.0345
43.29892010567796 13.9773
43.32287497204102 14.0265
43.34683182745632 13.958
43.370977859791836 13.936
43.39493871351105 13.8704
43.41890156092628 13.9649
43.44286640358341 13.899000000000001
43.46702049182749 13.8478
43.49098934522816 13.847000000000001
43.51496019852649 13.7751
43.5389330532723 13.7672
43.56309522248204 13.7562
43.58707210044314 13.7626
43.61105098451946 13.6588
43.63503187626491 13.7147
43.659202151562134 13.658
43.68318707902681 13.6493
43.70717401884041 13.6499
43.731162972560874 13.5714
43.75534137913236 13.5735
43.779334381108384 13.5505
43.803329401683186 13.4957
43.82732644241872 13.5194
43.8515130055166 13.4839
43.87551410707659 13.4529
43.89951723350145 13.4771
43.923709934595614 13.3942
43.94771713129917 13.3486
43.97172635758096 13.3429
43.99573761501002 13.3425
44.0199385169922 13.3669
44.04395385732619 13.2775
44.067971233533086 13.2774
44.09199064718605 13.2573
44.11619977548961 13.2137
44.14022328470671 13.1651
44.16424883610785 13.2024
44.18827643127035 13.1559
44.21249381139513 13.1487
44.236525514814076 13.1241
44.26055926674478 13.1127
44.28459506876863 13.1404
44.3088207262813 13.0153
44.33286064928722 12.9664
44.35690262714919 12.9433
44.38094666145278 12.9811
44.4051806219871 12.9605
44.42922879003185 12.9664
44.45327901929361 12.9159
44.477331311362136 12.9086
44.501573600619416 12.8163
44.525630039221795 12.7971
44.54968854541895 12.808
44.573937102200176 12.7746
44.5979997645541 12.7833
44.622064499300315 12.7731
44.64613130803592 12.7102
44.67038823869318 12.7444
44.69445921643748 12.6761
44.718532272981385 12.6735
44.742607409926194 12.6535
44.76687274034801 12.5958
44.79095205918753 12.5875
44.81503346325094 12.5509
44.839116954143876 12.5423
44.86339071028742 12.5322
44.88747839599524 12.5477
44.91156817336837 12.4423
44.93566004401666 12.4909
44.959942251908146 12.4585
44.984038330325966 12.3958
45.00813650686762 12.3701
45.03223678314731 12.3724
45.05652746888232 12.3431
45.08063196592069 12.3449
45.104738567558705 12.2805
45.128847275414856 12.2868
45.15314646515866 12.2428
45.17725940679741 12.2385
45.20137445952892 12.1653
45.22568004865265 12.202
45.24979934496396 12.193
45.27392075725247 12.1657
45.29804428714431 12.1123
45.322358426247604 12.0527
45.346486212804315 12.0634
45.370616121861914 12.0492
45.39474815505086 12.0437
45.41907087049246 12.0036
45.4432071734666 12.0057
45.46734560548283 12.0001
45.49148616817604 11.9482
45.51581748638564 11.9588
45.5399623320197 11.8992
45.56410931325473 11.8748
45.58825843173002 11.9035
45.61259837920865 11.8565
45.636751793816 11.8891
45.66090735060093 11.7881
45.68506505120716 11.7756
45.7094136545275 11.720999999999998
45.73357566449271 11.7475
45.75773982322992 11.7349
45.78190613238733 11.6804
45.806263418194064 11.6238
45.83043404997326 11.645
45.85460683713677 11.6227
45.87897065658495 11.6215
45.90314777634752 11.5559
45.92732705646868 11.5583
45.9515084986045 11.5996
45.97588104735473 11.5202
46.00006683541565 11.4877
46.02425479047904 11.4925
46.04844491420549 11.4763
46.0728262191024 11.5008
46.09702070211635 11.4206
46.12121735879483 11.4147
46.14541619080294 11.3754
46.169806278764455 11.3658
46.194009483459034 11.388
46.21821486849841 11.3095
46.24242243555223 11.3203
46.266821333570014 11.2704
46.29103328674601 11.2812
46.31524742696538 11.2924
46.33946375590237 11.2645
46.36387149104216 11.214
46.38809221957392 11.1761
46.41231514186606 11.1672
46.436540259597464 11.1576
46.460956858999374 11.1436
46.48518638983522 11.1432
46.509418121166966 11.1136
46.533652054678114 11.0414
46.55807754555709 11.0113
46.58231590571962 11.0159
46.60655647313217 11.0142
46.630988654873654 10.9787
46.655233659129024 10.9535
46.67948087571551 10.985
46.70373030632484 10.9583
46.72817142736393 10.9173
46.752425308428684 10.8813
46.77668140861147 10.857000000000001
46.80093972960865 10.8213
46.82538981736788 10.8243
46.849652602470904 10.8111
46.87391761349769 10.7729
46.8981848521493 10.7656
46.9226439341274 10.7305
46.946915650573224 10.6904
46.97118959976749 10.6663
46.99546578341598 10.6728
47.019933887188216 10.6825
47.04421456235744 10.6805
47.06849747711879 10.6478
47.09278263318286 10.6199
47.11725978640143 10.5671
47.14154944775105 10.55
47.165841355555656 10.5249
47.1901355115306 10.4954
47.214621741924994 10.4922
47.23892041698887 10.4882
47.26322134538975 10.4774
47.28771440635075 10.4529
47.31201986422527 10.439
47.33632758061436 10.4115
47.360637557241866 10.4114
47.38513974410611 10.3779
47.40945426407847 10.3355
47.43377104948137 10.335999999999999
47.45809010204344 10.3392
47.48260144275502 10.2639
47.506925052572285 10.3049
47.53125093475548 10.2465
47.55557909103813 10.2599
47.58009961361992 10.1966
47.60443234110732 10.183
47.62876734791564 10.1426
47.65310463578333 10.1533
47.6776343683373 10.1279
47.7019762413987 10.0982
47.72632040075572 10.127
47.75066684815169 10.0876
47.77520581885936 10.0181
47.799556865477655 10.0285
47.823910205386 10.0469
47.84826584033272 10.0422
47.87281407745551 10.006
47.89717432569297 10.01
47.92153687423484 9.97537
47.94609208429692 9.970180000000001
47.97045925671401 9.901689999999999
47.99482873471275 9.8965
48.01920052005013 9.950560000000001
48.04376504619224 9.91793
48.068141469543484 9.91504
48.09252020552573 9.90555
48.11690125590099 9.827060000000001
48.1414751266064 9.80752
48.16586082917454 9.7961
48.19024885144316 9.76529
48.2146391951793 9.742510000000001
48.239222439012764 9.77236
48.26361744916137 9.72388
48.28801478610016 9.69657
48.31241445160131 9.73231
48.337007097209366 9.66417
48.36141144338331 9.65987
48.38581812345755 9.6163
48.41022713920929 9.61763
48.434829215320704 9.58993
48.45924292604658 9.59897
48.48365897780325 9.58469
48.50807737237308 9.52726
48.532688907799276 9.50774
48.55711201168574 9.50863
48.581537463754074 9.4927
48.60615611725119 9.494660000000001
48.63058628942721 9.45302
48.65501881516546 9.4401
48.6794536962573 9.43111
48.70408185970339 9.37749
48.72852147531801 9.34943
48.75296345168211 9.36016
48.77740779059232 9.38252
48.80204549302823 9.39157
48.82649458091802 9.357460000000001
48.85094603676547 9.29665
48.87539986237231 9.26455
48.90004713292306 9.258519999999999
48.92450572200832 9.2258
48.94896668628025 9.22785
48.97343002754588 9.22097
48.99808689542115 9.20807
49.02255501470614 9.18621
49.04702551642794 9.15355
49.0714984023988 9.122710000000001
49.096164896893235 9.097339999999999
49.120642575466796 9.06448
49.145122643748394 9.089780000000001
49.16960510355558 9.09605
49.19428125404938 9.06522
49.2187685210852 9.03129
49.243258185121555 9.063460000000001
49.26794160167084 9.000580000000001
49.2924360839405 8.98076
49.31693296869764 8.94478
49.34143225776915 8.95602
49.36612538195438 8.93163
49.39062950396021 8.92313
49.41513603578346 8.87078
49.4396449792564 8.87922
49.46434784069503 8.89992
49.488861631846454 8.87556
49.513377840166804 8.83163
49.537896467493745 8.807780000000001
49.56260909589029 8.78315
49.587132585683285 8.79768
49.611658500018365 8.75421
49.636186840738596 8.74922
49.66090926588511 8.72363
49.685442483902584 8.7087
49.70997813385706 8.70209
49.734516217597076 8.65955
49.75924846937352 8.670760000000001
49.7837914452858 8.67382
49.80833686055187 8.656830000000001
49.83288471702571 8.62445
49.85762682540054 8.59872
49.882179588965734 8.57899
49.9067347993235 8.52546
49.93129245833333 8.56528
49.95604445336378 8.530660000000001
49.98060703442832 8.49115
50.005172069746266 8.5171
50.02993150438364 8.49191
50.05450147301533 8.47534
50.07907390151433 8.46032
50.10364879174981 8.43582
50.12841816587289 8.39203
50.1529980044635 8.38407
50.17758031042124 8.381860000000001
50.20216508562089 8.377880000000001
50.22694442953363 8.35165
50.25153416817468 8.348889999999999
50.27612638170508 8.330969999999999
50.300721072005196 8.31236
50.325510416102105 8.27943
50.350110084975064 8.28728
50.37471223628208 8.27187
50.39931687190919 8.26581
50.424116246675766 8.239230000000001
50.44872587605249 8.18188
50.47333799543065 8.21209
50.49795260670191 8.17238
50.52276204271512 8.14451
50.54738166295838 8.16417
50.57200378079314 8.13937
50.596628398116835 8.13769
50.62144792604559 8.07855
50.646077567609396 8.06465
50.670709714377715 8.0713
50.69553683636198 8.04945
50.72017401885922 8.06115
50.7448137122895 8.01684
50.76945591856022 8.012189999999999
50.79429318636823 8.0183
50.818940443716784 7.990010000000001
50.84359021965163 7.96563
50.868242516085964 7.95171
50.893089960641895 7.91945
50.917747323549435 7.91678
50.94240721271973 7.888439999999999
50.96706963007175 7.87327
50.99192728239342 7.886369999999999
51.01659478166073 7.851260000000001
51.04126481489051 7.834110000000001
51.06593738400761 7.84025
51.090805275207074 7.8259
51.11548294172845 7.823919999999999
51.14016314993547 7.7614600000000005
51.164845901758845 7.774789999999999
51.18972406304274 7.71891
51.21441192780656 7.69435
51.23910234200271 7.70056
51.2637953075678 7.70211
51.288683770237945 7.68779
51.31338186432707 7.66356
51.33808251561888 7.607239999999999
51.362978729967345 7.64934
51.387684521509755 7.62255
51.41239287610203 7.62086
51.437103795691165 7.581169999999999
51.46201036644977 7.5789800000000005
51.486726441956634 7.53793
51.51144508832545 7.563089999999999
51.536166307509156 7.531510000000001
51.56108326624387 7.50473
51.58580965706056 7.51353
51.61053862657523 7.46512
51.635270176746864 7.4769
51.66019755512065 7.47365
51.68493429268881 7.42628
51.70967361681515 7.40987
51.73441552946465 7.405189999999999
51.759353359237934 7.393160000000001
51.7841004750961 7.36861
51.80885018539685 7.38345
51.833602492111254 7.33656
51.8585508051424 7.32365
51.883308330926425 7.30088
51.90806845906181 7.2801
51.932831191525715 7.26735
51.95779001977161 7.25393
51.98255798721516 7.21126
52.00732856494335 7.21466
52.03229530577543 7.179289999999999
52.057071130455945 7.17329
52.081849571391054 7.145689999999999
52.106630630568695 7.171860000000001
52.13160794279417 7.1494800000000005
52.15639426492067 7.140680000000001
52.18118321127822 7.137639999999999
52.205974783860896 7.0994600000000005
52.23096269971011 7.068980000000001
52.255759551287994 7.07975
52.280559035098186 7.07912
52.30536115314103 7.060060000000001
52.33035970494467 7.05532
52.35516711807904 7.03567
52.37997717147198 7.026839999999999
52.40478986713005 7.01699
52.42979908731974 7.00922
52.454617094216 6.94433
52.47943774942214 6.93814
52.50426105495102 6.9480699999999995
52.529280976059844 6.93665
52.554109609024096 6.885160000000001
52.57894089837482 6.91777
52.60377484613117 6.87369
52.62880550079408 6.87758
52.65364479223379 6.82833
52.67848674816189 6.854710000000001
52.70352547971946 6.79709
52.72837279155837 6.83165
52.753222773982785 6.791869999999999
52.778075429022984 6.7979899999999995
52.80312495150885 6.7765
52.827982978797436 6.785589999999999
52.85284368481815 6.74325
52.87770707160767 6.695410000000001
52.90276741793998 6.70368
52.92763619336701 6.70582
52.952507655698504 6.669580000000001
52.977381806977576 6.713610000000001
53.00245301017842 6.66782
53.02733256653592 6.635789999999999
53.052214817996074 6.637760000000001
53.077099766608484 6.652639999999999
53.102181859804446 6.620539999999999
53.127072229988265 6.6395800000000005
53.15196530349892 6.63048
53.17686108239249 6.54023
53.20195409881522 6.55416
53.22685531582556 6.5256
53.25175924441303 6.51586
53.27666588664027 6.49597
53.30176985962693 6.49593
53.3266819565689 6.46285
53.35159677336455 6.47755
53.376514312083096 6.45751
53.40162927507703 6.42139
53.42655228516116 6.41965
53.45147802340193 6.37352
53.47660125628886 6.40448
53.50153247842639 6.363090000000001
53.52646643496923 6.36655
53.55140312799818 6.35493
53.576537409691696 6.3367
53.60147960336152 6.308730000000001
53.626424539786164 6.28776
53.65137222105307 6.29548
53.67651758529126 6.250859999999999
53.70147078399681 6.2543
53.72642673383343 6.25667
53.75138543689533 6.26267
53.776541917524526 6.2007699999999994
53.801506154876755 6.2199
53.826473151763246 6.21781
53.851442910284916 6.158530000000001
53.87661054126026 6.177169999999999
53.9015858509782 6.23459
53.92656392866066 6.14255
53.95154477641532 6.16012
53.976723591801296 6.11649
54.00171000771266 6.08836
54.02669920004598 6.04472
54.051691170915745 6.084969999999999
54.076881204886796 6.11793
54.101878760928514 6.07679
54.12687910187696 6.041980000000001
54.152077577768296 6.04404
54.1770835166946 5.955430000000001
54.20209224691339 5.98465
54.22710377055121 6.002669999999999
54.25231352511594 5.98327
54.27733066384342 5.9455800000000005
54.30235060239643 5.91554
54.32737334290836 5.910019999999999
54.35259441062629 5.8558699999999995
54.377622783395324 5.86241
54.40265396455061 5.90603
54.42768795623251 5.85069
54.45292037169559 5.83568
54.477960012857906 5.82535
54.50300247099511 5.81144
54.52804774825457 5.77911
54.55329154616743 5.74811
54.57834249018678 5.72124
54.6033962597977 5.7136
54.6284528571545 5.74293
54.653708072335164 5.66155
54.67877035378786 5.62322
54.70383546947698 5.61747
54.72890342156389 5.57949
54.7541700889442 5.55626
54.77924374251975 5.53517
54.8043202390049 5.52885
54.82959552413022 5.50554
54.8546777351945 5.50749
54.87976279569621 5.47253
54.90485070780914 5.48709
54.930137506558005 5.47489
54.95523115074295 5.49256
54.98032765308844 5.4205
55.005427015775496 5.39951
55.03072536339621 5.41801
55.05583047570572 5.38402
55.080938454927676 5.393759999999999
55.10604930325027 5.28172
55.131359235107396 5.3166199999999995
55.15647585066083 5.25481
55.181595341907496 5.24311
55.20671771104285 5.24624
55.232039262617704 5.22716
55.25716741665048 5.1718
55.28229845518636 5.1787
55.30743238042802 5.11832
55.33276558731939 5.1089199999999995
55.357905315183636 5.11779
55.383047936390035 5.0732800000000005
55.40819345314859 5.071680000000001
55.433538351073295 5.07609
55.458689688238415 5.01328
55.483843927614096 4.99017
55.509197623043605 5.0102
55.53435769621134 4.9442900000000005
55.55952067826466 4.91691
55.5846865714265 4.92454
55.61005202069737 4.88844
55.63522376553902 4.9171
55.66039842818645 4.83828
55.68557601087004 4.80462
55.7109532500271 4.73755
55.73613670233794 4.779059999999999
