TT I
1.2716486653135266 7.26047
1.2939594142134223 7.268110000000001
1.3162702121660406 6.57223
1.3385810600174564 7.083410000000001
1.3608919586137629 6.7751600000000005
1.383202908801069 6.087280000000001
1.405513911425503 5.52133
1.4278249673332093 6.13805
1.4501343378461518 6.45869
1.4724455028545926 6.329359999999999
1.4947567236847858 6.0379
1.517068001182951 5.7028300000000005
1.5393793361953272 6.2616
1.5616907295681737 5.56687
1.5840021821477681 5.2480400000000005
1.60631369478041 5.42
1.6286252683124185 5.30028
1.6509369035901333 5.18851
1.6732468618895553 5.16886
1.695558623192809 4.66783
1.7178704487808514 5.7500599999999995
1.7401823395001077 5.38391
1.7625012545597203 4.5347
1.7848028405262486 5.14232
1.8071218901122095 5.21885
1.8294236121921872 4.77376
1.8517427996910911 4.606319999999999
1.8740620574440425 4.77149
1.8963639900671978 5.0322
1.9186833908139995 5.19064
1.9409854680117449 4.60706
1.9633050151394713 4.89861
1.9856246367570705 4.68278
2.0079269371922672 4.8659099999999995
2.03024671027244 5.20026
2.0525491637446027 4.58594
2.074869091674931 4.60732
2.097171701569106 4.82085
2.1194917877373847 5.2561
2.141811954326636 4.55262
2.164114805233074 4.57195
2.186435135143035 5.28409
2.208738150935709 8.47127
2.231058647554722 14.3333
2.2533792288321184 11.9508
2.275682498336085 6.90795
2.298003251406138 5.139530000000001
2.3203066942619714 5.35109
2.3426276225136022 5.19879
2.3649486396617507 5.6306
2.387252348930071 5.40356
2.4095735463442893 5.59375
2.4318774374315884 5.8019
2.4541988185014043 6.09162
2.476502894794693 7.071389999999999
2.498824462909887 6.800669999999999
2.521146125856138 6.68138
2.5434504863470337 6.42911
2.5657723414244717 7.4980199999999995
2.588076895590662 8.254560000000001
2.610398946189713 8.31322
2.6327210958598384 7.729189999999999
2.6550259469304716 7.63324
2.6773482972090137 7.3403
2.6996533504259 7.426489999999999
2.7219759047039602 7.762760000000001
2.744298562293959 7.9946600000000005
2.7666039251246595 7.3987300000000005
2.7889267918020164 7.69642
2.8112323652516555 8.73528
2.833555444408179 8.06236
2.8558786311183852 7.9573
2.8781845268938557 8.84726
2.9005079311721484 9.00615
2.9228140460410397 8.679089999999999
2.9451376712799635 9.16841
2.967444008632326 9.47307
2.9897678582247247 9.83199
3.0120918213106695 10.3389
3.0343984987899373 10.4763
3.0567226913198637 11.1879
3.079029599759726 11.6879
3.101354025127254 12.16
3.123678568232338 12.8564
3.145985829517914 13.181
3.16831061055229 13.7848
3.1906181112775593 14.5027
3.212943133635653 15.0996
3.2352682779763207 15.5216
3.2575761442691227 15.1754
3.2799015350264273 15.2502
3.302209649240067 16.3482
3.3245352898092655 16.6713
3.3468436553365257 17.0567
3.369169549113219 17.664
3.3914955708171384 18.2168
3.413804319727358 18.8426
3.4361305997334863 18.4932
3.4584396084414553 19.6079
3.4807661501462652 20.4328
3.503092824025881 20.7118
3.5254022288463154 21.1528
3.5477291695206588 21.3053
3.5700388426251948 21.8153
3.5923660534916446 22.8231
3.6146934007816114 30.1077
3.637003482731501 50.5355
3.6593311053109985 56.1895
3.681641464033634 37.647
3.7039693653009733 26.7934
3.726297407241705 25.366
3.7486081875460804 25.1035
3.7709365132734978 25.6921
3.793247578841633 26.3167
3.8155761917550093 26.4605
3.8378875459837216 26.866
3.8602164494827234 27.3291
3.882545499606844 27.6599
3.9048572932539183 28.5493
3.9271866390645718 29.252
3.9494987298666713 29.5729
3.971828374764527 29.7985
3.9941581705403255 30.5605
4.016470713506008 31.5729
4.038800813471445 31.8375
4.061113662089144 32.4704
4.0834440696459176 33.5519
4.105774632334751 33.5573
4.128087945865126 34.3332
4.150418821249301 35.001999999999995
4.172732448931298 36.3586
4.195063640413578 37.4049
4.2173775856475215 39.8378
4.239709096631102 55.2658
4.262040768704612 126.59899999999999
4.284355196706267 156.30200000000002
4.306687193387355 107.954
4.329001947444346 57.7576
4.35133427213731 44.9234
4.373666762177566 43.4039
4.395982011761091 43.7532
4.418314834921175 45.1408
4.44063041906622 49.3368
4.4629635787515625 54.4388
4.4852969080429785 55.1173
4.5076130004776225 52.6062
4.529946671403969 54.9856
4.552263106909177 57.3749
4.574597122877047 56.0868
4.596931312711224 54.3258
4.619248269273446 54.1737
4.6415828092605835 55.1445
4.663900117405352 55.7791
4.686235010953232 57.097
4.708552674085913 58.2941
4.730887924602802 60.2529
4.753223354952695 62.0456
4.775541557023902 64.8943
4.797877349456786 67.6542
4.820195915032126 68.7212
4.842532072957498 68.65
4.864868414979744 70.8249
4.88718753227192 74.9572
4.909524244902505 76.2488
4.931843734218147 77.0183
4.954180820867835 79.0997
4.976518095879839 82.0847
4.998838149695359 85.0581
5.021175803844231 89.0491
5.043496238205739 92.5999
5.065834274903528 97.1281
5.088172504230693 102.333
5.1104935158799565 109.685
5.132832132875765 129.2
5.155153533596801 161.55200000000002
5.1774925416746225 217.389
5.199814334878411 481.249
5.2221537374521505 1265.93
5.244493338631803 3254.81
5.266815727034316 7770.19
5.289155727832427 12283.8
5.311478517248165 8201.95
5.333818921080011 2728.39
5.356159527788849 573.344
5.3784829252032536 201.917
5.400823940070432 154.414
5.423147747031976 133.02
5.445489173474152 122.411
5.467830807066149 119.561
5.490155234831516 117.62
5.512497285125229 111.95700000000001
5.534822130975162 106.714
5.557164601388673 103.46600000000001
5.579489868738879 100.999
5.601832762690846 99.4413
5.6241758697774475 98.0443
5.646501775867269 97.905
5.668845311622074 96.1805
5.691171647754637 95.4275
5.713515615597765 94.6166
5.735859800852677 93.6861
5.758186788542988 95.4009
5.780531411018185 97.1208
5.802858837297399 97.1544
5.825203900414495 97.29700000000001
5.8475491852224 99.8193
5.869877275883075 99.7644
5.892223006467101 97.6297
5.914551544266608 97.3496
5.936897724049891 100.861
5.959244129804903 108.97399999999999
5.981573344815301 145.079
6.0039202049061 276.774
6.026249875609095 557.53
6.04859719346037 1107.15
6.070927323278297 2343.56
6.093275102315365 4369.91
6.115623113320588 5454.16
6.137953938319995 3283.9
6.160302415650845 982.677
6.182633708324452 235.175
6.2049826554078376 114.564
6.227331838745022 93.0493
6.249663839443684 85.5433
6.27201349767565 81.9133
6.294345974611799 82.6858
6.316696111167083 86.5078
6.339046488263839 82.8289
6.361379686074702 75.3799
6.383730546639482 71.6564
6.406064229255215 70.2164
6.428415576718203 70.4521
6.450749747566656 69.0319
6.47310158535871 67.2447
6.495453669698332 65.8543
6.517788579421056 65.1663
6.540141159237969 63.8295
6.562476565766648 63.1551
6.5848296444934045 62.973
6.607182974060425 63.2508
6.6295191323281015 63.0
6.651872965955752 63.7072
6.6742096296068985 74.6067
6.6965639707294615 94.2865
6.71891856698715 93.5292
6.741255995248479 74.4964
6.763611104154477 62.6851
6.785949046381137 59.6315
6.808304671371482 59.5261
6.8306605557940046 59.9973
6.852999275508618 59.3449
6.875355681171544 57.9243
6.897694923437771 56.9621
6.92005185377892 56.6496
6.9423916220322655 56.3776
6.964749080490181 55.3855
6.987106804399774 56.0706
7.009447368180821 56.2965
7.031805625367033 55.6057
7.054146723727803 55.3851
7.076505517631004 55.6124
7.098864581288365 55.4936
7.121206488070854 55.3353
7.143566093607822 55.3918
7.165908543567245 56.0282
7.188268694426048 56.0607
7.2106291193438095 55.4387
7.232972390625943 55.8221
7.255333366030969 61.3371
7.277677189091925 83.8541
7.300038718428332 103.243
7.322400526130865 90.9309
7.344745183422596 68.6117
7.367107550224791 57.442
7.389452767901992 55.2257
7.411815697249891 54.7611
7.434161478756298 54.0526
7.456524974096713 53.8907
7.478888753837185 54.36
7.501235387657368 54.6672
7.523599738562711 54.6878
7.545946944825532 54.8846
7.568311870344528 55.3935
7.5906770845765665 55.4246
7.613025156078678 56.2465
7.635390950099687 57.1126
7.657739602662809 56.4314
7.680105979923558 56.3402
7.702472650212829 57.1592
7.724822180948224 56.9604
7.747189439655568 56.3427
7.769539560075357 56.2958
7.791907410653562 56.8474
7.81425812420825 56.5941
7.836626570110925 57.36
7.858995315087906 58.1608
7.881346924933401 57.9544
7.903716270417482 58.481
7.926068482028405 59.1331
7.948438431475253 59.6317
7.9708086843180235 60.0736
7.993161805171116 60.9528
8.015532667162402 61.3343
8.037886398416653 62.5849
8.060257873014221 63.0348
8.082629655331942 63.8595
8.104984308787587 64.6732
8.127356708900503 67.0535
8.149711981398308 71.0395
8.172085002766314 72.9785
8.194458336181368 71.1455
8.216814543847752 69.6495
8.23918850371002 70.2543
8.26154533906492 70.9095
8.283919928836452 72.697
8.306277395339652 73.5284
8.328652618483376 75.3621
8.351028159736202 77.1232
8.373386579575245 79.5798
8.395762759396959 81.4205
8.418121819038275 85.3076
8.440498640894003 93.5623
8.462875785192262 106.726
8.485235811156207 136.579
8.507613602688501 198.18200000000002
8.529974277114228 292.245
8.552352719347912 438.37
8.574731488360351 724.3969999999999
8.59709314210385 1271.9
8.619472567021075 1909.16
8.64183487789147 2206.04
8.664214962183097 1757.45
8.686577933647762 915.757
8.708958680784317 354.964
8.731339760774953 156.134
8.753703729764451 110.208
8.77608547780821 99.7085
8.798450116065078 96.6181
8.820832535634787 93.7989
8.843215292401656 93.2665
8.865580941199045 92.7421
8.887964374703538 91.7322
8.910330701447199 91.7515
8.932714815164482 91.866
8.955099270424924 89.9761
8.977466620733543 87.7116
8.999851761421976 86.0164
9.022219798361645 84.7435
9.04460562795561 84.5842
9.066991803441677 84.55
9.089360876979615 84.384
9.111747746589993 84.4809
9.13411751544971 83.4597
9.156505082664324 83.3875
9.178875550323522 83.0928
9.20126381862328 82.9767
9.223652438908596 83.1104
9.246023961427412 82.9227
9.26841328802173 82.8103
9.290785518039224 83.1357
9.313175554425882 84.9517
9.335565947154315 85.8069
9.357939245086508 85.956
9.380330352834827 85.8491
9.40270436697103 85.6303
9.425096193225055 85.2618
9.447488380180165 85.5325
9.469863475295412 85.6351
9.492256385987508 85.6666
9.514632206018318 86.4677
9.537025843935714 86.5315
9.559402392368193 87.7859
9.581796761000229 89.6645
9.604191496441521 91.2467
9.626569144158516 93.882
9.648964615551032 95.5819
9.671343000390081 95.9248
9.693739211225699 94.321
9.716135793237463 93.9888
9.738515290448102 94.3847
9.760912617143402 95.51
9.783292860202891 97.8488
9.805690935076182 99.7871
9.828089385495742 100.729
9.850470754023561 102.52
9.872869957865444 106.566
9.89525208097539 114.292
9.917652041736662 122.568
9.940052382417589 132.412
9.962435644102392 162.155
9.984836746950979 211.391
10.007220771957746 275.66
10.029622640473708 382.906
10.052007432299963 578.624
10.074410069984072 878.107
10.096813093716005 1289.81
10.119199042482517 1735.13
10.141602840636468 1904.57
10.163989564971628 1512.52
10.186394141051062 832.681
10.208799107559706 362.57
10.231187001965623 175.68400000000003
10.253592751657669 124.491
10.275981430388155 113.376
10.298387966769793 111.156
10.320794897965431 111.59100000000001
10.343184759907361 110.05799999999999
10.36559248305461 106.84100000000001
10.387983138083852 107.432
10.410391656691655 115.34299999999999
10.432800574501677 127.863
10.455192425893369 144.708
10.47760214443012 172.428
10.499994797678786 219.368
10.522405320453982 300.578
10.54479877906917 410.551
10.567210109595656 515.1030000000001
10.5896218454736 568.653
10.612016518879773 478.089
10.634429067781074 320.905
10.656824555333241 187.148
10.679237920773568 118.14
10.701651695961992 95.3228
10.724048411481384 89.5662
10.746463008485165 87.1289
10.768860546937125 85.4814
10.791275969274796 83.7334
10.81369180576079 82.6892
10.836090585366925 81.6106
10.858507252467449 80.5783
10.88090686379991 79.6542
10.903324365036394 79.0221
10.925724811614439 78.6379
10.948143150509463 79.0525
10.970561909719066 78.3947
10.992963615930844 77.2139
11.015383218085756 75.4661
11.037785768347074 73.7869
11.06020621697282 73.4258
11.082627090322113 72.7057
11.105030913430326 72.1534
11.12745263854165 71.8436
11.149857314510728 72.952
11.172279894912576 75.3709
11.194702904450653 75.1359
11.217108866490921 72.9971
11.239532736615194 70.9589
11.26193956033512 70.0792
11.284364294577085 69.1624
11.306789462371718 67.9768
11.329197585398376 67.6228
11.351623622610898 67.7621
11.37403261614354 66.4748
11.396459526308487 66.5056
11.418869393879497 65.7778
11.441297180532617 65.7048
11.463725406927658 65.2749
11.486136592353875 64.9736
11.508565700543707 64.9547
11.530977768845315 65.7455
11.553407762368774 65.8934
11.575838200059769 65.5074
11.598251599479612 64.6033
11.620682927815501 64.2685
11.64309721895548 63.9983
11.665529441478206 63.456
11.687962112597958 63.2538
11.710377748130886 63.5435
11.732811318753434 63.2589
11.755227854859067 63.3143
11.777662328529495 63.2175
11.800079768750786 63.1924
11.822515149015453 62.9921
11.844950984084935 63.3276
11.867369787303163 62.8637
11.889806534289491 63.1206
11.912226250487029 63.4146
11.934663912939751 63.5571
11.9571020346363 63.8433
11.979523127133968 63.821000000000005
12.001962169624331 65.257
12.024384183972964 67.3326
12.046824150809913 71.1206
12.069264581333726 75.8254
12.091687985297767 81.9872
12.11412934550045 91.9591
12.136553680195208 107.00200000000001
12.158995973632788 130.774
12.181438735204349 157.368
12.20386447284199 184.96200000000002
12.226308172985636 203.446
12.24873485024193 196.908
12.271179492516982 160.38
12.293607112949127 121.454
12.316052700916226 90.0518
12.338498763250042 74.1872
12.360927805303868 67.6967
12.383374818673879 65.829
12.405804812803074 64.8392
12.428252780773262 64.4929
12.45070122756722 64.7787
12.473132656675375 64.6444
12.49558206341869 65.2244
12.518014453510101 65.2548
12.540464823770117 65.11
12.562915677315177 65.1178
12.58534951575545 65.9702
12.607801338171472 66.7512
12.630236146511358 69.1365
12.652688941369085 71.4113
12.675124723177234 71.7086
12.697578494048786 70.7323
12.720032754458185 68.8677
12.742470003354093 68.0972
12.764925245138771 68.1716
12.787363476431278 68.7813
12.809819703166806 69.2295
12.83227642391173 69.98100000000001
12.854716135692716 70.3575
12.877173846755147 71.8585
12.899614549869717 72.2682
12.9220732548287 73.0404
12.94453245827299 73.3577
12.966974655289818 74.5231
12.989434858002571 75.5617
13.011878055298721 76.2394
13.034339260862497 77.1437
13.056800969391883 78.6423
13.079245674017244 81.619
13.101708390774869 86.2556
13.12415410463411 95.9933
13.146617833206086 106.537
13.169064559883248 117.723
13.191529303857127 133.292
13.213994557076367 158.632
13.236442809902437 198.139
13.258909083908291 254.076
13.28135835851934 314.707
13.30382565690295 377.059
13.326293469022952 424.871
13.348744283242008 419.338
13.371213125129904 345.39
13.39366497011003 248.485
13.416134845360597 164.489
13.438605238843131 121.756
13.46105863690397 109.90100000000001
13.483530069144786 111.258
13.505984506951902 116.264
13.528456981549432 126.963
13.550929978879088 143.736
13.573385983253365 169.456
13.595860028340867 208.115
13.618317081455832 255.78599999999997
13.64079217790333 309.95099999999996
13.663250283359057 350.653
13.685726434770173 369.355
13.708203115221277 329.82
13.730662806148091 252.80700000000002
13.75314054697177 179.138
13.775601299246777 125.469
13.798080104050406 96.5091
13.820559442405358 85.4414
13.843021793671388 82.3941
13.865502201420897 80.8255
13.887965623051947 80.339
13.910447103807167 79.4141
13.932929122629764 78.1335
13.955394156785959 77.747
13.977877254034569 76.7058
14.000343367582113 75.6427
14.022827546871707 75.1943
14.045294743423524 74.5817
14.06778000837062 73.6596
14.090265817715476 73.2804
14.112734645763819 73.1919
14.13522154619454 72.773
14.157691466286913 72.5713
14.180179461423874 72.3925
14.202668005486178 71.7965
14.22513957064374 71.4175
14.247629214846473 71.0068
14.270101881097517 71.0463
14.29259262906496 70.9451
14.315083930490205 71.1025
14.337558255389705 71.1048
14.360050666019726 70.8267
14.382526101071944 70.3083
14.405019624534942 69.8389
14.427513705993134 69.6861
14.449990813291825 69.6564
14.47248601302899 69.316
14.49496423954951 69.527
14.517460561197822 69.5685
14.539939910570322 69.2008
14.562437357763558 69.8262
14.58493536931253 70.3107
14.607416409993311 70.5281
14.62991555254159 71.077
14.652397725157423 71.2072
14.674898002342799 71.274
14.697398848433282 71.3792
14.719882725991326 73.0277
14.74238471217934 75.3647
14.764869730765593 79.0414
14.787372860692983 82.4016
14.809876564079925 86.8134
14.83236330125751 92.8747
14.854868153850365 102.006
14.877356041159485 116.54799999999999
14.899862046604186 135.38
14.922351087688757 159.881
14.944858249632887 185.53400000000002
14.967365991421232 210.56900000000002
14.989856770231246 220.695
15.012365673994204 211.445
15.03485761569738 181.92700000000002
15.05736768508665 143.156
15.07987833888692 109.76700000000001
15.102372032001655 88.3436
15.124883856909658 76.6141
15.14737872204565 72.4507
15.169891721717274 70.8447
15.192405310371893 70.5052
15.214901940621196 70.2918
15.237416709527137 70.2779
15.259914520936249 70.15100000000001
15.282430473753607 69.3379
15.304947020131227 68.3405
15.327446610371178 68.3184
15.349964346154254 67.3579
15.372465126703139 67.1255
15.394984055556009 67.1484
15.417486030076159 66.9987
15.44000615566487 66.6296
15.462526881230803 66.685
15.485030653812652 66.7339
15.507552581617434 66.4737
15.530057557334603 66.369
15.55258069104857 66.4111
15.575104429329837 66.8155
15.597611216864632 66.6428
15.620136166564563 67.5161
15.6426441664095 69.6467
15.665170331202765 72.3299
15.687697105158826 75.1493
15.710206930593545 78.6852
15.732734925158933 82.7852
15.755245972089478 89.7012
15.77777519094324 100.027
15.800287463046663 113.553
15.822817909869592 131.94799999999998
15.84534897229804 152.208
15.867863089299354 173.574
15.890395385222186 189.71400000000003
15.912910736597423 192.762
15.935444269699861 179.08599999999998
15.957978423016485 149.77100000000002
15.980495633101265 118.09100000000001
16.003031029129367 92.35
16.02554948280019 74.77199999999999
16.048086125229432 66.9649
16.070623392487107 64.749
16.09314371869582 63.5582
16.11568223789321 62.8471
16.13820381691126 62.2197
16.160743591742527 61.3873
16.183283996022084 60.7176
16.205807461423195 59.8535
16.228349126881973 59.2333
16.25087385432698 59.2678
16.27341678466365 58.463
16.29594277784926 58.2289
16.31848697676433 58.3459
16.341031811604868 58.2763
16.36355971058487 58.2614
16.3861058195587 58.0875
16.40863499352978 57.3296
16.431182380342005 56.8683
16.453730407713202 56.5066
16.476261501364792 56.1113
16.498810812136167 55.8513
16.52134319004079 55.9545
16.54389378792203 55.8549
16.566445031001553 55.5202
16.588979342490088 55.4319
16.61153187824822 55.5738
16.634067483263312 55.6159
16.656621315414416 55.4432
16.679175797408888 54.9656
16.701713349928728 54.9319
16.72426913389191 55.0717
16.74680798922351 55.0672
16.76936507887444 55.251999999999995
16.791905240734874 54.9948
16.814463639794468 55.0433
16.837022695210294 55.3372
16.859564824093756 55.282
16.882125194503903 55.6322
16.904668639217885 56.1261
16.927230328348003 56.0567
16.949792678493612 56.2415
16.972338104193863 56.0782
16.994901778652235 55.8786
17.017448529496576 56.0288
17.040013531998152 56.5068
17.06257920018044 57.256
17.0851279459922 58.0485
17.107694947817667 58.763000000000005
17.130245028099072 59.4383
17.15281336730298 60.7754
17.17536478578733 62.7433
17.19793446610687 65.2581
17.220504818648422 68.2069
17.243058251703697 71.35600000000001
17.265629950971032 75.296
17.288184731571736 79.2385
17.310757781306908 82.9868
17.33333150794385 84.6434
17.355888317140174 81.9723
17.37846339986244 77.377
17.401021565958885 70.9997
17.42359800851343 65.72
17.44617513265564 62.4433
17.468735341390783 60.5846
17.491261035594565 59.6714
17.51396340099364 59.2959
17.536490463869136 59.6198
17.559018209820174 59.7735
17.58154663977963 59.7199
17.604251766089718 60.1407
17.626781572227713 60.3769
17.64931206518155 60.5185
17.671843245885103 60.8533
17.69455114821572 61.0433
17.717083712612634 61.2379
17.739616967569667 61.6178
17.762150914021706 61.9376
17.78486160749854 62.1041
17.807396945166804 63.1457
17.829932977143503 64.4938
17.85246970436452 66.5157
17.875183204129467 68.1961
17.897721330097664 70.0444
17.920260154126645 72.561
17.942799677153296 75.7331
17.9655159983646 79.8539
17.988056927677544 85.87700000000001
18.010598558807683 93.5848
18.033140892692916 103.45700000000001
18.05586005052525 113.33
18.07840379824407 124.162
18.10094825154059 134.564
18.12366954819864 141.143
18.146215420998306 140.769
18.16876200220057 131.015
18.191309292745153 116.014
18.214033452627167 102.18799999999999
18.236582170236648 91.8431
18.259131600016456 87.5103
18.281681742907335 88.4321
18.304408781233683 92.531
18.32696035875955 96.6689
18.349512652227624 101.329
18.372065662579683 105.383
18.394795594587553 105.90100000000001
18.41735004715306 101.976
18.43990521943684 94.8099
18.46246111238171 85.7375
18.485193953325208 76.5225
18.507751296070428 69.3966
18.530309362314178 65.8008
18.552868153000343 63.6181
18.57560391815056 62.6294
18.59816416623245 62.2182
18.620725141597372 61.7562
18.643286845190268 61.2216
18.666025549835414 60.6992
18.688588718427933 60.2157
18.711152618092243 60.133
18.73389353884365 59.7581
18.75645890921984 59.4416
18.77902501351406 59.2215
18.801591852673102 59.1295
18.824335739722738 58.6209
18.846904057212626 58.5859
18.8694731124168 58.3655
18.89204290628315 58.2982
18.914789774966803 58.0383
18.937361054791623 57.81
18.959933076131318 57.5163
18.982505839934877 57.368
19.00525570560582 57.4709
19.027829963004184 57.1836
19.05040496572238 57.4858
19.072980714710468 57.5727
19.095733592739563 57.86600000000001
19.11831084296757 57.9854
19.140888842324735 58.2768
19.16346759176222 58.6556
19.18622349753803 58.9628
19.208803755869358 60.162
19.231384767143577 61.452
19.253966532312948 63.1008
19.276725481241822 65.3704
19.29930876296784 67.4897
19.3218928014549 70.2848
19.34465404436217 72.887
19.36723960516257 75.368
19.389825925592426 75.9878
19.412413006605938 74.7244
19.43517731967805 71.391
19.457765930683355 67.1034
19.48035530514408 62.8195
19.50294544401556 58.9569
19.525712842708348 56.8767
19.54830451925909 55.2891
19.570896963095727 54.4686
19.593490175174704 54.3357
19.616260674962184 54.2324
19.638855432416964 54.0416
19.661450960992624 54.1079
19.68404726164677 54.0253
19.706820878021247 53.7462
19.729418731756834 53.8544
19.752017360452857 53.6746
19.77461676506804 53.9625
19.797393513540218 54.2215
19.819994478951667 54.488
19.84259622316767 55.0436
19.8651987471481 55.2558
19.887978643247177 55.6234
19.91058273574792 56.299
19.933187610901943 57.0006
19.955969879466828 58.3192
19.97857632894404 59.9412
20.00118356396599 61.6758
20.023791585494575 63.6734
20.046577028914875 66.149
20.069186632506966 68.0885
20.091797025500632 69.7773
20.114408208858933 70.3219
20.137196842715273 69.937
20.159809615886765 68.0573
20.18242318232135 65.5825
20.20503754298326 63.7794
20.227829382875154 62.4818
20.250445341109344 62.7269
20.27306209647285 63.4692
20.29567964993108 64.3955
20.31847471147704 65.3519
20.34109387027612 65.9084
20.363713830075454 65.49
20.386334591841646 63.8277
20.409132890679302 61.1652
20.431755265564437 58.1153
20.454378445325528 55.4342
20.477002430930366 53.5668
20.499803982716553 52.3236
20.522429589228004 51.4996
20.54505600449589 51.1077
20.567683229489194 50.9886
20.590488049900088 50.7798
20.61311690359731 50.586999999999996
20.63574656993626 50.3382
20.658553853717297 50.0434
20.681185154618298 49.7686
20.703817271080066 49.7973
20.72645020407368 49.354
20.749260783967177 49.3766
20.771895359337133 49.2674
20.794530754161617 49.3778
20.817166969412938 49.3562
20.83998086114876 49.208
20.86261872660049 49.0767
20.885257415405402 49.0429
20.90789692853701 49.0997
20.930714147864748 49.0609
20.953355319030678 49.0741
20.97599731745334 49.2086
20.99864014410749 48.9658
21.021460706796564 48.9302
21.044105199328826 49.2084
21.06675052302631 49.388999999999996
21.089396678865015 49.532
21.112220600704806 49.738
21.134868430275347 50.3558
21.15751709492456 50.6323
21.180166595629693 50.7002
21.202993892429635 51.1142
21.22564507473034 51.5854
21.24829709602816 51.8089
21.27112693608965 51.6597
21.293780644891275 51.7799
21.316435195634053 51.0073
21.339090589297417 50.2618
21.361923832041875 49.8259
21.384580921090404 49.1735
21.407238856007325 48.7994
21.429897637773326 48.7317
21.45273429906592 48.751999999999995
21.475394784108598 48.7917
21.498056118951983 48.7585
21.520718304578022 49.1206
21.543558400304388 49.257
21.566222297108816 49.4718
21.58888704765135 49.5907
21.61155265291521 50.0001
21.63439619898156 50.3216
21.657063523335786 50.4199
21.67973170537063 50.996
21.7024007460706 51.6042
21.72524775840385 52.3288
21.747918526116475 53.45399999999999
21.770590155457388 54.7202
21.79326264741238 56.335
21.816113141960237 58.1115
21.838787368860547 59.7888
21.861462461341976 61.5268
21.884315579735777 63.2996
21.90699241312273 64.4611
21.92967011506078 64.9931
21.95234868653799 64.4656
21.9752053151131 63.3001
21.997885635446785 61.4135
22.020566828293532 59.5679
22.04324889464272 57.8322
22.066109049404666 56.6545
22.088792872571794 56.2851
22.111477572219204 56.2454
22.1341631493376 56.5046
22.157026846313123 56.2031
22.179714188221507 55.4416
22.202402410582668 54.3211
22.22509151438863 52.7771
22.24795876962584 51.4733
22.270649646204486 50.7854
22.293341407213727 50.1422
22.316034053646906 49.5728
22.338904883215342 49.3675
22.36159931041458 49.2742
22.38429462602756 49.1907
22.40699083104897 48.9306
22.429865251039757 48.9852
22.452563244831367 48.9654
22.47526213102522 49.0834
22.49813925616515 49.125
22.520839937143307 48.7836
22.543541513520587 49.0112
22.56624398629403 48.8398
22.589124730075895 48.8308
22.611829005656723 49.2471
22.63453418063466 49.187
22.657240256008077 49.4149
22.680124634582935 49.4897
22.70283252079775 49.8604
22.725541310413075 50.0467
22.74825100442868 50.316
22.771139033969575 50.8342
22.79385054687155 51.0097
22.81656296718292 51.7473
22.83927629590484 52.7369
22.862167992606945 53.655
22.88488314827121 54.7798
22.907599215359284 55.6487
22.93031619487366 56.8022
22.953211574954405 57.7047
22.975930389478226 58.1323
22.998650119445763 58.1541
23.02137076586092 57.2913
23.044269845560063 56.0556
23.06699233506288 54.4399
23.089715744034912 52.693000000000005
23.112617610931565 51.0181
23.135342869061212 49.9623
23.158069049684816 49.5532
23.1807961538087 49.198
23.20370174880544 49.2571
23.226430710184808 49.224
23.249160598093425 49.3143
23.271891413539002 49.2051
23.294800752937697 49.3231
23.31753343374794 49.6019
23.340267045128353 49.6374
23.36300158808808 49.8368
23.38591468821339 50.3448
23.408651104658304 50.8685
23.431388455719986 51.6981
23.454126742409 52.3401
23.4770436196085 53.4125
23.499783787914662 54.4429
23.522524894889884 55.4104
23.54526694154616 56.1838
23.56818761219047 57.3269
23.59093154860734 57.7024
23.613676427751283 58.3634
23.636422250635754 57.1588
23.659346731118656 55.4808
23.68209445191868 53.4167
23.704843119509587 51.3692
23.72759273490623 49.4749
23.750521041644767 48.2961
23.77327256312355 47.3733
23.796025035462787 46.902
23.818956224555475 46.4045
23.841710609113413 46.1827
23.86446594758979 45.9738
23.887222241002014 45.7912
23.910157285144578 45.4513
23.932915498962537 45.4679
23.955674670778713 45.2886
23.978434801611975 45.1297
24.001373717286125 45.0312
24.024135776723917 44.8201
24.046898798245582 44.8051
24.06966278287146 44.6938
24.092605586582614 44.3956
24.115371508023642 44.3282
24.1381383956401 44.4142
24.16090625045381 44.3332
24.183852958731244 44.1231
24.206622758582608 44.1034
24.229393528706886 43.8699
24.252165270127392 44.0964
24.27511589952438 43.8659
24.297889594216997 43.6977
24.32066426328598 43.4833
24.34343990775613 43.5209
24.36639447485003 43.3339
24.38917208083877 43.3552
24.41195066531332 43.3386
24.43490819850244 43.4148
24.457688750692377 43.3059
24.48047028445616 43.1924
24.503252800821233 43.4216
24.526214300784112 43.3899
24.548998793132213 43.3778
24.57178427117417 43.1792
24.59457073593893 43.2637
24.617536219319863 43.3677
24.64032466834748 43.172
24.663114107195035 43.0318
24.685904536893013 42.907
24.708874020360852 42.7468
24.731666442613744 42.6544
24.754459858818787 42.716
24.777254270007962 42.7002
24.80022777025625 42.5408
24.82302418230472 42.6782
24.845821592443674 42.5638
24.86862000170663 42.5394
24.891597535453727 42.4695
24.914397953892728 42.6925
24.93719937456671 42.5552
24.96000179851076 42.7188
24.98298338249997 42.9049
25.00578782394922 43.3397
25.028593271784167 43.2458
25.05157790644186 43.5827
25.07438537804115 43.6163
25.097193859145293 43.9801
25.120003350792075 44.1035
25.142992065061257 44.3447
25.165803588823465 44.6548
25.18861612625217 44.9497
25.211429678386736 45.0871
25.234422489079968 45.088
25.257238081693636 45.0003
25.280054692141732 45.1298
25.3028723214652 45.1099
25.325869245420463 45.1289
25.348688923599397 45.0516
25.371509623787006 45.0751
25.394331347025812 44.83
25.41733240110666 44.3175
25.440156181590016 43.5972
25.46298098826268 43.1842
25.48580682216873 42.6038
25.50881202326435 41.9784
25.53163992281684 41.6546
25.55446885274561 41.56100000000001
25.577298814096377 41.0806
25.600308179121807 41.0726
25.623140214533745 41.157
25.64597328451537 41.1043
25.66898578564376 40.8611
25.691820936010206 40.9043
25.714657124097695 40.905
25.737494350954734 40.7658
25.760511045684957 40.5886
25.783350361364224 40.7628
25.806190718969255 40.7343
25.82903211955018 40.7978
25.852053024868923 40.8945
25.874896522722523 41.0032
25.897741066713106 40.8782
25.920586657892454 41.0113
25.943611790812668 41.0903
25.966459487728237 41.2692
25.989308234998564 41.1858
26.01215803367705 41.6506
26.03518741123814 41.6971
26.05803932412957 42.0838
26.080892291600094 41.9246
26.10374631470478 41.913000000000004
26.12677995397268 41.9799
26.14963609978026 42.0094
26.172493304397875 41.6319
26.19535156888223 41.3649
26.218389486949604 41.0314
26.241249882640123 40.9214
26.26411134137826 40.5871
26.28715248187403 40.4756
26.31001607820869 40.33
26.3328807407756 40.313
26.35574647063438 40.4915
26.37879191991473 40.4083
26.401659795896734 40.4994
26.424528742360263 40.5247
26.447398760366614 40.7396
26.470448535598294 40.8646
26.49332070826805 41.0957
26.516193955675355 41.4646
26.53906827888316 41.5165
26.562122397260108 41.8
26.584998883685063 41.9891
26.607876449110325 42.2695
26.63075509460056 42.3647
26.65381357334404 42.547
26.67669439061878 42.3873
26.699576291163382 42.3667
26.722459276044212 42.3307
26.745522132402975 41.9081
26.768407297649354 41.7511
26.791293550442003 41.282
26.814180891848974 41.0824
26.837248143099337 40.6947
26.860137673466657 40.6124
26.88302829566349 40.4575
26.90592001075963 40.2985
26.92899167420566 40.2205
26.951885586870763 39.7422
26.974780595655517 39.5168
26.99785558178161 39.5109
27.020752794605112 39.3443
27.043651106772522 39.2093
27.06655051935668 39.1852
27.089629948036183 38.9877
27.112531573292053 38.9939
27.135434302194138 39.0797
27.158338135817015 38.8822
27.181422024430987 38.9358
27.204328079372566 38.8022
27.22723524226965 38.7239
27.250143514198573 38.8421
27.273231880156334 38.8169
27.296142382065014 38.7226
27.319053996245536 38.7404
27.341966723775965 38.6902
27.365059584515222 38.8396
27.38797455070062 38.7154
27.410890633481237 38.7443
27.433807833936918 38.6653
27.456905206923906 38.7138
27.47982465472398 38.6447
27.502745223449743 38.8465
27.525666914182825 38.74
27.548768816912457 38.8326
27.571692763693633 38.6476
27.59461783573812 38.5623
27.617723149491244 38.4688
27.640650484125285 38.4415
27.66357894728264 38.4255
27.686508540048052 38.4042
27.709618414237887 38.3529
27.732550278321757 38.0921
27.755483275279115 38.0923
27.778417406196485 38.1102
27.801531858397514 38.1611
27.824468269376716 38.2061
27.847405817586786 38.1918
27.870344504116094 38.3897
27.893463551932008 38.4897
27.916404527281053 38.6253
27.93934664422563 38.7486
27.962289903855886 38.7764
27.98541356491974 38.966
28.00835912214229 39.14
28.03130582533231 39.2839
28.054253675581805 39.4762
28.077381967556104 39.3134
28.100332124185126 39.2669
28.123283431160893 39.1555
28.146235889577238 39.0047
28.169368830154156 38.876999999999995
28.192323603752033 38.7417
28.215279532083304 38.3649
28.238415973016764 38.1015
28.261374223145094 38.061
28.284333631303806 37.7791
28.307294198589954 37.6853
28.330435319167677 37.3377
28.353398217078915 37.1064
28.376362277420153 36.8803
28.39932750129032 36.7279
28.422473319286713 36.5538
28.44544088262495 36.5983
28.468409612800283 36.3959
28.491379510913497 36.2291
28.51453004413313 36.2196
28.53750229057244 36.1245
28.56047570826344 36.0689
28.583450298308804 36.1918
28.606605564586562 36.0506
28.629582511831156 36.055
28.65256063474956 36.0025
28.675539934446338 35.9283
28.698699951647605 35.817
28.72168161743193 35.5598
28.74466446331978 35.6896
28.767648490417624 35.7795
28.790813276438353 35.6352
28.813799678527303 35.5736
28.836787265157085 35.6619
28.859955641890075 35.6781
28.882945610203045 35.5399
28.905936766392035 35.4834
28.928929111566863 35.5604
28.952102288520145 35.4568
28.975097024308607 35.4138
28.998092952423807 35.2408
29.021090073977508 35.204
29.04426806913204 35.0562
29.067267590245258 34.9211
29.090268308143695 34.8547
29.11327022394099 34.7056
29.13645305530891 34.6377
29.159457379627167 34.6092
29.18246290519685 34.5016
29.20546963313352 34.6061
29.22865731875826 34.6404
29.25166646419296 34.5244
29.27467681535305 34.429
29.29768837335608 34.4855
29.320880931312562 34.5631
29.34389491580634 34.5188
29.366910110507334 34.4961
29.38992651653503 34.371
29.41312396492981 34.3993
29.436142806456754 34.3785
29.45916286268059 34.1967
29.48236399319994 34.0705
29.50538649169417 33.9912
29.528410208259935 34.0049
29.55143514402014 33.8423
29.574641196749695 33.6414
29.597668583816574 33.5668
29.6206971934585 33.2533
29.64372702680042 33.3132
29.666938019934474 33.3069
29.689970313635285 33.1972
29.713003834422636 33.1862
29.73603858342347 33.2369
29.759254535188578 33.084
29.78229175361658 33.0375
29.80533020365064 33.0095
29.82836988641968 33.0427
29.85159081507472 32.9526
29.874632976355343 32.9704
29.89767637376955 33.0273
29.920721008448314 32.8154
29.9439469322847 32.8739
29.96699405457564 32.8331
29.9900424175358 32.9199
30.013092022298157 32.7582
30.03632295963995 32.7526
30.059375061131373 32.6861
30.08242840783577 32.7664
30.105483000888153 32.7471
30.128718970092244 32.6675
30.151776069006917 32.5163
30.17483441768648 32.6331
30.198074175317235 32.6602
30.221135036724256 32.7341
30.24419715131772 32.6049
30.267260520236203 32.5677
30.290505341942243 32.5787
30.313571232750228 32.5621
30.336638381310948 32.5277
30.35970678876503 32.4826
30.38295669299435 32.3342
30.40602763151657 32.421
30.429099832366074 32.4207
30.452173296685572 32.3208
30.47542830191959 32.3088
30.498504306502497 32.1885
30.521581577995562 32.3564
30.544660117543582 32.3494
30.56792024229725 32.3807
30.59100133132069 32.3115
30.614083691845494 32.2665
30.637167325018545 32.4244
30.660432587840603 32.5685
30.683518779717886 32.3475
30.70660624769615 32.3817
30.729694992924372 32.516
30.75296541239743 32.403
30.77605672557558 32.2924
30.799149319462742 32.358000000000004
30.8224236211637 32.1594
30.845518789950724 32.0217
30.868615242910597 32.0434
30.891712981195973 31.8752
30.91499247215866 31.8418
30.938092794619365 31.7748
30.96119440587579 31.6496
30.984297307082752 31.561
31.00758200598383 31.4742
31.030687500658694 31.4599
31.053794288760695 31.4083
31.076902371446767 31.3578
31.100192296997445 31.3662
31.12330298246119 31.3706
31.14641496599209 31.2204
31.169528248749216 31.1769
31.19282341969534 31.1908
31.215939314557186 31.1827
31.239056512134788 31.2192
31.262175013589378 31.1858
31.28547544871168 31.0673
31.30859657161541 31.0776
31.331719001892175 31.0655
31.35484274070538 31.1985
31.378148458819545 31.0958
31.401274828443725 31.165
31.424402510106933 31.1022
31.447712205419993 31.121
31.470842524931633 31.0365
31.493974159989783 31.1345
31.51710711176168 30.9512
31.54042212308802 31.0078
31.563557722100917 30.9677
31.586694641341655 30.7779
31.609832881979628 30.7427
31.63315322823208 30.6907
31.656294125521327 30.4728
31.679436347728515 30.5764
31.70257989602529 30.4143
31.725905596152327 30.3819
31.74905181052835 30.3321
31.772199354521323 30.3114
31.79534822930507 30.3803
31.818679302290967 30.4602
31.84183085259981 30.4016
31.864983737233473 30.2803
31.88813795736804 30.3614
31.911474422233013 30.2272
31.934631327356435 30.2848
31.9577895715215 30.1899
31.980949155906522 30.263
32.004291031706956 30.2804
32.027453310562606 30.1853
32.05061693318573 30.0611
32.07396288236386 30.014
32.09712920658542 30.009
32.12029687812702 29.8367
32.14346589817093 29.7118
32.166817291729984 29.6971
32.18998902288583 29.6561
32.21316210610336 29.5724
32.23633654256711 29.4235
32.259693399663725 29.4162
32.282870556771144 29.3496
32.30604907069099 29.4357
32.329228942610065 29.3502
32.35259128243769 29.1659
32.375773884550505 29.0911
32.398957848235646 29.0854
32.422143174682176 29.0323
32.445511016471215 28.9665
32.468699082679954 28.8832
32.49188851523011 28.9104
32.51507931531304 28.8117
32.538452678331 28.8039
32.56164622776311 28.7464
32.58484114831493 28.6783
32.60803744118015 28.6565
32.631416344731896 28.6603
32.654615396551876 28.6304
32.67781582427913 28.6168
32.701198898634416 28.5766
32.72440209253756 28.5251
32.747606665947124 28.4787
32.77081262006088 28.2848
32.79420126883317 28.3696
32.81740999876112 28.4084
32.840620112999424 28.2242
32.86383161274818 28.1928
32.88722585534586 28.2216
32.91044014056596 28.2268
32.933655814909734 28.2065
32.95687287957963 28.2157
32.98027273544904 27.9995
33.00349259526636 28.0274
33.026713849030116 28.107
33.04993649794511 27.9718
33.073341986570746 27.9532
33.09656744032826 27.9363
33.11979429286444 28.0199
33.14302254538647 28.0299
33.166433686291185 27.886
33.18966475336992 27.8905
33.212897224069096 27.7267
33.23613109959831 27.8222
33.259547912343415 27.6956
33.2827846121627 27.7047
33.306022720453775 27.7007
33.32926223842861 27.6105
33.352684742614166 27.5439
33.37592709463173 27.53
33.399170859982064 27.4093
33.422597648419426 27.2756
33.44584425514446 27.2185
33.46909227885668 27.1961
33.4923417207723 27.1625
33.51577423505344 27.1936
33.539026528130385 27.0422
33.56228024307245 27.0678
33.585535381098246 26.9695
33.60897364093058 26.9587
33.63223163992385 26.8842
33.6554910656699 26.8482
33.678751919389796 26.871
33.702195944520106 26.8463
33.72545966903325 26.8136
33.74872482519663 26.7213
33.771991414233746 26.7077
33.79544122444841 26.6093
33.81871069412428 26.5539
33.84198160035767 26.5111
33.86525394437455 26.5666
33.88870955949969 26.5016
33.911984794020626 26.4513
33.93526147001624 26.3555
33.958539588715006 26.3663
33.98200102861669 26.2854
34.0052820477047 26.1536
34.02856451319451 26.2234
34.05203033759056 26.0903
34.07531571090147 26.0716
34.09860253431845 26.1876
34.121890809074316 26.1049
34.145362493118924 26.0788
34.16865368561615 25.9723
34.191946333164054 25.8859
34.21524043699793 25.9359
34.23871800066799 25.873
34.26201503218366 25.8293
34.28531352370466 25.8211
34.30861347646881 25.7419
34.33209693978188 25.7558
34.3553998301885 25.7157
34.378704185565205 25.68
34.402010007152356 25.6088
34.42549939016683 25.6633
34.44880815937748 25.5141
34.472118398533134 25.3654
34.49543010887669 25.424
34.51892543169198 25.3323
34.54224009966052 25.3505
34.56555624255917 25.3217
34.58887386163339 25.1909
34.61237514439016 25.163
34.6356957311114 25.1948
34.65901779775809 25.1373
34.68252356662995 25.0497
34.705848608458616 25.0561
34.72917513396849 24.9796
34.75250314440949 24.9031
34.77601490857862 24.9229
34.799345904259795 24.8884
34.82267838863559 24.8558
34.846012362958525 24.9347
34.869530142679984 24.8692
34.89286711232212 24.7733
34.91620557568269 24.7239
34.93954553401677 24.7003
34.9630693495876 24.635
34.986412313340814 24.72
35.00975677584668 24.6707
35.033102738362956 24.5009
35.05663261012228 24.5211
35.0799815881786 24.5372
35.10333207003229 24.391
35.12668405694369 24.4531
35.150220005273056 24.4563
35.17357501786656 24.4106
35.19693153931268 24.3211
35.220289570874385 24.3059
35.24383161619786 24.2892
35.267192683604904 24.3751
35.290555264930376 24.2516
35.314101899412165 24.303
35.33746752422433 24.1553
35.36083466676374 24.2291
35.38420332829803 24.1482
35.407756095629054 24.1653
35.43112781085063 24.1929
35.45450104888391 24.163
35.477875810999194 24.12
35.50143473172161 24.0081
35.52481255774625 24.0168
35.54819191167777 23.8605
35.57157279478914 23.8679
35.595137889488406 23.864
35.61852184675279 23.8012
35.641907337029984 23.7671
35.665294361595684 23.811
35.68886565090076 23.6569
35.7122557598848 23.6732
35.73564740699838 23.6924
35.759040593519934 23.6172
35.78261809810353 23.5068
35.80601437933051 23.528000000000002
35.829412203814705 23.4453
35.85281157283719 23.374000000000002
35.876395313415884 23.4624
35.8997977874528 23.4042
35.92320180988546 23.3831
35.946790244133936 23.2852
35.97019737933222 23.2725
35.993606066789866 23.2371
36.01701630779276 23.1417
36.04061101440684 23.156999999999996
36.06402437852291 23.0985
36.08743930005611 23.1085
36.1108557802951 23.0665
36.13445678011326 23.0488
36.15787639383515 22.9837
36.18129757014299 22.9735
36.20472031032821 22.8929
36.22832762423364 22.8517
36.25175350829375 22.8292
36.275180960119776 22.7953
36.298609981005924 22.8787
36.32222362992669 22.8493
36.34565580510207 22.7381
36.36908955323448 22.7473
36.39252487562093 22.6805
36.416144880530226 22.6464
36.43958336764275 22.6642
36.463023432914625 22.6631
36.486465077645676 22.5502
36.51009145956204 22.5741
36.53353627947859 22.5011
36.55698268276811 22.4862
36.58043067073321 22.4642
36.60406345072071 22.3285
36.62751462435344 22.308000000000003
36.65096738658405 22.3184
36.67460498210655 22.2855
36.69806093788647 22.2356
36.72151848619297 22.175
36.744977628333636 22.175
36.76862165890998 22.1196
36.79208400512205 22.1257
36.81554794910557 22.1218
36.83901349217101 22.011999999999997
36.862663978991606 21.9532
36.88613273667352 21.9987
36.90960309738324 21.954
36.933075062434064 21.8989
36.95673202673572 21.7975
36.98020721697122 21.8594
37.003684015502365 21.7798
37.027162423645365 21.6996
37.050825886711465 21.644000000000002
37.07430753063053 21.689
37.09779078812467 21.6139
37.121275660513014 21.6029
37.144945643673694 21.5614
37.16843376245278 21.5437
37.19192350009803 21.5199
37.215414857931435 21.4066
37.239091382563885 21.3814
37.262585997426164 21.4076
37.28608223645736 21.3925
37.309763684451696 21.2886
37.33326318851098 21.2995
37.356764320726555 21.2829
37.380267082425526 21.3031
37.40395510942588 21.2638
37.42746114683234 21.1988
37.45096881771841 21.1185
37.474478123414166 21.095
37.49817275092816 21.1014
37.52168534303452 21.0915
37.54519957395567 20.9866
37.568715445024665 20.9719
37.592416694607714 20.8581
37.61593586281424 20.9835
37.63945667518264 20.8942
37.66297913304891 20.8158
37.68668702630454 20.7924
37.710212792059274 20.7735
37.733740207334854 20.7511
37.757269273470364 20.7148
37.780983832050374 20.6734
37.80451621684926 20.6541
37.82805025654007 20.5846
37.851585952464795 20.5602
37.8753071980695 20.5124
37.89884622345676 20.5112
37.92238690911902 20.4539
37.94611318753442 20.3586
37.969657210779765 20.3668
37.99320289834801 20.3522
38.016750251586465 20.3574
38.04048325513017 20.284000000000002
38.06403395679343 20.2222
38.087586328183946 20.2258
38.11114037065203 20.2303
38.13488012115898 20.2295
38.1584375229181 20.1963
38.181996599821 20.0963
38.205557353221124 20.0569
38.229303872575656 20.0349
38.2528679961576 20.076
38.27643380031219 19.9658
38.30000128639589 19.957
38.32375459653193 19.8957
38.34732546371299 19.9864
38.37089801690786 19.8504
38.39447225747609 19.7583
38.418232380377425 19.8232
38.441810012983396 19.7535
38.46538933705673 19.7433
38.488970353960084 19.7419
38.51273731166058 19.6666
38.536321731567014 19.6463
38.55990784840681 19.6054
38.58367995004091 19.6044
38.60726947812959 19.5491
38.63086070726198 19.5332
38.654453638806274 19.5218
38.678232613930824 19.424
38.70182896773327 19.3681
38.72542702806741 19.367
38.7490267963045 19.339000000000002
38.77281266709232 19.3728
38.79641586862214 19.2334
38.8200207821842 19.2367
38.843627409152944 19.2873
38.86742019782782 19.2107
38.891030269149255 19.1588
38.914642058016156 19.1791
38.938255565806124 19.1588
38.96205529464307 19.1189
38.98567225787121 19.0943
39.00929094417078 19.0307
39.03291135492255 19.0115
39.05671804624804 18.9983
39.080341923549106 18.8937
39.103967529460334 18.9165
39.127594865365744 18.858
39.15140854155791 18.7725
39.17503935514948 18.8054
39.19867190290282 18.8363
39.22249083587951 18.823
39.24612686969409 18.758
39.269764641845306 18.7406
39.293404153722804 18.6585
39.317230110864074 18.5857
39.34087311998506 18.5702
39.36451787301696 18.5276
39.388164371352595 18.4964
39.41199737518003 18.4781
39.43564738196752 18.4681
39.45929913825317 18.430999999999997
39.48295264543308 18.3473
39.506792718520884 18.3877
39.530449745387216 18.4248
39.55410852735203 18.3274
39.57776906581474 18.3535
39.60161623079 18.3045
39.625280300200025 18.2179
39.64894613032202 18.1639
39.67261372255866 18.1661
39.6964680021016 18.1309
39.72013913657293 18.1643
39.74381203738292 18.1187
39.76748670593756 18.0766
39.79134812278169 18.0319
39.81502634488497 18.0612
39.83870633896685 18.028
39.862388106436654 17.9502
39.88625668336918 17.8824
39.90994201572829 17.9367
39.933629125719285 17.8448
39.957503091207826 17.7963
39.9811937746168 17.883
40.00488623990914 17.8078
40.02858048850006 17.724
40.05246165409549 17.7344
40.076159487492085 17.6705
40.099859108448875 17.6763
40.123560518384345 17.6935
40.1474489070226 17.6192
40.171153913178564 17.5648
40.194860712584955 17.5716
40.2185693066637 17.5589
40.242464941335314 17.4787
40.26617714307655 17.4843
40.289891143772046 17.4703
40.3136069448471 17.4138
40.33750984859743 17.382
40.3612292688043 17.4038
40.3849504936829 17.3409
40.40867352466194 17.3406
40.43258372059144 17.31
40.45631038219906 17.2905
40.48003885420956 17.2039
40.503769138055105 17.1293
40.52768664931955 17.1395
40.55142057531802 17.1791
40.57515631746428 17.0946
40.599079334038514 17.101
40.62281872700477 17.0608
40.64655994043941 17.0466
40.67030297578061 17.0311
40.69423334835778 16.9765
40.71798004609188 16.8947
40.74172857006355 16.9045
40.76547892171441 16.9136
40.7894166736039 16.9161
40.813170699248566 16.8568
40.83692655691388 16.8209
40.86068424804498 16.8322
40.884629402612525 16.7745
40.908390779366385 16.748
40.932153993938 16.7392
40.95591904777605 16.7253
40.979871628443995 16.6459
41.003640379561936 16.6853
41.02741097430883 16.6537
41.05118341413683 16.5853
41.075143444384416 16.5777
41.098919593177826 16.5971
41.1226975914255 16.5249
41.14647744058318 16.4678
41.170444943946755 16.4738
41.19422851378379 16.4437
41.218013938914645 16.3793
41.24198706625173 16.3149
41.26577622087193 16.325
41.289567235177785 16.3058
41.31336011063129 16.2746
41.337340752422875 16.2849
41.361137369129835 16.2733
41.38493585138705 16.2239
41.40873620066004 16.1187
41.43272438060107 16.1201
41.45652848292052 16.1
41.48033445666918 16.0446
41.50414230331616 16.0715
41.528138045159764 16.0121
41.551949656675205 15.9571
41.575763145513235 16.0264
41.59957851314666 15.9395
41.62358184070442 15.9446
41.64740098505737 15.9633
41.6712220126409 15.8934
41.69504492493139 15.8478
41.71905586207357 15.8328
41.74288256296395 15.7945
41.766711153007456 15.7632
41.79054163368412 15.720999999999998
41.814560204340054 15.7074
41.838394485526365 15.7115
41.86223066180303 15.6884
41.88625497706819 15.689
41.910094962812 15.5966
41.93393684811168 15.5934
41.95778063445365 15.5205
41.981812625263366 15.5225
42.00566023303407 15.5071
42.029509746323676 15.4682
42.05336116662236 15.4393
42.077400857069705 15.4715
42.10125611078846 15.4663
42.12511327600405 15.3905
42.14897235421036 15.3547
42.173019768448455 15.3624
42.19688269209613 15.3464
42.22074753323349 15.2771
42.24461429335818 15.215
42.268669455600495 15.2352
42.292540073217886 15.2186
42.31641261433284 15.1764
42.34028708044675 15.1847
42.36435001496739 15.1638
42.38822835065557 15.0945
42.41210861586426 15.0583
42.4359908120986 15.0489
42.46006154323262 15.0039
42.48394762115317 15.0185
42.507835634632315 15.0098
42.531912233047436 14.9904
42.55580413732265 14.9394
42.579697981698 14.902000000000001
42.60359376768525 14.8964
42.62767820545945 14.8606
42.65157789440821 14.8049
42.67547952952185 14.7463
42.699383112316 14.7824
42.72347541395347 14.7127
42.74738291190531 14.6418
42.771292362102166 14.6895
42.795203766063516 14.7005
42.819303956130405 14.675
42.843219287476536 14.6126
42.86713657716324 14.5411
42.89105582671383 14.5644
42.91516392983864 14.5374
42.939087119032166 14.4959
42.963012272677304 14.5073
42.98693939230129 14.4687
43.01105543317513 14.4598
43.034986504731386 14.4215
43.05891954686589 14.3622
43.08285456110972 14.389000000000001
43.10697856448665 14.3637
43.130917542983475 14.2858
43.15485849820081 14.3151
43.17880143167367 14.2792
43.20293342237094 14.2177
43.226880332449 14.1957
43.25082922540554 14.2211
43.27496722682525 14.1389
43.29892010567796 14.142999999999999
43.32287497204102 14.1244
43.34683182745632 14.0711
43.370977859791836 14.055
43.39493871351105 14.1048
43.41890156092628 14.0365
43.44286640358341 14.0269
43.46702049182749 13.9906
43.49098934522816 13.9754
43.51496019852649 13.9177
43.5389330532723 13.860999999999999
43.56309522248204 13.869000000000002
43.58707210044314 13.8488
43.61105098451946 13.8266
43.63503187626491 13.7984
43.659202151562134 13.8058
43.68318707902681 13.8009
43.70717401884041 13.7363
43.731162972560874 13.7223
43.75534137913236 13.6588
43.779334381108384 13.6455
43.803329401683186 13.6547
43.82732644241872 13.6046
43.8515130055166 13.5805
43.87551410707659 13.5875
43.89951723350145 13.5769
43.923709934595614 13.5224
43.94771713129917 13.4927
43.97172635758096 13.5193
43.99573761501002 13.4669
44.0199385169922 13.4318
44.04395385732619 13.3845
44.067971233533086 13.3859
44.09199064718605 13.3957
44.11619977548961 13.3384
44.14022328470671 13.3332
44.16424883610785 13.368
44.18827643127035 13.3163
44.21249381139513 13.2242
44.236525514814076 13.2199
44.26055926674478 13.2009
44.28459506876863 13.2505
44.3088207262813 13.2029
44.33286064928722 13.1153
44.35690262714919 13.0921
44.38094666145278 13.085999999999999
44.4051806219871 13.1033
44.42922879003185 13.0345
44.45327901929361 13.0003
44.477331311362136 13.0473
44.501573600619416 13.013
44.525630039221795 12.9218
44.54968854541895 12.9759
44.573937102200176 12.9049
44.5979997645541 12.8713
44.622064499300315 12.8625
44.64613130803592 12.8181
44.67038823869318 12.8763
44.69445921643748 12.8154
44.718532272981385 12.7727
44.742607409926194 12.7567
44.76687274034801 12.7186
44.79095205918753 12.6587
44.81503346325094 12.6696
44.839116954143876 12.6413
44.86339071028742 12.6549
44.88747839599524 12.6209
44.91156817336837 12.6181
44.93566004401666 12.5824
44.959942251908146 12.5624
44.984038330325966 12.5022
45.00813650686762 12.4867
45.03223678314731 12.4921
45.05652746888232 12.4535
45.08063196592069 12.4388
45.104738567558705 12.3892
45.128847275414856 12.3687
45.15314646515866 12.3226
45.17725940679741 12.3195
45.20137445952892 12.312000000000001
45.22568004865265 12.272
45.24979934496396 12.277000000000001
45.27392075725247 12.2452
45.29804428714431 12.2014
45.322358426247604 12.1648
45.346486212804315 12.1813
45.370616121861914 12.1927
45.39474815505086 12.16
45.41907087049246 12.1176
45.4432071734666 12.0891
45.46734560548283 12.1317
45.49148616817604 12.0848
45.51581748638564 12.0189
45.5399623320197 12.0262
45.56410931325473 11.9292
45.58825843173002 12.0155
45.61259837920865 11.9356
45.636751793816 11.9537
45.66090735060093 11.9332
45.68506505120716 11.9027
45.7094136545275 11.8926
45.73357566449271 11.8033
45.75773982322992 11.8225
45.78190613238733 11.832
45.806263418194064 11.7802
45.83043404997326 11.7677
45.85460683713677 11.7628
45.87897065658495 11.7517
45.90314777634752 11.7349
45.92732705646868 11.7168
45.9515084986045 11.6952
45.97588104735473 11.6435
46.00006683541565 11.5925
46.02425479047904 11.592
46.04844491420549 11.5618
46.0728262191024 11.5457
46.09702070211635 11.5254
46.12121735879483 11.5478
46.14541619080294 11.4866
46.169806278764455 11.5078
46.194009483459034 11.4744
46.21821486849841 11.4414
46.24242243555223 11.3928
46.266821333570014 11.38
46.29103328674601 11.3937
46.31524742696538 11.4222
46.33946375590237 11.3461
46.36387149104216 11.2907
46.38809221957392 11.2572
46.41231514186606 11.3163
46.436540259597464 11.2672
46.460956858999374 11.1995
46.48518638983522 11.2008
46.509418121166966 11.1788
46.533652054678114 11.1653
46.55807754555709 11.1486
46.58231590571962 11.1738
46.60655647313217 11.1209
46.630988654873654 11.0663
46.655233659129024 11.0594
46.67948087571551 11.0446
46.70373030632484 11.0179
46.72817142736393 11.0082
46.752425308428684 10.9696
46.77668140861147 10.9712
46.80093972960865 10.9686
46.82538981736788 10.9124
46.849652602470904 10.8905
46.87391761349769 10.8924
46.8981848521493 10.8571
46.9226439341274 10.8261
46.946915650573224 10.815
46.97118959976749 10.8132
46.99546578341598 10.7772
47.019933887188216 10.7665
47.04421456235744 10.7527
47.06849747711879 10.7485
47.09278263318286 10.7166
47.11725978640143 10.6546
47.14154944775105 10.6301
47.165841355555656 10.6735
47.1901355115306 10.6279
47.214621741924994 10.5996
47.23892041698887 10.5699
47.26322134538975 10.5958
47.28771440635075 10.5309
47.31201986422527 10.5401
47.33632758061436 10.5127
47.360637557241866 10.4725
47.38513974410611 10.4473
47.40945426407847 10.4229
47.43377104948137 10.4312
47.45809010204344 10.392999999999999
47.48260144275502 10.3618
47.506925052572285 10.3492
47.53125093475548 10.3315
47.55557909103813 10.3582
47.58009961361992 10.3011
47.60443234110732 10.3173
47.62876734791564 10.267000000000001
47.65310463578333 10.2494
47.6776343683373 10.2457
47.7019762413987 10.1915
47.72632040075572 10.2127
47.75066684815169 10.2079
47.77520581885936 10.1942
47.799556865477655 10.1112
47.823910205386 10.1644
47.84826584033272 10.1012
47.87281407745551 10.1062
47.89717432569297 10.0929
47.92153687423484 10.0611
47.94609208429692 10.0659
47.97045925671401 9.98868
47.99482873471275 9.95758
48.01920052005013 9.95497
48.04376504619224 9.95343
48.068141469543484 9.954130000000001
48.09252020552573 9.94422
48.11690125590099 9.90508
48.1414751266064 9.87369
48.16586082917454 9.85162
48.19024885144316 9.86341
48.2146391951793 9.84799
48.239222439012764 9.87252
48.26361744916137 9.80289
48.28801478610016 9.81733
48.31241445160131 9.78471
48.337007097209366 9.74267
48.36141144338331 9.76423
48.38581812345755 9.72585
48.41022713920929 9.71921
48.434829215320704 9.70753
48.45924292604658 9.66563
48.48365897780325 9.67523
48.50807737237308 9.634310000000001
48.532688907799276 9.61951
48.55711201168574 9.59747
48.581537463754074 9.592089999999999
48.60615611725119 9.57001
48.63058628942721 9.55684
48.65501881516546 9.52626
48.6794536962573 9.5218
48.70408185970339 9.47852
48.72852147531801 9.44489
48.75296345168211 9.42229
48.77740779059232 9.4707
48.80204549302823 9.45445
48.82649458091802 9.41817
48.85094603676547 9.39288
48.87539986237231 9.39522
48.90004713292306 9.37079
48.92450572200832 9.3416
48.94896668628025 9.323789999999999
48.97343002754588 9.288
48.99808689542115 9.259360000000001
49.02255501470614 9.26103
49.04702551642794 9.22867
49.0714984023988 9.212069999999999
49.096164896893235 9.2416
49.120642575466796 9.20572
49.145122643748394 9.19055
49.16960510355558 9.17667
49.19428125404938 9.14732
49.2187685210852 9.12669
49.243258185121555 9.10237
49.26794160167084 9.079
49.2924360839405 9.051
49.31693296869764 9.07419
49.34143225776915 9.05592
49.36612538195438 9.00531
49.39062950396021 8.98069
49.41513603578346 8.95606
49.4396449792564 8.95282
49.46434784069503 8.92816
49.488861631846454 8.89885
49.513377840166804 8.911019999999999
49.537896467493745 8.879380000000001
49.56260909589029 8.814219999999999
49.587132585683285 8.84864
49.611658500018365 8.844669999999999
49.636186840738596 8.82211
49.66090926588511 8.788960000000001
49.685442483902584 8.81498
49.70997813385706 8.7696
49.734516217597076 8.75178
49.75924846937352 8.71681
49.7837914452858 8.712489999999999
49.80833686055187 8.69036
49.83288471702571 8.67052
49.85762682540054 8.68485
49.882179588965734 8.6559
49.9067347993235 8.63265
49.93129245833333 8.59116
49.95604445336378 8.65402
49.98060703442832 8.59025
50.005172069746266 8.569139999999999
50.02993150438364 8.570269999999999
50.05450147301533 8.5148
50.07907390151433 8.54359
50.10364879174981 8.5337
50.12841816587289 8.47446
50.1529980044635 8.48131
50.17758031042124 8.45041
50.20216508562089 8.453560000000001
50.22694442953363 8.42436
50.25153416817468 8.40019
50.27612638170508 8.3883
50.300721072005196 8.36214
50.325510416102105 8.357000000000001
50.350110084975064 8.36015
50.37471223628208 8.335339999999999
50.39931687190919 8.31515
50.424116246675766 8.28154
50.44872587605249 8.244480000000001
50.47333799543065 8.27975
50.49795260670191 8.26908
50.52276204271512 8.23243
50.54738166295838 8.19859
50.57200378079314 8.2116
50.596628398116835 8.16117
50.62144792604559 8.173680000000001
50.646077567609396 8.17048
50.670709714377715 8.15064
50.69553683636198 8.125119999999999
50.72017401885922 8.08886
50.7448137122895 8.080739999999999
50.76945591856022 8.08722
50.79429318636823 8.08048
50.818940443716784 8.056339999999999
50.84359021965163 8.03792
50.868242516085964 8.04379
50.893089960641895 8.01865
50.917747323549435 7.9808699999999995
50.94240721271973 7.99282
50.96706963007175 7.971710000000001
50.99192728239342 7.96868
51.01659478166073 7.9594
51.04126481489051 7.9279399999999995
51.06593738400761 7.88777
51.090805275207074 7.895060000000001
51.11548294172845 7.87362
51.14016314993547 7.86074
51.164845901758845 7.847060000000001
51.18972406304274 7.83788
51.21441192780656 7.797610000000001
51.23910234200271 7.7587600000000005
51.2637953075678 7.738289999999999
51.288683770237945 7.741210000000001
51.31338186432707 7.72923
51.33808251561888 7.72612
51.362978729967345 7.705830000000001
51.387684521509755 7.695180000000001
51.41239287610203 7.69141
51.437103795691165 7.66207
51.46201036644977 7.655819999999999
51.486726441956634 7.627680000000001
51.51144508832545 7.633839999999999
51.536166307509156 7.60415
51.56108326624387 7.5641
51.58580965706056 7.578810000000001
51.61053862657523 7.58011
51.635270176746864 7.515910000000001
51.66019755512065 7.517580000000001
51.68493429268881 7.497839999999999
51.70967361681515 7.471989999999999
51.73441552946465 7.491060000000001
51.759353359237934 7.457330000000001
51.7841004750961 7.46144
51.80885018539685 7.420319999999999
51.833602492111254 7.400010000000001
51.8585508051424 7.38227
51.883308330926425 7.375660000000001
51.90806845906181 7.35657
51.932831191525715 7.344180000000001
51.95779001977161 7.35446
51.98255798721516 7.353610000000001
52.00732856494335 7.2645800000000005
52.03229530577543 7.292960000000001
52.057071130455945 7.263
52.081849571391054 7.2518899999999995
52.106630630568695 7.24798
52.13160794279417 7.2031
52.15639426492067 7.194319999999999
52.18118321127822 7.209510000000001
52.205974783860896 7.17507
52.23096269971011 7.16132
52.255759551287994 7.1629
52.280559035098186 7.14122
52.30536115314103 7.10395
52.33035970494467 7.099939999999999
52.35516711807904 7.0815600000000005
52.37997717147198 7.078410000000001
52.40478986713005 7.062130000000001
52.42979908731974 7.01962
52.454617094216 7.027830000000001
52.47943774942214 6.999619999999999
52.50426105495102 6.9983
52.529280976059844 6.97285
52.554109609024096 6.97232
52.57894089837482 6.937069999999999
52.60377484613117 6.94048
52.62880550079408 6.94959
52.65364479223379 6.910019999999999
52.67848674816189 6.92231
52.70352547971946 6.9009100000000005
52.72837279155837 6.84697
52.753222773982785 6.85405
52.778075429022984 6.84008
52.80312495150885 6.8578
52.827982978797436 6.8120899999999995
52.85284368481815 6.795539999999999
52.87770707160767 6.7750699999999995
52.90276741793998 6.785139999999999
52.92763619336701 6.77695
52.952507655698504 6.7677
52.977381806977576 6.681439999999999
53.00245301017842 6.73278
53.02733256653592 6.74679
53.052214817996074 6.7208
53.077099766608484 6.68744
53.102181859804446 6.64507
53.127072229988265 6.643610000000001
53.15196530349892 6.642639999999999
53.17686108239249 6.6337
53.20195409881522 6.59805
53.22685531582556 6.5884100000000005
53.25175924441303 6.56146
53.27666588664027 6.53747
53.30176985962693 6.53967
53.3266819565689 6.56417
53.35159677336455 6.50902
53.376514312083096 6.51508
53.40162927507703 6.53115
53.42655228516116 6.45412
53.45147802340193 6.4543099999999995
53.47660125628886 6.4610199999999995
53.50153247842639 6.3970400000000005
53.52646643496923 6.393619999999999
53.55140312799818 6.41131
53.576537409691696 6.41465
53.60147960336152 6.30021
53.626424539786164 6.362419999999999
53.65137222105307 6.3728
53.67651758529126 6.35982
53.70147078399681 6.27836
53.72642673383343 6.2910900000000005
53.75138543689533 6.28167
53.776541917524526 6.28501
53.801506154876755 6.27267
53.826473151763246 6.24097
53.851442910284916 6.21438
53.87661054126026 6.2444
53.9015858509782 6.22543
53.92656392866066 6.19561
53.95154477641532 6.17146
53.976723591801296 6.164630000000001
54.00171000771266 6.15961
54.02669920004598 6.12151
54.051691170915745 6.13226
54.076881204886796 6.11005
54.101878760928514 6.12165
54.12687910187696 6.06075
54.152077577768296 6.0557
54.1770835166946 6.04745
54.20209224691339 6.09069
54.22710377055121 6.06387
54.25231352511594 6.06086
54.27733066384342 5.98746
54.30235060239643 5.97484
54.32737334290836 6.0044
54.35259441062629 5.9688300000000005
54.377622783395324 5.92213
54.40265396455061 5.95812
54.42768795623251 5.90822
54.45292037169559 5.88141
54.477960012857906 5.85343
54.50300247099511 5.85818
54.52804774825457 5.861330000000001
54.55329154616743 5.81354
54.57834249018678 5.76342
54.6033962597977 5.7464699999999995
54.6284528571545 5.77104
54.653708072335164 5.75949
54.67877035378786 5.73919
54.70383546947698 5.6739999999999995
54.72890342156389 5.65219
54.7541700889442 5.635
54.77924374251975 5.632280000000001
54.8043202390049 5.5955900000000005
54.82959552413022 5.5507800000000005
54.8546777351945 5.5625800000000005
54.87976279569621 5.5136199999999995
54.90485070780914 5.55311
54.930137506558005 5.49938
54.95523115074295 5.53809
54.98032765308844 5.49765
55.005427015775496 5.47285
55.03072536339621 5.44126
55.05583047570572 5.435169999999999
55.080938454927676 5.392469999999999
55.10604930325027 5.36873
55.131359235107396 5.39421
55.15647585066083 5.31865
55.181595341907496 5.2689
55.20671771104285 5.28316
55.232039262617704 5.260680000000001
55.25716741665048 5.214840000000001
55.28229845518636 5.22749
55.30743238042802 5.20849
55.33276558731939 5.17861
55.357905315183636 5.11509
55.383047936390035 5.06727
55.40819345314859 5.11625
55.433538351073295 5.0896099999999995
55.458689688238415 5.07859
55.483843927614096 5.026269999999999
55.509197623043605 5.01652
55.53435769621134 4.98987
55.55952067826466 4.91782
55.5846865714265 4.9253800000000005
55.61005202069737 4.90031
55.63522376553902 4.95143
55.66039842818645 4.88051
55.68557601087004 4.8634699999999995
55.7109532500271 4.79495
55.73613670233794 4.8522099999999995
