TT I
1.2716486653135266 6.847689999999999
1.2939594142134223 6.340990000000001
1.3162702121660406 6.26281
1.3385810600174564 6.73065
1.3608919586137629 6.32547
1.383202908801069 6.02393
1.405513911425503 6.00464
1.4278249673332093 5.74289
1.4501343378461518 5.43711
1.4724455028545926 5.25124
1.4947567236847858 5.24744
1.517068001182951 5.26181
1.5393793361953272 5.24332
1.5616907295681737 4.75555
1.5840021821477681 5.0165
1.60631369478041 4.86311
1.6286252683124185 4.93772
1.6509369035901333 4.4823
1.6732468618895553 4.95348
1.695558623192809 4.426159999999999
1.7178704487808514 4.53287
1.7401823395001077 4.18096
1.7625012545597203 4.45711
1.7848028405262486 4.5465599999999995
1.8071218901122095 4.18036
1.8294236121921872 4.110180000000001
1.8517427996910911 3.99787
1.8740620574440425 4.37617
1.8963639900671978 4.18015
1.9186833908139995 4.47775
1.9409854680117449 4.8132
1.9633050151394713 4.46659
1.9856246367570705 3.78594
2.0079269371922672 3.73633
2.03024671027244 4.5153099999999995
2.0525491637446027 4.15952
2.074869091674931 4.30017
2.097171701569106 4.1742099999999995
2.1194917877373847 4.19908
2.141811954326636 4.556769999999999
2.164114805233074 3.88505
2.186435135143035 4.19436
2.208738150935709 5.77979
2.231058647554722 7.1181600000000005
2.2533792288321184 6.40776
2.275682498336085 5.5906400000000005
2.298003251406138 5.13583
2.3203066942619714 4.946219999999999
2.3426276225136022 5.4583900000000005
2.3649486396617507 4.91752
2.387252348930071 5.7387
2.4095735463442893 5.76405
2.4318774374315884 6.04648
2.4541988185014043 6.52055
2.476502894794693 7.610930000000001
2.498824462909887 7.90787
2.521146125856138 7.72997
2.5434504863470337 7.88173
2.5657723414244717 7.61096
2.588076895590662 9.06639
2.610398946189713 8.384889999999999
2.6327210958598384 8.460239999999999
2.6550259469304716 8.467889999999999
2.6773482972090137 8.564860000000001
2.6996533504259 8.72458
2.7219759047039602 8.670689999999999
2.744298562293959 8.31051
2.7666039251246595 8.26043
2.7889267918020164 8.54084
2.8112323652516555 8.036669999999999
2.833555444408179 8.75073
2.8558786311183852 8.46977
2.8781845268938557 8.84305
2.9005079311721484 9.273530000000001
2.9228140460410397 8.84807
2.9451376712799635 9.61391
2.967444008632326 10.2837
2.9897678582247247 9.61945
3.0120918213106695 10.3931
3.0343984987899373 10.5367
3.0567226913198637 11.6124
3.079029599759726 11.8857
3.101354025127254 12.2208
3.123678568232338 12.7343
3.145985829517914 12.6615
3.16831061055229 13.7714
3.1906181112775593 14.6275
3.212943133635653 14.6122
3.2352682779763207 14.6703
3.2575761442691227 14.7039
3.2799015350264273 14.885
3.302209649240067 15.9592
3.3245352898092655 16.2869
3.3468436553365257 17.0109
3.369169549113219 17.132
3.3914955708171384 17.564
3.413804319727358 18.3631
3.4361305997334863 18.2543
3.4584396084414553 18.6302
3.4807661501462652 19.1238
3.503092824025881 20.0542
3.5254022288463154 19.8999
3.5477291695206588 20.3371
3.5700388426251948 20.7003
3.5923660534916446 21.2493
3.6146934007816114 22.6977
3.637003482731501 27.7458
3.6593311053109985 30.3296
3.681641464033634 26.9617
3.7039693653009733 24.0947
3.726297407241705 24.2535
3.7486081875460804 24.2648
3.7709365132734978 24.6206
3.793247578841633 25.2421
3.8155761917550093 25.5019
3.8378875459837216 25.9891
3.8602164494827234 26.1181
3.882545499606844 26.8916
3.9048572932539183 27.6751
3.9271866390645718 27.6515
3.9494987298666713 28.144000000000002
3.971828374764527 28.8336
3.9941581705403255 29.301
4.016470713506008 29.6625
4.038800813471445 30.28
4.061113662089144 30.9354
4.0834440696459176 31.9016
4.105774632334751 31.9611
4.128087945865126 32.3745
4.150418821249301 32.9943
4.172732448931298 33.8259
4.195063640413578 34.2412
4.2173775856475215 35.2582
4.239709096631102 37.7725
4.262040768704612 52.3683
4.284355196706267 65.1795
4.306687193387355 57.3608
4.329001947444346 44.4751
4.35133427213731 40.8046
4.373666762177566 40.7183
4.395982011761091 40.9284
4.418314834921175 41.7203
4.44063041906622 43.3841
4.4629635787515625 45.0011
4.4852969080429785 46.0405
4.5076130004776225 46.1036
4.529946671403969 46.8913
4.552263106909177 46.9638
4.574597122877047 48.3219
4.596931312711224 49.6422
4.619248269273446 50.2573
4.6415828092605835 51.2184
4.663900117405352 52.49
4.686235010953232 53.6737
4.708552674085913 54.8573
4.730887924602802 56.4055
4.753223354952695 57.7998
4.775541557023902 58.9237
4.797877349456786 60.3794
4.820195915032126 62.5894
4.842532072957498 63.6978
4.864868414979744 65.7548
4.88718753227192 67.4844
4.909524244902505 69.6951
4.931843734218147 71.0615
4.954180820867835 73.458
4.976518095879839 76.7774
4.998838149695359 79.1087
5.021175803844231 82.2802
5.043496238205739 84.8699
5.065834274903528 88.5772
5.088172504230693 92.8824
5.1104935158799565 97.376
5.132832132875765 104.59299999999999
5.155153533596801 117.145
5.1774925416746225 135.865
5.199814334878411 227.625
5.2221537374521505 770.775
5.244493338631803 2406.6
5.266815727034316 7088.31
5.289155727832427 13326.6
5.311478517248165 9585.52
5.333818921080011 3361.74
5.356159527788849 722.587
5.3784829252032536 224.435
5.400823940070432 148.168
5.423147747031976 124.64200000000001
5.445489173474152 113.90899999999999
5.467830807066149 108.307
5.490155234831516 103.99
5.512497285125229 100.816
5.534822130975162 98.6159
5.557164601388673 97.0426
5.579489868738879 93.9837
5.601832762690846 92.3588
5.6241758697774475 91.04799999999999
5.646501775867269 90.6013
5.668845311622074 89.6629
5.691171647754637 89.1348
5.713515615597765 88.245
5.735859800852677 87.1034
5.758186788542988 86.12899999999999
5.780531411018185 86.6762
5.802858837297399 85.9046
5.825203900414495 85.6101
5.8475491852224 85.8616
5.869877275883075 86.4161
5.892223006467101 87.4881
5.914551544266608 88.1461
5.936897724049891 89.6346
5.959244129804903 94.2119
5.981573344815301 105.30799999999999
6.0039202049061 160.028
6.026249875609095 376.994
6.04859719346037 856.88
6.070927323278297 2009.79
6.093275102315365 4453.38
6.115623113320588 5723.01
6.137953938319995 3519.53
6.160302415650845 1063.9
6.182633708324452 249.49200000000002
6.2049826554078376 111.258
6.227331838745022 87.0682
6.249663839443684 79.0209
6.27201349767565 75.3351
6.294345974611799 73.4574
6.316696111167083 72.7869
6.339046488263839 71.243
6.361379686074702 68.483
6.383730546639482 66.4248
6.406064229255215 64.6182
6.428415576718203 64.2919
6.450749747566656 63.0611
6.47310158535871 62.1817
6.495453669698332 61.3705
6.517788579421056 60.6623
6.540141159237969 59.9353
6.562476565766648 59.0682
6.5848296444934045 58.5235
6.607182974060425 58.3751
6.6295191323281015 57.7256
6.651872965955752 57.3085
6.6742096296068985 58.3453
6.6965639707294615 63.2456
6.71891856698715 64.271
6.741255995248479 59.9055
6.763611104154477 56.3445
6.785949046381137 54.7496
6.808304671371482 54.1515
6.8306605557940046 54.302
6.852999275508618 53.6324
6.875355681171544 53.6092
6.897694923437771 53.0551
6.92005185377892 52.8779
6.9423916220322655 52.5202
6.964749080490181 52.0976
6.987106804399774 52.2962
7.009447368180821 52.1563
7.031805625367033 51.7943
7.054146723727803 51.6729
7.076505517631004 51.7936
7.098864581288365 51.8974
7.121206488070854 51.3717
7.143566093607822 51.327
7.165908543567245 51.2821
7.188268694426048 50.9788
7.2106291193438095 50.8581
7.232972390625943 50.5385
7.255333366030969 51.2715
7.277677189091925 55.2932
7.300038718428332 61.8278
7.322400526130865 61.6726
7.344745183422596 56.1493
7.367107550224791 52.247
7.389452767901992 51.5971
7.411815697249891 51.2767
7.434161478756298 51.0539
7.456524974096713 51.2469
7.478888753837185 51.6828
7.501235387657368 53.1028
7.523599738562711 60.9632
7.545946944825532 73.7143
7.568311870344528 79.5746
7.5906770845765665 69.3222
7.613025156078678 58.1541
7.635390950099687 53.9328
7.657739602662809 52.6393
7.680105979923558 52.2581
7.702472650212829 52.492
7.724822180948224 52.5973
7.747189439655568 52.869
7.769539560075357 53.0781
7.791907410653562 53.6789
7.81425812420825 53.3422
7.836626570110925 53.464
7.858995315087906 54.3595
7.881346924933401 54.6121
7.903716270417482 55.128
7.926068482028405 55.4585
7.948438431475253 55.7446
7.9708086843180235 56.7293
7.993161805171116 57.126999999999995
8.015532667162402 57.1623
8.037886398416653 58.1741
8.060257873014221 58.4595
8.082629655331942 58.9517
8.104984308787587 59.6765
8.127356708900503 60.6651
8.149711981398308 62.058
8.172085002766314 62.7683
8.194458336181368 63.1947
8.216814543847752 63.9762
8.23918850371002 65.3809
8.26154533906492 65.8441
8.283919928836452 67.5249
8.306277395339652 68.7162
8.328652618483376 69.9564
8.351028159736202 71.3969
8.373386579575245 73.3852
8.395762759396959 75.2468
8.418121819038275 77.281
8.440498640894003 80.7453
8.462875785192262 85.7186
8.485235811156207 93.694
8.507613602688501 125.73299999999999
8.529974277114228 222.05599999999998
8.552352719347912 355.75199999999995
8.574731488360351 592.886
8.59709314210385 1061.66
8.619472567021075 1819.52
8.64183487789147 2254.59
8.664214962183097 1972.32
8.686577933647762 1088.25
8.708958680784317 425.165
8.731339760774953 179.021
8.753703729764451 110.25299999999999
8.77608547780821 94.5275
8.798450116065078 90.4566
8.820832535634787 87.9454
8.843215292401656 86.5877
8.865580941199045 84.9558
8.887964374703538 84.25
8.910330701447199 82.9916
8.932714815164482 82.8713
8.955099270424924 82.15299999999999
8.977466620733543 81.1211
8.999851761421976 80.2882
9.022219798361645 79.6905
9.04460562795561 79.4172
9.066991803441677 79.1974
9.089360876979615 79.252
9.111747746589993 79.0665
9.13411751544971 78.3814
9.156505082664324 78.7344
9.178875550323522 79.3702
9.20126381862328 81.9461
9.223652438908596 94.6755
9.246023961427412 114.807
9.26841328802173 122.911
9.290785518039224 110.01899999999999
9.313175554425882 92.1423
9.335565947154315 82.3596
9.357939245086508 79.7729
9.380330352834827 79.4732
9.40270436697103 79.4807
9.425096193225055 79.3134
9.447488380180165 80.3225
9.469863475295412 80.4474
9.492256385987508 80.2847
9.514632206018318 81.0076
9.537025843935714 81.1364
9.559402392368193 81.9819
9.581796761000229 82.836
9.604191496441521 83.23100000000001
9.626569144158516 83.9684
9.648964615551032 84.8438
9.671343000390081 85.6444
9.693739211225699 86.5395
9.716135793237463 87.2482
9.738515290448102 87.506
9.760912617143402 88.7175
9.783292860202891 89.6756
9.805690935076182 90.835
9.828089385495742 91.8219
9.850470754023561 93.6841
9.872869957865444 95.2146
9.89525208097539 97.6016
9.917652041736662 101.83200000000001
9.940052382417589 105.471
9.962435644102392 113.84
9.984836746950979 144.453
10.007220771957746 220.507
10.029622640473708 335.26199999999994
10.052007432299963 495.066
10.074410069984072 747.722
10.096813093716005 1176.81
10.119199042482517 1741.38
10.141602840636468 2093.75
10.163989564971628 1675.67
10.186394141051062 1012.92
10.208799107559706 452.472
10.231187001965623 204.84
10.253592751657669 125.755
10.275981430388155 107.12
10.298387966769793 102.649
10.320794897965431 101.676
10.343184759907361 100.397
10.36559248305461 98.3734
10.387983138083852 96.866
10.410391656691655 98.1958
10.432800574501677 106.37299999999999
10.455192425893369 127.295
10.47760214443012 156.507
10.499994797678786 196.206
10.522405320453982 261.658
10.54479877906917 371.911
10.567210109595656 500.39300000000003
10.5896218454736 587.155
10.612016518879773 535.015
10.634429067781074 377.57199999999995
10.656824555333241 224.668
10.679237920773568 141.667
10.701651695961992 106.399
10.724048411481384 94.0775
10.746463008485165 86.8647
10.768860546937125 82.5808
10.791275969274796 79.8303
10.81369180576079 78.4297
10.836090585366925 77.0469
10.858507252467449 75.8921
10.88090686379991 74.8841
10.903324365036394 74.1756
10.925724811614439 73.033
10.948143150509463 73.0598
10.970561909719066 72.085
10.992963615930844 71.0061
11.015383218085756 70.43
11.037785768347074 69.3758
11.06020621697282 68.7677
11.082627090322113 68.4212
11.105030913430326 67.8585
11.12745263854165 67.3358
11.149857314510728 66.5876
11.172279894912576 67.2206
11.194702904450653 66.6659
11.217108866490921 66.0392
11.239532736615194 65.3749
11.26193956033512 64.7348
11.284364294577085 64.3129
11.306789462371718 63.6024
11.329197585398376 63.4123
11.351623622610898 63.5382
11.37403261614354 62.4506
11.396459526308487 62.6096
11.418869393879497 62.1433
11.441297180532617 61.9113
11.463725406927658 61.3668
11.486136592353875 61.1633
11.508565700543707 61.0817
11.530977768845315 61.2514
11.553407762368774 60.6687
11.575838200059769 60.9038
11.598251599479612 60.4308
11.620682927815501 60.0359
11.64309721895548 60.0258
11.665529441478206 59.9439
11.687962112597958 59.6182
11.710377748130886 59.8594
11.732811318753434 59.667
11.755227854859067 59.4104
11.777662328529495 59.361000000000004
11.800079768750786 59.4042
11.822515149015453 59.2548
11.844950984084935 59.5364
11.867369787303163 59.3634
11.889806534289491 59.8494
11.912226250487029 62.2069
11.934663912939751 66.0803
11.9571020346363 69.8825
11.979523127133968 70.6463
12.001962169624331 67.7558
12.024384183972964 64.1001
12.046824150809913 63.9617
12.069264581333726 68.7991
12.091687985297767 75.7161
12.11412934550045 84.2382
12.136553680195208 96.7602
12.158995973632788 116.807
12.181438735204349 144.679
12.20386447284199 176.44400000000002
12.226308172985636 203.77599999999998
12.24873485024193 208.87
12.271179492516982 173.96200000000002
12.293607112949127 132.813
12.316052700916226 94.9096
12.338498763250042 72.7109
12.360927805303868 63.9004
12.383374818673879 61.756
12.405804812803074 60.7766
12.428252780773262 60.8094
12.45070122756722 60.843999999999994
12.473132656675375 60.6013
12.49558206341869 60.858999999999995
12.518014453510101 60.7462
12.540464823770117 60.683
12.562915677315177 60.9657
12.58534951575545 61.6704
12.607801338171472 61.371
12.630236146511358 61.7492
12.652688941369085 62.9152
12.675124723177234 63.5168
12.697578494048786 63.9998
12.720032754458185 63.585
12.742470003354093 63.5861
12.764925245138771 63.8755
12.787363476431278 64.3062
12.809819703166806 64.52600000000001
12.83227642391173 65.2594
12.854716135692716 65.9892
12.877173846755147 67.0068
12.899614549869717 67.3197
12.9220732548287 68.1507
12.94453245827299 68.6448
12.966974655289818 69.7086
12.989434858002571 70.3012
13.011878055298721 71.0072
13.034339260862497 72.0945
13.056800969391883 73.3548
13.079245674017244 76.0741
13.101708390774869 78.1722
13.12415410463411 81.9444
13.146617833206086 91.6079
13.169064559883248 105.875
13.191529303857127 122.46
13.213994557076367 143.42
13.236442809902437 174.456
13.258909083908291 222.582
13.28135835851934 287.461
13.30382565690295 361.29
13.326293469022952 424.84
13.348744283242008 440.825
13.371213125129904 375.32099999999997
13.39366497011003 282.257
13.416134845360597 186.148
13.438605238843131 127.34100000000001
13.46105863690397 101.77799999999999
13.483530069144786 97.9063
13.505984506951902 105.617
13.528456981549432 117.588
13.550929978879088 131.959
13.573385983253365 152.78
13.595860028340867 183.97299999999998
13.618317081455832 232.34099999999998
13.64079217790333 290.751
13.663250283359057 351.57
13.685726434770173 389.18300000000005
13.708203115221277 362.87800000000004
13.730662806148091 290.002
13.75314054697177 207.30200000000002
13.775601299246777 139.124
13.798080104050406 100.27799999999999
13.820559442405358 83.9892
13.843021793671388 79.1518
13.865502201420897 76.7555
13.887965623051947 76.1921
13.910447103807167 75.3081
13.932929122629764 73.9846
13.955394156785959 73.8877
13.977877254034569 73.05199999999999
14.000343367582113 72.0795
14.022827546871707 71.5078
14.045294743423524 71.013
14.06778000837062 70.5321
14.090265817715476 70.9884
14.112734645763819 72.0474
14.13522154619454 74.3122
14.157691466286913 76.6204
14.180179461423874 76.9876
14.202668005486178 74.5454
14.22513957064374 71.4442
14.247629214846473 68.9578
14.270101881097517 67.5623
14.29259262906496 67.0084
14.315083930490205 67.06
14.337558255389705 66.7958
14.360050666019726 66.8656
14.382526101071944 66.6027
14.405019624534942 66.1851
14.427513705993134 66.024
14.449990813291825 65.7605
14.47248601302899 65.5876
14.49496423954951 65.80199999999999
14.517460561197822 65.9371
14.539939910570322 65.7373
14.562437357763558 65.8351
14.58493536931253 66.0279
14.607416409993311 66.2372
14.62991555254159 66.5427
14.652397725157423 66.8913
14.674898002342799 66.9975
14.697398848433282 66.9754
14.719882725991326 67.7951
14.74238471217934 68.1411
14.764869730765593 69.8344
14.787372860692983 73.5229
14.809876564079925 79.7649
14.83236330125751 86.9712
14.854868153850365 95.2693
14.877356041159485 107.081
14.899862046604186 122.59299999999999
14.922351087688757 145.136
14.944858249632887 176.149
14.967365991421232 206.618
14.989856770231246 225.84799999999998
15.012365673994204 227.825
15.03485761569738 200.28599999999997
15.05736768508665 160.467
15.07987833888692 123.33
15.102372032001655 94.1341
15.124883856909658 77.7
15.14737872204565 70.7803
15.169891721717274 68.2634
15.192405310371893 67.5456
15.214901940621196 66.7428
15.237416709527137 66.218
15.259914520936249 65.8587
15.282430473753607 65.2251
15.304947020131227 64.6304
15.327446610371178 64.444
15.349964346154254 63.8386
15.372465126703139 63.8423
15.394984055556009 63.7148
15.417486030076159 63.768
15.44000615566487 63.3494
15.462526881230803 63.1772
15.485030653812652 63.0841
15.507552581617434 62.9248
15.530057557334603 62.8145
15.55258069104857 62.9161
15.575104429329837 63.1558
15.597611216864632 62.7978
15.620136166564563 62.8967
15.6426441664095 63.1885
15.665170331202765 64.4327
15.687697105158826 67.8203
15.710206930593545 72.6244
15.732734925158933 77.9336
15.755245972089478 84.7145
15.77777519094324 92.3647
15.800287463046663 102.824
15.822817909869592 120.086
15.84534897229804 141.184
15.867863089299354 166.396
15.890395385222186 188.547
15.912910736597423 200.05700000000002
15.935444269699861 191.68599999999998
15.957978423016485 167.53
15.980495633101265 133.06799999999998
16.003031029129367 103.228
16.02554948280019 81.5005
16.048086125229432 69.7942
16.070623392487107 64.9959
16.09314371869582 63.2416
16.11568223789321 61.4012
16.13820381691126 59.7602
16.160743591742527 58.8152
16.183283996022084 58.0268
16.205807461423195 57.0861
16.228349126881973 56.6675
16.25087385432698 56.451
16.27341678466365 55.9278
16.29594277784926 55.6178
16.31848697676433 55.2085
16.341031811604868 54.8226
16.36355971058487 54.6593
16.3861058195587 54.6204
16.40863499352978 54.006
16.431182380342005 53.9005
16.453730407713202 53.6202
16.476261501364792 53.3434
16.498810812136167 53.0752
16.52134319004079 53.1608
16.54389378792203 52.9962
16.566445031001553 52.8731
16.588979342490088 52.8875
16.61153187824822 52.6993
16.634067483263312 52.4593
16.656621315414416 52.2764
16.679175797408888 52.1969
16.701713349928728 52.2629
16.72426913389191 52.4087
16.74680798922351 52.1375
16.76936507887444 52.2364
16.791905240734874 52.2812
16.814463639794468 52.3746
16.837022695210294 52.3997
16.859564824093756 52.3692
16.882125194503903 52.8994
16.904668639217885 53.3411
16.927230328348003 53.6267
16.949792678493612 54.0003
16.972338104193863 54.0852
16.994901778652235 53.7896
17.017448529496576 53.4259
17.040013531998152 53.4708
17.06257920018044 53.6517
17.0851279459922 54.3822
17.107694947817667 55.5426
17.130245028099072 56.5706
17.15281336730298 57.7419
17.17536478578733 59.5305
17.19793446610687 61.3306
17.220504818648422 63.9956
17.243058251703697 67.1632
17.265629950971032 71.6423
17.288184731571736 76.9363
17.310757781306908 81.2191
17.33333150794385 82.8035
17.355888317140174 82.2333
17.37846339986244 77.9248
17.401021565958885 71.3167
17.42359800851343 65.0787
17.44617513265564 60.9234
17.468735341390783 58.6147
17.491261035594565 57.2123
17.51396340099364 56.6551
17.536490463869136 56.7498
17.559018209820174 56.6154
17.58154663977963 56.8665
17.604251766089718 56.9543
17.626781572227713 57.1351
17.64931206518155 57.3879
17.671843245885103 57.5964
17.69455114821572 57.9624
17.717083712612634 58.3221
17.739616967569667 58.8887
17.762150914021706 59.6264
17.78486160749854 59.9222
17.807396945166804 60.5285
17.829932977143503 60.6392
17.85246970436452 61.4022
17.875183204129467 63.0168
17.897721330097664 65.4709
17.920260154126645 68.7676
17.942799677153296 72.1466
17.9655159983646 75.6397
17.988056927677544 80.2286
18.010598558807683 87.1524
18.033140892692916 96.0542
18.05586005052525 107.12200000000001
18.07840379824407 119.46700000000001
18.10094825154059 131.528
18.12366954819864 141.319
18.146215420998306 142.996
18.16876200220057 137.009
18.191309292745153 123.561
18.214033452627167 108.48200000000001
18.236582170236648 95.4524
18.259131600016456 87.5037
18.281681742907335 85.1356
18.304408781233683 87.9754
18.32696035875955 93.3824
18.349512652227624 98.3269
18.372065662579683 103.852
18.394795594587553 106.54899999999999
18.41735004715306 104.04299999999999
18.43990521943684 97.4679
18.46246111238171 88.59200000000001
18.485193953325208 79.0326
18.507751296070428 71.0013
18.530309362314178 65.7169
18.552868153000343 62.7677
18.57560391815056 61.0631
18.59816416623245 60.4234
18.620725141597372 60.0133
18.643286845190268 59.1776
18.666025549835414 58.5897
18.688588718427933 57.9176
18.711152618092243 57.8056
18.73389353884365 57.4532
18.75645890921984 56.9918
18.77902501351406 56.7487
18.801591852673102 56.591
18.824335739722738 56.2492
18.846904057212626 55.9951
18.8694731124168 55.6135
18.89204290628315 55.6
18.914789774966803 55.3003
18.937361054791623 55.0722
18.959933076131318 54.9077
18.982505839934877 54.8576
19.00525570560582 54.8127
19.027829963004184 54.6188
19.05040496572238 54.8061
19.072980714710468 54.7703
19.095733592739563 54.7994
19.11831084296757 54.9744
19.140888842324735 55.3836
19.16346759176222 55.8257
19.18622349753803 56.4015
19.208803755869358 57.4752
19.231384767143577 58.6061
19.253966532312948 59.9766
19.276725481241822 62.1283
19.29930876296784 65.2867
19.3218928014549 68.6328
19.34465404436217 71.9198
19.36723960516257 74.8274
19.389825925592426 75.7259
19.412413006605938 75.1527
19.43517731967805 72.1001
19.457765930683355 67.8867
19.48035530514408 63.2497
19.50294544401556 59.0769
19.525712842708348 55.9407
19.54830451925909 54.0505
19.570896963095727 52.5706
19.593490175174704 52.0701
19.616260674962184 52.1163
19.638855432416964 51.632
19.661450960992624 51.905
19.68404726164677 51.7829
19.706820878021247 51.6737
19.729418731756834 51.7287
19.752017360452857 51.4495
19.77461676506804 51.5553
19.797393513540218 51.3907
19.819994478951667 51.7157
19.84259622316767 52.3431
19.8651987471481 52.711000000000006
19.887978643247177 53.2618
19.91058273574792 53.74
19.933187610901943 54.5193
19.955969879466828 55.4629
19.97857632894404 56.798
20.00118356396599 58.4091
20.023791585494575 60.3748
20.046577028914875 63.5892
20.069186632506966 66.1672
20.091797025500632 68.418
20.114408208858933 69.9238
20.137196842715273 70.2796
20.159809615886765 68.6527
20.18242318232135 66.0213
20.20503754298326 63.5869
20.227829382875154 62.021
20.250445341109344 61.3252
20.27306209647285 61.5957
20.29567964993108 62.974
20.31847471147704 63.8353
20.34109387027612 65.0375
20.363713830075454 64.8443
20.386334591841646 64.0521
20.409132890679302 61.3212
20.431755265564437 58.1899
20.454378445325528 55.0168
20.477002430930366 52.5817
20.499803982716553 50.8116
20.522429589228004 49.725
20.54505600449589 48.85
20.567683229489194 48.7412
20.590488049900088 48.6875
20.61311690359731 48.5396
20.63574656993626 48.2957
20.658553853717297 47.9357
20.681185154618298 47.9712
20.703817271080066 47.9629
20.72645020407368 47.5539
20.749260783967177 47.7199
20.771895359337133 47.788999999999994
20.794530754161617 47.8092
20.817166969412938 47.6348
20.83998086114876 47.6673
20.86261872660049 47.418
20.885257415405402 47.3615
20.90789692853701 47.0873
20.930714147864748 46.978
20.953355319030678 46.955
20.97599731745334 46.9666
20.99864014410749 46.9324
21.021460706796564 47.09
21.044105199328826 47.1978
21.06675052302631 47.2114
21.089396678865015 47.5791
21.112220600704806 47.8399
21.134868430275347 48.1207
21.15751709492456 48.1355
21.180166595629693 48.5252
21.202993892429635 49.1639
21.22564507473034 49.7537
21.24829709602816 49.9511
21.27112693608965 50.1414
21.293780644891275 50.2033
21.316435195634053 49.606
21.339090589297417 48.9391
21.361923832041875 48.2205
21.384580921090404 47.6239
21.407238856007325 47.0966
21.429897637773326 47.0296
21.45273429906592 47.0867
21.475394784108598 46.985
21.498056118951983 46.8067
21.520718304578022 47.0864
21.543558400304388 47.0459
21.566222297108816 47.2284
21.58888704765135 47.1656
21.61155265291521 47.3519
21.63439619898156 48.0385
21.657063523335786 48.4618
21.67973170537063 49.1166
21.7024007460706 49.6709
21.72524775840385 50.3388
21.747918526116475 51.0935
21.770590155457388 52.1372
21.79326264741238 53.558
21.816113141960237 55.4617
21.838787368860547 57.5265
21.861462461341976 59.6344
21.884315579735777 62.1588
21.90699241312273 64.1636
21.92967011506078 64.8652
21.95234868653799 64.7689
21.9752053151131 63.7109
21.997885635446785 61.7566
22.020566828293532 59.7946
22.04324889464272 57.6692
22.066109049404666 56.0986
22.088792872571794 55.5136
22.111477572219204 55.6579
22.1341631493376 55.7486
22.157026846313123 55.657
22.179714188221507 55.253
22.202402410582668 54.0956
22.22509151438863 52.3907
22.24795876962584 50.9894
22.270649646204486 49.701
22.293341407213727 48.8009
22.316034053646906 48.1266
22.338904883215342 47.766999999999996
22.36159931041458 47.5997
22.38429462602756 47.4273
22.40699083104897 47.1366
22.429865251039757 47.1113
22.452563244831367 47.1641
22.47526213102522 47.3159
22.49813925616515 47.2582
22.520839937143307 47.1274
22.543541513520587 47.2281
22.56624398629403 47.0959
22.589124730075895 47.0413
22.611829005656723 47.1423
22.63453418063466 47.0873
22.657240256008077 47.2491
22.680124634582935 47.4874
22.70283252079775 48.0573
22.725541310413075 48.2751
22.74825100442868 48.6791
22.771139033969575 49.1149
22.79385054687155 49.3633
22.81656296718292 49.8839
22.83927629590484 50.7944
22.862167992606945 51.7133
22.88488314827121 52.8349
22.907599215359284 54.0392
22.93031619487366 55.3082
22.953211574954405 56.5351
22.975930389478226 57.4876
22.998650119445763 57.7432
23.02137076586092 57.2681
23.044269845560063 56.2115
23.06699233506288 54.5592
23.089715744034912 52.6107
23.112617610931565 50.7545
23.135342869061212 49.3631
23.158069049684816 48.2443
23.1807961538087 47.6582
23.20370174880544 47.4278
23.226430710184808 47.4249
23.249160598093425 47.4594
23.271891413539002 47.4942
23.294800752937697 47.5117
23.31753343374794 47.9834
23.340267045128353 48.0966
23.36300158808808 48.5631
23.38591468821339 48.9222
23.408651104658304 49.331
23.431388455719986 49.9371
23.454126742409 50.8719
23.4770436196085 51.6736
23.499783787914662 53.1036
23.522524894889884 54.1353
23.54526694154616 55.364
23.56818761219047 56.7108
23.59093154860734 57.751000000000005
23.613676427751283 58.1549
23.636422250635754 57.7177
23.659346731118656 56.2763
23.68209445191868 54.2574
23.704843119509587 51.8654
23.72759273490623 49.8401
23.750521041644767 47.9296
23.77327256312355 46.5371
23.796025035462787 45.7934
23.818956224555475 45.0341
23.841710609113413 44.7575
23.86446594758979 44.516999999999996
23.887222241002014 44.3696
23.910157285144578 43.9742
23.932915498962537 44.0743
23.955674670778713 43.8866
23.978434801611975 43.6855
24.001373717286125 43.5257
24.024135776723917 43.4865
24.046898798245582 43.3388
24.06966278287146 43.272
24.092605586582614 43.0203
24.115371508023642 42.9758
24.1381383956401 42.7416
24.16090625045381 42.6004
24.183852958731244 42.5869
24.206622758582608 42.4274
24.229393528706886 42.2648
24.252165270127392 42.5494
24.27511589952438 42.4742
24.297889594216997 42.1417
24.32066426328598 42.0942
24.34343990775613 41.9621
24.36639447485003 41.9658
24.38917208083877 41.7467
24.41195066531332 41.6739
24.43490819850244 41.897
24.457688750692377 41.6895
24.48047028445616 41.7009
24.503252800821233 41.8607
24.526214300784112 41.865
24.548998793132213 41.8861
24.57178427117417 41.7587
24.59457073593893 41.9551
24.617536219319863 41.8248
24.64032466834748 41.9635
24.663114107195035 41.8202
24.685904536893013 41.4746
24.708874020360852 41.3532
24.731666442613744 41.2781
24.754459858818787 41.1652
24.777254270007962 41.0568
24.80022777025625 40.941
24.82302418230472 40.9214
24.845821592443674 41.0658
24.86862000170663 41.0739
24.891597535453727 40.9218
24.914397953892728 41.1216
24.93719937456671 41.0417
24.96000179851076 41.2437
24.98298338249997 41.3598
25.00578782394922 41.5756
25.028593271784167 41.6897
25.05157790644186 42.0436
25.07438537804115 42.3296
25.097193859145293 42.6421
25.120003350792075 42.9874
25.142992065061257 43.3415
25.165803588823465 43.503
25.18861612625217 43.8233
25.211429678386736 43.9354
25.234422489079968 44.0616
25.257238081693636 44.1482
25.280054692141732 44.1634
25.3028723214652 44.1634
25.325869245420463 44.3278
25.348688923599397 44.3298
25.371509623787006 44.3817
25.394331347025812 44.0134
25.41733240110666 43.6534
25.440156181590016 42.8759
25.46298098826268 42.361999999999995
25.48580682216873 41.903
25.50881202326435 41.2032
25.53163992281684 40.677
25.55446885274561 40.4073
25.577298814096377 39.9974
25.600308179121807 39.7817
25.623140214533745 39.806
25.64597328451537 39.667
25.66898578564376 39.5114
25.691820936010206 39.4737
25.714657124097695 39.459
25.737494350954734 39.586999999999996
25.760511045684957 39.4124
25.783350361364224 39.4735
25.806190718969255 39.5586
25.82903211955018 39.6264
25.852053024868923 39.5808
25.874896522722523 39.4912
25.897741066713106 39.6604
25.920586657892454 39.6477
25.943611790812668 39.6902
25.966459487728237 39.963
25.989308234998564 39.9435
26.01215803367705 40.4347
26.03518741123814 40.6025
26.05803932412957 40.601
26.080892291600094 40.6273
26.10374631470478 40.830999999999996
26.12677995397268 41.1183
26.14963609978026 41.0711
26.172493304397875 40.7231
26.19535156888223 40.5216
26.218389486949604 40.0135
26.241249882640123 39.8409
26.26411134137826 39.4294
26.28715248187403 39.3418
26.31001607820869 39.2699
26.3328807407756 38.9926
26.35574647063438 39.3419
26.37879191991473 39.0835
26.401659795896734 39.167
26.424528742360263 39.3309
26.447398760366614 39.6239
26.470448535598294 39.4616
26.49332070826805 39.6622
26.516193955675355 40.0046
26.53906827888316 40.3286
26.562122397260108 40.5241
26.584998883685063 40.985
26.607876449110325 41.2359
26.63075509460056 41.45399999999999
26.65381357334404 41.7482
26.67669439061878 41.7349
26.699576291163382 41.5974
26.722459276044212 41.4471
26.745522132402975 41.2871
26.768407297649354 41.0258
26.791293550442003 40.5888
26.814180891848974 40.2878
26.837248143099337 39.9903
26.860137673466657 39.9397
26.88302829566349 39.6655
26.90592001075963 39.4962
26.92899167420566 39.2455
26.951885586870763 38.8275
26.974780595655517 38.5567
26.99785558178161 38.4482
27.020752794605112 38.2744
27.043651106772522 38.0849
27.06655051935668 37.9845
27.089629948036183 37.9275
27.112531573292053 37.8301
27.135434302194138 37.8339
27.158338135817015 37.7304
27.181422024430987 37.6123
27.204328079372566 37.5789
27.22723524226965 37.7222
27.250143514198573 37.6821
27.273231880156334 37.7614
27.296142382065014 37.4528
27.319053996245536 37.3684
27.341966723775965 37.4239
27.365059584515222 37.6071
27.38797455070062 37.6567
27.410890633481237 37.4843
27.433807833936918 37.4883
27.456905206923906 37.7603
27.47982465472398 37.6837
27.502745223449743 37.7064
27.525666914182825 37.9812
27.548768816912457 37.9786
27.571692763693633 37.736999999999995
27.59461783573812 37.5955
27.617723149491244 37.3675
27.640650484125285 37.3099
27.66357894728264 37.3044
27.686508540048052 37.3525
27.709618414237887 37.2186
27.732550278321757 37.1275
27.755483275279115 37.0985
27.778417406196485 37.1434
27.801531858397514 37.1743
27.824468269376716 36.9303
27.847405817586786 36.9258
27.870344504116094 37.2551
27.893463551932008 37.2332
27.916404527281053 37.5356
27.93934664422563 37.6839
27.962289903855886 37.6611
27.98541356491974 37.9319
28.00835912214229 38.2083
28.03130582533231 38.4418
28.054253675581805 38.6925
28.077381967556104 38.6327
28.100332124185126 38.6293
28.123283431160893 38.4562
28.146235889577238 38.4039
28.169368830154156 38.2531
28.192323603752033 38.1238
28.215279532083304 37.8336
28.238415973016764 37.4599
28.261374223145094 37.3194
28.284333631303806 37.073
28.307294198589954 36.8939
28.330435319167677 36.5681
28.353398217078915 36.2942
28.376362277420153 36.0887
28.39932750129032 35.9687
28.422473319286713 35.732
28.44544088262495 35.6694
28.468409612800283 35.5555
28.491379510913497 35.2845
28.51453004413313 35.1744
28.53750229057244 35.1481
28.56047570826344 35.0471
28.583450298308804 35.1221
28.606605564586562 34.8792
28.629582511831156 34.9986
28.65256063474956 34.754
28.675539934446338 34.8632
28.698699951647605 34.9286
28.72168161743193 34.6486
28.74466446331978 34.7571
28.767648490417624 34.6087
28.790813276438353 34.6473
28.813799678527303 34.6833
28.836787265157085 34.6796
28.859955641890075 34.7567
28.882945610203045 34.6873
28.905936766392035 34.5566
28.928929111566863 34.7229
28.952102288520145 34.5955
28.975097024308607 34.4306
28.998092952423807 34.3058
29.021090073977508 34.211999999999996
29.04426806913204 34.1193
29.067267590245258 33.8746
29.090268308143695 33.9238
29.11327022394099 33.7429
29.13645305530891 33.6536
29.159457379627167 33.5831
29.18246290519685 33.5791
29.20546963313352 33.5653
29.22865731875826 33.5164
29.25166646419296 33.5433
29.27467681535305 33.358000000000004
29.29768837335608 33.5711
29.320880931312562 33.4792
29.34389491580634 33.4873
29.366910110507334 33.4484
29.38992651653503 33.534
29.41312396492981 33.4187
29.436142806456754 33.4324
29.45916286268059 33.304
29.48236399319994 33.12
29.50538649169417 33.0364
29.528410208259935 33.0689
29.55143514402014 32.8306
29.574641196749695 32.653
29.597668583816574 32.5453
29.6206971934585 32.2755
29.64372702680042 32.4304
29.666938019934474 32.3263
29.689970313635285 32.2351
29.713003834422636 32.1025
29.73603858342347 32.1438
29.759254535188578 32.0727
29.78229175361658 31.9434
29.80533020365064 31.9847
29.82836988641968 32.0568
29.85159081507472 32.0775
29.874632976355343 31.9369
29.89767637376955 32.02
29.920721008448314 31.8144
29.9439469322847 31.8158
29.96699405457564 31.8064
29.9900424175358 31.6786
30.013092022298157 31.6771
30.03632295963995 31.6231
30.059375061131373 31.733
30.08242840783577 31.6874
30.105483000888153 31.7131
30.128718970092244 31.6768
30.151776069006917 31.6896
30.17483441768648 31.6495
30.198074175317235 31.6122
30.221135036724256 31.7363
30.24419715131772 31.7188
30.267260520236203 31.6524
30.290505341942243 31.6504
30.313571232750228 31.6953
30.336638381310948 31.6334
30.35970678876503 31.5127
30.38295669299435 31.4043
30.40602763151657 31.4509
30.429099832366074 31.4414
30.452173296685572 31.3972
30.47542830191959 31.3329
30.498504306502497 31.3183
30.521581577995562 31.3061
30.544660117543582 31.529
30.56792024229725 31.4941
30.59100133132069 31.3826
30.614083691845494 31.3563
30.637167325018545 31.5174
30.660432587840603 31.6193
30.683518779717886 31.5332
30.70660624769615 31.6706
30.729694992924372 31.5849
30.75296541239743 31.7049
30.77605672557558 31.7658
30.799149319462742 31.5896
30.8224236211637 31.4965
30.845518789950724 31.3488
30.868615242910597 31.2744
30.891712981195973 31.2097
30.91499247215866 31.0014
30.938092794619365 30.9707
30.96119440587579 30.8584
30.984297307082752 30.7218
31.00758200598383 30.6521
31.030687500658694 30.633000000000003
31.053794288760695 30.5096
31.076902371446767 30.4307
31.100192296997445 30.4697
31.12330298246119 30.4084
31.14641496599209 30.2789
31.169528248749216 30.3649
31.19282341969534 30.3343
31.215939314557186 30.3398
31.239056512134788 30.3882
31.262175013589378 30.2384
31.28547544871168 30.1542
31.30859657161541 30.1021
31.331719001892175 30.2364
31.35484274070538 30.3042
31.378148458819545 30.2889
31.401274828443725 30.124000000000002
31.424402510106933 30.2806
31.447712205419993 30.4113
31.470842524931633 30.2822
31.493974159989783 30.2316
31.51710711176168 30.2204
31.54042212308802 30.2421
31.563557722100917 30.1864
31.586694641341655 30.0324
31.609832881979628 30.0323
31.63315322823208 29.9154
31.656294125521327 29.7469
31.679436347728515 29.704
31.70257989602529 29.6937
31.725905596152327 29.5514
31.74905181052835 29.5886
31.772199354521323 29.6374
31.79534822930507 29.552
31.818679302290967 29.4778
31.84183085259981 29.5089
31.864983737233473 29.5383
31.88813795736804 29.5358
31.911474422233013 29.4404
31.934631327356435 29.4103
31.9577895715215 29.5106
31.980949155906522 29.4765
32.004291031706956 29.5057
32.027453310562606 29.4214
32.05061693318573 29.2977
32.07396288236386 29.2481
32.09712920658542 29.1362
32.12029687812702 28.9836
32.14346589817093 28.9896
32.166817291729984 28.8854
32.18998902288583 28.8817
32.21316210610336 28.7216
32.23633654256711 28.6215
32.259693399663725 28.5603
32.282870556771144 28.5837
32.30604907069099 28.5398
32.329228942610065 28.5174
32.35259128243769 28.4268
32.375773884550505 28.295
32.398957848235646 28.3011
32.422143174682176 28.2988
32.445511016471215 28.0966
32.468699082679954 28.0681
32.49188851523011 28.015
32.51507931531304 27.9566
32.538452678331 28.0217
32.56164622776311 27.9389
32.58484114831493 27.8768
32.60803744118015 27.822
32.631416344731896 27.7939
32.654615396551876 27.9135
32.67781582427913 27.8167
32.701198898634416 27.7206
32.72440209253756 27.7605
32.747606665947124 27.5897
32.77081262006088 27.449
32.79420126883317 27.5224
32.81740999876112 27.5116
32.840620112999424 27.4217
32.86383161274818 27.3593
32.88722585534586 27.4685
32.91044014056596 27.499000000000002
32.933655814909734 27.3543
32.95687287957963 27.4384
32.98027273544904 27.4292
33.00349259526636 27.2651
33.026713849030116 27.283
33.04993649794511 27.2589
33.073341986570746 27.2855
33.09656744032826 27.2405
33.11979429286444 27.2313
33.14302254538647 27.2165
33.166433686291185 27.1555
33.18966475336992 27.1533
33.212897224069096 27.0313
33.23613109959831 27.0351
33.259547912343415 27.0546
33.2827846121627 27.0703
33.306022720453775 26.9794
33.32926223842861 26.8554
33.352684742614166 26.8836
33.37592709463173 26.9028
33.399170859982064 26.7403
33.422597648419426 26.6323
33.44584425514446 26.6382
33.46909227885668 26.5336
33.4923417207723 26.4037
33.51577423505344 26.5205
33.539026528130385 26.3697
33.56228024307245 26.3839
33.585535381098246 26.2051
33.60897364093058 26.1489
33.63223163992385 26.2059
33.6554910656699 26.1527
33.678751919389796 26.1349
33.702195944520106 25.9357
33.72545966903325 26.054000000000002
33.74872482519663 25.9016
33.771991414233746 25.9228
33.79544122444841 25.8708
33.81871069412428 25.8323
33.84198160035767 25.8376
33.86525394437455 25.8426
33.88870955949969 25.7519
33.911984794020626 25.7398
33.93526147001624 25.6687
33.958539588715006 25.6218
33.98200102861669 25.5561
34.0052820477047 25.5684
34.02856451319451 25.433000000000003
34.05203033759056 25.3703
34.07531571090147 25.3984
34.09860253431845 25.3827
34.121890809074316 25.3854
34.145362493118924 25.406999999999996
34.16865368561615 25.218000000000004
34.191946333164054 25.1642
34.21524043699793 25.2135
34.23871800066799 25.2034
34.26201503218366 25.0848
34.28531352370466 25.0327
34.30861347646881 25.0644
34.33209693978188 25.0147
34.3553998301885 25.0226
34.378704185565205 24.8965
34.402010007152356 24.8295
34.42549939016683 24.8574
34.44880815937748 24.7148
34.472118398533134 24.7333
34.49543010887669 24.7201
34.51892543169198 24.5945
34.54224009966052 24.6989
34.56555624255917 24.5949
34.58887386163339 24.5042
34.61237514439016 24.4542
34.6356957311114 24.3712
34.65901779775809 24.3604
34.68252356662995 24.416999999999998
34.705848608458616 24.4081
34.72917513396849 24.2957
34.75250314440949 24.3168
34.77601490857862 24.1723
34.799345904259795 24.1156
34.82267838863559 24.0992
34.846012362958525 24.1679
34.869530142679984 24.0919
34.89286711232212 24.0427
34.91620557568269 24.063000000000002
34.93954553401677 24.0206
34.9630693495876 23.9404
34.986412313340814 23.8717
35.00975677584668 23.9241
35.033102738362956 23.915
35.05663261012228 23.8348
35.0799815881786 23.7727
35.10333207003229 23.7436
35.12668405694369 23.781999999999996
35.150220005273056 23.6941
35.17357501786656 23.6407
35.19693153931268 23.6376
35.220289570874385 23.6231
35.24383161619786 23.656
35.267192683604904 23.6747
35.290555264930376 23.6068
35.314101899412165 23.57
35.33746752422433 23.6067
35.36083466676374 23.625999999999998
35.38420332829803 23.4441
35.407756095629054 23.5037
35.43112781085063 23.5103
35.45450104888391 23.4652
35.477875810999194 23.4683
35.50143473172161 23.4103
35.52481255774625 23.4289
35.54819191167777 23.4082
35.57157279478914 23.3169
35.595137889488406 23.2753
35.61852184675279 23.2063
35.641907337029984 23.2654
35.665294361595684 23.0995
35.68886565090076 23.0283
35.7122557598848 22.9815
35.73564740699838 23.0488
35.759040593519934 22.9909
35.78261809810353 22.9149
35.80601437933051 22.9801
35.829412203814705 22.8945
35.85281157283719 22.7313
35.876395313415884 22.8309
35.8997977874528 22.7305
35.92320180988546 22.7137
35.946790244133936 22.5804
35.97019737933222 22.5453
35.993606066789866 22.6131
36.01701630779276 22.5872
36.04061101440684 22.5122
36.06402437852291 22.5205
36.08743930005611 22.5156
36.1108557802951 22.4858
36.13445678011326 22.4123
36.15787639383515 22.4158
36.18129757014299 22.3666
36.20472031032821 22.2989
36.22832762423364 22.2633
36.25175350829375 22.2847
36.275180960119776 22.1374
36.298609981005924 22.2162
36.32222362992669 22.1818
36.34565580510207 22.1771
36.36908955323448 22.0939
36.39252487562093 21.9736
36.416144880530226 22.0119
36.43958336764275 21.9055
36.463023432914625 22.0035
36.486465077645676 21.8978
36.51009145956204 22.02
36.53353627947859 21.969
36.55698268276811 21.9274
36.58043067073321 21.855999999999998
36.60406345072071 21.763
36.62751462435344 21.7304
36.65096738658405 21.7126
36.67460498210655 21.749000000000002
36.69806093788647 21.728
36.72151848619297 21.6129
36.744977628333636 21.6273
36.76862165890998 21.5457
36.79208400512205 21.4958
36.81554794910557 21.5319
36.83901349217101 21.3892
36.862663978991606 21.421
36.88613273667352 21.3755
36.90960309738324 21.3387
36.933075062434064 21.2833
36.95673202673572 21.3419
36.98020721697122 21.2525
37.003684015502365 21.1566
37.027162423645365 21.1538
37.050825886711465 21.1455
37.07430753063053 21.0706
37.09779078812467 21.0299
37.121275660513014 21.0013
37.144945643673694 21.0083
37.16843376245278 20.9769
37.19192350009803 20.9434
37.215414857931435 20.9224
37.239091382563885 20.831999999999997
37.262585997426164 20.7845
37.28608223645736 20.7739
37.309763684451696 20.721999999999998
37.33326318851098 20.7814
37.356764320726555 20.6889
37.380267082425526 20.7143
37.40395510942588 20.6583
37.42746114683234 20.6342
37.45096881771841 20.6075
37.474478123414166 20.5182
37.49817275092816 20.4805
37.52168534303452 20.4573
37.54519957395567 20.3683
37.568715445024665 20.3602
37.592416694607714 20.2921
37.61593586281424 20.4017
37.63945667518264 20.3756
37.66297913304891 20.2603
37.68668702630454 20.2666
37.710212792059274 20.159000000000002
37.733740207334854 20.2087
37.757269273470364 20.1337
37.780983832050374 20.0374
37.80451621684926 20.0619
37.82805025654007 20.075
37.851585952464795 19.992
37.8753071980695 19.8945
37.89884622345676 19.9135
37.92238690911902 19.8687
37.94611318753442 19.8719
37.969657210779765 19.8824
37.99320289834801 19.8468
38.016750251586465 19.7561
38.04048325513017 19.7438
38.06403395679343 19.7079
38.087586328183946 19.663
38.11114037065203 19.7108
38.13488012115898 19.6764
38.1584375229181 19.6467
38.181996599821 19.514
38.205557353221124 19.4957
38.229303872575656 19.4901
38.2528679961576 19.5034
38.27643380031219 19.4785
38.30000128639589 19.4227
38.32375459653193 19.4352
38.34732546371299 19.4088
38.37089801690786 19.3024
38.39447225747609 19.2267
38.418232380377425 19.1892
38.441810012983396 19.2247
38.46538933705673 19.1589
38.488970353960084 19.1846
38.51273731166058 19.1406
38.536321731567014 19.1382
38.55990784840681 19.085
38.58367995004091 19.031
38.60726947812959 18.9948
38.63086070726198 19.0312
38.654453638806274 18.9719
38.678232613930824 18.8943
38.70182896773327 18.8666
38.72542702806741 18.8325
38.7490267963045 18.8639
38.77281266709232 18.7897
38.79641586862214 18.7674
38.8200207821842 18.6823
38.843627409152944 18.7459
38.86742019782782 18.7155
38.891030269149255 18.6411
38.914642058016156 18.6375
38.938255565806124 18.6329
38.96205529464307 18.5364
38.98567225787121 18.5341
39.00929094417078 18.5379
39.03291135492255 18.4933
39.05671804624804 18.4552
39.080341923549106 18.4184
39.103967529460334 18.4322
39.127594865365744 18.3193
39.15140854155791 18.2759
39.17503935514948 18.29
39.19867190290282 18.2893
39.22249083587951 18.2292
39.24612686969409 18.1444
39.269764641845306 18.1879
39.293404153722804 18.142
39.317230110864074 18.0507
39.34087311998506 18.0772
39.36451787301696 18.0935
39.388164371352595 18.0263
39.41199737518003 17.958
39.43564738196752 17.9264
39.45929913825317 17.9597
39.48295264543308 17.9054
39.506792718520884 17.8865
39.530449745387216 17.8349
39.55410852735203 17.7855
39.57776906581474 17.8015
39.60161623079 17.7485
39.625280300200025 17.774
39.64894613032202 17.7531
39.67261372255866 17.7445
39.6964680021016 17.6657
39.72013913657293 17.6341
39.74381203738292 17.6196
39.76748670593756 17.6373
39.79134812278169 17.5368
39.81502634488497 17.5531
39.83870633896685 17.4916
39.862388106436654 17.4988
39.88625668336918 17.4705
39.90994201572829 17.442
39.933629125719285 17.3918
39.957503091207826 17.3558
39.9811937746168 17.3828
40.00488623990914 17.2962
40.02858048850006 17.2232
40.05246165409549 17.2182
40.076159487492085 17.195999999999998
40.099859108448875 17.2303
40.123560518384345 17.1436
40.1474489070226 17.1686
40.171153913178564 17.1246
40.194860712584955 17.0199
40.2185693066637 17.0009
40.242464941335314 16.9776
40.26617714307655 17.0282
40.289891143772046 16.9924
40.3136069448471 16.8923
40.33750984859743 16.8949
40.3612292688043 16.8906
40.3849504936829 16.8905
40.40867352466194 16.858
40.43258372059144 16.7813
40.45631038219906 16.8218
40.48003885420956 16.7891
40.503769138055105 16.7601
40.52768664931955 16.733
40.55142057531802 16.7655
40.57515631746428 16.7007
40.599079334038514 16.6263
40.62281872700477 16.6222
40.64655994043941 16.6148
40.67030297578061 16.6238
40.69423334835778 16.5257
40.71798004609188 16.5104
40.74172857006355 16.4838
40.76547892171441 16.4254
40.7894166736039 16.4864
40.813170699248566 16.42
40.83692655691388 16.3563
40.86068424804498 16.4328
40.884629402612525 16.308
40.908390779366385 16.3148
40.932153993938 16.2971
40.95591904777605 16.2501
40.979871628443995 16.2877
41.003640379561936 16.2448
41.02741097430883 16.1503
41.05118341413683 16.1554
41.075143444384416 16.1596
41.098919593177826 16.0851
41.1226975914255 16.042
41.14647744058318 16.0513
41.170444943946755 15.9923
41.19422851378379 16.0076
41.218013938914645 15.9472
41.24198706625173 15.8794
41.26577622087193 15.8432
41.289567235177785 15.8346
41.31336011063129 15.874
41.337340752422875 15.8163
41.361137369129835 15.8085
41.38493585138705 15.8373
41.40873620066004 15.7988
41.43272438060107 15.77
41.45652848292052 15.6884
41.48033445666918 15.6375
41.50414230331616 15.6426
41.528138045159764 15.6091
41.551949656675205 15.6058
41.575763145513235 15.5685
41.59957851314666 15.5619
41.62358184070442 15.5063
41.64740098505737 15.4296
41.6712220126409 15.46
41.69504492493139 15.4139
41.71905586207357 15.3845
41.74288256296395 15.3697
41.766711153007456 15.3343
41.79054163368412 15.2798
41.814560204340054 15.3078
41.838394485526365 15.3566
41.86223066180303 15.2699
41.88625497706819 15.2551
41.910094962812 15.2697
41.93393684811168 15.2541
41.95778063445365 15.0855
41.981812625263366 15.1357
42.00566023303407 15.1154
42.029509746323676 15.0877
42.05336116662236 15.0623
42.077400857069705 15.036
42.10125611078846 14.9437
42.12511327600405 14.979000000000001
42.14897235421036 15.0077
42.173019768448455 14.9878
42.19688269209613 14.9279
42.22074753323349 14.9073
42.24461429335818 14.8521
42.268669455600495 14.7569
42.292540073217886 14.8316
42.31641261433284 14.8013
42.34028708044675 14.7953
42.36435001496739 14.7808
42.38822835065557 14.729000000000001
42.41210861586426 14.6601
42.4359908120986 14.6793
42.46006154323262 14.62
42.48394762115317 14.5965
42.507835634632315 14.6035
42.531912233047436 14.5802
42.55580413732265 14.5127
42.579697981698 14.5264
42.60359376768525 14.5018
42.62767820545945 14.4587
42.65157789440821 14.415
42.67547952952185 14.4257
42.699383112316 14.3968
42.72347541395347 14.2462
42.74738291190531 14.2904
42.771292362102166 14.3053
42.795203766063516 14.305
42.819303956130405 14.2276
42.843219287476536 14.2166
42.86713657716324 14.2287
42.89105582671383 14.1875
42.91516392983864 14.1873
42.939087119032166 14.1498
42.963012272677304 14.1007
42.98693939230129 14.0462
43.01105543317513 14.0428
43.034986504731386 14.0306
43.05891954686589 14.0409
43.08285456110972 14.0058
43.10697856448665 13.9126
43.130917542983475 13.8912
43.15485849820081 13.8969
43.17880143167367 13.8884
43.20293342237094 13.8575
43.226880332449 13.8484
43.25082922540554 13.8523
43.27496722682525 13.7818
43.29892010567796 13.7326
43.32287497204102 13.7713
43.34683182745632 13.7249
43.370977859791836 13.6469
43.39493871351105 13.6829
43.41890156092628 13.6796
43.44286640358341 13.6594
43.46702049182749 13.6197
43.49098934522816 13.6013
43.51496019852649 13.5797
43.5389330532723 13.540999999999999
43.56309522248204 13.5414
43.58707210044314 13.4946
43.61105098451946 13.4092
43.63503187626491 13.4207
43.659202151562134 13.3913
43.68318707902681 13.4278
43.70717401884041 13.3918
43.731162972560874 13.3432
43.75534137913236 13.3186
43.779334381108384 13.3152
43.803329401683186 13.3197
43.82732644241872 13.2597
43.8515130055166 13.241
43.87551410707659 13.1976
43.89951723350145 13.2357
43.923709934595614 13.1965
43.94771713129917 13.1438
43.97172635758096 13.1303
43.99573761501002 13.1137
44.0199385169922 13.0639
44.04395385732619 13.0534
44.067971233533086 12.9951
44.09199064718605 12.9972
44.11619977548961 12.9939
44.14022328470671 12.9872
44.16424883610785 12.9814
44.18827643127035 12.9411
44.21249381139513 12.8847
44.236525514814076 12.8642
44.26055926674478 12.8718
44.28459506876863 12.8725
44.3088207262813 12.8168
44.33286064928722 12.77
44.35690262714919 12.8305
44.38094666145278 12.7428
44.4051806219871 12.6814
44.42922879003185 12.700999999999999
44.45327901929361 12.7032
44.477331311362136 12.6364
44.501573600619416 12.6316
44.525630039221795 12.6103
44.54968854541895 12.5713
44.573937102200176 12.5439
44.5979997645541 12.534
44.622064499300315 12.4894
44.64613130803592 12.4961
44.67038823869318 12.4831
44.69445921643748 12.4354
44.718532272981385 12.4088
44.742607409926194 12.4433
44.76687274034801 12.45
44.79095205918753 12.3861
44.81503346325094 12.3504
44.839116954143876 12.3423
44.86339071028742 12.2751
44.88747839599524 12.267999999999999
44.91156817336837 12.2688
44.93566004401666 12.2473
44.959942251908146 12.2122
44.984038330325966 12.1966
45.00813650686762 12.1917
45.03223678314731 12.1645
45.05652746888232 12.1203
45.08063196592069 12.1021
45.104738567558705 12.0754
45.128847275414856 12.0831
45.15314646515866 12.0348
45.17725940679741 12.0488
45.20137445952892 12.011
45.22568004865265 12.0248
45.24979934496396 11.992
45.27392075725247 11.9211
45.29804428714431 11.9218
45.322358426247604 11.8478
45.346486212804315 11.8805
45.370616121861914 11.8979
45.39474815505086 11.8664
45.41907087049246 11.8043
45.4432071734666 11.7994
45.46734560548283 11.8281
45.49148616817604 11.7807
45.51581748638564 11.7054
45.5399623320197 11.6921
45.56410931325473 11.6953
45.58825843173002 11.7109
45.61259837920865 11.6528
45.636751793816 11.6297
45.66090735060093 11.5661
45.68506505120716 11.5708
45.7094136545275 11.5698
45.73357566449271 11.5472
45.75773982322992 11.4817
45.78190613238733 11.4961
45.806263418194064 11.4162
45.83043404997326 11.4644
45.85460683713677 11.4604
45.87897065658495 11.4209
45.90314777634752 11.4165
45.92732705646868 11.3963
45.9515084986045 11.3622
45.97588104735473 11.38
46.00006683541565 11.3499
46.02425479047904 11.3018
46.04844491420549 11.2699
46.0728262191024 11.2538
46.09702070211635 11.2193
46.12121735879483 11.2136
46.14541619080294 11.21
46.169806278764455 11.212
46.194009483459034 11.1655
46.21821486849841 11.1415
46.24242243555223 11.1314
46.266821333570014 11.0959
46.29103328674601 11.082
46.31524742696538 11.0777
46.33946375590237 11.0461
46.36387149104216 11.0053
46.38809221957392 10.9503
46.41231514186606 10.9822
46.436540259597464 10.9481
46.460956858999374 10.9521
46.48518638983522 10.904000000000002
46.509418121166966 10.8627
46.533652054678114 10.8567
46.55807754555709 10.8233
46.58231590571962 10.8569
46.60655647313217 10.8119
46.630988654873654 10.7958
46.655233659129024 10.7405
46.67948087571551 10.7625
46.70373030632484 10.7262
46.72817142736393 10.7286
46.752425308428684 10.7005
46.77668140861147 10.677999999999999
46.80093972960865 10.6558
46.82538981736788 10.6397
46.849652602470904 10.6087
46.87391761349769 10.5759
46.8981848521493 10.5871
46.9226439341274 10.5688
46.946915650573224 10.526
46.97118959976749 10.5403
46.99546578341598 10.4729
47.019933887188216 10.4505
47.04421456235744 10.5007
47.06849747711879 10.4389
47.09278263318286 10.4191
47.11725978640143 10.3869
47.14154944775105 10.3537
47.165841355555656 10.3652
47.1901355115306 10.3539
47.214621741924994 10.3368
47.23892041698887 10.3193
47.26322134538975 10.2621
47.28771440635075 10.2679
47.31201986422527 10.2464
47.33632758061436 10.2388
47.360637557241866 10.2215
47.38513974410611 10.1706
47.40945426407847 10.1964
47.43377104948137 10.183
47.45809010204344 10.1384
47.48260144275502 10.0998
47.506925052572285 10.1112
47.53125093475548 10.0584
47.55557909103813 10.0585
47.58009961361992 10.0261
47.60443234110732 10.0142
47.62876734791564 9.97665
47.65310463578333 10.0095
47.6776343683373 9.96648
47.7019762413987 9.9146
47.72632040075572 9.92609
47.75066684815169 9.89495
47.77520581885936 9.87847
47.799556865477655 9.86589
47.823910205386 9.8738
47.84826584033272 9.83942
47.87281407745551 9.81585
47.89717432569297 9.81927
47.92153687423484 9.76878
47.94609208429692 9.77252
47.97045925671401 9.77477
47.99482873471275 9.73105
48.01920052005013 9.70181
48.04376504619224 9.70139
48.068141469543484 9.70482
48.09252020552573 9.67635
48.11690125590099 9.679310000000001
48.1414751266064 9.646360000000001
48.16586082917454 9.62235
48.19024885144316 9.55459
48.2146391951793 9.57685
48.239222439012764 9.58906
48.26361744916137 9.54535
48.28801478610016 9.53273
48.31241445160131 9.51063
48.337007097209366 9.48969
48.36141144338331 9.47994
48.38581812345755 9.46301
48.41022713920929 9.4525
48.434829215320704 9.45178
48.45924292604658 9.41762
48.48365897780325 9.43848
48.50807737237308 9.383610000000001
48.532688907799276 9.37279
48.55711201168574 9.31505
48.581537463754074 9.30234
48.60615611725119 9.3331
48.63058628942721 9.31863
48.65501881516546 9.27183
48.6794536962573 9.25055
48.70408185970339 9.26596
48.72852147531801 9.19815
48.75296345168211 9.20566
48.77740779059232 9.199
48.80204549302823 9.1808
48.82649458091802 9.154760000000001
48.85094603676547 9.1759
48.87539986237231 9.10704
48.90004713292306 9.09072
48.92450572200832 9.069339999999999
48.94896668628025 9.058539999999999
48.97343002754588 9.08639
48.99808689542115 9.04097
49.02255501470614 8.997689999999999
49.04702551642794 8.981060000000001
49.0714984023988 9.00642
49.096164896893235 8.99347
49.120642575466796 8.93329
49.145122643748394 8.95808
49.16960510355558 8.937000000000001
49.19428125404938 8.895010000000001
49.2187685210852 8.877460000000001
49.243258185121555 8.86712
49.26794160167084 8.803460000000001
49.2924360839405 8.802589999999999
49.31693296869764 8.78105
49.34143225776915 8.77825
49.36612538195438 8.76602
49.39062950396021 8.7869
49.41513603578346 8.73141
49.4396449792564 8.73783
49.46434784069503 8.71385
49.488861631846454 8.705789999999999
49.513377840166804 8.68735
49.537896467493745 8.672839999999999
49.56260909589029 8.63445
49.587132585683285 8.64981
49.611658500018365 8.650030000000001
49.636186840738596 8.570910000000001
49.66090926588511 8.566469999999999
49.685442483902584 8.574160000000001
49.70997813385706 8.58279
49.734516217597076 8.51245
49.75924846937352 8.50297
49.7837914452858 8.497689999999999
49.80833686055187 8.44797
49.83288471702571 8.43352
49.85762682540054 8.469560000000001
49.882179588965734 8.4601
49.9067347993235 8.403319999999999
49.93129245833333 8.385869999999999
49.95604445336378 8.36817
49.98060703442832 8.3772
50.005172069746266 8.34835
50.02993150438364 8.3454
50.05450147301533 8.32094
50.07907390151433 8.29234
50.10364879174981 8.267339999999999
50.12841816587289 8.265360000000001
50.1529980044635 8.27772
50.17758031042124 8.24898
50.20216508562089 8.20218
50.22694442953363 8.18411
50.25153416817468 8.16584
50.27612638170508 8.15848
50.300721072005196 8.132639999999999
50.325510416102105 8.11182
50.350110084975064 8.136660000000001
50.37471223628208 8.12996
50.39931687190919 8.09423
50.424116246675766 8.08409
50.44872587605249 8.0665
50.47333799543065 8.04337
50.49795260670191 8.050130000000001
50.52276204271512 8.01797
50.54738166295838 7.99207
50.57200378079314 7.98378
50.596628398116835 7.9388
50.62144792604559 7.98314
50.646077567609396 7.96374
50.670709714377715 7.96518
50.69553683636198 7.92668
50.72017401885922 7.883139999999999
50.7448137122895 7.89285
50.76945591856022 7.8798
50.79429318636823 7.8657
50.818940443716784 7.828989999999999
50.84359021965163 7.8282300000000005
50.868242516085964 7.82672
50.893089960641895 7.80647
50.917747323549435 7.79593
50.94240721271973 7.7461899999999995
50.96706963007175 7.6985600000000005
50.99192728239342 7.70535
51.01659478166073 7.742710000000001
51.04126481489051 7.69908
51.06593738400761 7.72162
51.090805275207074 7.65291
51.11548294172845 7.6177600000000005
51.14016314993547 7.6435699999999995
51.164845901758845 7.65195
51.18972406304274 7.6423
51.21441192780656 7.6011
51.23910234200271 7.56825
51.2637953075678 7.57147
51.288683770237945 7.55728
51.31338186432707 7.51673
51.33808251561888 7.476210000000001
51.362978729967345 7.50184
51.387684521509755 7.522010000000001
51.41239287610203 7.4937
51.437103795691165 7.447989999999999
51.46201036644977 7.42282
51.486726441956634 7.41109
51.51144508832545 7.43997
51.536166307509156 7.440110000000001
51.56108326624387 7.3681
51.58580965706056 7.36136
51.61053862657523 7.34169
51.635270176746864 7.326289999999999
51.66019755512065 7.36251
51.68493429268881 7.31278
51.70967361681515 7.32759
51.73441552946465 7.26853
51.759353359237934 7.277089999999999
51.7841004750961 7.22808
51.80885018539685 7.245310000000001
51.833602492111254 7.21691
51.8585508051424 7.201569999999999
51.883308330926425 7.18284
51.90806845906181 7.162719999999999
51.932831191525715 7.16133
51.95779001977161 7.14611
51.98255798721516 7.153789999999999
52.00732856494335 7.1294699999999995
52.03229530577543 7.08856
52.057071130455945 7.11303
52.081849571391054 7.083310000000001
52.106630630568695 7.055389999999999
52.13160794279417 7.001239999999999
52.15639426492067 7.03035
52.18118321127822 7.039
52.205974783860896 7.0023800000000005
52.23096269971011 6.98658
52.255759551287994 6.974469999999999
52.280559035098186 6.92892
52.30536115314103 6.945710000000001
52.33035970494467 6.936910000000001
52.35516711807904 6.9035899999999994
52.37997717147198 6.876360000000001
52.40478986713005 6.886489999999999
52.42979908731974 6.89285
52.454617094216 6.874639999999999
52.47943774942214 6.822019999999999
52.50426105495102 6.81445
52.529280976059844 6.79312
52.554109609024096 6.798139999999999
52.57894089837482 6.776389999999999
52.60377484613117 6.74785
52.62880550079408 6.772
52.65364479223379 6.72501
52.67848674816189 6.7149600000000005
52.70352547971946 6.704619999999999
52.72837279155837 6.7050399999999994
52.753222773982785 6.70063
52.778075429022984 6.69555
52.80312495150885 6.67514
52.827982978797436 6.686610000000001
52.85284368481815 6.62316
52.87770707160767 6.6229
52.90276741793998 6.6214
52.92763619336701 6.60515
52.952507655698504 6.57786
52.977381806977576 6.54861
53.00245301017842 6.5692699999999995
53.02733256653592 6.5286
53.052214817996074 6.51959
53.077099766608484 6.49218
53.102181859804446 6.4695599999999995
53.127072229988265 6.48679
53.15196530349892 6.4417
53.17686108239249 6.40193
53.20195409881522 6.38707
53.22685531582556 6.41906
53.25175924441303 6.4109
53.27666588664027 6.4202
53.30176985962693 6.3894
53.3266819565689 6.3712
53.35159677336455 6.3411599999999995
53.376514312083096 6.33097
53.40162927507703 6.33661
53.42655228516116 6.28621
53.45147802340193 6.27085
53.47660125628886 6.2906699999999995
53.50153247842639 6.27908
53.52646643496923 6.239730000000001
53.55140312799818 6.25282
53.576537409691696 6.21075
53.60147960336152 6.1692599999999995
53.626424539786164 6.19646
53.65137222105307 6.2388699999999995
53.67651758529126 6.21795
53.70147078399681 6.15829
53.72642673383343 6.10861
53.75138543689533 6.1081
53.776541917524526 6.10119
53.801506154876755 6.11298
53.826473151763246 6.1329
53.851442910284916 6.1062
53.87661054126026 6.04819
53.9015858509782 6.06527
53.92656392866066 6.04214
53.95154477641532 6.01775
53.976723591801296 6.00406
54.00171000771266 6.0247
54.02669920004598 6.03777
54.051691170915745 5.98836
54.076881204886796 5.992999999999999
54.101878760928514 5.94937
54.12687910187696 5.91061
54.152077577768296 5.8646400000000005
54.1770835166946 5.90083
54.20209224691339 5.9154800000000005
54.22710377055121 5.89726
54.25231352511594 5.8512699999999995
54.27733066384342 5.85392
54.30235060239643 5.84587
54.32737334290836 5.8261199999999995
54.35259441062629 5.76946
54.377622783395324 5.75697
54.40265396455061 5.79327
54.42768795623251 5.757680000000001
54.45292037169559 5.72232
54.477960012857906 5.74595
54.50300247099511 5.72189
54.52804774825457 5.65838
54.55329154616743 5.65075
54.57834249018678 5.64971
54.6033962597977 5.60799
54.6284528571545 5.63405
54.653708072335164 5.55092
54.67877035378786 5.55809
54.70383546947698 5.51766
54.72890342156389 5.52632
54.7541700889442 5.5277199999999995
54.77924374251975 5.55005
54.8043202390049 5.45855
54.82959552413022 5.4527
54.8546777351945 5.37737
54.87976279569621 5.35232
54.90485070780914 5.385730000000001
54.930137506558005 5.36888
54.95523115074295 5.37631
54.98032765308844 5.3386
55.005427015775496 5.342169999999999
55.03072536339621 5.35353
55.05583047570572 5.279669999999999
55.080938454927676 5.26438
55.10604930325027 5.23169
55.131359235107396 5.26384
55.15647585066083 5.18765
55.181595341907496 5.183680000000001
55.20671771104285 5.14466
55.232039262617704 5.1153
55.25716741665048 5.13821
55.28229845518636 5.11611
55.30743238042802 5.10069
55.33276558731939 5.07359
55.357905315183636 5.03673
55.383047936390035 4.96694
55.40819345314859 4.97619
55.433538351073295 4.97572
55.458689688238415 5.01812
55.483843927614096 4.934480000000001
55.509197623043605 4.90393
55.53435769621134 4.8832
55.55952067826466 4.84213
55.5846865714265 4.85849
55.61005202069737 4.83896
55.63522376553902 4.80302
55.66039842818645 4.7911
55.68557601087004 4.76593
55.7109532500271 4.69755
55.73613670233794 4.71568
