TT I
1.2716486653135266 7.95949
1.2939594142134223 7.4123
1.3162702121660406 7.13895
1.3385810600174564 7.56734
1.3608919586137629 7.15349
1.383202908801069 6.98601
1.405513911425503 6.3984
1.4278249673332093 6.8174
1.4501343378461518 6.52343
1.4724455028545926 6.31749
1.4947567236847858 6.65353
1.517068001182951 6.7972399999999995
1.5393793361953272 6.133769999999999
1.5616907295681737 6.38159
1.5840021821477681 5.7823
1.60631369478041 5.98869
1.6286252683124185 5.815169999999999
1.6509369035901333 5.7988
1.6732468618895553 5.62059
1.695558623192809 5.22814
1.7178704487808514 5.262519999999999
1.7401823395001077 5.09544
1.7625012545597203 5.18224
1.7848028405262486 5.33019
1.8071218901122095 5.57906
1.8294236121921872 5.80786
1.8517427996910911 5.51096
1.8740620574440425 5.04626
1.8963639900671978 5.25135
1.9186833908139995 5.03983
1.9409854680117449 5.2522400000000005
1.9633050151394713 5.54455
1.9856246367570705 4.95981
2.0079269371922672 5.0883
2.03024671027244 5.1394
2.0525491637446027 4.683590000000001
2.074869091674931 4.8779699999999995
2.097171701569106 4.68998
2.1194917877373847 5.09006
2.141811954326636 4.80279
2.164114805233074 4.44998
2.186435135143035 4.814080000000001
2.208738150935709 4.63614
2.231058647554722 4.1807300000000005
2.2533792288321184 4.2093
2.275682498336085 3.86751
2.298003251406138 4.29226
2.3203066942619714 4.71747
2.3426276225136022 4.52639
2.3649486396617507 4.61549
2.387252348930071 4.56773
2.4095735463442893 4.03139
2.4318774374315884 4.22805
2.4541988185014043 4.4351
2.476502894794693 4.30738
2.498824462909887 4.20276
2.521146125856138 4.50873
2.5434504863470337 4.4004
2.5657723414244717 4.69722
2.588076895590662 5.22526
2.610398946189713 4.86324
2.6327210958598384 4.67776
2.6550259469304716 4.99294
2.6773482972090137 5.3051699999999995
2.6996533504259 5.12364
2.7219759047039602 6.04927
2.744298562293959 5.9414
2.7666039251246595 5.97216
2.7889267918020164 5.952369999999999
2.8112323652516555 6.64845
2.833555444408179 6.88475
2.8558786311183852 7.35688
2.8781845268938557 7.794910000000001
2.9005079311721484 7.57835
2.9228140460410397 8.217
2.9451376712799635 9.662989999999999
2.967444008632326 9.67482
2.9897678582247247 10.027999999999999
3.0120918213106695 10.3004
3.0343984987899373 10.9687
3.0567226913198637 11.6013
3.079029599759726 11.6898
3.101354025127254 12.2957
3.123678568232338 13.1484
3.145985829517914 13.0447
3.16831061055229 13.4864
3.1906181112775593 13.7034
3.212943133635653 14.3969
3.2352682779763207 14.9424
3.2575761442691227 15.6084
3.2799015350264273 15.7214
3.302209649240067 15.9894
3.3245352898092655 16.1191
3.3468436553365257 17.1302
3.369169549113219 17.6889
3.3914955708171384 18.6642
3.413804319727358 19.0988
3.4361305997334863 18.5737
3.4584396084414553 19.2569
3.4807661501462652 19.9415
3.503092824025881 20.0661
3.5254022288463154 20.3353
3.5477291695206588 21.0601
3.5700388426251948 21.0136
3.5923660534916446 22.2333
3.6146934007816114 22.2197
3.637003482731501 22.4181
3.6593311053109985 22.904
3.681641464033634 22.8049
3.7039693653009733 23.2367
3.726297407241705 24.1126
3.7486081875460804 24.0443
3.7709365132734978 24.5725
3.793247578841633 25.3757
3.8155761917550093 25.5807
3.8378875459837216 25.9488
3.8602164494827234 26.1155
3.882545499606844 26.6421
3.9048572932539183 27.4058
3.9271866390645718 27.8247
3.9494987298666713 28.7784
3.971828374764527 29.0257
3.9941581705403255 29.4687
4.016470713506008 29.6404
4.038800813471445 30.1603
4.061113662089144 30.9288
4.0834440696459176 31.8556
4.105774632334751 32.1764
4.128087945865126 32.4537
4.150418821249301 33.094
4.172732448931298 33.9368
4.195063640413578 34.4834
4.2173775856475215 35.4955
4.239709096631102 36.2685
4.262040768704612 36.2316
4.284355196706267 36.85
4.306687193387355 37.0643
4.329001947444346 38.6743
4.35133427213731 39.8105
4.373666762177566 40.1532
4.395982011761091 41.0117
4.418314834921175 41.6955
4.44063041906622 42.9175
4.4629635787515625 43.5985
4.4852969080429785 44.4419
4.5076130004776225 45.9337
4.529946671403969 47.126999999999995
4.552263106909177 47.4609
4.574597122877047 48.75899999999999
4.596931312711224 50.2726
4.619248269273446 51.4371
4.6415828092605835 52.4114
4.663900117405352 53.6321
4.686235010953232 54.79600000000001
4.708552674085913 56.4467
4.730887924602802 57.8406
4.753223354952695 59.3478
4.775541557023902 60.8236
4.797877349456786 62.0633
4.820195915032126 63.7135
4.842532072957498 65.8858
4.864868414979744 67.8416
4.88718753227192 70.1833
4.909524244902505 72.395
4.931843734218147 75.1426
4.954180820867835 78.5041
4.976518095879839 82.8359
4.998838149695359 86.3049
5.021175803844231 90.9421
5.043496238205739 95.6175
5.065834274903528 102.162
5.088172504230693 109.865
5.1104935158799565 119.113
5.132832132875765 133.89700000000002
5.155153533596801 158.714
5.1774925416746225 217.87099999999998
5.199814334878411 582.896
5.2221537374521505 2011.06
5.244493338631803 3767.09
5.266815727034316 5157.97
5.289155727832427 7795.35
5.311478517248165 9536.18
5.333818921080011 6464.01
5.356159527788849 2111.58
5.3784829252032536 505.952
5.400823940070432 227.388
5.423147747031976 169.12599999999998
5.445489173474152 143.37
5.467830807066149 129.852
5.490155234831516 120.74799999999999
5.512497285125229 115.045
5.534822130975162 111.652
5.557164601388673 108.141
5.579489868738879 104.227
5.601832762690846 102.19
5.6241758697774475 100.229
5.646501775867269 99.1536
5.668845311622074 98.3657
5.691171647754637 97.2809
5.713515615597765 96.7127
5.735859800852677 95.7661
5.758186788542988 95.2475
5.780531411018185 95.6023
5.802858837297399 95.1104
5.825203900414495 95.7198
5.8475491852224 97.3699
5.869877275883075 99.1125
5.892223006467101 102.17299999999999
5.914551544266608 106.421
5.936897724049891 113.993
5.959244129804903 126.40299999999999
5.981573344815301 160.03
6.0039202049061 300.534
6.026249875609095 773.7489999999999
6.04859719346037 1401.74
6.070927323278297 1868.68
6.093275102315365 2553.1
6.115623113320588 3573.41
6.137953938319995 3938.77
6.160302415650845 2266.39
6.182633708324452 727.5310000000001
6.2049826554078376 229.68599999999998
6.227331838745022 127.1
6.249663839443684 101.446
6.27201349767565 90.5593
6.294345974611799 83.8574
6.316696111167083 78.6087
6.339046488263839 75.2607
6.361379686074702 72.2602
6.383730546639482 70.73100000000001
6.406064229255215 68.5278
6.428415576718203 67.7343
6.450749747566656 66.5209
6.47310158535871 65.0972
6.495453669698332 64.2812
6.517788579421056 63.5937
6.540141159237969 62.0056
6.562476565766648 61.0327
6.5848296444934045 60.5068
6.607182974060425 60.0337
6.6295191323281015 59.2896
6.651872965955752 58.8233
6.6742096296068985 57.998000000000005
6.6965639707294615 57.9807
6.71891856698715 56.8758
6.741255995248479 56.652
6.763611104154477 56.5733
6.785949046381137 55.8116
6.808304671371482 55.3752
6.8306605557940046 55.2116
6.852999275508618 54.3484
6.875355681171544 54.2272
6.897694923437771 54.1445
6.92005185377892 53.7858
6.9423916220322655 53.5715
6.964749080490181 53.1139
6.987106804399774 53.2197
7.009447368180821 53.2229
7.031805625367033 52.5396
7.054146723727803 52.6869
7.076505517631004 52.5586
7.098864581288365 52.4284
7.121206488070854 52.278999999999996
7.143566093607822 52.0623
7.165908543567245 52.062
7.188268694426048 51.6429
7.2106291193438095 51.6556
7.232972390625943 51.641000000000005
7.255333366030969 51.3043
7.277677189091925 50.9995
7.300038718428332 51.7691
7.322400526130865 51.1959
7.344745183422596 51.8173
7.367107550224791 51.7992
7.389452767901992 51.923
7.411815697249891 51.8765
7.434161478756298 51.5592
7.456524974096713 51.8109
7.478888753837185 51.7987
7.501235387657368 52.6714
7.523599738562711 56.3943
7.545946944825532 63.3952
7.568311870344528 65.8021
7.5906770845765665 60.5697
7.613025156078678 55.7834
7.635390950099687 53.9091
7.657739602662809 53.2132
7.680105979923558 52.8193
7.702472650212829 53.5649
7.724822180948224 53.2727
7.747189439655568 53.8531
7.769539560075357 53.9451
7.791907410653562 54.5991
7.81425812420825 54.3436
7.836626570110925 54.6005
7.858995315087906 55.7693
7.881346924933401 55.4983
7.903716270417482 56.2612
7.926068482028405 56.526
7.948438431475253 57.353
7.9708086843180235 57.4815
7.993161805171116 58.5667
8.015532667162402 58.7675
8.037886398416653 60.0056
8.060257873014221 60.2569
8.082629655331942 60.2865
8.104984308787587 61.5095
8.127356708900503 62.4875
8.149711981398308 63.0634
8.172085002766314 64.0182
8.194458336181368 64.8256
8.216814543847752 66.2405
8.23918850371002 67.6042
8.26154533906492 68.5803
8.283919928836452 70.3615
8.306277395339652 71.4224
8.328652618483376 73.1523
8.351028159736202 75.4796
8.373386579575245 77.7801
8.395762759396959 80.1294
8.418121819038275 83.5648
8.440498640894003 88.4145
8.462875785192262 95.8071
8.485235811156207 111.655
8.507613602688501 176.321
8.529974277114228 374.985
8.552352719347912 614.5980000000001
8.574731488360351 769.645
8.59709314210385 846.579
8.619472567021075 1027.06
8.64183487789147 1401.4
8.664214962183097 1811.45
8.686577933647762 1690.65
8.708958680784317 999.757
8.731339760774953 433.009
8.753703729764451 181.895
8.77608547780821 118.447
8.798450116065078 104.208
8.820832535634787 97.5724
8.843215292401656 94.2808
8.865580941199045 91.2497
8.887964374703538 88.6383
8.910330701447199 87.3023
8.932714815164482 86.1321
8.955099270424924 85.3095
8.977466620733543 83.9415
8.999851761421976 83.6065
9.022219798361645 82.8112
9.04460562795561 82.8003
9.066991803441677 81.9988
9.089360876979615 81.7777
9.111747746589993 81.3642
9.13411751544971 80.8815
9.156505082664324 80.9462
9.178875550323522 81.2473
9.20126381862328 82.1843
9.223652438908596 88.0237
9.246023961427412 98.7473
9.26841328802173 101.193
9.290785518039224 95.0041
9.313175554425882 87.945
9.335565947154315 83.1233
9.357939245086508 81.6787
9.380330352834827 82.0047
9.40270436697103 81.7306
9.425096193225055 81.2544
9.447488380180165 82.5919
9.469863475295412 82.5724
9.492256385987508 83.1602
9.514632206018318 83.8301
9.537025843935714 83.8819
9.559402392368193 84.5006
9.581796761000229 85.79299999999999
9.604191496441521 85.7774
9.626569144158516 86.1416
9.648964615551032 87.1529
9.671343000390081 87.8297
9.693739211225699 89.0291
9.716135793237463 90.2993
9.738515290448102 91.3736
9.760912617143402 92.5866
9.783292860202891 93.6288
9.805690935076182 94.9303
9.828089385495742 95.8555
9.850470754023561 98.2397
9.872869957865444 100.656
9.89525208097539 103.352
9.917652041736662 107.76899999999999
9.940052382417589 114.486
9.962435644102392 131.744
9.984836746950979 188.97400000000002
10.007220771957746 349.334
10.029622640473708 556.256
10.052007432299963 681.0010000000001
10.074410069984072 716.123
10.096813093716005 774.303
10.119199042482517 956.778
10.141602840636468 1297.95
10.163989564971628 1606.64
10.186394141051062 1573.12
10.208799107559706 1030.54
10.231187001965623 518.677
10.253592751657669 229.68200000000002
10.275981430388155 137.126
10.298387966769793 117.20200000000001
10.320794897965431 111.866
10.343184759907361 108.324
10.36559248305461 105.32600000000001
10.387983138083852 104.22
10.410391656691655 106.48899999999999
10.432800574501677 121.979
10.455192425893369 165.53799999999998
10.47760214443012 217.618
10.499994797678786 249.325
10.522405320453982 256.093
10.54479877906917 268.882
10.567210109595656 311.71
10.5896218454736 385.00300000000004
10.612016518879773 477.73699999999997
10.634429067781074 490.56
10.656824555333241 385.09
10.679237920773568 242.11700000000002
10.701651695961992 140.321
10.724048411481384 102.37200000000001
10.746463008485165 91.3984
10.768860546937125 86.5653
10.791275969274796 83.3208
10.81369180576079 81.3657
10.836090585366925 79.9779
10.858507252467449 78.815
10.88090686379991 77.4922
10.903324365036394 76.8109
10.925724811614439 75.3354
10.948143150509463 74.8806
10.970561909719066 74.0713
10.992963615930844 73.0495
11.015383218085756 71.9745
11.037785768347074 71.1389
11.06020621697282 71.1108
11.082627090322113 70.3011
11.105030913430326 69.7922
11.12745263854165 69.1641
11.149857314510728 68.2741
11.172279894912576 68.4976
11.194702904450653 67.3615
11.217108866490921 66.3905
11.239532736615194 66.1171
11.26193956033512 65.9485
11.284364294577085 65.6869
11.306789462371718 65.2703
11.329197585398376 65.0088
11.351623622610898 64.7878
11.37403261614354 64.2311
11.396459526308487 64.0951
11.418869393879497 63.7562
11.441297180532617 63.2424
11.463725406927658 63.1515
11.486136592353875 62.5732
11.508565700543707 62.5448
11.530977768845315 62.4672
11.553407762368774 61.9353
11.575838200059769 61.7158
11.598251599479612 61.6272
11.620682927815501 61.5262
11.64309721895548 61.5053
11.665529441478206 61.1413
11.687962112597958 61.0897
11.710377748130886 61.0623
11.732811318753434 60.8954
11.755227854859067 61.0161
11.777662328529495 60.6729
11.800079768750786 60.6681
11.822515149015453 60.6703
11.844950984084935 61.1114
11.867369787303163 60.7882
11.889806534289491 61.3118
11.912226250487029 62.22
11.934663912939751 64.2536
11.9571020346363 66.4262
11.979523127133968 66.2215
12.001962169624331 65.8174
12.024384183972964 65.063
12.046824150809913 67.8182
12.069264581333726 77.5173
12.091687985297767 90.8596
12.11412934550045 101.95299999999999
12.136553680195208 107.316
12.158995973632788 109.456
12.181438735204349 113.72200000000001
12.20386447284199 124.304
12.226308172985636 143.259
12.24873485024193 170.02200000000002
12.271179492516982 188.484
12.293607112949127 179.325
12.316052700916226 143.514
12.338498763250042 103.164
12.360927805303868 76.0565
12.383374818673879 66.4493
12.405804812803074 63.7254
12.428252780773262 63.176
12.45070122756722 62.9292
12.473132656675375 62.6311
12.49558206341869 62.3725
12.518014453510101 62.5395
12.540464823770117 62.778999999999996
12.562915677315177 62.6417
12.58534951575545 63.2673
12.607801338171472 63.1044
12.630236146511358 63.1311
12.652688941369085 63.6961
12.675124723177234 63.933
12.697578494048786 64.4102
12.720032754458185 64.6627
12.742470003354093 65.2513
12.764925245138771 65.8612
12.787363476431278 65.9798
12.809819703166806 66.5346
12.83227642391173 67.3822
12.854716135692716 67.6587
12.877173846755147 68.6087
12.899614549869717 69.1013
12.9220732548287 70.0213
12.94453245827299 70.5764
12.966974655289818 71.7615
12.989434858002571 72.7061
13.011878055298721 73.6772
13.034339260862497 74.7381
13.056800969391883 76.4024
13.079245674017244 79.439
13.101708390774869 81.2913
13.12415410463411 86.7996
13.146617833206086 103.337
13.169064559883248 133.717
13.191529303857127 165.657
13.213994557076367 187.82
13.236442809902437 195.503
13.258909083908291 198.274
13.28135835851934 206.968
13.30382565690295 230.683
13.326293469022952 273.988
13.348744283242008 334.749
13.371213125129904 387.334
13.39366497011003 387.575
13.416134845360597 320.11400000000003
13.438605238843131 223.053
13.46105863690397 149.625
13.483530069144786 122.079
13.505984506951902 131.24200000000002
13.528456981549432 155.838
13.550929978879088 174.31099999999998
13.573385983253365 182.296
13.595860028340867 181.551
13.618317081455832 184.892
13.64079217790333 198.40900000000002
13.663250283359057 223.892
13.685726434770173 265.925
13.708203115221277 318.212
13.730662806148091 341.283
13.75314054697177 309.732
13.775601299246777 241.459
13.798080104050406 161.506
13.820559442405358 109.449
13.843021793671388 89.1621
13.865502201420897 82.3237
13.887965623051947 80.3349
13.910447103807167 78.6059
13.932929122629764 76.9799
13.955394156785959 76.7449
13.977877254034569 75.5726
14.000343367582113 74.513
14.022827546871707 73.8526
14.045294743423524 72.964
14.06778000837062 72.5593
14.090265817715476 72.5387
14.112734645763819 72.5559
14.13522154619454 73.3676
14.157691466286913 74.3928
14.180179461423874 73.7329
14.202668005486178 72.6332
14.22513957064374 71.3927
14.247629214846473 69.9925
14.270101881097517 69.4708
14.29259262906496 69.2257
14.315083930490205 69.0503
14.337558255389705 68.4013
14.360050666019726 68.4577
14.382526101071944 68.0427
14.405019624534942 67.7321
14.427513705993134 67.6474
14.449990813291825 67.5837
14.47248601302899 67.5774
14.49496423954951 67.8667
14.517460561197822 67.9211
14.539939910570322 67.7019
14.562437357763558 67.703
14.58493536931253 68.2086
14.607416409993311 68.1432
14.62991555254159 68.2524
14.652397725157423 68.536
14.674898002342799 68.9122
14.697398848433282 69.0623
14.719882725991326 70.1137
14.74238471217934 71.1077
14.764869730765593 73.7647
14.787372860692983 80.5252
14.809876564079925 93.7125
14.83236330125751 107.37200000000001
14.854868153850365 116.93299999999999
14.877356041159485 120.471
14.899862046604186 120.322
14.922351087688757 122.95200000000001
14.944858249632887 128.828
14.967365991421232 140.731
14.989856770231246 158.66
15.012365673994204 183.942
15.03485761569738 205.826
15.05736768508665 205.489
15.07987833888692 181.207
15.102372032001655 142.78799999999998
15.124883856909658 105.02799999999999
15.14737872204565 83.0301
15.169891721717274 73.9465
15.192405310371893 70.9205
15.214901940621196 69.7758
15.237416709527137 68.679
15.259914520936249 68.4431
15.282430473753607 67.2808
15.304947020131227 66.6171
15.327446610371178 66.4609
15.349964346154254 66.0919
15.372465126703139 65.8511
15.394984055556009 65.7592
15.417486030076159 65.5831
15.44000615566487 65.3986
15.462526881230803 65.0705
15.485030653812652 65.0911
15.507552581617434 64.8579
15.530057557334603 64.8397
15.55258069104857 64.9418
15.575104429329837 65.1691
15.597611216864632 65.3241
15.620136166564563 65.5775
15.6426441664095 66.082
15.665170331202765 67.8345
15.687697105158826 73.5481
15.710206930593545 83.9055
15.732734925158933 95.3257
15.755245972089478 103.193
15.77777519094324 107.35700000000001
15.800287463046663 107.339
15.822817909869592 107.594
15.84534897229804 110.984
15.867863089299354 119.11
15.890395385222186 130.24200000000002
15.912910736597423 147.334
15.935444269699861 169.007
15.957978423016485 183.25
15.980495633101265 179.112
16.003031029129367 156.069
16.02554948280019 122.257
16.048086125229432 91.6582
16.070623392487107 74.3162
16.09314371869582 66.8417
16.11568223789321 63.065
16.13820381691126 61.678999999999995
16.160743591742527 60.8192
16.183283996022084 59.9638
16.205807461423195 58.9593
16.228349126881973 58.3004
16.25087385432698 58.205
16.27341678466365 57.7444
16.29594277784926 57.269
16.31848697676433 56.7885
16.341031811604868 56.2792
16.36355971058487 56.3605
16.3861058195587 56.0816
16.40863499352978 55.6124
16.431182380342005 55.3679
16.453730407713202 55.2028
16.476261501364792 54.7093
16.498810812136167 54.4688
16.52134319004079 54.5371
16.54389378792203 54.6263
16.566445031001553 54.4375
16.588979342490088 54.4463
16.61153187824822 54.3435
16.634067483263312 54.1281
16.656621315414416 53.9743
16.679175797408888 53.5869
16.701713349928728 53.5541
16.72426913389191 53.9207
16.74680798922351 53.7328
16.76936507887444 53.61
16.791905240734874 53.6421
16.814463639794468 53.6379
16.837022695210294 53.6754
16.859564824093756 53.7134
16.882125194503903 54.0468
16.904668639217885 54.3144
16.927230328348003 54.4715
16.949792678493612 54.6151
16.972338104193863 54.6546
16.994901778652235 54.7559
17.017448529496576 54.7548
17.040013531998152 55.0845
17.06257920018044 55.3468
17.0851279459922 56.3903
17.107694947817667 58.3937
17.130245028099072 60.6371
17.15281336730298 62.6466
17.17536478578733 64.0134
17.19793446610687 64.5557
17.220504818648422 64.5994
17.243058251703697 64.5228
17.265629950971032 65.6575
17.288184731571736 67.5141
17.310757781306908 70.4742
17.33333150794385 73.9778
17.355888317140174 77.5734
17.37846339986244 80.8507
17.401021565958885 80.8382
17.42359800851343 77.50399999999999
17.44617513265564 71.7265
17.468735341390783 65.8698
17.491261035594565 61.4597
17.51396340099364 59.3029
17.536490463869136 58.6362
17.559018209820174 58.6252
17.58154663977963 58.5457
17.604251766089718 58.7613
17.626781572227713 58.888000000000005
17.64931206518155 59.025
17.671843245885103 59.2863
17.69455114821572 59.177
17.717083712612634 59.812
17.739616967569667 60.2293
17.762150914021706 60.8797
17.78486160749854 60.8805
17.807396945166804 61.5995
17.829932977143503 62.3483
17.85246970436452 63.3014
17.875183204129467 66.0009
17.897721330097664 71.6972
17.920260154126645 78.416
17.942799677153296 83.7358
17.9655159983646 87.0033
17.988056927677544 88.0852
18.010598558807683 88.0478
18.033140892692916 88.7711
18.05586005052525 90.6187
18.07840379824407 94.7281
18.10094825154059 101.06
18.12366954819864 110.584
18.146215420998306 123.554
18.16876200220057 137.917
18.191309292745153 145.208
18.214033452627167 143.607
18.236582170236648 130.963
18.259131600016456 113.275
18.281681742907335 97.0713
18.304408781233683 87.6354
18.32696035875955 84.2972
18.349512652227624 84.6425
18.372065662579683 87.7301
18.394795594587553 92.3564
18.41735004715306 97.8777
18.43990521943684 101.803
18.46246111238171 101.95200000000001
18.485193953325208 96.0951
18.507751296070428 86.9491
18.530309362314178 77.4375
18.552868153000343 69.9566
18.57560391815056 64.9495
18.59816416623245 62.873000000000005
18.620725141597372 61.8993
18.643286845190268 61.0374
18.666025549835414 60.4019
18.688588718427933 59.8176
18.711152618092243 59.4428
18.73389353884365 59.2468
18.75645890921984 59.0485
18.77902501351406 58.4257
18.801591852673102 58.3934
18.824335739722738 57.6071
18.846904057212626 57.8025
18.8694731124168 57.4237
18.89204290628315 57.2747
18.914789774966803 57.1591
18.937361054791623 56.8713
18.959933076131318 56.6372
18.982505839934877 56.4505
19.00525570560582 56.4719
19.027829963004184 56.2163
19.05040496572238 56.4129
19.072980714710468 56.3883
19.095733592739563 56.6667
19.11831084296757 57.023
19.140888842324735 57.9632
19.16346759176222 59.3227
19.18622349753803 60.5575
19.208803755869358 61.6067
19.231384767143577 61.9517
19.253966532312948 62.0378
19.276725481241822 62.0756
19.29930876296784 62.3216
19.3218928014549 62.8557
19.34465404436217 63.7079
19.36723960516257 65.7641
19.389825925592426 67.5951
19.412413006605938 70.0483
19.43517731967805 72.8348
19.457765930683355 73.6923
19.48035530514408 72.5905
19.50294544401556 68.8102
19.525712842708348 64.13
19.54830451925909 59.9288
19.570896963095727 56.3856
19.593490175174704 54.4564
19.616260674962184 53.887
19.638855432416964 53.3606
19.661450960992624 53.5733
19.68404726164677 53.2017
19.706820878021247 53.0903
19.729418731756834 53.18600000000001
19.752017360452857 52.9813
19.77461676506804 53.1043
19.797393513540218 53.0524
19.819994478951667 53.3859
19.84259622316767 54.5512
19.8651987471481 55.6094
19.887978643247177 56.5132
19.91058273574792 57.2815
19.933187610901943 57.8975
19.955969879466828 58.1523
19.97857632894404 58.2194
20.00118356396599 57.9748
20.023791585494575 58.541000000000004
20.046577028914875 59.4364
20.069186632506966 60.8046
20.091797025500632 63.1679
20.114408208858933 65.9106
20.137196842715273 69.0059
20.159809615886765 71.7394
20.18242318232135 72.2281
20.20503754298326 70.833
20.227829382875154 68.4329
20.250445341109344 65.4516
20.27306209647285 62.2902
20.29567964993108 60.3081
20.31847471147704 59.9554
20.34109387027612 60.5918
20.363713830075454 62.199
20.386334591841646 63.8899
20.409132890679302 64.8918
20.431755265564437 64.4484
20.454378445325528 62.662
20.477002430930366 59.5142
20.499803982716553 56.158
20.522429589228004 53.4611
20.54505600449589 51.5072
20.567683229489194 50.6588
20.590488049900088 50.2947
20.61311690359731 50.0409
20.63574656993626 49.8431
20.658553853717297 49.5477
20.681185154618298 49.5168
20.703817271080066 49.3746
20.72645020407368 49.0665
20.749260783967177 48.9386
20.771895359337133 48.8733
20.794530754161617 48.8519
20.817166969412938 48.805
20.83998086114876 48.5902
20.86261872660049 48.4944
20.885257415405402 48.5304
20.90789692853701 48.486000000000004
20.930714147864748 48.2479
20.953355319030678 48.3716
20.97599731745334 48.6101
20.99864014410749 48.4575
21.021460706796564 48.6298
21.044105199328826 49.018
21.06675052302631 49.1454
21.089396678865015 49.0863
21.112220600704806 48.9893
21.134868430275347 49.1292
21.15751709492456 49.1008
21.180166595629693 48.846000000000004
21.202993892429635 49.1471
21.22564507473034 49.3626
21.24829709602816 49.7144
21.27112693608965 50.1509
21.293780644891275 50.7186
21.316435195634053 51.0817
21.339090589297417 50.9366
21.361923832041875 50.7809
21.384580921090404 50.2433
21.407238856007325 49.5704
21.429897637773326 49.0515
21.45273429906592 48.6514
21.475394784108598 48.2663
21.498056118951983 48.1701
21.520718304578022 48.5131
21.543558400304388 48.3992
21.566222297108816 48.6024
21.58888704765135 48.5867
21.61155265291521 49.1755
21.63439619898156 50.245
21.657063523335786 51.0371
21.67973170537063 52.0756
21.7024007460706 52.8682
21.72524775840385 53.4416
21.747918526116475 53.6477
21.770590155457388 53.8024
21.79326264741238 53.8494
21.816113141960237 54.4141
21.838787368860547 54.8874
21.861462461341976 55.8276
21.884315579735777 57.5443
21.90699241312273 59.1374
21.92967011506078 61.0094
21.95234868653799 62.8616
21.9752053151131 64.7916
21.997885635446785 65.8174
22.020566828293532 65.4653
22.04324889464272 63.4009
22.066109049404666 60.8081
22.088792872571794 57.9506
22.111477572219204 56.0374
22.1341631493376 55.1314
22.157026846313123 54.9991
22.179714188221507 55.3423
22.202402410582668 55.9876
22.22509151438863 55.631
22.24795876962584 55.0234
22.270649646204486 53.912
22.293341407213727 52.4565
22.316034053646906 50.9399
22.338904883215342 49.9945
22.36159931041458 49.386
22.38429462602756 48.8728
22.40699083104897 48.5834
22.429865251039757 48.5409
22.452563244831367 48.5689
22.47526213102522 48.651
22.49813925616515 48.4962
22.520839937143307 48.4794
22.543541513520587 48.5512
22.56624398629403 48.3361
22.589124730075895 48.3147
22.611829005656723 48.556999999999995
22.63453418063466 48.6396
22.657240256008077 48.6513
22.680124634582935 49.2057
22.70283252079775 49.9842
22.725541310413075 50.6177
22.74825100442868 51.1683
22.771139033969575 51.5628
22.79385054687155 51.5194
22.81656296718292 51.6476
22.83927629590484 51.6144
22.862167992606945 51.6849
22.88488314827121 51.8602
22.907599215359284 52.2398
22.93031619487366 52.7167
22.953211574954405 53.2286
22.975930389478226 54.1429
22.998650119445763 55.342
23.02137076586092 56.2964
23.044269845560063 57.3856
23.06699233506288 57.9449
23.089715744034912 57.5849
23.112617610931565 56.1205
23.135342869061212 54.3346
23.158069049684816 52.49100000000001
23.1807961538087 50.7982
23.20370174880544 49.6671
23.226430710184808 49.2065
23.249160598093425 48.9501
23.271891413539002 49.0926
23.294800752937697 49.4527
23.31753343374794 50.1357
23.340267045128353 50.5355
23.36300158808808 51.2086
23.38591468821339 51.5509
23.408651104658304 51.5261
23.431388455719986 51.4217
23.454126742409 51.3101
23.4770436196085 51.2389
23.499783787914662 51.63399999999999
23.522524894889884 51.6819
23.54526694154616 51.9465
23.56818761219047 52.7094
23.59093154860734 53.4165
23.613676427751283 54.9005
23.636422250635754 56.1456
23.659346731118656 57.1631
23.68209445191868 57.528999999999996
23.704843119509587 56.9875
23.72759273490623 55.5572
23.750521041644767 53.4432
23.77327256312355 51.2235
23.796025035462787 49.1522
23.818956224555475 47.3327
23.841710609113413 46.6743
23.86446594758979 46.2353
23.887222241002014 45.7445
23.910157285144578 45.3954
23.932915498962537 45.4032
23.955674670778713 45.2893
23.978434801611975 44.9787
24.001373717286125 44.8217
24.024135776723917 44.6366
24.046898798245582 44.6486
24.06966278287146 44.3761
24.092605586582614 44.0892
24.115371508023642 44.0028
24.1381383956401 44.0129
24.16090625045381 43.9714
24.183852958731244 43.9457
24.206622758582608 43.8998
24.229393528706886 43.4559
24.252165270127392 43.5508
24.27511589952438 43.7066
24.297889594216997 43.3711
24.32066426328598 43.1918
24.34343990775613 43.2507
24.36639447485003 43.0538
24.38917208083877 43.078
24.41195066531332 43.01
24.43490819850244 43.0814
24.457688750692377 42.6114
24.48047028445616 42.7826
24.503252800821233 42.9235
24.526214300784112 42.8373
24.548998793132213 42.7224
24.57178427117417 42.6722
24.59457073593893 42.7198
24.617536219319863 42.7454
24.64032466834748 42.7933
24.663114107195035 42.8674
24.685904536893013 42.7641
24.708874020360852 42.6485
24.731666442613744 42.6319
24.754459858818787 42.5695
24.777254270007962 42.3225
24.80022777025625 42.2185
24.82302418230472 42.1009
24.845821592443674 42.1993
24.86862000170663 42.3587
24.891597535453727 42.2098
24.914397953892728 42.4675
24.93719937456671 42.4682
24.96000179851076 42.4221
24.98298338249997 42.5598
25.00578782394922 42.7671
25.028593271784167 42.65
25.05157790644186 43.0223
25.07438537804115 43.1633
25.097193859145293 43.4381
25.120003350792075 43.6577
25.142992065061257 43.8301
25.165803588823465 44.0193
25.18861612625217 44.1414
25.211429678386736 44.1787
25.234422489079968 44.4613
25.257238081693636 44.534
25.280054692141732 44.648
25.3028723214652 44.5314
25.325869245420463 44.4721
25.348688923599397 44.4858
25.371509623787006 44.463
25.394331347025812 44.4098
25.41733240110666 44.6273
25.440156181590016 44.621
25.46298098826268 44.7319
25.48580682216873 44.3803
25.50881202326435 43.8205
25.53163992281684 43.041000000000004
25.55446885274561 42.3301
25.577298814096377 41.6278
25.600308179121807 41.3567
25.623140214533745 41.1734
25.64597328451537 40.8675
25.66898578564376 40.5219
25.691820936010206 40.7389
25.714657124097695 40.6286
25.737494350954734 40.5557
25.760511045684957 40.6437
25.783350361364224 40.7011
25.806190718969255 40.7825
25.82903211955018 40.9076
25.852053024868923 40.9525
25.874896522722523 40.8336
25.897741066713106 40.6681
25.920586657892454 40.7021
25.943611790812668 40.7052
25.966459487728237 40.7945
25.989308234998564 40.6255
26.01215803367705 40.8717
26.03518741123814 40.9369
26.05803932412957 40.7721
26.080892291600094 40.8988
26.10374631470478 41.0238
26.12677995397268 41.2202
26.14963609978026 41.611999999999995
26.172493304397875 41.5982
26.19535156888223 41.9861
26.218389486949604 41.6428
26.241249882640123 41.5844
26.26411134137826 41.358999999999995
26.28715248187403 41.2165
26.31001607820869 40.8404
26.3328807407756 40.5354
26.35574647063438 40.7062
26.37879191991473 40.5218
26.401659795896734 40.6091
26.424528742360263 40.5685
26.447398760366614 40.7772
26.470448535598294 40.5496
26.49332070826805 40.6074
26.516193955675355 40.7225
26.53906827888316 40.873000000000005
26.562122397260108 40.9665
26.584998883685063 41.1292
26.607876449110325 41.239
26.63075509460056 41.3121
26.65381357334404 41.5825
26.67669439061878 41.6913
26.699576291163382 41.8975
26.722459276044212 42.3596
26.745522132402975 42.4937
26.768407297649354 42.3702
26.791293550442003 42.177
26.814180891848974 41.8291
26.837248143099337 41.4426
26.860137673466657 41.2078
26.88302829566349 40.8302
26.90592001075963 40.5677
26.92899167420566 40.5232
26.951885586870763 40.243
26.974780595655517 39.9754
26.99785558178161 39.7575
27.020752794605112 39.4952
27.043651106772522 39.3475
27.06655051935668 39.2078
27.089629948036183 39.0825
27.112531573292053 38.8657
27.135434302194138 38.9104
27.158338135817015 38.7784
27.181422024430987 38.7802
27.204328079372566 38.6314
27.22723524226965 38.7922
27.250143514198573 38.7221
27.273231880156334 38.7498
27.296142382065014 38.641
27.319053996245536 38.5712
27.341966723775965 38.4708
27.365059584515222 38.6125
27.38797455070062 38.5831
27.410890633481237 38.3843
27.433807833936918 38.3457
27.456905206923906 38.2323
27.47982465472398 38.3307
27.502745223449743 38.4882
27.525666914182825 38.5065
27.548768816912457 38.4769
27.571692763693633 38.497
27.59461783573812 38.3866
27.617723149491244 38.4175
27.640650484125285 38.535
27.66357894728264 38.5587
27.686508540048052 38.4979
27.709618414237887 38.532
27.732550278321757 38.3895
27.755483275279115 38.2656
27.778417406196485 38.3331
27.801531858397514 38.1761
27.824468269376716 38.029
27.847405817586786 37.9633
27.870344504116094 38.0516
27.893463551932008 38.1976
27.916404527281053 38.2001
27.93934664422563 38.2462
27.962289903855886 38.2173
27.98541356491974 38.3314
28.00835912214229 38.4329
28.03130582533231 38.5896
28.054253675581805 38.6753
28.077381967556104 38.6815
28.100332124185126 38.7849
28.123283431160893 38.9042
28.146235889577238 39.0282
28.169368830154156 39.166
28.192323603752033 39.0358
28.215279532083304 38.9342
28.238415973016764 38.6397
28.261374223145094 38.3821
28.284333631303806 38.1438
28.307294198589954 38.0036
28.330435319167677 37.7148
28.353398217078915 37.5469
28.376362277420153 37.4393
28.39932750129032 37.2395
28.422473319286713 36.7941
28.44544088262495 36.764
28.468409612800283 36.6624
28.491379510913497 36.312
28.51453004413313 36.105
28.53750229057244 36.0109
28.56047570826344 35.8747
28.583450298308804 36.0006
28.606605564586562 35.8233
28.629582511831156 35.9363
28.65256063474956 35.7062
28.675539934446338 35.7049
28.698699951647605 35.6562
28.72168161743193 35.4223
28.74466446331978 35.4648
28.767648490417624 35.5172
28.790813276438353 35.3874
28.813799678527303 35.3531
28.836787265157085 35.3827
28.859955641890075 35.3157
28.882945610203045 35.2869
28.905936766392035 35.1429
28.928929111566863 35.2474
28.952102288520145 35.1918
28.975097024308607 35.211
28.998092952423807 35.1741
29.021090073977508 35.1825
29.04426806913204 35.1725
29.067267590245258 34.9739
29.090268308143695 35.1032
29.11327022394099 34.8816
29.13645305530891 34.6625
29.159457379627167 34.4728
29.18246290519685 34.4891
29.20546963313352 34.4384
29.22865731875826 34.3894
29.25166646419296 34.2539
29.27467681535305 34.0272
29.29768837335608 34.2013
29.320880931312562 34.2313
29.34389491580634 34.0227
29.366910110507334 34.0101
29.38992651653503 34.0278
29.41312396492981 34.0632
29.436142806456754 34.0249
29.45916286268059 34.0377
29.48236399319994 34.0707
29.50538649169417 34.0366
29.528410208259935 34.0408
29.55143514402014 33.798
29.574641196749695 33.6462
29.597668583816574 33.5466
29.6206971934585 33.3672
29.64372702680042 33.3247
29.666938019934474 33.1361
29.689970313635285 33.0048
29.713003834422636 32.9891
29.73603858342347 32.9198
29.759254535188578 32.7928
29.78229175361658 32.6918
29.80533020365064 32.7723
29.82836988641968 32.7507
29.85159081507472 32.7556
29.874632976355343 32.6485
29.89767637376955 32.6578
29.920721008448314 32.5674
29.9439469322847 32.6084
29.96699405457564 32.5612
29.9900424175358 32.6299
30.013092022298157 32.51
30.03632295963995 32.3676
30.059375061131373 32.4028
30.08242840783577 32.391999999999996
30.105483000888153 32.4484
30.128718970092244 32.448
30.151776069006917 32.3548
30.17483441768648 32.4086
30.198074175317235 32.3074
30.221135036724256 32.3737
30.24419715131772 32.2432
30.267260520236203 32.2407
30.290505341942243 32.3535
30.313571232750228 32.3623
30.336638381310948 32.4184
30.35970678876503 32.4584
30.38295669299435 32.355
30.40602763151657 32.3945
30.429099832366074 32.3606
30.452173296685572 32.1666
30.47542830191959 32.085
30.498504306502497 32.0409
30.521581577995562 32.1579
30.544660117543582 32.1257
30.56792024229725 32.163000000000004
30.59100133132069 32.0146
30.614083691845494 32.0865
30.637167325018545 32.0618
30.660432587840603 32.0587
30.683518779717886 31.9616
30.70660624769615 32.0523
30.729694992924372 32.0722
30.75296541239743 32.1505
30.77605672557558 32.1358
30.799149319462742 32.1593
30.8224236211637 32.2472
30.845518789950724 32.1155
30.868615242910597 32.111999999999995
30.891712981195973 32.078
30.91499247215866 31.9451
30.938092794619365 31.8923
30.96119440587579 31.8523
30.984297307082752 31.7064
31.00758200598383 31.5212
31.030687500658694 31.4751
31.053794288760695 31.3861
31.076902371446767 31.2373
31.100192296997445 31.3217
31.12330298246119 31.1613
31.14641496599209 31.1584
31.169528248749216 31.0784
31.19282341969534 31.098000000000003
31.215939314557186 31.0537
31.239056512134788 31.1417
31.262175013589378 30.9039
31.28547544871168 30.8715
31.30859657161541 30.8633
31.331719001892175 30.8127
31.35484274070538 30.8878
31.378148458819545 30.9908
31.401274828443725 30.9654
31.424402510106933 30.8933
31.447712205419993 30.9353
31.470842524931633 30.7608
31.493974159989783 30.7664
31.51710711176168 30.8156
31.54042212308802 30.9045
31.563557722100917 30.883000000000003
31.586694641341655 30.8562
31.609832881979628 30.7398
31.63315322823208 30.7725
31.656294125521327 30.7718
31.679436347728515 30.6201
31.70257989602529 30.4846
31.725905596152327 30.4104
31.74905181052835 30.3576
31.772199354521323 30.4384
31.79534822930507 30.2924
31.818679302290967 30.2017
31.84183085259981 30.1044
31.864983737233473 30.0452
31.88813795736804 30.1269
31.911474422233013 29.8992
31.934631327356435 30.0839
31.9577895715215 30.0616
31.980949155906522 29.9837
32.004291031706956 30.0409
32.027453310562606 29.9874
32.05061693318573 29.934
32.07396288236386 30.0266
32.09712920658542 29.9414
32.12029687812702 29.7303
32.14346589817093 29.7259
32.166817291729984 29.718000000000004
32.18998902288583 29.6545
32.21316210610336 29.5643
32.23633654256711 29.4402
32.259693399663725 29.4761
32.282870556771144 29.3981
32.30604907069099 29.423000000000002
32.329228942610065 29.193
32.35259128243769 29.1012
32.375773884550505 29.0111
32.398957848235646 28.9768
32.422143174682176 28.9155
32.445511016471215 28.8055
32.468699082679954 28.7775
32.49188851523011 28.7527
32.51507931531304 28.6866
32.538452678331 28.7723
32.56164622776311 28.6357
32.58484114831493 28.5074
32.60803744118015 28.5287
32.631416344731896 28.4884
32.654615396551876 28.549
32.67781582427913 28.5252
32.701198898634416 28.4263
32.72440209253756 28.3503
32.747606665947124 28.357
32.77081262006088 28.2171
32.79420126883317 28.1672
32.81740999876112 28.2361
32.840620112999424 28.1431
32.86383161274818 28.1652
32.88722585534586 28.0928
32.91044014056596 28.0968
32.933655814909734 27.9304
32.95687287957963 28.0313
32.98027273544904 27.9835
33.00349259526636 27.8614
33.026713849030116 27.9392
33.04993649794511 27.9348
33.073341986570746 27.807
33.09656744032826 27.828000000000003
33.11979429286444 27.7943
33.14302254538647 27.7591
33.166433686291185 27.7054
33.18966475336992 27.6623
33.212897224069096 27.6212
33.23613109959831 27.5886
33.259547912343415 27.546999999999997
33.2827846121627 27.6472
33.306022720453775 27.5272
33.32926223842861 27.3627
33.352684742614166 27.4848
33.37592709463173 27.5039
33.399170859982064 27.5275
33.422597648419426 27.4187
33.44584425514446 27.3571
33.46909227885668 27.2577
33.4923417207723 27.2106
33.51577423505344 27.1003
33.539026528130385 27.0233
33.56228024307245 27.0356
33.585535381098246 26.8742
33.60897364093058 26.8383
33.63223163992385 26.7767
33.6554910656699 26.686
33.678751919389796 26.7164
33.702195944520106 26.6274
33.72545966903325 26.6775
33.74872482519663 26.535999999999998
33.771991414233746 26.5156
33.79544122444841 26.5059
33.81871069412428 26.3549
33.84198160035767 26.3708
33.86525394437455 26.4299
33.88870955949969 26.3569
33.911984794020626 26.3659
33.93526147001624 26.329
33.958539588715006 26.2932
33.98200102861669 26.1671
34.0052820477047 26.0852
34.02856451319451 26.1676
34.05203033759056 26.1057
34.07531571090147 26.0457
34.09860253431845 26.0827
34.121890809074316 25.9321
34.145362493118924 25.8586
34.16865368561615 25.8872
34.191946333164054 25.8417
34.21524043699793 25.7344
34.23871800066799 25.7127
34.26201503218366 25.5961
34.28531352370466 25.6996
34.30861347646881 25.5851
34.33209693978188 25.5827
34.3553998301885 25.5522
34.378704185565205 25.5235
34.402010007152356 25.3932
34.42549939016683 25.4026
34.44880815937748 25.2396
34.472118398533134 25.2603
34.49543010887669 25.3121
34.51892543169198 25.1978
34.54224009966052 25.1412
34.56555624255917 25.1288
34.58887386163339 25.092
34.61237514439016 25.0593
34.6356957311114 24.9738
34.65901779775809 24.9076
34.68252356662995 24.9162
34.705848608458616 24.9753
34.72917513396849 24.9192
34.75250314440949 24.9108
34.77601490857862 24.7481
34.799345904259795 24.6725
34.82267838863559 24.7067
34.846012362958525 24.7191
34.869530142679984 24.665
34.89286711232212 24.6156
34.91620557568269 24.5516
34.93954553401677 24.596
34.9630693495876 24.4861
34.986412313340814 24.5362
35.00975677584668 24.4253
35.033102738362956 24.3977
35.05663261012228 24.3204
35.0799815881786 24.4505
35.10333207003229 24.3522
35.12668405694369 24.2889
35.150220005273056 24.2641
35.17357501786656 24.1447
35.19693153931268 24.1993
35.220289570874385 24.1393
35.24383161619786 24.1283
35.267192683604904 24.1379
35.290555264930376 24.0223
35.314101899412165 24.0693
35.33746752422433 23.9846
35.36083466676374 23.9329
35.38420332829803 23.932
35.407756095629054 24.0389
35.43112781085063 23.9601
35.45450104888391 23.91
35.477875810999194 23.878
35.50143473172161 23.811999999999998
35.52481255774625 23.9073
35.54819191167777 23.7963
35.57157279478914 23.8505
35.595137889488406 23.7158
35.61852184675279 23.781
35.641907337029984 23.6757
35.665294361595684 23.7208
35.68886565090076 23.6232
35.7122557598848 23.6021
35.73564740699838 23.5596
35.759040593519934 23.5011
35.78261809810353 23.5062
35.80601437933051 23.4142
35.829412203814705 23.3764
35.85281157283719 23.2299
35.876395313415884 23.3217
35.8997977874528 23.201
35.92320180988546 23.2515
35.946790244133936 23.1498
35.97019737933222 23.2089
35.993606066789866 23.1469
36.01701630779276 23.0699
36.04061101440684 22.9634
36.06402437852291 22.9417
36.08743930005611 22.9181
36.1108557802951 22.8351
36.13445678011326 22.8765
36.15787639383515 22.7795
36.18129757014299 22.8191
36.20472031032821 22.8042
36.22832762423364 22.7129
36.25175350829375 22.7614
36.275180960119776 22.6934
36.298609981005924 22.758000000000003
36.32222362992669 22.6296
36.34565580510207 22.6569
36.36908955323448 22.6391
36.39252487562093 22.5433
36.416144880530226 22.4945
36.43958336764275 22.4623
36.463023432914625 22.441
36.486465077645676 22.342
36.51009145956204 22.4226
36.53353627947859 22.4244
36.55698268276811 22.3823
36.58043067073321 22.3473
36.60406345072071 22.2099
36.62751462435344 22.1986
36.65096738658405 22.2178
36.67460498210655 22.1985
36.69806093788647 22.2329
36.72151848619297 22.1521
36.744977628333636 22.0634
36.76862165890998 22.0407
36.79208400512205 22.0022
36.81554794910557 22.0242
36.83901349217101 21.9335
36.862663978991606 21.88
36.88613273667352 21.8126
36.90960309738324 21.8456
36.933075062434064 21.7981
36.95673202673572 21.7482
36.98020721697122 21.7227
37.003684015502365 21.5949
37.027162423645365 21.5712
37.050825886711465 21.6044
37.07430753063053 21.5305
37.09779078812467 21.5163
37.121275660513014 21.534000000000002
37.144945643673694 21.4367
37.16843376245278 21.4244
37.19192350009803 21.4642
37.215414857931435 21.3673
37.239091382563885 21.2803
37.262585997426164 21.267
37.28608223645736 21.324
37.309763684451696 21.2085
37.33326318851098 21.1415
37.356764320726555 21.1403
37.380267082425526 21.1822
37.40395510942588 21.0767
37.42746114683234 21.0207
37.45096881771841 20.9874
37.474478123414166 20.9731
37.49817275092816 20.9601
37.52168534303452 20.9844
37.54519957395567 20.8971
37.568715445024665 20.8386
37.592416694607714 20.7618
37.61593586281424 20.836
37.63945667518264 20.8625
37.66297913304891 20.8335
37.68668702630454 20.6394
37.710212792059274 20.6252
37.733740207334854 20.6713
37.757269273470364 20.6318
37.780983832050374 20.5336
37.80451621684926 20.5214
37.82805025654007 20.5492
37.851585952464795 20.5129
37.8753071980695 20.4027
37.89884622345676 20.3631
37.92238690911902 20.3886
37.94611318753442 20.2898
37.969657210779765 20.2144
37.99320289834801 20.2766
38.016750251586465 20.1758
38.04048325513017 20.1037
38.06403395679343 20.1175
38.087586328183946 20.1025
38.11114037065203 20.1657
38.13488012115898 20.0533
38.1584375229181 20.0337
38.181996599821 19.9214
38.205557353221124 19.9385
38.229303872575656 19.8964
38.2528679961576 19.8428
38.27643380031219 19.9145
38.30000128639589 19.8395
38.32375459653193 19.8031
38.34732546371299 19.7696
38.37089801690786 19.7015
38.39447225747609 19.6673
38.418232380377425 19.6571
38.441810012983396 19.6256
38.46538933705673 19.6439
38.488970353960084 19.676
38.51273731166058 19.6529
38.536321731567014 19.5208
38.55990784840681 19.5088
38.58367995004091 19.469
38.60726947812959 19.4252
38.63086070726198 19.4109
38.654453638806274 19.4052
38.678232613930824 19.3134
38.70182896773327 19.2848
38.72542702806741 19.2693
38.7490267963045 19.2782
38.77281266709232 19.2416
38.79641586862214 19.1664
38.8200207821842 19.107
38.843627409152944 19.1279
38.86742019782782 19.1051
38.891030269149255 19.0638
38.914642058016156 19.0143
38.938255565806124 19.0205
38.96205529464307 19.0001
38.98567225787121 18.9612
39.00929094417078 18.9591
39.03291135492255 18.8957
39.05671804624804 18.8679
39.080341923549106 18.8016
39.103967529460334 18.7898
39.127594865365744 18.6407
39.15140854155791 18.6608
39.17503935514948 18.6797
39.19867190290282 18.7358
39.22249083587951 18.7006
39.24612686969409 18.7124
39.269764641845306 18.6269
39.293404153722804 18.5847
39.317230110864074 18.5071
39.34087311998506 18.4709
39.36451787301696 18.5087
39.388164371352595 18.4022
39.41199737518003 18.4037
39.43564738196752 18.3687
39.45929913825317 18.3313
39.48295264543308 18.3149
39.506792718520884 18.2692
39.530449745387216 18.2017
39.55410852735203 18.1935
39.57776906581474 18.1909
39.60161623079 18.1354
39.625280300200025 18.1717
39.64894613032202 18.1222
39.67261372255866 18.0563
39.6964680021016 18.0964
39.72013913657293 18.0513
39.74381203738292 17.935
39.76748670593756 17.9972
39.79134812278169 17.9735
39.81502634488497 17.9623
39.83870633896685 17.9353
39.862388106436654 17.8231
39.88625668336918 17.8496
39.90994201572829 17.8966
39.933629125719285 17.7829
39.957503091207826 17.7519
39.9811937746168 17.8086
40.00488623990914 17.6697
40.02858048850006 17.7204
40.05246165409549 17.5725
40.076159487492085 17.5601
40.099859108448875 17.5923
40.123560518384345 17.5856
40.1474489070226 17.5326
40.171153913178564 17.4747
40.194860712584955 17.4904
40.2185693066637 17.5051
40.242464941335314 17.3953
40.26617714307655 17.3755
40.289891143772046 17.3599
40.3136069448471 17.3531
40.33750984859743 17.3101
40.3612292688043 17.2958
40.3849504936829 17.2812
40.40867352466194 17.2304
40.43258372059144 17.1907
40.45631038219906 17.1726
40.48003885420956 17.109
40.503769138055105 17.1993
40.52768664931955 17.1364
40.55142057531802 17.0763
40.57515631746428 17.1002
40.599079334038514 17.0452
40.62281872700477 16.9462
40.64655994043941 16.9043
40.67030297578061 16.8781
40.69423334835778 16.8901
40.71798004609188 16.8695
40.74172857006355 16.8151
40.76547892171441 16.8566
40.7894166736039 16.8313
40.813170699248566 16.7562
40.83692655691388 16.7352
40.86068424804498 16.7594
40.884629402612525 16.6929
40.908390779366385 16.7424
40.932153993938 16.7077
40.95591904777605 16.6986
40.979871628443995 16.6196
41.003640379561936 16.6025
41.02741097430883 16.5189
41.05118341413683 16.5438
41.075143444384416 16.4848
41.098919593177826 16.4824
41.1226975914255 16.4362
41.14647744058318 16.4083
41.170444943946755 16.3451
41.19422851378379 16.3886
41.218013938914645 16.3302
41.24198706625173 16.2363
41.26577622087193 16.2352
41.289567235177785 16.1947
41.31336011063129 16.1105
41.337340752422875 16.1385
41.361137369129835 16.1323
41.38493585138705 16.1453
41.40873620066004 16.0825
41.43272438060107 16.0232
41.45652848292052 15.9979
41.48033445666918 15.9949
41.50414230331616 15.9629
41.528138045159764 15.9865
41.551949656675205 15.9191
41.575763145513235 15.9112
41.59957851314666 15.8835
41.62358184070442 15.8247
41.64740098505737 15.8376
41.6712220126409 15.8246
41.69504492493139 15.7775
41.71905586207357 15.7294
41.74288256296395 15.6987
41.766711153007456 15.6911
41.79054163368412 15.6744
41.814560204340054 15.6743
41.838394485526365 15.6081
41.86223066180303 15.5772
41.88625497706819 15.5393
41.910094962812 15.5462
41.93393684811168 15.4751
41.95778063445365 15.453
41.981812625263366 15.4901
42.00566023303407 15.440999999999999
42.029509746323676 15.4071
42.05336116662236 15.3624
42.077400857069705 15.3468
42.10125611078846 15.342
42.12511327600405 15.3621
42.14897235421036 15.2815
42.173019768448455 15.2948
42.19688269209613 15.2645
42.22074753323349 15.2002
42.24461429335818 15.1515
42.268669455600495 15.1302
42.292540073217886 15.126
42.31641261433284 15.1173
42.34028708044675 15.1052
42.36435001496739 15.1074
42.38822835065557 15.0637
42.41210861586426 14.9745
42.4359908120986 14.9951
42.46006154323262 14.9522
42.48394762115317 14.8876
42.507835634632315 14.9224
42.531912233047436 14.8906
42.55580413732265 14.9022
42.579697981698 14.8015
42.60359376768525 14.7759
42.62767820545945 14.845999999999998
42.65157789440821 14.7612
42.67547952952185 14.7498
42.699383112316 14.7315
42.72347541395347 14.683
42.74738291190531 14.6375
42.771292362102166 14.6213
42.795203766063516 14.5884
42.819303956130405 14.5155
42.843219287476536 14.4903
42.86713657716324 14.527999999999999
42.89105582671383 14.465
42.91516392983864 14.4941
42.939087119032166 14.4757
42.963012272677304 14.4182
42.98693939230129 14.4442
43.01105543317513 14.3104
43.034986504731386 14.3358
43.05891954686589 14.2883
43.08285456110972 14.2675
43.10697856448665 14.2364
43.130917542983475 14.2276
43.15485849820081 14.2277
43.17880143167367 14.1956
43.20293342237094 14.1614
43.226880332449 14.1375
43.25082922540554 14.145
43.27496722682525 14.0623
43.29892010567796 14.0308
43.32287497204102 14.0607
43.34683182745632 13.992
43.370977859791836 13.9974
43.39493871351105 13.9863
43.41890156092628 13.9499
43.44286640358341 13.9393
43.46702049182749 13.9033
43.49098934522816 13.8941
43.51496019852649 13.8554
43.5389330532723 13.8421
43.56309522248204 13.7875
43.58707210044314 13.7392
43.61105098451946 13.8066
43.63503187626491 13.7312
43.659202151562134 13.7041
43.68318707902681 13.7233
43.70717401884041 13.6904
43.731162972560874 13.6155
43.75534137913236 13.587
43.779334381108384 13.5926
43.803329401683186 13.5766
43.82732644241872 13.5478
43.8515130055166 13.5703
43.87551410707659 13.5397
43.89951723350145 13.5018
43.923709934595614 13.4887
43.94771713129917 13.4135
43.97172635758096 13.4125
43.99573761501002 13.374
44.0199385169922 13.3428
44.04395385732619 13.3439
44.067971233533086 13.3237
44.09199064718605 13.2971
44.11619977548961 13.2816
44.14022328470671 13.2627
44.16424883610785 13.2714
44.18827643127035 13.2215
44.21249381139513 13.1764
44.236525514814076 13.162
44.26055926674478 13.1576
44.28459506876863 13.1079
44.3088207262813 13.1097
44.33286064928722 13.0888
44.35690262714919 13.0749
44.38094666145278 13.0161
44.4051806219871 13.0166
44.42922879003185 12.9829
44.45327901929361 12.9264
44.477331311362136 12.9393
44.501573600619416 12.8384
44.525630039221795 12.8624
44.54968854541895 12.9073
44.573937102200176 12.8805
44.5979997645541 12.8452
44.622064499300315 12.8257
44.64613130803592 12.7981
44.67038823869318 12.7306
44.69445921643748 12.7412
44.718532272981385 12.7024
44.742607409926194 12.6557
44.76687274034801 12.6266
44.79095205918753 12.5933
44.81503346325094 12.6305
44.839116954143876 12.6082
44.86339071028742 12.6157
44.88747839599524 12.5722
44.91156817336837 12.5363
44.93566004401666 12.5036
44.959942251908146 12.5567
44.984038330325966 12.4884
45.00813650686762 12.3954
45.03223678314731 12.3846
45.05652746888232 12.4202
45.08063196592069 12.3608
45.104738567558705 12.3693
45.128847275414856 12.3172
45.15314646515866 12.2338
45.17725940679741 12.2879
45.20137445952892 12.2553
45.22568004865265 12.2359
45.24979934496396 12.2488
45.27392075725247 12.2185
45.29804428714431 12.1808
45.322358426247604 12.1936
45.346486212804315 12.1178
45.370616121861914 12.0851
45.39474815505086 12.0841
45.41907087049246 12.065
45.4432071734666 12.0039
45.46734560548283 12.0338
45.49148616817604 12.0382
45.51581748638564 12.005
45.5399623320197 11.9514
45.56410931325473 11.9426
45.58825843173002 11.9463
45.61259837920865 11.937999999999999
45.636751793816 11.8707
45.66090735060093 11.8581
45.68506505120716 11.8154
45.7094136545275 11.82
45.73357566449271 11.8014
45.75773982322992 11.74
45.78190613238733 11.789000000000001
45.806263418194064 11.739
45.83043404997326 11.7116
45.85460683713677 11.6678
45.87897065658495 11.6351
45.90314777634752 11.6143
45.92732705646868 11.6135
45.9515084986045 11.6241
45.97588104735473 11.5804
46.00006683541565 11.5161
46.02425479047904 11.5276
46.04844491420549 11.4979
46.0728262191024 11.4908
46.09702070211635 11.4972
46.12121735879483 11.4739
46.14541619080294 11.4312
46.169806278764455 11.4481
46.194009483459034 11.4234
46.21821486849841 11.3754
46.24242243555223 11.3378
46.266821333570014 11.3545
46.29103328674601 11.324000000000002
46.31524742696538 11.2961
46.33946375590237 11.2518
46.36387149104216 11.2756
46.38809221957392 11.2154
46.41231514186606 11.2104
46.436540259597464 11.1981
46.460956858999374 11.1614
46.48518638983522 11.1514
46.509418121166966 11.1477
46.533652054678114 11.1557
46.55807754555709 11.0884
46.58231590571962 11.0784
46.60655647313217 11.0373
46.630988654873654 11.0246
46.655233659129024 11.0003
46.67948087571551 10.969000000000001
46.70373030632484 10.9776
46.72817142736393 10.9611
46.752425308428684 10.9207
46.77668140861147 10.8893
46.80093972960865 10.8579
46.82538981736788 10.8749
46.849652602470904 10.8522
46.87391761349769 10.8026
46.8981848521493 10.7982
46.9226439341274 10.7831
46.946915650573224 10.7655
46.97118959976749 10.7759
46.99546578341598 10.7303
47.019933887188216 10.7035
47.04421456235744 10.6989
47.06849747711879 10.6497
47.09278263318286 10.6323
47.11725978640143 10.6182
47.14154944775105 10.6106
47.165841355555656 10.6034
47.1901355115306 10.5677
47.214621741924994 10.5474
47.23892041698887 10.5127
47.26322134538975 10.502
47.28771440635075 10.4411
47.31201986422527 10.4416
47.33632758061436 10.4526
47.360637557241866 10.4501
47.38513974410611 10.4459
47.40945426407847 10.3859
47.43377104948137 10.4155
47.45809010204344 10.3737
47.48260144275502 10.3574
47.506925052572285 10.2936
47.53125093475548 10.2757
47.55557909103813 10.2475
47.58009961361992 10.2479
47.60443234110732 10.2291
47.62876734791564 10.2095
47.65310463578333 10.2133
47.6776343683373 10.2097
47.7019762413987 10.1472
47.72632040075572 10.15
47.75066684815169 10.1279
47.77520581885936 10.1054
47.799556865477655 10.1121
47.823910205386 10.0885
47.84826584033272 10.0603
47.87281407745551 10.0318
47.89717432569297 10.0193
47.92153687423484 10.0309
47.94609208429692 9.99929
47.97045925671401 9.99832
47.99482873471275 9.95229
48.01920052005013 9.91661
48.04376504619224 9.90241
48.068141469543484 9.90958
48.09252020552573 9.855410000000001
48.11690125590099 9.85549
48.1414751266064 9.84923
48.16586082917454 9.85079
48.19024885144316 9.82665
48.2146391951793 9.803180000000001
48.239222439012764 9.80638
48.26361744916137 9.77299
48.28801478610016 9.75329
48.31241445160131 9.737260000000001
48.337007097209366 9.725710000000001
48.36141144338331 9.69468
48.38581812345755 9.63648
48.41022713920929 9.60158
48.434829215320704 9.65368
48.45924292604658 9.65116
48.48365897780325 9.62663
48.50807737237308 9.59752
48.532688907799276 9.56665
48.55711201168574 9.57255
48.581537463754074 9.54861
48.60615611725119 9.53348
48.63058628942721 9.54503
48.65501881516546 9.4875
48.6794536962573 9.47134
48.70408185970339 9.4486
48.72852147531801 9.42442
48.75296345168211 9.39458
48.77740779059232 9.37457
48.80204549302823 9.38764
48.82649458091802 9.3986
48.85094603676547 9.36883
48.87539986237231 9.337489999999999
48.90004713292306 9.31039
48.92450572200832 9.28017
48.94896668628025 9.269210000000001
48.97343002754588 9.26642
48.99808689542115 9.262189999999999
49.02255501470614 9.241060000000001
49.04702551642794 9.21631
49.0714984023988 9.199580000000001
49.096164896893235 9.12922
49.120642575466796 9.14205
49.145122643748394 9.16237
49.16960510355558 9.12395
49.19428125404938 9.08665
49.2187685210852 9.07737
49.243258185121555 9.04154
49.26794160167084 9.0163
49.2924360839405 9.02036
49.31693296869764 9.01121
49.34143225776915 8.987160000000001
49.36612538195438 8.936810000000001
49.39062950396021 8.96183
49.41513603578346 8.94337
49.4396449792564 8.89232
49.46434784069503 8.89357
49.488861631846454 8.925930000000001
49.513377840166804 8.87541
49.537896467493745 8.85321
49.56260909589029 8.83066
49.587132585683285 8.84153
49.611658500018365 8.81551
49.636186840738596 8.778960000000001
49.66090926588511 8.7775
49.685442483902584 8.74671
49.70997813385706 8.72259
49.734516217597076 8.712010000000001
49.75924846937352 8.71135
49.7837914452858 8.70894
49.80833686055187 8.68533
49.83288471702571 8.65542
49.85762682540054 8.65265
49.882179588965734 8.64231
49.9067347993235 8.593630000000001
49.93129245833333 8.57426
49.95604445336378 8.60688
49.98060703442832 8.58051
50.005172069746266 8.56899
50.02993150438364 8.53253
50.05450147301533 8.51785
50.07907390151433 8.47171
50.10364879174981 8.47358
50.12841816587289 8.48023
50.1529980044635 8.462819999999999
50.17758031042124 8.42455
50.20216508562089 8.39209
50.22694442953363 8.38781
50.25153416817468 8.37909
50.27612638170508 8.386460000000001
50.300721072005196 8.34497
50.325510416102105 8.31645
50.350110084975064 8.29827
50.37471223628208 8.30176
50.39931687190919 8.317210000000001
50.424116246675766 8.26465
50.44872587605249 8.26437
50.47333799543065 8.24779
50.49795260670191 8.22632
50.52276204271512 8.18649
50.54738166295838 8.2124
50.57200378079314 8.161810000000001
50.596628398116835 8.15414
50.62144792604559 8.15973
50.646077567609396 8.15204
50.670709714377715 8.18326
50.69553683636198 8.11063
50.72017401885922 8.10063
50.7448137122895 8.069460000000001
50.76945591856022 8.05932
50.79429318636823 8.05437
50.818940443716784 8.03085
50.84359021965163 8.026480000000001
50.868242516085964 8.00035
50.893089960641895 7.974480000000001
50.917747323549435 7.94035
50.94240721271973 7.92943
50.96706963007175 7.90667
50.99192728239342 7.910539999999999
51.01659478166073 7.87886
51.04126481489051 7.89301
51.06593738400761 7.86153
51.090805275207074 7.829
51.11548294172845 7.83436
51.14016314993547 7.838480000000001
51.164845901758845 7.81992
51.18972406304274 7.78171
51.21441192780656 7.7505
51.23910234200271 7.7617899999999995
51.2637953075678 7.730910000000001
51.288683770237945 7.7137899999999995
51.31338186432707 7.7027399999999995
51.33808251561888 7.70096
51.362978729967345 7.70649
51.387684521509755 7.674860000000001
51.41239287610203 7.6407
51.437103795691165 7.63545
51.46201036644977 7.62588
51.486726441956634 7.5789100000000005
51.51144508832545 7.5662899999999995
51.536166307509156 7.55715
51.56108326624387 7.5316
51.58580965706056 7.52181
51.61053862657523 7.480360000000001
51.635270176746864 7.47722
51.66019755512065 7.484960000000001
51.68493429268881 7.440639999999999
51.70967361681515 7.4618
51.73441552946465 7.422630000000001
51.759353359237934 7.426310000000001
51.7841004750961 7.4363399999999995
51.80885018539685 7.394489999999999
51.833602492111254 7.3829199999999995
51.8585508051424 7.33621
51.883308330926425 7.31877
51.90806845906181 7.315119999999999
51.932831191525715 7.32729
51.95779001977161 7.27906
51.98255798721516 7.26007
52.00732856494335 7.22348
52.03229530577543 7.269369999999999
52.057071130455945 7.249110000000001
52.081849571391054 7.22986
52.106630630568695 7.22847
52.13160794279417 7.17605
52.15639426492067 7.1881
52.18118321127822 7.16257
52.205974783860896 7.16989
52.23096269971011 7.13421
52.255759551287994 7.12087
52.280559035098186 7.0703
52.30536115314103 7.066
52.33035970494467 7.107589999999999
52.35516711807904 7.07442
52.37997717147198 7.04056
52.40478986713005 7.02733
52.42979908731974 7.002260000000001
52.454617094216 6.9998
52.47943774942214 6.98505
52.50426105495102 6.97957
52.529280976059844 6.97094
52.554109609024096 6.95965
52.57894089837482 6.951219999999999
52.60377484613117 6.944710000000001
52.62880550079408 6.908980000000001
52.65364479223379 6.86804
52.67848674816189 6.86755
52.70352547971946 6.86637
52.72837279155837 6.843999999999999
52.753222773982785 6.83471
52.778075429022984 6.823589999999999
52.80312495150885 6.820880000000001
52.827982978797436 6.80705
52.85284368481815 6.78078
52.87770707160767 6.75482
52.90276741793998 6.779539999999999
52.92763619336701 6.750589999999999
52.952507655698504 6.722510000000001
52.977381806977576 6.69638
53.00245301017842 6.701739999999999
53.02733256653592 6.682810000000001
53.052214817996074 6.649589999999999
53.077099766608484 6.62918
53.102181859804446 6.61463
53.127072229988265 6.649610000000001
53.15196530349892 6.59085
53.17686108239249 6.579910000000001
53.20195409881522 6.578989999999999
53.22685531582556 6.5543
53.25175924441303 6.54312
53.27666588664027 6.53148
53.30176985962693 6.51466
53.3266819565689 6.52952
53.35159677336455 6.49746
53.376514312083096 6.45593
53.40162927507703 6.50476
53.42655228516116 6.47158
53.45147802340193 6.3983
53.47660125628886 6.37564
53.50153247842639 6.40735
53.52646643496923 6.3343
53.55140312799818 6.37827
53.576537409691696 6.34197
53.60147960336152 6.32417
53.626424539786164 6.36891
53.65137222105307 6.314830000000001
53.67651758529126 6.30385
53.70147078399681 6.26693
53.72642673383343 6.277769999999999
53.75138543689533 6.30889
53.776541917524526 6.2691099999999995
53.801506154876755 6.21356
53.826473151763246 6.23588
53.851442910284916 6.17851
53.87661054126026 6.21394
53.9015858509782 6.21194
53.92656392866066 6.18142
53.95154477641532 6.169580000000001
53.976723591801296 6.109319999999999
54.00171000771266 6.16643
54.02669920004598 6.13724
54.051691170915745 6.08122
54.076881204886796 6.066319999999999
54.101878760928514 6.08024
54.12687910187696 6.04247
54.152077577768296 6.00899
54.1770835166946 6.002669999999999
54.20209224691339 6.0023800000000005
54.22710377055121 6.01434
54.25231352511594 5.97733
54.27733066384342 5.92835
54.30235060239643 5.92521
54.32737334290836 5.893759999999999
54.35259441062629 5.85843
54.377622783395324 5.83927
54.40265396455061 5.89649
54.42768795623251 5.85655
54.45292037169559 5.81639
54.477960012857906 5.81694
54.50300247099511 5.7496
54.52804774825457 5.74335
54.55329154616743 5.74137
54.57834249018678 5.7222
54.6033962597977 5.6792
54.6284528571545 5.66925
54.653708072335164 5.60404
54.67877035378786 5.61375
54.70383546947698 5.60491
54.72890342156389 5.5725
54.7541700889442 5.56199
54.77924374251975 5.58451
54.8043202390049 5.53651
54.82959552413022 5.50654
54.8546777351945 5.46603
54.87976279569621 5.45512
54.90485070780914 5.45202
54.930137506558005 5.40456
54.95523115074295 5.45402
54.98032765308844 5.36954
55.005427015775496 5.354369999999999
55.03072536339621 5.35873
55.05583047570572 5.323180000000001
55.080938454927676 5.2893
55.10604930325027 5.28512
55.131359235107396 5.2421
55.15647585066083 5.182519999999999
55.181595341907496 5.1569400000000005
55.20671771104285 5.15254
55.232039262617704 5.1144099999999995
55.25716741665048 5.0818
55.28229845518636 5.100280000000001
55.30743238042802 5.07166
55.33276558731939 4.99181
55.357905315183636 5.00981
55.383047936390035 4.96769
55.40819345314859 4.99377
55.433538351073295 4.98886
55.458689688238415 4.94804
55.483843927614096 4.89311
55.509197623043605 4.86315
55.53435769621134 4.8207699999999996
55.55952067826466 4.7956900000000005
55.5846865714265 4.81429
55.61005202069737 4.74867
55.63522376553902 4.78368
55.66039842818645 4.80462
55.68557601087004 4.83448
55.7109532500271 4.69886
55.73613670233794 4.71915
