TT I
1.2716486653135266 7.5647
1.2939594142134223 7.36865
1.3162702121660406 6.97145
1.3385810600174564 6.286169999999999
1.3608919586137629 6.85843
1.383202908801069 7.497269999999999
1.405513911425503 7.035260000000001
1.4278249673332093 6.6104199999999995
1.4501343378461518 6.12862
1.4724455028545926 6.04609
1.4947567236847858 5.8276
1.517068001182951 5.97464
1.5393793361953272 6.0257
1.5616907295681737 4.75737
1.5840021821477681 4.81651
1.60631369478041 5.281569999999999
1.6286252683124185 6.01272
1.6509369035901333 5.02351
1.6732468618895553 5.42844
1.695558623192809 5.22697
1.7178704487808514 4.79765
1.7401823395001077 4.87295
1.7625012545597203 5.10326
1.7848028405262486 5.41845
1.8071218901122095 5.25012
1.8294236121921872 4.36899
1.8517427996910911 4.87102
1.8740620574440425 4.8612
1.8963639900671978 4.95521
1.9186833908139995 5.12777
1.9409854680117449 5.01449
1.9633050151394713 4.115469999999999
1.9856246367570705 4.51045
2.0079269371922672 4.6692800000000005
2.03024671027244 5.24876
2.0525491637446027 4.40459
2.074869091674931 4.64104
2.097171701569106 4.85524
2.1194917877373847 5.12673
2.141811954326636 4.39593
2.164114805233074 4.75025
2.186435135143035 5.81495
2.208738150935709 13.46
2.231058647554722 25.3394
2.2533792288321184 20.0932
2.275682498336085 9.45555
2.298003251406138 5.9935
2.3203066942619714 5.24121
2.3426276225136022 5.05794
2.3649486396617507 5.46852
2.387252348930071 5.20038
2.4095735463442893 4.84815
2.4318774374315884 5.3747300000000005
2.4541988185014043 5.94335
2.476502894794693 6.45575
2.498824462909887 6.46316
2.521146125856138 6.7273
2.5434504863470337 6.78844
2.5657723414244717 6.8003100000000005
2.588076895590662 7.199510000000001
2.610398946189713 6.749460000000001
2.6327210958598384 6.93726
2.6550259469304716 7.2306
2.6773482972090137 7.027019999999999
2.6996533504259 7.3323100000000005
2.7219759047039602 7.76645
2.744298562293959 7.57107
2.7666039251246595 7.30578
2.7889267918020164 7.818639999999999
2.8112323652516555 7.97155
2.833555444408179 8.16409
2.8558786311183852 7.8087
2.8781845268938557 8.62637
2.9005079311721484 9.153189999999999
2.9228140460410397 9.359169999999999
2.9451376712799635 9.188130000000001
2.967444008632326 8.884319999999999
2.9897678582247247 9.38751
3.0120918213106695 10.0271
3.0343984987899373 10.7044
3.0567226913198637 11.0743
3.079029599759726 11.7095
3.101354025127254 12.1146
3.123678568232338 12.76
3.145985829517914 12.8917
3.16831061055229 13.6363
3.1906181112775593 14.1627
3.212943133635653 14.4576
3.2352682779763207 14.8808
3.2575761442691227 15.3069
3.2799015350264273 15.8872
3.302209649240067 16.3115
3.3245352898092655 16.8383
3.3468436553365257 17.3911
3.369169549113219 17.86
3.3914955708171384 18.9078
3.413804319727358 18.9666
3.4361305997334863 19.3126
3.4584396084414553 19.7785
3.4807661501462652 20.8542
3.503092824025881 21.1595
3.5254022288463154 21.3454
3.5477291695206588 21.4103
3.5700388426251948 22.6274
3.5923660534916446 24.0769
3.6146934007816114 37.3748
3.637003482731501 83.1416
3.6593311053109985 90.3049
3.681641464033634 53.9628
3.7039693653009733 30.6668
3.726297407241705 26.3047
3.7486081875460804 26.2371
3.7709365132734978 26.1086
3.793247578841633 26.7673
3.8155761917550093 27.098000000000003
3.8378875459837216 27.1589
3.8602164494827234 27.685
3.882545499606844 28.4477
3.9048572932539183 29.6147
3.9271866390645718 30.0289
3.9494987298666713 30.1419
3.971828374764527 30.737
3.9941581705403255 31.4908
4.016470713506008 32.047
4.038800813471445 32.5932
4.061113662089144 33.2533
4.0834440696459176 34.3064
4.105774632334751 34.8945
4.128087945865126 35.5204
4.150418821249301 36.5517
4.172732448931298 37.4961
4.195063640413578 39.4275
4.2173775856475215 43.8481
4.239709096631102 73.7089
4.262040768704612 218.132
4.284355196706267 287.286
4.306687193387355 188.827
4.329001947444346 78.27
4.35133427213731 49.1514
4.373666762177566 45.4009
4.395982011761091 45.2087
4.418314834921175 46.7444
4.44063041906622 53.4262
4.4629635787515625 63.5206
4.4852969080429785 63.1964
4.5076130004776225 55.1394
4.529946671403969 52.81
4.552263106909177 52.1192
4.574597122877047 52.8457
4.596931312711224 53.3668
4.619248269273446 54.5482
4.6415828092605835 55.8081
4.663900117405352 56.795
4.686235010953232 58.1512
4.708552674085913 59.4018
4.730887924602802 60.7814
4.753223354952695 62.4349
4.775541557023902 64.1091
4.797877349456786 65.4577
4.820195915032126 67.5539
4.842532072957498 68.6336
4.864868414979744 71.194
4.88718753227192 74.1616
4.909524244902505 75.7015
4.931843734218147 77.3518
4.954180820867835 80.1846
4.976518095879839 83.616
4.998838149695359 86.6725
5.021175803844231 90.0044
5.043496238205739 93.5793
5.065834274903528 98.3373
5.088172504230693 104.53
5.1104935158799565 112.436
5.132832132875765 137.359
5.155153533596801 181.243
5.1774925416746225 229.99099999999999
5.199814334878411 479.401
5.2221537374521505 1346.51
5.244493338631803 3318.17
5.266815727034316 7207.15
5.289155727832427 11228.7
5.311478517248165 8874.12
5.333818921080011 3536.94
5.356159527788849 772.012
5.3784829252032536 225.868
5.400823940070432 161.77
5.423147747031976 138.906
5.445489173474152 127.285
5.467830807066149 120.735
5.490155234831516 115.96799999999999
5.512497285125229 110.911
5.534822130975162 108.165
5.557164601388673 105.99600000000001
5.579489868738879 102.654
5.601832762690846 101.742
5.6241758697774475 101.133
5.646501775867269 99.9214
5.668845311622074 98.478
5.691171647754637 97.728
5.713515615597765 96.2743
5.735859800852677 95.5189
5.758186788542988 95.5768
5.780531411018185 96.0524
5.802858837297399 95.5867
5.825203900414495 95.7139
5.8475491852224 96.4755
5.869877275883075 97.0231
5.892223006467101 97.4002
5.914551544266608 99.5594
5.936897724049891 103.256
5.959244129804903 111.27600000000001
5.981573344815301 137.278
6.0039202049061 260.707
6.026249875609095 574.7080000000001
6.04859719346037 1156.29
6.070927323278297 2245.18
6.093275102315365 3999.79
6.115623113320588 4985.87
6.137953938319995 3557.1
6.160302415650845 1268.05
6.182633708324452 315.992
6.2049826554078376 132.34
6.227331838745022 101.249
6.249663839443684 91.3256
6.27201349767565 86.8581
6.294345974611799 90.9398
6.316696111167083 100.389
6.339046488263839 95.2763
6.361379686074702 81.7774
6.383730546639482 74.2928
6.406064229255215 71.6836
6.428415576718203 70.6094
6.450749747566656 69.4194
6.47310158535871 68.2113
6.495453669698332 67.3296
6.517788579421056 66.6039
6.540141159237969 64.9988
6.562476565766648 64.6677
6.5848296444934045 64.4124
6.607182974060425 64.0168
6.6295191323281015 64.2954
6.651872965955752 67.3408
6.6742096296068985 89.9765
6.6965639707294615 131.80100000000002
6.71891856698715 131.202
6.741255995248479 92.1495
6.763611104154477 68.53
6.785949046381137 61.7544
6.808304671371482 60.4323
6.8306605557940046 59.8184
6.852999275508618 58.7207
6.875355681171544 58.4247
6.897694923437771 58.2343
6.92005185377892 57.9936
6.9423916220322655 58.0816
6.964749080490181 57.3804
6.987106804399774 56.8145
7.009447368180821 57.2583
7.031805625367033 56.7857
7.054146723727803 56.57899999999999
7.076505517631004 56.3024
7.098864581288365 56.5342
7.121206488070854 56.3879
7.143566093607822 56.2908
7.165908543567245 56.4291
7.188268694426048 56.3443
7.2106291193438095 56.7451
7.232972390625943 58.3743
7.255333366030969 69.4623
7.277677189091925 117.73299999999999
7.300038718428332 161.123
7.322400526130865 135.489
7.344745183422596 87.0202
7.367107550224791 62.5168
7.389452767901992 57.5955
7.411815697249891 56.6599
7.434161478756298 55.8688
7.456524974096713 55.8857
7.478888753837185 55.6384
7.501235387657368 55.9605
7.523599738562711 55.9801
7.545946944825532 56.391000000000005
7.568311870344528 56.6668
7.5906770845765665 56.9429
7.613025156078678 57.9458
7.635390950099687 59.2342
7.657739602662809 58.4572
7.680105979923558 57.464
7.702472650212829 57.4428
7.724822180948224 56.9805
7.747189439655568 57.2115
7.769539560075357 57.5529
7.791907410653562 58.1437
7.81425812420825 58.2588
7.836626570110925 58.2501
7.858995315087906 59.1989
7.881346924933401 59.1498
7.903716270417482 59.5497
7.926068482028405 59.9323
7.948438431475253 60.8616
7.9708086843180235 61.3447
7.993161805171116 61.9765
8.015532667162402 62.3162
8.037886398416653 63.2944
8.060257873014221 63.8934
8.082629655331942 64.2514
8.104984308787587 65.2384
8.127356708900503 68.3002
8.149711981398308 74.1405
8.172085002766314 76.1078
8.194458336181368 73.4988
8.216814543847752 70.9735
8.23918850371002 71.2688
8.26154533906492 71.9719
8.283919928836452 73.3914
8.306277395339652 74.5083
8.328652618483376 76.1559
8.351028159736202 77.9439
8.373386579575245 80.4781
8.395762759396959 82.6872
8.418121819038275 88.0433
8.440498640894003 101.044
8.462875785192262 115.705
8.485235811156207 134.145
8.507613602688501 189.388
8.529974277114228 297.982
8.552352719347912 452.67
8.574731488360351 713.043
8.59709314210385 1169.56
8.619472567021075 1691.79
8.64183487789147 2063.02
8.664214962183097 1845.45
8.686577933647762 1180.78
8.708958680784317 475.134
8.731339760774953 199.2
8.753703729764451 123.096
8.77608547780821 105.02799999999999
8.798450116065078 99.8017
8.820832535634787 96.3426
8.843215292401656 94.34100000000001
8.865580941199045 92.693
8.887964374703538 91.8815
8.910330701447199 92.6279
8.932714815164482 94.4786
8.955099270424924 93.6281
8.977466620733543 90.4812
8.999851761421976 87.7625
9.022219798361645 85.97399999999999
9.04460562795561 85.6529
9.066991803441677 85.4131
9.089360876979615 85.2747
9.111747746589993 84.8325
9.13411751544971 84.4348
9.156505082664324 84.1828
9.178875550323522 84.3466
9.20126381862328 84.2368
9.223652438908596 84.1543
9.246023961427412 84.355
9.26841328802173 84.2487
9.290785518039224 84.3449
9.313175554425882 85.5263
9.335565947154315 85.4223
9.357939245086508 85.5626
9.380330352834827 85.4449
9.40270436697103 85.5818
9.425096193225055 85.5195
9.447488380180165 86.3441
9.469863475295412 86.4543
9.492256385987508 86.9955
9.514632206018318 87.3028
9.537025843935714 87.9961
9.559402392368193 88.7791
9.581796761000229 90.1157
9.604191496441521 90.8608
9.626569144158516 94.6943
9.648964615551032 98.0859
9.671343000390081 99.7539
9.693739211225699 98.0773
9.716135793237463 95.9454
9.738515290448102 95.553
9.760912617143402 96.6146
9.783292860202891 98.3166
9.805690935076182 99.6971
9.828089385495742 100.66
9.850470754023561 103.01100000000001
9.872869957865444 110.36
9.89525208097539 124.411
9.917652041736662 136.312
9.940052382417589 138.171
9.962435644102392 153.582
9.984836746950979 200.528
10.007220771957746 282.847
10.029622640473708 400.89300000000003
10.052007432299963 579.46
10.074410069984072 838.41
10.096813093716005 1212.62
10.119199042482517 1600.07
10.141602840636468 1822.56
10.163989564971628 1693.74
10.186394141051062 1095.17
10.208799107559706 512.663
10.231187001965623 243.428
10.253592751657669 144.332
10.275981430388155 120.02
10.298387966769793 117.14200000000001
10.320794897965431 118.76799999999999
10.343184759907361 116.74700000000001
10.36559248305461 111.708
10.387983138083852 108.568
10.410391656691655 113.07600000000001
10.432800574501677 127.465
10.455192425893369 147.451
10.47760214443012 176.303
10.499994797678786 219.455
10.522405320453982 290.096
10.54479877906917 384.78
10.567210109595656 478.259
10.5896218454736 538.386
10.612016518879773 516.955
10.634429067781074 380.246
10.656824555333241 229.209
10.679237920773568 138.297
10.701651695961992 102.4
10.724048411481384 92.9376
10.746463008485165 89.5164
10.768860546937125 87.5641
10.791275969274796 85.6869
10.81369180576079 84.5392
10.836090585366925 83.4379
10.858507252467449 82.012
10.88090686379991 80.9458
10.903324365036394 80.226
10.925724811614439 80.2682
10.948143150509463 81.49600000000001
10.970561909719066 80.9417
10.992963615930844 78.8926
11.015383218085756 76.9038
11.037785768347074 75.1898
11.06020621697282 74.749
11.082627090322113 74.2181
11.105030913430326 73.7565
11.12745263854165 74.2155
11.149857314510728 77.1077
11.172279894912576 82.5457
11.194702904450653 82.7229
11.217108866490921 79.1183
11.239532736615194 75.3473
11.26193956033512 73.2617
11.284364294577085 71.9118
11.306789462371718 70.0221
11.329197585398376 69.3167
11.351623622610898 68.7949
11.37403261614354 67.8538
11.396459526308487 67.3722
11.418869393879497 67.2426
11.441297180532617 66.7894
11.463725406927658 66.747
11.486136592353875 66.3725
11.508565700543707 67.0099
11.530977768845315 68.7821
11.553407762368774 69.2612
11.575838200059769 68.8863
11.598251599479612 66.9576
11.620682927815501 65.5983
11.64309721895548 65.0922
11.665529441478206 64.8215
11.687962112597958 64.7399
11.710377748130886 64.8357
11.732811318753434 64.321
11.755227854859067 64.4574
11.777662328529495 64.5005
11.800079768750786 64.0938
11.822515149015453 63.9296
11.844950984084935 64.2438
11.867369787303163 64.0763
11.889806534289491 63.8616
11.912226250487029 64.5801
11.934663912939751 64.5527
11.9571020346363 64.501
11.979523127133968 64.5551
12.001962169624331 65.5052
12.024384183972964 66.8215
12.046824150809913 70.8628
12.069264581333726 77.0682
12.091687985297767 84.3167
12.11412934550045 93.4163
12.136553680195208 107.12200000000001
12.158995973632788 126.295
12.181438735204349 150.171
12.20386447284199 174.97099999999998
12.226308172985636 197.18900000000002
12.24873485024193 202.162
12.271179492516982 177.162
12.293607112949127 140.316
12.316052700916226 105.891
12.338498763250042 82.6297
12.360927805303868 72.3404
12.383374818673879 68.3916
12.405804812803074 66.4303
12.428252780773262 66.0392
12.45070122756722 66.1597
12.473132656675375 66.0393
12.49558206341869 66.3458
12.518014453510101 66.0442
12.540464823770117 66.2833
12.562915677315177 66.4584
12.58534951575545 67.1864
12.607801338171472 69.2516
12.630236146511358 73.8562
12.652688941369085 78.1719
12.675124723177234 78.3109
12.697578494048786 75.0053
12.720032754458185 71.3318
12.742470003354093 69.6539
12.764925245138771 69.876
12.787363476431278 69.9423
12.809819703166806 70.0926
12.83227642391173 71.2075
12.854716135692716 71.6031
12.877173846755147 72.6679
12.899614549869717 72.9825
12.9220732548287 73.8038
12.94453245827299 74.1342
12.966974655289818 75.3129
12.989434858002571 75.9281
13.011878055298721 76.6804
13.034339260862497 77.6786
13.056800969391883 78.968
13.079245674017244 81.6192
13.101708390774869 84.7028
13.12415410463411 93.1843
13.146617833206086 106.806
13.169064559883248 121.19200000000001
13.191529303857127 137.69799999999998
13.213994557076367 160.19799999999998
13.236442809902437 194.523
13.258909083908291 241.104
13.28135835851934 294.69599999999997
13.30382565690295 349.375
13.326293469022952 401.124
13.348744283242008 422.587
13.371213125129904 381.853
13.39366497011003 298.725
13.416134845360597 203.142
13.438605238843131 140.855
13.46105863690397 115.22
13.483530069144786 112.954
13.505984506951902 119.051
13.528456981549432 130.248
13.550929978879088 144.873
13.573385983253365 166.955
13.595860028340867 199.13
13.618317081455832 242.15900000000002
13.64079217790333 286.018
13.663250283359057 326.375
13.685726434770173 353.724
13.708203115221277 345.647
13.730662806148091 286.959
13.75314054697177 212.715
13.775601299246777 145.528
13.798080104050406 106.78399999999999
13.820559442405358 90.3745
13.843021793671388 84.8765
13.865502201420897 82.7253
13.887965623051947 81.8323
13.910447103807167 80.5308
13.932929122629764 79.2619
13.955394156785959 78.9528
13.977877254034569 77.8564
14.000343367582113 77.0712
14.022827546871707 76.4818
14.045294743423524 75.6657
14.06778000837062 75.1394
14.090265817715476 74.9496
14.112734645763819 74.6962
14.13522154619454 74.6471
14.157691466286913 74.4865
14.180179461423874 73.9815
14.202668005486178 73.3293
14.22513957064374 72.7864
14.247629214846473 72.2739
14.270101881097517 72.0136
14.29259262906496 72.4938
14.315083930490205 72.8219
14.337558255389705 73.1064
14.360050666019726 72.7379
14.382526101071944 71.8706
14.405019624534942 70.9548
14.427513705993134 70.4621
14.449990813291825 70.5995
14.47248601302899 70.4815
14.49496423954951 70.4973
14.517460561197822 70.9572
14.539939910570322 70.6326
14.562437357763558 70.9913
14.58493536931253 71.8294
14.607416409993311 72.7899
14.62991555254159 73.4843
14.652397725157423 73.6672
14.674898002342799 73.1973
14.697398848433282 72.5785
14.719882725991326 73.2202
14.74238471217934 74.4238
14.764869730765593 78.7579
14.787372860692983 83.1853
14.809876564079925 88.5351
14.83236330125751 95.051
14.854868153850365 103.399
14.877356041159485 116.006
14.899862046604186 131.908
14.922351087688757 152.811
14.944858249632887 175.395
14.967365991421232 197.229
14.989856770231246 211.535
15.012365673994204 214.24900000000002
15.03485761569738 196.565
15.05736768508665 161.877
15.07987833888692 127.47200000000001
15.102372032001655 98.83200000000001
15.124883856909658 81.7676
15.14737872204565 75.079
15.169891721717274 72.7418
15.192405310371893 72.5773
15.214901940621196 72.8348
15.237416709527137 72.9186
15.259914520936249 72.7589
15.282430473753607 71.9018
15.304947020131227 70.6476
15.327446610371178 69.8429
15.349964346154254 69.2308
15.372465126703139 68.5516
15.394984055556009 68.2249
15.417486030076159 68.1604
15.44000615566487 67.872
15.462526881230803 67.9391
15.485030653812652 68.069
15.507552581617434 68.0195
15.530057557334603 67.9186
15.55258069104857 67.755
15.575104429329837 67.9786
15.597611216864632 67.8612
15.620136166564563 67.8441
15.6426441664095 69.0248
15.665170331202765 72.2408
15.687697105158826 75.9203
15.710206930593545 79.9943
15.732734925158933 84.9309
15.755245972089478 91.0879
15.77777519094324 99.685
15.800287463046663 111.385
15.822817909869592 127.075
15.84534897229804 144.713
15.867863089299354 164.204
15.890395385222186 178.575
15.912910736597423 189.03900000000002
15.935444269699861 185.81900000000002
15.957978423016485 167.305
15.980495633101265 136.322
16.003031029129367 106.376
16.02554948280019 84.1497
16.048086125229432 71.9891
16.070623392487107 67.8211
16.09314371869582 66.362
16.11568223789321 65.363
16.13820381691126 64.2187
16.160743591742527 63.2126
16.183283996022084 62.2173
16.205807461423195 61.0375
16.228349126881973 60.5957
16.25087385432698 60.7321
16.27341678466365 60.1527
16.29594277784926 59.8368
16.31848697676433 59.9812
16.341031811604868 60.3478
16.36355971058487 60.6301
16.3861058195587 60.3995
16.40863499352978 59.1427
16.431182380342005 58.3204
16.453730407713202 57.7672
16.476261501364792 57.4621
16.498810812136167 57.2287
16.52134319004079 57.0834
16.54389378792203 57.0567
16.566445031001553 56.9779
16.588979342490088 56.7585
16.61153187824822 56.6036
16.634067483263312 56.2722
16.656621315414416 56.1797
16.679175797408888 56.0796
16.701713349928728 55.9721
16.72426913389191 56.1176
16.74680798922351 56.4984
16.76936507887444 56.434
16.791905240734874 56.4414
16.814463639794468 56.1234
16.837022695210294 56.0152
16.859564824093756 56.5699
16.882125194503903 57.4231
16.904668639217885 58.0046
16.927230328348003 58.0873
16.949792678493612 58.2893
16.972338104193863 57.5043
16.994901778652235 57.1088
17.017448529496576 57.0477
17.040013531998152 57.3771
17.06257920018044 58.0309
17.0851279459922 59.0169
17.107694947817667 59.8957
17.130245028099072 60.9437
17.15281336730298 62.2318
17.17536478578733 63.7754
17.19793446610687 65.9462
17.220504818648422 68.4845
17.243058251703697 70.9794
17.265629950971032 74.7191
17.288184731571736 78.2216
17.310757781306908 81.8552
17.33333150794385 83.6804
17.355888317140174 83.3557
17.37846339986244 80.0224
17.401021565958885 74.8156
17.42359800851343 69.012
17.44617513265564 64.8124
17.468735341390783 62.2188
17.491261035594565 60.9884
17.51396340099364 60.566
17.536490463869136 60.8213
17.559018209820174 61.0219
17.58154663977963 60.7463
17.604251766089718 61.2055
17.626781572227713 61.1837
17.64931206518155 61.3501
17.671843245885103 61.9529
17.69455114821572 62.4613
17.717083712612634 62.6511
17.739616967569667 62.8169
17.762150914021706 63.0159
17.78486160749854 63.0829
17.807396945166804 63.6273
17.829932977143503 64.8102
17.85246970436452 66.8094
17.875183204129467 68.7582
17.897721330097664 71.2959
17.920260154126645 74.1461
17.942799677153296 77.3236
17.9655159983646 80.9057
17.988056927677544 85.9358
18.010598558807683 93.0334
18.033140892692916 101.28299999999999
18.05586005052525 109.684
18.07840379824407 118.70200000000001
18.10094825154059 127.775
18.12366954819864 136.001
18.146215420998306 140.14700000000002
18.16876200220057 136.363
18.191309292745153 125.194
18.214033452627167 112.68799999999999
18.236582170236648 100.00200000000001
18.259131600016456 91.74700000000001
18.281681742907335 89.7555
18.304408781233683 91.7403
18.32696035875955 95.2695
18.349512652227624 98.8592
18.372065662579683 102.96700000000001
18.394795594587553 105.306
18.41735004715306 104.352
18.43990521943684 99.4846
18.46246111238171 92.154
18.485193953325208 82.4432
18.507751296070428 73.9415
18.530309362314178 68.9803
18.552868153000343 65.6886
18.57560391815056 64.1032
18.59816416623245 63.6491
18.620725141597372 63.0121
18.643286845190268 62.5185
18.666025549835414 62.0369
18.688588718427933 61.5511
18.711152618092243 61.3828
18.73389353884365 61.081
18.75645890921984 60.591
18.77902501351406 60.2597
18.801591852673102 60.411
18.824335739722738 59.8551
18.846904057212626 59.7586
18.8694731124168 59.2355
18.89204290628315 59.0931
18.914789774966803 59.2534
18.937361054791623 59.016999999999996
18.959933076131318 58.5661
18.982505839934877 58.6071
19.00525570560582 58.6727
19.027829963004184 58.5235
19.05040496572238 58.5173
19.072980714710468 58.7174
19.095733592739563 58.8222
19.11831084296757 59.083999999999996
19.140888842324735 59.7636
19.16346759176222 60.0512
19.18622349753803 60.5387
19.208803755869358 61.6096
19.231384767143577 62.7273
19.253966532312948 64.1169
19.276725481241822 65.7731
19.29930876296784 67.6241
19.3218928014549 69.6346
19.34465404436217 72.2451
19.36723960516257 74.9882
19.389825925592426 76.2451
19.412413006605938 76.7066
19.43517731967805 74.7377
19.457765930683355 70.982
19.48035530514408 66.5163
19.50294544401556 62.4077
19.525712842708348 59.0956
19.54830451925909 57.2291
19.570896963095727 55.9901
19.593490175174704 55.6059
19.616260674962184 55.5341
19.638855432416964 55.1084
19.661450960992624 55.3416
19.68404726164677 55.0655
19.706820878021247 54.7832
19.729418731756834 55.055
19.752017360452857 54.7474
19.77461676506804 54.9823
19.797393513540218 55.1507
19.819994478951667 55.4707
19.84259622316767 56.2964
19.8651987471481 56.6368
19.887978643247177 56.8208
19.91058273574792 57.306999999999995
19.933187610901943 57.9027
19.955969879466828 58.9242
19.97857632894404 60.5138
20.00118356396599 61.8715
20.023791585494575 63.6214
20.046577028914875 65.5471
20.069186632506966 67.43
20.091797025500632 69.4062
20.114408208858933 70.6072
20.137196842715273 71.4802
20.159809615886765 70.7419
20.18242318232135 68.6843
20.20503754298326 66.7464
20.227829382875154 64.705
20.250445341109344 64.007
20.27306209647285 64.1038
20.29567964993108 64.4646
20.31847471147704 65.1493
20.34109387027612 66.0374
20.363713830075454 66.6405
20.386334591841646 65.6328
20.409132890679302 63.6355
20.431755265564437 60.7679
20.454378445325528 58.0767
20.477002430930366 55.9962
20.499803982716553 54.356
20.522429589228004 53.2356
20.54505600449589 52.5269
20.567683229489194 52.3296
20.590488049900088 52.0509
20.61311690359731 51.6577
20.63574656993626 51.5436
20.658553853717297 51.1511
20.681185154618298 51.196999999999996
20.703817271080066 50.8651
20.72645020407368 50.6127
20.749260783967177 50.4364
20.771895359337133 50.4882
20.794530754161617 50.3866
20.817166969412938 50.2481
20.83998086114876 50.3353
20.86261872660049 50.1824
20.885257415405402 50.2212
20.90789692853701 49.9529
20.930714147864748 50.02
20.953355319030678 50.086999999999996
20.97599731745334 50.1957
20.99864014410749 50.1638
21.021460706796564 50.0596
21.044105199328826 50.2895
21.06675052302631 50.5239
21.089396678865015 50.5385
21.112220600704806 50.8718
21.134868430275347 51.1806
21.15751709492456 51.4494
21.180166595629693 51.4691
21.202993892429635 51.9307
21.22564507473034 52.2441
21.24829709602816 52.4252
21.27112693608965 52.7516
21.293780644891275 52.8067
21.316435195634053 52.2946
21.339090589297417 51.5508
21.361923832041875 51.2417
21.384580921090404 50.3921
21.407238856007325 49.9944
21.429897637773326 49.7567
21.45273429906592 49.8678
21.475394784108598 49.7971
21.498056118951983 49.6215
21.520718304578022 49.9572
21.543558400304388 49.9626
21.566222297108816 50.2466
21.58888704765135 50.3656
21.61155265291521 50.8259
21.63439619898156 51.1989
21.657063523335786 51.4456
21.67973170537063 52.0034
21.7024007460706 52.6747
21.72524775840385 53.3845
21.747918526116475 54.4163
21.770590155457388 55.3763
21.79326264741238 56.7162
21.816113141960237 58.3003
21.838787368860547 59.7937
21.861462461341976 61.2307
21.884315579735777 63.0262
21.90699241312273 64.4128
21.92967011506078 65.2997
21.95234868653799 66.1664
21.9752053151131 65.3441
21.997885635446785 63.8963
22.020566828293532 62.0669
22.04324889464272 60.2486
22.066109049404666 58.5068
22.088792872571794 57.449
22.111477572219204 57.0819
22.1341631493376 57.0252
22.157026846313123 57.3424
22.179714188221507 56.9647
22.202402410582668 56.1489
22.22509151438863 54.8991
22.24795876962584 53.5219
22.270649646204486 52.5464
22.293341407213727 51.6772
22.316034053646906 50.968
22.338904883215342 50.4651
22.36159931041458 50.4605
22.38429462602756 50.3734
22.40699083104897 50.1397
22.429865251039757 50.118
22.452563244831367 50.1161
22.47526213102522 50.2782
22.49813925616515 50.0468
22.520839937143307 49.9333
22.543541513520587 50.0117
22.56624398629403 49.8191
22.589124730075895 49.8617
22.611829005656723 50.162
22.63453418063466 50.098
22.657240256008077 50.4104
22.680124634582935 50.519
22.70283252079775 50.6617
22.725541310413075 50.9959
22.74825100442868 51.2477
22.771139033969575 51.6761
22.79385054687155 52.0205
22.81656296718292 52.7964
22.83927629590484 53.5588
22.862167992606945 54.2665
22.88488314827121 55.3369
22.907599215359284 56.0214
22.93031619487366 56.931000000000004
22.953211574954405 57.6479
22.975930389478226 58.4875
22.998650119445763 59.0047
23.02137076586092 58.8054
23.044269845560063 57.8057
23.06699233506288 56.623000000000005
23.089715744034912 54.9539
23.112617610931565 53.153999999999996
23.135342869061212 51.8493
23.158069049684816 50.8025
23.1807961538087 50.3563
23.20370174880544 50.2229
23.226430710184808 50.3644
23.249160598093425 50.3596
23.271891413539002 50.2702
23.294800752937697 50.4281
23.31753343374794 50.6297
23.340267045128353 50.6819
23.36300158808808 50.8539
23.38591468821339 51.2402
23.408651104658304 51.7277
23.431388455719986 52.262
23.454126742409 53.0704
23.4770436196085 53.757
23.499783787914662 54.7622
23.522524894889884 55.5869
23.54526694154616 56.5129
23.56818761219047 57.1997
23.59093154860734 57.863
23.613676427751283 58.7266
23.636422250635754 58.4769
23.659346731118656 57.4255
23.68209445191868 55.8826
23.704843119509587 54.0505
23.72759273490623 51.9308
23.750521041644767 50.1418
23.77327256312355 48.9507
23.796025035462787 48.042
23.818956224555475 47.5731
23.841710609113413 47.3465
23.86446594758979 47.1038
23.887222241002014 46.8635
23.910157285144578 46.5259
23.932915498962537 46.4443
23.955674670778713 46.2743
23.978434801611975 46.1531
24.001373717286125 45.973
24.024135776723917 45.7508
24.046898798245582 45.8593
24.06966278287146 45.6205
24.092605586582614 45.4298
24.115371508023642 45.3676
24.1381383956401 45.4048
24.16090625045381 45.1855
24.183852958731244 45.3051
24.206622758582608 45.1172
24.229393528706886 44.875
24.252165270127392 44.8718
24.27511589952438 44.75
24.297889594216997 44.625
24.32066426328598 44.4269
24.34343990775613 44.4284
24.36639447485003 44.3903
24.38917208083877 44.4447
24.41195066531332 44.3104
24.43490819850244 44.2691
24.457688750692377 44.2669
24.48047028445616 44.0504
24.503252800821233 44.2294
24.526214300784112 44.1866
24.548998793132213 44.1729
24.57178427117417 44.0582
24.59457073593893 44.1988
24.617536219319863 44.0576
24.64032466834748 44.1888
24.663114107195035 43.8922
24.685904536893013 43.6967
24.708874020360852 43.7341
24.731666442613744 43.7192
24.754459858818787 43.7119
24.777254270007962 43.4073
24.80022777025625 43.4446
24.82302418230472 43.3991
24.845821592443674 43.4765
24.86862000170663 43.5038
24.891597535453727 43.2931
24.914397953892728 43.5657
24.93719937456671 43.36600000000001
24.96000179851076 43.5097
24.98298338249997 43.6747
25.00578782394922 44.0736
25.028593271784167 44.1091
25.05157790644186 44.3423
25.07438537804115 44.3845
25.097193859145293 44.5852
25.120003350792075 44.7799
25.142992065061257 45.1942
25.165803588823465 45.3749
25.18861612625217 45.5016
25.211429678386736 45.7675
25.234422489079968 45.9607
25.257238081693636 45.8869
25.280054692141732 45.9992
25.3028723214652 45.7619
25.325869245420463 45.9279
25.348688923599397 45.9471
25.371509623787006 46.0476
25.394331347025812 45.8235
25.41733240110666 45.5857
25.440156181590016 45.0274
25.46298098826268 44.5586
25.48580682216873 43.9257
25.50881202326435 43.1852
25.53163992281684 42.8228
25.55446885274561 42.463
25.577298814096377 42.0784
25.600308179121807 41.9515
25.623140214533745 42.1299
25.64597328451537 42.0163
25.66898578564376 41.7122
25.691820936010206 41.7394
25.714657124097695 41.6935
25.737494350954734 41.5975
25.760511045684957 41.6717
25.783350361364224 41.7069
25.806190718969255 41.5741
25.82903211955018 41.7603
25.852053024868923 41.7453
25.874896522722523 41.7837
25.897741066713106 41.7928
25.920586657892454 41.928999999999995
25.943611790812668 41.9402
25.966459487728237 42.068000000000005
25.989308234998564 42.0956
26.01215803367705 42.368
26.03518741123814 42.4804
26.05803932412957 42.6407
26.080892291600094 42.5307
26.10374631470478 42.5702
26.12677995397268 42.7021
26.14963609978026 42.7851
26.172493304397875 42.6156
26.19535156888223 42.4243
26.218389486949604 42.0127
26.241249882640123 41.6675
26.26411134137826 41.4796
26.28715248187403 41.431000000000004
26.31001607820869 41.2598
26.3328807407756 41.0368
26.35574647063438 41.2956
26.37879191991473 41.2415
26.401659795896734 41.3551
26.424528742360263 41.4663
26.447398760366614 41.5766
26.470448535598294 41.5996
26.49332070826805 41.9034
26.516193955675355 42.1634
26.53906827888316 42.2084
26.562122397260108 42.4033
26.584998883685063 42.5912
26.607876449110325 42.8861
26.63075509460056 43.0434
26.65381357334404 43.1545
26.67669439061878 43.233000000000004
26.699576291163382 43.2294
26.722459276044212 43.1951
26.745522132402975 42.8997
26.768407297649354 42.7285
26.791293550442003 42.3137
26.814180891848974 41.9607
26.837248143099337 41.6923
26.860137673466657 41.6575
26.88302829566349 41.2871
26.90592001075963 41.2141
26.92899167420566 40.9529
26.951885586870763 40.5109
26.974780595655517 40.4129
26.99785558178161 40.2888
27.020752794605112 40.2033
27.043651106772522 40.2074
27.06655051935668 39.9756
27.089629948036183 39.9145
27.112531573292053 39.8245
27.135434302194138 39.9104
27.158338135817015 39.6892
27.181422024430987 39.6527
27.204328079372566 39.4309
27.22723524226965 39.6725
27.250143514198573 39.716
27.273231880156334 39.6306
27.296142382065014 39.482
27.319053996245536 39.4405
27.341966723775965 39.4532
27.365059584515222 39.5282
27.38797455070062 39.6083
27.410890633481237 39.4323
27.433807833936918 39.405
27.456905206923906 39.5493
27.47982465472398 39.5125
27.502745223449743 39.5617
27.525666914182825 39.7042
27.548768816912457 39.6539
27.571692763693633 39.4039
27.59461783573812 39.3904
27.617723149491244 39.2643
27.640650484125285 39.2039
27.66357894728264 39.3147
27.686508540048052 39.2094
27.709618414237887 39.1538
27.732550278321757 38.8953
27.755483275279115 38.9959
27.778417406196485 39.0533
27.801531858397514 38.9811
27.824468269376716 38.8974
27.847405817586786 38.7537
27.870344504116094 38.9538
27.893463551932008 39.065
27.916404527281053 39.3181
27.93934664422563 39.5632
27.962289903855886 39.4685
27.98541356491974 39.6306
28.00835912214229 39.7347
28.03130582533231 39.8651
28.054253675581805 39.9662
28.077381967556104 40.0169
28.100332124185126 40.0778
28.123283431160893 39.9566
28.146235889577238 40.0149
28.169368830154156 39.7504
28.192323603752033 39.595
28.215279532083304 39.2135
28.238415973016764 38.8543
28.261374223145094 38.7707
28.284333631303806 38.6758
28.307294198589954 38.5964
28.330435319167677 38.3147
28.353398217078915 37.9951
28.376362277420153 37.8448
28.39932750129032 37.7139
28.422473319286713 37.4515
28.44544088262495 37.4155
28.468409612800283 37.4
28.491379510913497 37.0719
28.51453004413313 37.027
28.53750229057244 36.8587
28.56047570826344 36.7882
28.583450298308804 36.952
28.606605564586562 36.6912
28.629582511831156 36.735
28.65256063474956 36.6635
28.675539934446338 36.6549
28.698699951647605 36.5815
28.72168161743193 36.373000000000005
28.74466446331978 36.3834
28.767648490417624 36.4841
28.790813276438353 36.4091
28.813799678527303 36.4223
28.836787265157085 36.3743
28.859955641890075 36.3691
28.882945610203045 36.4637
28.905936766392035 36.2788
28.928929111566863 36.3591
28.952102288520145 36.1743
28.975097024308607 36.0461
28.998092952423807 35.9359
29.021090073977508 35.8312
29.04426806913204 35.8547
29.067267590245258 35.6396
29.090268308143695 35.5238
29.11327022394099 35.5841
29.13645305530891 35.4573
29.159457379627167 35.368
29.18246290519685 35.2939
29.20546963313352 35.3303
29.22865731875826 35.4052
29.25166646419296 35.2849
29.27467681535305 35.1477
29.29768837335608 35.2439
29.320880931312562 35.3118
29.34389491580634 35.2278
29.366910110507334 35.2495
29.38992651653503 35.1899
29.41312396492981 35.2113
29.436142806456754 35.0783
29.45916286268059 34.9756
29.48236399319994 34.8203
29.50538649169417 34.7039
29.528410208259935 34.7191
29.55143514402014 34.4175
29.574641196749695 34.3663
29.597668583816574 34.264
29.6206971934585 34.119
29.64372702680042 34.1131
29.666938019934474 34.0008
29.689970313635285 33.8717
29.713003834422636 33.81
29.73603858342347 33.8036
29.759254535188578 33.7604
29.78229175361658 33.7276
29.80533020365064 33.7774
29.82836988641968 33.7178
29.85159081507472 33.6939
29.874632976355343 33.5366
29.89767637376955 33.6317
29.920721008448314 33.4983
29.9439469322847 33.6333
29.96699405457564 33.5166
29.9900424175358 33.4682
30.013092022298157 33.3895
30.03632295963995 33.4275
30.059375061131373 33.3306
30.08242840783577 33.3675
30.105483000888153 33.3955
30.128718970092244 33.3399
30.151776069006917 33.2296
30.17483441768648 33.3466
30.198074175317235 33.2885
30.221135036724256 33.3263
30.24419715131772 33.1763
30.267260520236203 33.1065
30.290505341942243 33.1974
30.313571232750228 33.3059
30.336638381310948 33.283
30.35970678876503 33.2221
30.38295669299435 33.0038
30.40602763151657 33.0263
30.429099832366074 33.0149
30.452173296685572 32.9685
30.47542830191959 32.9334
30.498504306502497 32.9615
30.521581577995562 33.0222
30.544660117543582 33.0012
30.56792024229725 33.1139
30.59100133132069 32.9621
30.614083691845494 32.9048
30.637167325018545 33.0138
30.660432587840603 33.1285
30.683518779717886 32.9718
30.70660624769615 32.9912
30.729694992924372 32.9909
30.75296541239743 32.9852
30.77605672557558 33.0203
30.799149319462742 33.1081
30.8224236211637 32.9913
30.845518789950724 32.8023
30.868615242910597 32.8798
30.891712981195973 32.6611
30.91499247215866 32.4444
30.938092794619365 32.472
30.96119440587579 32.2646
30.984297307082752 32.301
31.00758200598383 32.2163
31.030687500658694 32.1188
31.053794288760695 32.0539
31.076902371446767 31.9633
31.100192296997445 32.0504
31.12330298246119 31.9633
31.14641496599209 31.7615
31.169528248749216 31.8222
31.19282341969534 31.8128
31.215939314557186 31.8269
31.239056512134788 31.8299
31.262175013589378 31.8121
31.28547544871168 31.7535
31.30859657161541 31.7466
31.331719001892175 31.8318
31.35484274070538 31.8274
31.378148458819545 31.7123
31.401274828443725 31.6421
31.424402510106933 31.7481
31.447712205419993 31.8139
31.470842524931633 31.6304
31.493974159989783 31.6583
31.51710711176168 31.558000000000003
31.54042212308802 31.6591
31.563557722100917 31.6462
31.586694641341655 31.471
31.609832881979628 31.4274
31.63315322823208 31.2809
31.656294125521327 31.269000000000002
31.679436347728515 31.1484
31.70257989602529 31.1174
31.725905596152327 31.0283
31.74905181052835 31.0116
31.772199354521323 31.03
31.79534822930507 30.9183
31.818679302290967 30.9146
31.84183085259981 30.8709
31.864983737233473 30.9394
31.88813795736804 30.956999999999997
31.911474422233013 30.8743
31.934631327356435 30.906
31.9577895715215 30.9007
31.980949155906522 30.8903
32.004291031706956 30.8308
32.027453310562606 30.766
32.05061693318573 30.5576
32.07396288236386 30.5856
32.09712920658542 30.5277
32.12029687812702 30.4479
32.14346589817093 30.4365
32.166817291729984 30.3089
32.18998902288583 30.2789
32.21316210610336 30.2444
32.23633654256711 30.1066
32.259693399663725 30.0187
32.282870556771144 30.0279
32.30604907069099 29.9435
32.329228942610065 29.9385
32.35259128243769 29.7351
32.375773884550505 29.6771
32.398957848235646 29.6984
32.422143174682176 29.548000000000002
32.445511016471215 29.5117
32.468699082679954 29.5248
32.49188851523011 29.4945
32.51507931531304 29.3916
32.538452678331 29.4058
32.56164622776311 29.2831
32.58484114831493 29.2545
32.60803744118015 29.2998
32.631416344731896 29.3208
32.654615396551876 29.236
32.67781582427913 29.201999999999998
32.701198898634416 29.1896
32.72440209253756 29.1407
32.747606665947124 29.0871
32.77081262006088 28.8989
32.79420126883317 28.8234
32.81740999876112 28.9909
32.840620112999424 28.9059
32.86383161274818 28.7926
32.88722585534586 28.7615
32.91044014056596 28.784000000000002
32.933655814909734 28.785999999999998
32.95687287957963 28.8803
32.98027273544904 28.6652
33.00349259526636 28.7076
33.026713849030116 28.6285
33.04993649794511 28.6313
33.073341986570746 28.6169
33.09656744032826 28.5236
33.11979429286444 28.5167
33.14302254538647 28.5393
33.166433686291185 28.4917
33.18966475336992 28.4406
33.212897224069096 28.3954
33.23613109959831 28.4091
33.259547912343415 28.322
33.2827846121627 28.336
33.306022720453775 28.2218
33.32926223842861 28.1396
33.352684742614166 28.1466
33.37592709463173 28.0977
33.399170859982064 28.1174
33.422597648419426 28.0499
33.44584425514446 27.9119
33.46909227885668 27.9041
33.4923417207723 27.7233
33.51577423505344 27.7808
33.539026528130385 27.6846
33.56228024307245 27.6049
33.585535381098246 27.4436
33.60897364093058 27.4316
33.63223163992385 27.4677
33.6554910656699 27.3753
33.678751919389796 27.4134
33.702195944520106 27.2996
33.72545966903325 27.3349
33.74872482519663 27.2044
33.771991414233746 27.2758
33.79544122444841 27.3078
33.81871069412428 27.1114
33.84198160035767 27.1104
33.86525394437455 27.2228
33.88870955949969 27.092
33.911984794020626 26.9884
33.93526147001624 26.9488
33.958539588715006 26.9589
33.98200102861669 26.8828
34.0052820477047 26.7736
34.02856451319451 26.7768
34.05203033759056 26.7603
34.07531571090147 26.641
34.09860253431845 26.7126
34.121890809074316 26.6215
34.145362493118924 26.6129
34.16865368561615 26.4632
34.191946333164054 26.4587
34.21524043699793 26.5198
34.23871800066799 26.4329
34.26201503218366 26.2678
34.28531352370466 26.2804
34.30861347646881 26.2233
34.33209693978188 26.2209
34.3553998301885 26.2454
34.378704185565205 26.1491
34.402010007152356 26.0531
34.42549939016683 26.0351
34.44880815937748 26.0127
34.472118398533134 25.9975
34.49543010887669 25.9797
34.51892543169198 25.8202
34.54224009966052 25.8673
34.56555624255917 25.7901
34.58887386163339 25.7164
34.61237514439016 25.6804
34.6356957311114 25.6125
34.65901779775809 25.6134
34.68252356662995 25.535
34.705848608458616 25.5988
34.72917513396849 25.5376
34.75250314440949 25.4645
34.77601490857862 25.398000000000003
34.799345904259795 25.3817
34.82267838863559 25.3969
34.846012362958525 25.3757
34.869530142679984 25.3123
34.89286711232212 25.3183
34.91620557568269 25.3632
34.93954553401677 25.2138
34.9630693495876 25.2256
34.986412313340814 25.258000000000003
35.00975677584668 25.1442
35.033102738362956 25.1346
35.05663261012228 24.9828
35.0799815881786 25.0584
35.10333207003229 24.9875
35.12668405694369 25.038
35.150220005273056 24.8842
35.17357501786656 24.8924
35.19693153931268 24.8374
35.220289570874385 24.7803
35.24383161619786 24.7516
35.267192683604904 24.78
35.290555264930376 24.7527
35.314101899412165 24.7202
35.33746752422433 24.7547
35.36083466676374 24.7418
35.38420332829803 24.6522
35.407756095629054 24.6409
35.43112781085063 24.5816
35.45450104888391 24.5465
35.477875810999194 24.5388
35.50143473172161 24.5036
35.52481255774625 24.5572
35.54819191167777 24.423000000000002
35.57157279478914 24.413
35.595137889488406 24.3533
35.61852184675279 24.3801
35.641907337029984 24.2495
35.665294361595684 24.3331
35.68886565090076 24.2433
35.7122557598848 24.1902
35.73564740699838 24.1454
35.759040593519934 24.1096
35.78261809810353 24.0685
35.80601437933051 23.976999999999997
35.829412203814705 23.9236
35.85281157283719 23.9231
35.876395313415884 23.8794
35.8997977874528 23.8666
35.92320180988546 23.7868
35.946790244133936 23.7343
35.97019737933222 23.7987
35.993606066789866 23.6806
36.01701630779276 23.6824
36.04061101440684 23.6041
36.06402437852291 23.5539
36.08743930005611 23.524
36.1108557802951 23.4393
36.13445678011326 23.5363
36.15787639383515 23.4679
36.18129757014299 23.430999999999997
36.20472031032821 23.3622
36.22832762423364 23.3719
36.25175350829375 23.2943
36.275180960119776 23.180999999999997
36.298609981005924 23.2845
36.32222362992669 23.3042
36.34565580510207 23.1926
36.36908955323448 23.1475
36.39252487562093 23.0448
36.416144880530226 23.0544
36.43958336764275 23.0855
36.463023432914625 23.0071
36.486465077645676 22.9091
36.51009145956204 23.0222
36.53353627947859 23.0027
36.55698268276811 22.9445
36.58043067073321 22.8764
36.60406345072071 22.7634
36.62751462435344 22.7711
36.65096738658405 22.7474
36.67460498210655 22.7099
36.69806093788647 22.7557
36.72151848619297 22.6868
36.744977628333636 22.6589
36.76862165890998 22.5064
36.79208400512205 22.5208
36.81554794910557 22.4338
36.83901349217101 22.3577
36.862663978991606 22.4694
36.88613273667352 22.4273
36.90960309738324 22.3537
36.933075062434064 22.3252
36.95673202673572 22.3075
36.98020721697122 22.3045
37.003684015502365 22.213
37.027162423645365 22.099
37.050825886711465 22.0851
37.07430753063053 22.0911
37.09779078812467 22.0474
37.121275660513014 21.9919
37.144945643673694 21.9618
37.16843376245278 21.9345
37.19192350009803 21.9412
37.215414857931435 21.9032
37.239091382563885 21.8024
37.262585997426164 21.8202
37.28608223645736 21.8181
37.309763684451696 21.7832
37.33326318851098 21.6951
37.356764320726555 21.709
37.380267082425526 21.8019
37.40395510942588 21.6861
37.42746114683234 21.5721
37.45096881771841 21.4618
37.474478123414166 21.4983
37.49817275092816 21.4704
37.52168534303452 21.4227
37.54519957395567 21.3738
37.568715445024665 21.4285
37.592416694607714 21.3778
37.61593586281424 21.4043
37.63945667518264 21.4042
37.66297913304891 21.2913
37.68668702630454 21.316999999999997
37.710212792059274 21.1551
37.733740207334854 21.1166
37.757269273470364 21.046999999999997
37.780983832050374 21.0972
37.80451621684926 21.1438
37.82805025654007 21.0654
37.851585952464795 21.037
37.8753071980695 20.9873
37.89884622345676 20.9127
37.92238690911902 20.8932
37.94611318753442 20.8585
37.969657210779765 20.8398
37.99320289834801 20.8039
38.016750251586465 20.7931
38.04048325513017 20.6762
38.06403395679343 20.5565
38.087586328183946 20.6683
38.11114037065203 20.6501
38.13488012115898 20.6534
38.1584375229181 20.5113
38.181996599821 20.5047
38.205557353221124 20.5088
38.229303872575656 20.5076
38.2528679961576 20.4966
38.27643380031219 20.3934
38.30000128639589 20.3356
38.32375459653193 20.3841
38.34732546371299 20.3654
38.37089801690786 20.2672
38.39447225747609 20.233
38.418232380377425 20.1901
38.441810012983396 20.1529
38.46538933705673 20.1489
38.488970353960084 20.1487
38.51273731166058 20.0961
38.536321731567014 20.0502
38.55990784840681 20.0197
38.58367995004091 19.9995
38.60726947812959 19.9836
38.63086070726198 20.0034
38.654453638806274 19.8714
38.678232613930824 19.863
38.70182896773327 19.8
38.72542702806741 19.8075
38.7490267963045 19.73
38.77281266709232 19.6359
38.79641586862214 19.6815
38.8200207821842 19.6194
38.843627409152944 19.6457
38.86742019782782 19.5725
38.891030269149255 19.557000000000002
38.914642058016156 19.5089
38.938255565806124 19.5536
38.96205529464307 19.4947
38.98567225787121 19.4417
39.00929094417078 19.4024
39.03291135492255 19.4235
39.05671804624804 19.3924
39.080341923549106 19.3381
39.103967529460334 19.2801
39.127594865365744 19.2062
39.15140854155791 19.2744
39.17503935514948 19.2921
39.19867190290282 19.157
39.22249083587951 19.1759
39.24612686969409 19.1466
39.269764641845306 19.059
39.293404153722804 19.096
39.317230110864074 19.0207
39.34087311998506 18.979
39.36451787301696 18.9399
39.388164371352595 18.9078
39.41199737518003 18.8848
39.43564738196752 18.9194
39.45929913825317 18.8788
39.48295264543308 18.8029
39.506792718520884 18.7679
39.530449745387216 18.7607
39.55410852735203 18.7193
39.57776906581474 18.764
39.60161623079 18.7346
39.625280300200025 18.6525
39.64894613032202 18.5981
39.67261372255866 18.5328
39.6964680021016 18.5031
39.72013913657293 18.5179
39.74381203738292 18.5105
39.76748670593756 18.4579
39.79134812278169 18.4435
39.81502634488497 18.3876
39.83870633896685 18.345
39.862388106436654 18.3043
39.88625668336918 18.2863
39.90994201572829 18.2786
39.933629125719285 18.2228
39.957503091207826 18.1987
39.9811937746168 18.2069
40.00488623990914 18.2043
40.02858048850006 18.1367
40.05246165409549 18.1703
40.076159487492085 18.0518
40.099859108448875 18.0337
40.123560518384345 18.006
40.1474489070226 17.9834
40.171153913178564 17.8729
40.194860712584955 17.8759
40.2185693066637 17.9212
40.242464941335314 17.8491
40.26617714307655 17.8458
40.289891143772046 17.8278
40.3136069448471 17.8007
40.33750984859743 17.7615
40.3612292688043 17.7416
40.3849504936829 17.7566
40.40867352466194 17.7395
40.43258372059144 17.6369
40.45631038219906 17.6619
40.48003885420956 17.5864
40.503769138055105 17.6144
40.52768664931955 17.5277
40.55142057531802 17.5478
40.57515631746428 17.5286
40.599079334038514 17.5273
40.62281872700477 17.4078
40.64655994043941 17.3242
40.67030297578061 17.3682
40.69423334835778 17.3847
40.71798004609188 17.3236
40.74172857006355 17.2703
40.76547892171441 17.2907
40.7894166736039 17.3159
40.813170699248566 17.1819
40.83692655691388 17.1859
40.86068424804498 17.1888
40.884629402612525 17.1274
40.908390779366385 17.1213
40.932153993938 17.1302
40.95591904777605 17.1104
40.979871628443995 17.0317
41.003640379561936 17.0004
41.02741097430883 16.9189
41.05118341413683 16.8996
41.075143444384416 16.8989
41.098919593177826 16.9285
41.1226975914255 16.9085
41.14647744058318 16.8257
41.170444943946755 16.8065
41.19422851378379 16.7837
41.218013938914645 16.7627
41.24198706625173 16.6609
41.26577622087193 16.6526
41.289567235177785 16.6851
41.31336011063129 16.6032
41.337340752422875 16.6061
41.361137369129835 16.5757
41.38493585138705 16.5168
41.40873620066004 16.5031
41.43272438060107 16.5379
41.45652848292052 16.4584
41.48033445666918 16.4391
41.50414230331616 16.3819
41.528138045159764 16.3789
41.551949656675205 16.3302
41.575763145513235 16.3598
41.59957851314666 16.3106
41.62358184070442 16.2327
41.64740098505737 16.2768
41.6712220126409 16.2061
41.69504492493139 16.1787
41.71905586207357 16.183
41.74288256296395 16.1391
41.766711153007456 16.1052
41.79054163368412 16.1189
41.814560204340054 16.0967
41.838394485526365 15.9728
41.86223066180303 15.9647
41.88625497706819 15.9967
41.910094962812 15.9823
41.93393684811168 15.8992
41.95778063445365 15.8446
41.981812625263366 15.7902
42.00566023303407 15.8573
42.029509746323676 15.8166
42.05336116662236 15.7596
42.077400857069705 15.763
42.10125611078846 15.7859
42.12511327600405 15.7061
42.14897235421036 15.7042
42.173019768448455 15.6537
42.19688269209613 15.6114
42.22074753323349 15.6227
42.24461429335818 15.591
42.268669455600495 15.5292
42.292540073217886 15.489
42.31641261433284 15.4776
42.34028708044675 15.437999999999999
42.36435001496739 15.4469
42.38822835065557 15.4473
42.41210861586426 15.344000000000001
42.4359908120986 15.4053
42.46006154323262 15.2893
42.48394762115317 15.3031
42.507835634632315 15.3207
42.531912233047436 15.2673
42.55580413732265 15.2262
42.579697981698 15.2132
42.60359376768525 15.2164
42.62767820545945 15.1614
42.65157789440821 15.1327
42.67547952952185 15.1158
42.699383112316 15.0773
42.72347541395347 15.0231
42.74738291190531 15.046
42.771292362102166 14.9952
42.795203766063516 14.9961
42.819303956130405 14.9905
42.843219287476536 14.9187
42.86713657716324 14.8958
42.89105582671383 14.8765
42.91516392983864 14.8507
42.939087119032166 14.7821
42.963012272677304 14.8172
42.98693939230129 14.7937
43.01105543317513 14.7573
43.034986504731386 14.7697
43.05891954686589 14.7389
43.08285456110972 14.6727
43.10697856448665 14.5929
43.130917542983475 14.5608
43.15485849820081 14.6251
43.17880143167367 14.5636
43.20293342237094 14.5416
43.226880332449 14.5216
43.25082922540554 14.4526
43.27496722682525 14.4615
43.29892010567796 14.4538
43.32287497204102 14.392000000000001
43.34683182745632 14.3761
43.370977859791836 14.3615
43.39493871351105 14.3368
43.41890156092628 14.3338
43.44286640358341 14.2876
43.46702049182749 14.2921
43.49098934522816 14.2118
43.51496019852649 14.204
43.5389330532723 14.1867
43.56309522248204 14.1858
43.58707210044314 14.1671
43.61105098451946 14.0971
43.63503187626491 14.0675
43.659202151562134 14.0952
43.68318707902681 14.0506
43.70717401884041 13.9963
43.731162972560874 13.987
43.75534137913236 13.9543
43.779334381108384 13.9644
43.803329401683186 13.9433
43.82732644241872 13.9392
43.8515130055166 13.9486
43.87551410707659 13.8316
43.89951723350145 13.8092
43.923709934595614 13.8056
43.94771713129917 13.7796
43.97172635758096 13.7545
43.99573761501002 13.7341
44.0199385169922 13.7586
44.04395385732619 13.6918
44.067971233533086 13.6851
44.09199064718605 13.7375
44.11619977548961 13.6775
44.14022328470671 13.6148
44.16424883610785 13.6256
44.18827643127035 13.5666
44.21249381139513 13.5246
44.236525514814076 13.4569
44.26055926674478 13.4706
44.28459506876863 13.487
44.3088207262813 13.4311
44.33286064928722 13.3898
44.35690262714919 13.3851
44.38094666145278 13.3494
44.4051806219871 13.41
44.42922879003185 13.3539
44.45327901929361 13.2776
44.477331311362136 13.2995
44.501573600619416 13.2135
44.525630039221795 13.2106
44.54968854541895 13.2539
44.573937102200176 13.1853
44.5979997645541 13.1256
44.622064499300315 13.1246
44.64613130803592 13.0672
44.67038823869318 13.064
44.69445921643748 13.0427
44.718532272981385 13.025
44.742607409926194 13.043
44.76687274034801 13.0467
44.79095205918753 12.9573
44.81503346325094 12.9773
44.839116954143876 12.9244
44.86339071028742 12.9391
44.88747839599524 12.8848
44.91156817336837 12.8603
44.93566004401666 12.8671
44.959942251908146 12.8338
44.984038330325966 12.7975
45.00813650686762 12.7235
45.03223678314731 12.7704
45.05652746888232 12.7548
45.08063196592069 12.6978
45.104738567558705 12.6814
45.128847275414856 12.6559
45.15314646515866 12.6534
45.17725940679741 12.6629
45.20137445952892 12.5972
45.22568004865265 12.5871
45.24979934496396 12.5548
45.27392075725247 12.525
45.29804428714431 12.5243
45.322358426247604 12.5426
45.346486212804315 12.499
45.370616121861914 12.4643
45.39474815505086 12.4148
45.41907087049246 12.4013
45.4432071734666 12.3383
45.46734560548283 12.3225
45.49148616817604 12.3518
45.51581748638564 12.2998
45.5399623320197 12.2773
45.56410931325473 12.2558
45.58825843173002 12.2569
45.61259837920865 12.2223
45.636751793816 12.2236
45.66090735060093 12.1505
45.68506505120716 12.1541
45.7094136545275 12.122
45.73357566449271 12.1073
45.75773982322992 12.0357
45.78190613238733 12.0565
45.806263418194064 12.0254
45.83043404997326 12.0804
45.85460683713677 12.0209
45.87897065658495 11.9906
45.90314777634752 11.9552
45.92732705646868 11.9257
45.9515084986045 11.9042
45.97588104735473 11.8783
46.00006683541565 11.8403
46.02425479047904 11.8426
46.04844491420549 11.8103
46.0728262191024 11.7864
46.09702070211635 11.7896
46.12121735879483 11.764000000000001
46.14541619080294 11.7605
46.169806278764455 11.7358
46.194009483459034 11.7115
46.21821486849841 11.6456
46.24242243555223 11.6435
46.266821333570014 11.6195
46.29103328674601 11.6016
46.31524742696538 11.6429
46.33946375590237 11.5987
46.36387149104216 11.5611
46.38809221957392 11.5222
46.41231514186606 11.5134
46.436540259597464 11.4914
46.460956858999374 11.4758
46.48518638983522 11.4736
46.509418121166966 11.4068
46.533652054678114 11.3769
46.55807754555709 11.3917
46.58231590571962 11.3761
46.60655647313217 11.3465
46.630988654873654 11.3347
46.655233659129024 11.2855
46.67948087571551 11.2738
46.70373030632484 11.238
46.72817142736393 11.232000000000001
46.752425308428684 11.187999999999999
46.77668140861147 11.2084
46.80093972960865 11.1635
46.82538981736788 11.1389
46.849652602470904 11.1131
46.87391761349769 11.08
46.8981848521493 11.0674
46.9226439341274 11.0762
46.946915650573224 10.9948
46.97118959976749 11.0604
46.99546578341598 11.0181
47.019933887188216 11.0108
47.04421456235744 10.9554
47.06849747711879 10.9382
47.09278263318286 10.9458
47.11725978640143 10.8911
47.14154944775105 10.8872
47.165841355555656 10.8791
47.1901355115306 10.8783
47.214621741924994 10.8473
47.23892041698887 10.8326
47.26322134538975 10.8078
47.28771440635075 10.7584
47.31201986422527 10.7604
47.33632758061436 10.7244
47.360637557241866 10.7032
47.38513974410611 10.7208
47.40945426407847 10.6484
47.43377104948137 10.633
47.45809010204344 10.6359
47.48260144275502 10.5907
47.506925052572285 10.5807
47.53125093475548 10.5657
47.55557909103813 10.5733
47.58009961361992 10.5333
47.60443234110732 10.5114
47.62876734791564 10.4928
47.65310463578333 10.4603
47.6776343683373 10.4594
47.7019762413987 10.460999999999999
47.72632040075572 10.3787
47.75066684815169 10.427
47.77520581885936 10.3963
47.799556865477655 10.384
47.823910205386 10.3495
47.84826584033272 10.3407
47.87281407745551 10.2634
47.89717432569297 10.3067
47.92153687423484 10.2732
47.94609208429692 10.2248
47.97045925671401 10.1957
47.99482873471275 10.2158
48.01920052005013 10.1886
48.04376504619224 10.1501
48.068141469543484 10.2102
48.09252020552573 10.1761
48.11690125590099 10.133
48.1414751266064 10.1232
48.16586082917454 10.104
48.19024885144316 10.0633
48.2146391951793 10.0617
48.239222439012764 10.0594
48.26361744916137 9.96873
48.28801478610016 10.0119
48.31241445160131 9.97165
48.337007097209366 9.95502
48.36141144338331 9.9112
48.38581812345755 9.908619999999999
48.41022713920929 9.885660000000001
48.434829215320704 9.875210000000001
48.45924292604658 9.87255
48.48365897780325 9.86046
48.50807737237308 9.83891
48.532688907799276 9.842260000000001
48.55711201168574 9.82747
48.581537463754074 9.798789999999999
48.60615611725119 9.807310000000001
48.63058628942721 9.7702
48.65501881516546 9.74553
48.6794536962573 9.72787
48.70408185970339 9.69271
48.72852147531801 9.68176
48.75296345168211 9.64301
48.77740779059232 9.63101
48.80204549302823 9.62615
48.82649458091802 9.62268
48.85094603676547 9.5824
48.87539986237231 9.549710000000001
48.90004713292306 9.5322
48.92450572200832 9.52214
48.94896668628025 9.51206
48.97343002754588 9.50804
48.99808689542115 9.48749
49.02255501470614 9.463389999999999
49.04702551642794 9.442910000000001
49.0714984023988 9.39295
49.096164896893235 9.42964
49.120642575466796 9.40136
49.145122643748394 9.38923
49.16960510355558 9.32756
49.19428125404938 9.31429
49.2187685210852 9.32002
49.243258185121555 9.311069999999999
49.26794160167084 9.25629
49.2924360839405 9.26783
49.31693296869764 9.23746
49.34143225776915 9.23739
49.36612538195438 9.23483
49.39062950396021 9.2374
49.41513603578346 9.17753
49.4396449792564 9.12753
49.46434784069503 9.13917
49.488861631846454 9.14356
49.513377840166804 9.085
49.537896467493745 9.04694
49.56260909589029 9.0781
49.587132585683285 9.03111
49.611658500018365 8.997160000000001
49.636186840738596 9.01764
49.66090926588511 9.00758
49.685442483902584 8.95359
49.70997813385706 8.930530000000001
49.734516217597076 8.93529
49.75924846937352 8.91152
49.7837914452858 8.90514
49.80833686055187 8.88442
49.83288471702571 8.93052
49.85762682540054 8.89898
49.882179588965734 8.82093
49.9067347993235 8.817
49.93129245833333 8.80587
49.95604445336378 8.7655
49.98060703442832 8.7634
50.005172069746266 8.743739999999999
50.02993150438364 8.74376
50.05450147301533 8.76404
50.07907390151433 8.67043
50.10364879174981 8.66416
50.12841816587289 8.67943
50.1529980044635 8.66873
50.17758031042124 8.604460000000001
50.20216508562089 8.625689999999999
50.22694442953363 8.602689999999999
50.25153416817468 8.600710000000001
50.27612638170508 8.5927
50.300721072005196 8.55229
50.325510416102105 8.5716
50.350110084975064 8.53762
50.37471223628208 8.52547
50.39931687190919 8.48128
50.424116246675766 8.44651
50.44872587605249 8.47499
50.47333799543065 8.461780000000001
50.49795260670191 8.42005
50.52276204271512 8.39471
50.54738166295838 8.36999
50.57200378079314 8.36833
50.596628398116835 8.34319
50.62144792604559 8.355410000000001
50.646077567609396 8.32189
50.670709714377715 8.37244
50.69553683636198 8.28603
50.72017401885922 8.294789999999999
50.7448137122895 8.238380000000001
50.76945591856022 8.22429
50.79429318636823 8.2094
50.818940443716784 8.2457
50.84359021965163 8.22157
50.868242516085964 8.16281
50.893089960641895 8.19
50.917747323549435 8.13705
50.94240721271973 8.14299
50.96706963007175 8.1092
50.99192728239342 8.10475
51.01659478166073 8.10555
51.04126481489051 8.07992
51.06593738400761 8.05996
51.090805275207074 8.037889999999999
51.11548294172845 8.04917
51.14016314993547 8.04245
51.164845901758845 8.003739999999999
51.18972406304274 7.992139999999999
51.21441192780656 7.93895
51.23910234200271 7.93703
51.2637953075678 7.89814
51.288683770237945 7.875889999999999
51.31338186432707 7.899539999999999
51.33808251561888 7.85237
51.362978729967345 7.8563600000000005
51.387684521509755 7.836239999999999
51.41239287610203 7.81755
51.437103795691165 7.7728
51.46201036644977 7.784560000000001
51.486726441956634 7.77728
51.51144508832545 7.747560000000001
51.536166307509156 7.7305600000000005
51.56108326624387 7.71214
51.58580965706056 7.71528
51.61053862657523 7.69482
51.635270176746864 7.65062
51.66019755512065 7.63985
51.68493429268881 7.59934
51.70967361681515 7.6208100000000005
51.73441552946465 7.612080000000001
51.759353359237934 7.603860000000001
51.7841004750961 7.634639999999999
51.80885018539685 7.556719999999999
51.833602492111254 7.5271
51.8585508051424 7.54277
51.883308330926425 7.52354
51.90806845906181 7.48307
51.932831191525715 7.4964
51.95779001977161 7.48703
51.98255798721516 7.38766
52.00732856494335 7.41832
52.03229530577543 7.442
52.057071130455945 7.403810000000001
52.081849571391054 7.396539999999999
52.106630630568695 7.368360000000001
52.13160794279417 7.33455
52.15639426492067 7.34857
52.18118321127822 7.36395
52.205974783860896 7.302739999999999
52.23096269971011 7.292910000000001
52.255759551287994 7.26872
52.280559035098186 7.250589999999999
52.30536115314103 7.25525
52.33035970494467 7.23957
52.35516711807904 7.2107
52.37997717147198 7.1808
52.40478986713005 7.18595
52.42979908731974 7.15655
52.454617094216 7.1722399999999995
52.47943774942214 7.13214
52.50426105495102 7.14343
52.529280976059844 7.125780000000001
52.554109609024096 7.10887
52.57894089837482 7.113230000000001
52.60377484613117 7.08218
52.62880550079408 7.06146
52.65364479223379 7.039339999999999
52.67848674816189 7.0202
52.70352547971946 7.045730000000001
52.72837279155837 7.01468
52.753222773982785 6.98687
52.778075429022984 6.9778199999999995
52.80312495150885 6.9774
52.827982978797436 6.954110000000001
52.85284368481815 6.905130000000001
52.87770707160767 6.882560000000001
52.90276741793998 6.87878
52.92763619336701 6.89072
52.952507655698504 6.85407
52.977381806977576 6.841130000000001
53.00245301017842 6.85561
53.02733256653592 6.854369999999999
53.052214817996074 6.81862
53.077099766608484 6.8361600000000005
53.102181859804446 6.795539999999999
53.127072229988265 6.77335
53.15196530349892 6.766430000000001
53.17686108239249 6.729889999999999
53.20195409881522 6.75029
53.22685531582556 6.73579
53.25175924441303 6.6601300000000005
53.27666588664027 6.69527
53.30176985962693 6.695130000000001
53.3266819565689 6.66798
53.35159677336455 6.6060300000000005
53.376514312083096 6.59863
53.40162927507703 6.6043
53.42655228516116 6.62505
53.45147802340193 6.612089999999999
53.47660125628886 6.5681199999999995
53.50153247842639 6.56715
53.52646643496923 6.566339999999999
53.55140312799818 6.53848
53.576537409691696 6.5739399999999995
53.60147960336152 6.4854199999999995
53.626424539786164 6.48077
53.65137222105307 6.512490000000001
53.67651758529126 6.46579
53.70147078399681 6.45876
53.72642673383343 6.42031
53.75138543689533 6.4191199999999995
53.776541917524526 6.39768
53.801506154876755 6.36684
53.826473151763246 6.34856
53.851442910284916 6.31252
53.87661054126026 6.36606
53.9015858509782 6.32262
53.92656392866066 6.35961
53.95154477641532 6.34467
53.976723591801296 6.29397
54.00171000771266 6.306769999999999
54.02669920004598 6.29766
54.051691170915745 6.27074
54.076881204886796 6.2613900000000005
54.101878760928514 6.23914
54.12687910187696 6.196619999999999
54.152077577768296 6.21905
54.1770835166946 6.152430000000001
54.20209224691339 6.18485
54.22710377055121 6.18995
54.25231352511594 6.13287
54.27733066384342 6.12596
54.30235060239643 6.1285300000000005
54.32737334290836 6.07337
54.35259441062629 6.05668
54.377622783395324 6.04881
54.40265396455061 6.05583
54.42768795623251 6.00207
54.45292037169559 5.96221
54.477960012857906 6.0006699999999995
54.50300247099511 5.9848300000000005
54.52804774825457 5.95955
54.55329154616743 5.8905199999999995
54.57834249018678 5.9253
54.6033962597977 5.90992
54.6284528571545 5.87069
54.653708072335164 5.81147
54.67877035378786 5.84696
54.70383546947698 5.829280000000001
54.72890342156389 5.77431
54.7541700889442 5.7213199999999995
54.77924374251975 5.73249
54.8043202390049 5.73078
54.82959552413022 5.67256
54.8546777351945 5.65799
54.87976279569621 5.650469999999999
54.90485070780914 5.7022900000000005
54.930137506558005 5.62716
54.95523115074295 5.62054
54.98032765308844 5.60142
55.005427015775496 5.56747
55.03072536339621 5.58137
55.05583047570572 5.53934
55.080938454927676 5.53253
55.10604930325027 5.51819
55.131359235107396 5.489269999999999
55.15647585066083 5.4227
55.181595341907496 5.445
55.20671771104285 5.41676
55.232039262617704 5.42283
55.25716741665048 5.34847
55.28229845518636 5.353190000000001
55.30743238042802 5.2682400000000005
55.33276558731939 5.27615
55.357905315183636 5.2466
55.383047936390035 5.22623
55.40819345314859 5.22245
55.433538351073295 5.19448
55.458689688238415 5.188269999999999
55.483843927614096 5.10648
55.509197623043605 5.09029
55.53435769621134 5.08045
55.55952067826466 5.09125
55.5846865714265 5.047680000000001
55.61005202069737 5.02361
55.63522376553902 4.99011
55.66039842818645 4.969040000000001
55.68557601087004 4.96361
55.7109532500271 4.8746
55.73613670233794 4.90771
