TT I
1.2716486653135266 32.6046
1.2939594142134223 32.568000000000005
1.3162702121660406 30.7707
1.3385810600174564 29.7262
1.3608919586137629 29.8426
1.383202908801069 28.8375
1.405513911425503 26.9276
1.4278249673332093 27.8464
1.4501343378461518 26.6327
1.4724455028545926 25.6933
1.4947567236847858 25.8648
1.517068001182951 25.9139
1.5393793361953272 25.3823
1.5616907295681737 24.7445
1.5840021821477681 23.7242
1.60631369478041 24.4078
1.6286252683124185 23.5466
1.6509369035901333 22.7854
1.6732468618895553 22.5586
1.695558623192809 21.8403
1.7178704487808514 22.1566
1.7401823395001077 22.1758
1.7625012545597203 21.1535
1.7848028405262486 21.2299
1.8071218901122095 21.4257
1.8294236121921872 20.5653
1.8517427996910911 21.0714
1.8740620574440425 21.1868
1.8963639900671978 20.4495
1.9186833908139995 20.7562
1.9409854680117449 20.9061
1.9633050151394713 20.6549
1.9856246367570705 20.4034
2.0079269371922672 20.1874
2.03024671027244 20.4071
2.0525491637446027 20.9043
2.074869091674931 20.5008
2.097171701569106 20.5363
2.1194917877373847 20.6656
2.141811954326636 21.1829
2.164114805233074 20.5797
2.186435135143035 20.8735
2.208738150935709 20.6325
2.231058647554722 21.2406
2.2533792288321184 20.811
2.275682498336085 20.9935
2.298003251406138 21.5109
2.3203066942619714 21.4843
2.3426276225136022 21.1791
2.3649486396617507 21.083000000000002
2.387252348930071 21.1721
2.4095735463442893 20.8366
2.4318774374315884 21.3678
2.4541988185014043 22.3193
2.476502894794693 22.4328
2.498824462909887 21.7344
2.521146125856138 21.3241
2.5434504863470337 22.0004
2.5657723414244717 22.8781
2.588076895590662 23.2811
2.610398946189713 23.5661
2.6327210958598384 23.9365
2.6550259469304716 24.2347
2.6773482972090137 24.7987
2.6996533504259 26.0623
2.7219759047039602 27.4542
2.744298562293959 27.5322
2.7666039251246595 28.5342
2.7889267918020164 30.0504
2.8112323652516555 31.4537
2.833555444408179 32.2103
2.8558786311183852 34.1319
2.8781845268938557 35.9994
2.9005079311721484 38.5104
2.9228140460410397 40.977
2.9451376712799635 44.0877
2.967444008632326 47.1433
2.9897678582247247 50.5063
3.0120918213106695 55.6267
3.0343984987899373 59.2846
3.0567226913198637 63.5062
3.079029599759726 68.6003
3.101354025127254 73.04899999999999
3.123678568232338 75.7563
3.145985829517914 77.2346
3.16831061055229 76.8374
3.1906181112775593 74.2071
3.212943133635653 71.3476
3.2352682779763207 66.4169
3.2575761442691227 60.7826
3.2799015350264273 55.9079
3.302209649240067 51.0759
3.3245352898092655 46.053000000000004
3.3468436553365257 42.1588
3.369169549113219 38.9791
3.3914955708171384 36.9424
3.413804319727358 34.2123
3.4361305997334863 32.3614
3.4584396084414553 31.1974
3.4807661501462652 30.2852
3.503092824025881 29.5873
3.5254022288463154 28.8805
3.5477291695206588 27.9997
3.5700388426251948 27.2938
3.5923660534916446 27.2807
3.6146934007816114 26.745
3.637003482731501 26.2982
3.6593311053109985 26.6599
3.681641464033634 26.2865
3.7039693653009733 26.2954
3.726297407241705 26.006
3.7486081875460804 26.1765
3.7709365132734978 26.0128
3.793247578841633 26.3191
3.8155761917550093 25.8596
3.8378875459837216 26.3162
3.8602164494827234 25.7991
3.882545499606844 26.2816
3.9048572932539183 26.3377
3.9271866390645718 26.9068
3.9494987298666713 27.2821
3.971828374764527 27.0546
3.9941581705403255 27.2088
4.016470713506008 27.8743
4.038800813471445 28.5638
4.061113662089144 28.2831
4.0834440696459176 28.9155
4.105774632334751 29.3376
4.128087945865126 29.5256
4.150418821249301 29.9022
4.172732448931298 30.875999999999998
4.195063640413578 31.7513
4.2173775856475215 32.035
4.239709096631102 33.4841
4.262040768704612 33.9467
4.284355196706267 35.9401
4.306687193387355 37.8213
4.329001947444346 40.504
4.35133427213731 41.5909
4.373666762177566 41.70399999999999
4.395982011761091 40.1018
4.418314834921175 38.3785
4.44063041906622 37.6821
4.4629635787515625 37.2894
4.4852969080429785 37.5641
4.5076130004776225 37.9152
4.529946671403969 38.4705
4.552263106909177 38.6973
4.574597122877047 39.7852
4.596931312711224 40.3416
4.619248269273446 40.9454
4.6415828092605835 42.3303
4.663900117405352 42.8473
4.686235010953232 43.588
4.708552674085913 45.3181
4.730887924602802 46.4222
4.753223354952695 48.1189
4.775541557023902 49.1408
4.797877349456786 50.6627
4.820195915032126 53.23
4.842532072957498 55.0447
4.864868414979744 57.7006
4.88718753227192 60.9852
4.909524244902505 64.56
4.931843734218147 69.1107
4.954180820867835 74.8689
4.976518095879839 82.9609
4.998838149695359 92.4954
5.021175803844231 105.03
5.043496238205739 115.09700000000001
5.065834274903528 122.572
5.088172504230693 131.03
5.1104935158799565 142.436
5.132832132875765 161.369
5.155153533596801 188.608
5.1774925416746225 232.185
5.199814334878411 317.356
5.2221537374521505 485.47900000000004
5.244493338631803 732.194
5.266815727034316 1051.32
5.289155727832427 1666.76
5.311478517248165 2900.46
5.333818921080011 4124.04
5.356159527788849 4369.53
5.3784829252032536 3076.08
5.400823940070432 1649.4
5.423147747031976 782.8330000000001
5.445489173474152 435.5
5.467830807066149 300.039
5.490155234831516 234.86900000000003
5.512497285125229 193.581
5.534822130975162 168.637
5.557164601388673 150.165
5.579489868738879 136.101
5.601832762690846 126.105
5.6241758697774475 119.47
5.646501775867269 115.709
5.668845311622074 112.931
5.691171647754637 110.279
5.713515615597765 106.598
5.735859800852677 103.411
5.758186788542988 101.152
5.780531411018185 100.963
5.802858837297399 101.039
5.825203900414495 101.361
5.8475491852224 103.81700000000001
5.869877275883075 107.61399999999999
5.892223006467101 113.175
5.914551544266608 119.115
5.936897724049891 129.266
5.959244129804903 142.889
5.981573344815301 165.312
6.0039202049061 200.09900000000002
6.026249875609095 258.79400000000004
6.04859719346037 336.92699999999996
6.070927323278297 434.31
6.093275102315365 578.24
6.115623113320588 772.8989999999999
6.137953938319995 1059.93
6.160302415650845 1252.31
6.182633708324452 1098.16
6.2049826554078376 779.698
6.227331838745022 482.355
6.249663839443684 307.309
6.27201349767565 216.05599999999998
6.294345974611799 164.28799999999998
6.316696111167083 129.24
6.339046488263839 106.73299999999999
6.361379686074702 91.9854
6.383730546639482 81.555
6.406064229255215 73.3287
6.428415576718203 68.2969
6.450749747566656 64.3617
6.47310158535871 60.4696
6.495453669698332 57.5315
6.517788579421056 55.567
6.540141159237969 52.9758
6.562476565766648 51.3998
6.5848296444934045 49.6426
6.607182974060425 48.8075
6.6295191323281015 47.8164
6.651872965955752 46.6076
6.6742096296068985 45.4459
6.6965639707294615 45.1898
6.71891856698715 44.176
6.741255995248479 43.4118
6.763611104154477 42.986000000000004
6.785949046381137 42.4313
6.808304671371482 41.8475
6.8306605557940046 42.1096
6.852999275508618 41.6436
6.875355681171544 41.0782
6.897694923437771 40.963
6.92005185377892 41.3464
6.9423916220322655 41.1877
6.964749080490181 40.766
6.987106804399774 41.4544
7.009447368180821 41.9486
7.031805625367033 42.7375
7.054146723727803 43.7537
7.076505517631004 45.0196
7.098864581288365 46.4549
7.121206488070854 46.0418
7.143566093607822 44.8351
7.165908543567245 43.6519
7.188268694426048 41.9085
7.2106291193438095 40.9964
7.232972390625943 40.4298
7.255333366030969 39.8199
7.277677189091925 39.2575
7.300038718428332 39.0324
7.322400526130865 39.1331
7.344745183422596 39.3378
7.367107550224791 39.509
7.389452767901992 39.9472
7.411815697249891 40.1378
7.434161478756298 40.1762
7.456524974096713 41.2131
7.478888753837185 43.0988
7.501235387657368 47.3456
7.523599738562711 60.5224
7.545946944825532 102.552
7.568311870344528 171.139
7.5906770845765665 212.52
7.613025156078678 168.65200000000002
7.635390950099687 100.613
7.657739602662809 63.0666
7.680105979923558 48.9983
7.702472650212829 44.0753
7.724822180948224 41.4928
7.747189439655568 40.2798
7.769539560075357 39.4945
7.791907410653562 39.3722
7.81425812420825 39.1534
7.836626570110925 38.6931
7.858995315087906 39.0268
7.881346924933401 38.6108
7.903716270417482 39.068000000000005
7.926068482028405 39.4326
7.948438431475253 39.5933
7.9708086843180235 39.5888
7.993161805171116 40.0836
8.015532667162402 40.0513
8.037886398416653 40.6068
8.060257873014221 41.0935
8.082629655331942 41.3958
8.104984308787587 41.6303
8.127356708900503 42.3624
8.149711981398308 43.2243
8.172085002766314 43.6239
8.194458336181368 44.4382
8.216814543847752 45.386
8.23918850371002 46.8781
8.26154533906492 47.8339
8.283919928836452 49.7233
8.306277395339652 51.1935
8.328652618483376 53.018
8.351028159736202 54.7467
8.373386579575245 55.9424
8.395762759396959 57.4719
8.418121819038275 59.8033
8.440498640894003 63.1492
8.462875785192262 68.027
8.485235811156207 74.0611
8.507613602688501 84.4509
8.529974277114228 102.334
8.552352719347912 126.095
8.574731488360351 156.188
8.59709314210385 187.907
8.619472567021075 221.649
8.64183487789147 279.12
8.664214962183097 402.961
8.686577933647762 588.612
8.708958680784317 734.515
8.731339760774953 732.5310000000001
8.753703729764451 556.875
8.77608547780821 356.25800000000004
8.798450116065078 232.13
8.820832535634787 163.041
8.843215292401656 124.992
8.865580941199045 103.82799999999999
8.887964374703538 91.9226
8.910330701447199 84.2329
8.932714815164482 78.8706
8.955099270424924 74.8989
8.977466620733543 71.8346
8.999851761421976 70.0141
9.022219798361645 68.2989
9.04460562795561 66.8709
9.066991803441677 66.0265
9.089360876979615 65.6932
9.111747746589993 65.7795
9.13411751544971 65.3632
9.156505082664324 66.3777
9.178875550323522 69.7067
9.20126381862328 75.9559
9.223652438908596 93.844
9.246023961427412 149.636
9.26841328802173 261.485
9.290785518039224 349.05199999999996
9.313175554425882 323.322
9.335565947154315 205.575
9.357939245086508 119.59200000000001
9.380330352834827 84.5297
9.40270436697103 70.8682
9.425096193225055 64.7683
9.447488380180165 62.4465
9.469863475295412 60.7155
9.492256385987508 59.2821
9.514632206018318 58.338
9.537025843935714 57.5906
9.559402392368193 57.3819
9.581796761000229 57.6257
9.604191496441521 57.3723
9.626569144158516 57.3535
9.648964615551032 57.6068
9.671343000390081 58.0122
9.693739211225699 58.6881
9.716135793237463 58.727
9.738515290448102 59.2499
9.760912617143402 59.9845
9.783292860202891 60.823
9.805690935076182 61.8544
9.828089385495742 62.3259
9.850470754023561 64.0714
9.872869957865444 65.8336
9.89525208097539 67.9893
9.917652041736662 70.9525
9.940052382417589 74.5867
9.962435644102392 80.339
9.984836746950979 87.9101
10.007220771957746 100.6
10.029622640473708 121.62
10.052007432299963 147.014
10.074410069984072 167.852
10.096813093716005 186.81900000000002
10.119199042482517 212.40400000000002
10.141602840636468 265.282
10.163989564971628 366.694
10.186394141051062 537.173
10.208799107559706 693.205
10.231187001965623 730.1510000000001
10.253592751657669 606.388
10.275981430388155 410.44699999999995
10.298387966769793 266.314
10.320794897965431 188.71599999999998
10.343184759907361 143.032
10.36559248305461 115.17
10.387983138083852 99.0669
10.410391656691655 90.2796
10.432800574501677 84.9453
10.455192425893369 83.1016
10.47760214443012 85.2102
10.499994797678786 89.1327
10.522405320453982 92.6713
10.54479877906917 95.3004
10.567210109595656 99.1015
10.5896218454736 109.069
10.612016518879773 132.906
10.634429067781074 175.074
10.656824555333241 227.951
10.679237920773568 267.796
10.701651695961992 266.903
10.724048411481384 237.77599999999998
10.746463008485165 193.74099999999999
10.768860546937125 142.296
10.791275969274796 98.1082
10.81369180576079 75.0329
10.836090585366925 64.3824
10.858507252467449 59.0929
10.88090686379991 55.9838
10.903324365036394 53.9379
10.925724811614439 52.0223
10.948143150509463 51.0889
10.970561909719066 49.8488
10.992963615930844 48.9605
11.015383218085756 47.8481
11.037785768347074 46.9985
11.06020621697282 46.3612
11.082627090322113 45.9201
11.105030913430326 45.3874
11.12745263854165 44.9565
11.149857314510728 44.4863
11.172279894912576 44.8028
11.194702904450653 44.2032
11.217108866490921 43.8666
11.239532736615194 43.5988
11.26193956033512 43.6447
11.284364294577085 43.2317
11.306789462371718 42.7046
11.329197585398376 42.1933
11.351623622610898 42.0542
11.37403261614354 41.2221
11.396459526308487 41.1489
11.418869393879497 40.9282
11.441297180532617 40.625
11.463725406927658 40.3639
11.486136592353875 39.9064
11.508565700543707 39.4964
11.530977768845315 39.9063
11.553407762368774 39.5134
11.575838200059769 39.5298
11.598251599479612 39.4933
11.620682927815501 39.3669
11.64309721895548 39.5216
11.665529441478206 39.3457
11.687962112597958 39.3464
11.710377748130886 39.5336
11.732811318753434 39.5131
11.755227854859067 39.6357
11.777662328529495 39.7252
11.800079768750786 39.9411
11.822515149015453 40.083
11.844950984084935 40.8618
11.867369787303163 41.6356
11.889806534289491 42.675
11.912226250487029 44.9006
11.934663912939751 51.6137
11.9571020346363 68.3542
11.979523127133968 95.0688
12.001962169624331 116.24700000000001
12.024384183972964 114.367
12.046824150809913 90.4954
12.069264581333726 66.1716
12.091687985297767 54.2023
12.11412934550045 50.3983
12.136553680195208 49.4796
12.158995973632788 50.1228
12.181438735204349 50.9001
12.20386447284199 51.9015
12.226308172985636 54.763999999999996
12.24873485024193 59.4777
12.271179492516982 66.8039
12.293607112949127 76.4134
12.316052700916226 85.5827
12.338498763250042 89.5602
12.360927805303868 84.5573
12.383374818673879 74.5427
12.405804812803074 64.0683
12.428252780773262 55.7505
12.45070122756722 50.5354
12.473132656675375 47.2326
12.49558206341869 45.3461
12.518014453510101 43.495
12.540464823770117 42.5919
12.562915677315177 41.6636
12.58534951575545 41.2525
12.607801338171472 40.565
12.630236146511358 40.4727
12.652688941369085 40.0798
12.675124723177234 39.9501
12.697578494048786 40.3375
12.720032754458185 40.0783
12.742470003354093 40.2491
12.764925245138771 40.4642
12.787363476431278 40.6523
12.809819703166806 40.6842
12.83227642391173 40.93
12.854716135692716 41.2324
12.877173846755147 41.8548
12.899614549869717 41.7485
12.9220732548287 42.3334
12.94453245827299 42.3584
12.966974655289818 43.0065
12.989434858002571 43.5941
13.011878055298721 44.2371
13.034339260862497 44.9276
13.056800969391883 46.2572
13.079245674017244 48.5879
13.101708390774869 52.0224
13.12415410463411 58.4293
13.146617833206086 65.4491
13.169064559883248 68.3127
13.191529303857127 67.652
13.213994557076367 66.4947
13.236442809902437 67.2063
13.258909083908291 69.0154
13.28135835851934 70.437
13.30382565690295 73.4942
13.326293469022952 78.8243
13.348744283242008 89.0261
13.371213125129904 106.334
13.39366497011003 132.364
13.416134845360597 163.94
13.438605238843131 189.275
13.46105863690397 191.364
13.483530069144786 170.088
13.505984506951902 137.696
13.528456981549432 111.385
13.550929978879088 95.41
13.573385983253365 87.5658
13.595860028340867 83.2623
13.618317081455832 80.2633
13.64079217790333 78.5769
13.663250283359057 79.8829
13.685726434770173 84.3806
13.708203115221277 96.1041
13.730662806148091 114.80799999999999
13.75314054697177 140.6
13.775601299246777 168.959
13.798080104050406 182.43400000000003
13.820559442405358 168.232
13.843021793671388 137.94
13.865502201420897 106.67299999999999
13.887965623051947 84.2781
13.910447103807167 70.7121
13.932929122629764 62.7312
13.955394156785959 58.2176
13.977877254034569 54.8769
14.000343367582113 52.3809
14.022827546871707 51.0768
14.045294743423524 49.9435
14.06778000837062 49.3408
14.090265817715476 49.6318
14.112734645763819 50.8075
14.13522154619454 54.4602
14.157691466286913 65.8294
14.180179461423874 84.8657
14.202668005486178 102.01100000000001
14.22513957064374 106.15299999999999
14.247629214846473 93.3111
14.270101881097517 72.3116
14.29259262906496 57.0433
14.315083930490205 50.0098
14.337558255389705 46.9932
14.360050666019726 45.4049
14.382526101071944 44.2893
14.405019624534942 43.6218
14.427513705993134 42.9586
14.449990813291825 42.7625
14.47248601302899 42.3989
14.49496423954951 42.2596
14.517460561197822 42.1913
14.539939910570322 41.9449
14.562437357763558 41.8498
14.58493536931253 41.6892
14.607416409993311 41.6501
14.62991555254159 41.6389
14.652397725157423 41.7994
14.674898002342799 41.9315
14.697398848433282 41.7125
14.719882725991326 42.4096
14.74238471217934 42.4307
14.764869730765593 42.8946
14.787372860692983 43.3954
14.809876564079925 44.5443
14.83236330125751 45.7286
14.854868153850365 47.3059
14.877356041159485 49.1655
14.899862046604186 50.6403
14.922351087688757 51.7776
14.944858249632887 52.2447
14.967365991421232 53.4603
14.989856770231246 55.7293
15.012365673994204 60.3209
15.03485761569738 67.645
15.05736768508665 78.5464
15.07987833888692 91.9069
15.102372032001655 105.382
15.124883856909658 109.755
15.14737872204565 105.14200000000001
15.169891721717274 92.4826
15.192405310371893 79.7518
15.214901940621196 68.3204
15.237416709527137 59.5916
15.259914520936249 53.5179
15.282430473753607 49.1809
15.304947020131227 46.6723
15.327446610371178 45.056999999999995
15.349964346154254 43.77
15.372465126703139 43.1601
15.394984055556009 42.5798
15.417486030076159 42.1185
15.44000615566487 41.7958
15.462526881230803 41.4806
15.485030653812652 41.5211
15.507552581617434 41.2726
15.530057557334603 40.8964
15.55258069104857 41.1409
15.575104429329837 41.2575
15.597611216864632 41.0804
15.620136166564563 40.857
15.6426441664095 41.0375
15.665170331202765 41.2827
15.687697105158826 41.6765
15.710206930593545 42.5942
15.732734925158933 43.3398
15.755245972089478 44.6724
15.77777519094324 46.1457
15.800287463046663 47.3812
15.822817909869592 48.2219
15.84534897229804 48.6601
15.867863089299354 49.8463
15.890395385222186 51.3442
15.912910736597423 53.6807
15.935444269699861 58.2587
15.957978423016485 65.2787
15.980495633101265 74.7913
16.003031029129367 87.4312
16.02554948280019 99.0748
16.048086125229432 103.905
16.070623392487107 102.344
16.09314371869582 95.5527
16.11568223789321 87.0795
16.13820381691126 78.3712
16.160743591742527 68.0463
16.183283996022084 58.0462
16.205807461423195 50.031000000000006
16.228349126881973 45.0112
16.25087385432698 42.645
16.27341678466365 40.6278
16.29594277784926 39.4671
16.31848697676433 38.5452
16.341031811604868 37.6095
16.36355971058487 37.2702
16.3861058195587 36.9286
16.40863499352978 36.373000000000005
16.431182380342005 36.0342
16.453730407713202 35.7923
16.476261501364792 35.6119
16.498810812136167 35.2583
16.52134319004079 35.2867
16.54389378792203 35.0082
16.566445031001553 34.7987
16.588979342490088 34.6031
16.61153187824822 34.6305
16.634067483263312 34.524
16.656621315414416 34.3491
16.679175797408888 34.2284
16.701713349928728 34.2477
16.72426913389191 34.3589
16.74680798922351 34.1992
16.76936507887444 34.0941
16.791905240734874 34.2407
16.814463639794468 33.9972
16.837022695210294 33.9467
16.859564824093756 34.2504
16.882125194503903 34.338
16.904668639217885 34.7728
16.927230328348003 35.6858
16.949792678493612 37.7427
16.972338104193863 40.5836
16.994901778652235 42.9356
17.017448529496576 43.4967
17.040013531998152 42.0213
17.06257920018044 39.1603
17.0851279459922 36.8587
17.107694947817667 35.8845
17.130245028099072 35.3433
17.15281336730298 35.2718
17.17536478578733 35.4045
17.19793446610687 35.5904
17.220504818648422 35.8886
17.243058251703697 35.8853
17.265629950971032 36.1002
17.288184731571736 36.1233
17.310757781306908 36.878
17.33333150794385 37.2231
17.355888317140174 37.9476
17.37846339986244 39.3986
17.401021565958885 41.3851
17.42359800851343 43.9109
17.44617513265564 46.3899
17.468735341390783 48.1545
17.491261035594565 48.0529
17.51396340099364 46.1853
17.536490463869136 43.7589
17.559018209820174 41.2776
17.58154663977963 39.4646
17.604251766089718 38.2005
17.626781572227713 37.4876
17.64931206518155 37.0227
17.671843245885103 37.0788
17.69455114821572 37.0727
17.717083712612634 37.0706
17.739616967569667 37.4123
17.762150914021706 38.4898
17.78486160749854 40.1334
17.807396945166804 42.6163
17.829932977143503 44.5944
17.85246970436452 45.1167
17.875183204129467 44.3766
17.897721330097664 42.7454
17.920260154126645 41.55
17.942799677153296 41.379
17.9655159983646 41.7474
17.988056927677544 42.2207
18.010598558807683 43.0013
18.033140892692916 43.4792
18.05586005052525 43.445
18.07840379824407 43.7039
18.10094825154059 44.8288
18.12366954819864 46.2127
18.146215420998306 48.1879
18.16876200220057 51.4237
18.191309292745153 56.1487
18.214033452627167 63.0082
18.236582170236648 71.2103
18.259131600016456 78.9954
18.281681742907335 82.5382
18.304408781233683 80.3281
18.32696035875955 73.9576
18.349512652227624 65.6173
18.372065662579683 58.7512
18.394795594587553 54.3035
18.41735004715306 52.2168
18.43990521943684 51.9532
18.46246111238171 53.4324
18.485193953325208 56.3687
18.507751296070428 60.2154
18.530309362314178 63.2315
18.552868153000343 63.5459
18.57560391815056 61.7106
18.59816416623245 58.4277
18.620725141597372 54.7873
18.643286845190268 51.5874
18.666025549835414 48.3047
18.688588718427933 44.9519
18.711152618092243 42.4499
18.73389353884365 40.6445
18.75645890921984 39.2653
18.77902501351406 38.4812
18.801591852673102 38.1725
18.824335739722738 37.5172
18.846904057212626 37.2839
18.8694731124168 36.9234
18.89204290628315 36.8944
18.914789774966803 36.6174
18.937361054791623 36.4039
18.959933076131318 36.1046
18.982505839934877 36.0647
19.00525570560582 35.9482
19.027829963004184 35.7485
19.05040496572238 35.8033
19.072980714710468 35.7201
19.095733592739563 35.6068
19.11831084296757 35.4895
19.140888842324735 35.6618
19.16346759176222 35.4684
19.18622349753803 35.7396
19.208803755869358 35.9279
19.231384767143577 36.3533
19.253966532312948 36.5038
19.276725481241822 36.8548
19.29930876296784 37.3533
19.3218928014549 38.5504
19.34465404436217 41.004
19.36723960516257 44.2306
19.389825925592426 47.4118
19.412413006605938 49.1177
19.43517731967805 48.9618
19.457765930683355 47.1496
19.48035530514408 45.3084
19.50294544401556 44.5879
19.525712842708348 44.7862
19.54830451925909 44.9607
19.570896963095727 44.1412
19.593490175174704 42.54600000000001
19.616260674962184 40.7896
19.638855432416964 38.7579
19.661450960992624 37.4385
19.68404726164677 36.2241
19.706820878021247 35.3336
19.729418731756834 34.9149
19.752017360452857 34.5489
19.77461676506804 34.1715
19.797393513540218 33.8778
19.819994478951667 33.524
19.84259622316767 33.5087
19.8651987471481 33.6224
19.887978643247177 33.393
19.91058273574792 33.4506
19.933187610901943 33.5615
19.955969879466828 33.6459
19.97857632894404 33.916
20.00118356396599 33.7401
20.023791585494575 33.8088
20.046577028914875 34.0022
20.069186632506966 34.0208
20.091797025500632 34.2
20.114408208858933 34.5438
20.137196842715273 34.958
20.159809615886765 35.9156
20.18242318232135 36.8588
20.20503754298326 38.0463
20.227829382875154 39.7298
20.250445341109344 41.258
20.27306209647285 42.4528
20.29567964993108 42.4361
20.31847471147704 41.4414
20.34109387027612 39.9108
20.363713830075454 38.5745
20.386334591841646 37.6868
20.409132890679302 37.4761
20.431755265564437 37.7128
20.454378445325528 38.4476
20.477002430930366 39.5251
20.499803982716553 40.4397
20.522429589228004 40.4237
20.54505600449589 39.5242
20.567683229489194 38.4197
20.590488049900088 36.473
20.61311690359731 35.1236
20.63574656993626 34.1843
20.658553853717297 33.3817
20.681185154618298 32.907
20.703817271080066 32.591
20.72645020407368 32.0576
20.749260783967177 32.0323
20.771895359337133 32.2401
20.794530754161617 33.0501
20.817166969412938 34.2412
20.83998086114876 35.1762
20.86261872660049 35.5679
20.885257415405402 35.3762
20.90789692853701 34.4206
20.930714147864748 33.0347
20.953355319030678 31.8516
20.97599731745334 31.2739
20.99864014410749 30.785999999999998
21.021460706796564 30.6074
21.044105199328826 30.5544
21.06675052302631 30.3752
21.089396678865015 30.4714
21.112220600704806 30.4393
21.134868430275347 30.474
21.15751709492456 30.4013
21.180166595629693 30.2294
21.202993892429635 30.2326
21.22564507473034 30.2417
21.24829709602816 30.4535
21.27112693608965 30.3165
21.293780644891275 30.5788
21.316435195634053 30.603
21.339090589297417 30.6294
21.361923832041875 31.0203
21.384580921090404 31.4537
21.407238856007325 31.7852
21.429897637773326 32.2937
21.45273429906592 32.4115
21.475394784108598 32.2426
21.498056118951983 32.118
21.520718304578022 32.0624
21.543558400304388 31.7312
21.566222297108816 31.7147
21.58888704765135 31.289
21.61155265291521 31.0552
21.63439619898156 30.9901
21.657063523335786 30.6387
21.67973170537063 30.6361
21.7024007460706 30.8663
21.72524775840385 30.8757
21.747918526116475 31.0859
21.770590155457388 31.2629
21.79326264741238 31.3997
21.816113141960237 31.4785
21.838787368860547 31.4916
21.861462461341976 31.6918
21.884315579735777 31.9754
21.90699241312273 32.1362
21.92967011506078 32.3828
21.95234868653799 33.0073
21.9752053151131 33.6388
21.997885635446785 34.7818
22.020566828293532 35.9651
22.04324889464272 37.2976
22.066109049404666 38.8212
22.088792872571794 40.06
22.111477572219204 40.7295
22.1341631493376 40.7488
22.157026846313123 40.1534
22.179714188221507 39.6427
22.202402410582668 39.192
22.22509151438863 38.6678
22.24795876962584 38.1638
22.270649646204486 37.6483
22.293341407213727 37.1538
22.316034053646906 36.6699
22.338904883215342 36.0129
22.36159931041458 35.2902
22.38429462602756 34.3318
22.40699083104897 33.5588
22.429865251039757 32.7558
22.452563244831367 32.1698
22.47526213102522 31.8396
22.49813925616515 31.6041
22.520839937143307 31.3463
22.543541513520587 31.057
22.56624398629403 30.9628
22.589124730075895 30.8109
22.611829005656723 30.8993
22.63453418063466 30.7566
22.657240256008077 30.6097
22.680124634582935 30.5316
22.70283252079775 30.6712
22.725541310413075 30.8609
22.74825100442868 30.8803
22.771139033969575 31.2145
22.79385054687155 31.3285
22.81656296718292 31.6852
22.83927629590484 32.145
22.862167992606945 32.5997
22.88488314827121 32.6842
22.907599215359284 32.6511
22.93031619487366 32.2762
22.953211574954405 31.9342
22.975930389478226 31.8766
22.998650119445763 31.9718
23.02137076586092 32.080999999999996
23.044269845560063 32.4218
23.06699233506288 32.9811
23.089715744034912 33.6907
23.112617610931565 34.5566
23.135342869061212 35.8141
23.158069049684816 36.7745
23.1807961538087 36.9728
23.20370174880544 36.8861
23.226430710184808 36.162
23.249160598093425 34.8949
23.271891413539002 33.77
23.294800752937697 33.0256
23.31753343374794 32.4617
23.340267045128353 32.0638
23.36300158808808 31.951999999999998
23.38591468821339 31.8552
23.408651104658304 32.0173
23.431388455719986 32.3476
23.454126742409 32.9502
23.4770436196085 33.4369
23.499783787914662 34.0204
23.522524894889884 34.0694
23.54526694154616 33.5285
23.56818761219047 33.2715
23.59093154860734 32.6862
23.613676427751283 32.5414
23.636422250635754 32.4289
23.659346731118656 32.4755
23.68209445191868 33.1289
23.704843119509587 33.7904
23.72759273490623 34.7188
23.750521041644767 35.9251
23.77327256312355 36.7934
23.796025035462787 37.2119
23.818956224555475 37.1327
23.841710609113413 36.4154
23.86446594758979 35.0428
23.887222241002014 33.7046
23.910157285144578 32.3563
23.932915498962537 31.5793
23.955674670778713 30.9066
23.978434801611975 30.4027
24.001373717286125 30.1015
24.024135776723917 29.8359
24.046898798245582 29.7184
24.06966278287146 29.6757
24.092605586582614 29.6272
24.115371508023642 29.5137
24.1381383956401 29.3936
24.16090625045381 29.2323
24.183852958731244 29.1119
24.206622758582608 28.8403
24.229393528706886 28.4207
24.252165270127392 28.2656
24.27511589952438 28.3452
24.297889594216997 28.0649
24.32066426328598 27.8864
24.34343990775613 27.9245
24.36639447485003 27.8354
24.38917208083877 27.7407
24.41195066531332 27.7888
24.43490819850244 27.7844
24.457688750692377 27.5676
24.48047028445616 27.4528
24.503252800821233 27.575
24.526214300784112 27.5312
24.548998793132213 27.4366
24.57178427117417 27.3788
24.59457073593893 27.3949
24.617536219319863 27.4476
24.64032466834748 27.6308
24.663114107195035 27.9384
24.685904536893013 28.0719
24.708874020360852 28.3936
24.731666442613744 28.6634
24.754459858818787 28.6239
24.777254270007962 28.4269
24.80022777025625 28.1225
24.82302418230472 27.72
24.845821592443674 27.4718
24.86862000170663 27.3402
24.891597535453727 27.0541
24.914397953892728 27.0787
24.93719937456671 26.9883
24.96000179851076 26.9393
24.98298338249997 26.885
25.00578782394922 26.9534
25.028593271784167 26.9471
25.05157790644186 27.0075
25.07438537804115 26.8963
25.097193859145293 26.9259
25.120003350792075 27.0633
25.142992065061257 27.0763
25.165803588823465 27.0095
25.18861612625217 27.1435
25.211429678386736 27.1308
25.234422489079968 27.3309
25.257238081693636 27.5254
25.280054692141732 27.7871
25.3028723214652 27.9874
25.325869245420463 28.2852
25.348688923599397 28.5589
25.371509623787006 28.6554
25.394331347025812 28.5671
25.41733240110666 28.5128
25.440156181590016 28.3653
25.46298098826268 28.4112
25.48580682216873 28.6014
25.50881202326435 28.7263
25.53163992281684 28.8706
25.55446885274561 29.1161
25.577298814096377 28.9878
25.600308179121807 28.9687
25.623140214533745 28.7097
25.64597328451537 28.1651
25.66898578564376 27.5895
25.691820936010206 27.254
25.714657124097695 27.0246
25.737494350954734 26.7732
25.760511045684957 26.6171
25.783350361364224 26.5034
25.806190718969255 26.6084
25.82903211955018 26.7262
25.852053024868923 26.7251
25.874896522722523 26.771
25.897741066713106 26.8881
25.920586657892454 26.8801
25.943611790812668 26.8392
25.966459487728237 26.5393
25.989308234998564 26.276
26.01215803367705 26.2095
26.03518741123814 26.064
26.05803932412957 25.9905
26.080892291600094 25.8252
26.10374631470478 25.8984
26.12677995397268 25.9589
26.14963609978026 26.0181
26.172493304397875 25.9432
26.19535156888223 26.1096
26.218389486949604 26.1396
26.241249882640123 26.4454
26.26411134137826 26.5727
26.28715248187403 26.8228
26.31001607820869 26.9809
26.3328807407756 26.9158
26.35574647063438 27.0692
26.37879191991473 26.7638
26.401659795896734 26.6877
26.424528742360263 26.6053
26.447398760366614 26.3621
26.470448535598294 26.1885
26.49332070826805 26.1321
26.516193955675355 26.184
26.53906827888316 25.9457
26.562122397260108 25.9574
26.584998883685063 25.9976
26.607876449110325 25.9206
26.63075509460056 25.9046
26.65381357334404 25.9112
26.67669439061878 25.8861
26.699576291163382 25.964000000000002
26.722459276044212 26.1737
26.745522132402975 26.2587
26.768407297649354 26.5179
26.791293550442003 26.6258
26.814180891848974 26.9972
26.837248143099337 27.2292
26.860137673466657 27.5136
26.88302829566349 27.6564
26.90592001075963 27.7107
26.92899167420566 27.7011
26.951885586870763 27.6205
26.974780595655517 27.5794
26.99785558178161 27.6522
27.020752794605112 27.5921
27.043651106772522 27.4609
27.06655051935668 27.2729
27.089629948036183 26.9207
27.112531573292053 26.6334
27.135434302194138 26.3429
27.158338135817015 25.868000000000002
27.181422024430987 25.7615
27.204328079372566 25.4798
27.22723524226965 25.4188
27.250143514198573 25.3764
27.273231880156334 25.3313
27.296142382065014 25.1696
27.319053996245536 25.0345
27.341966723775965 25.0461
27.365059584515222 25.0573
27.38797455070062 24.9419
27.410890633481237 24.9952
27.433807833936918 24.9073
27.456905206923906 24.927
27.47982465472398 24.9273
27.502745223449743 24.8471
27.525666914182825 24.956
27.548768816912457 25.0095
27.571692763693633 25.0253
27.59461783573812 24.9222
27.617723149491244 24.866999999999997
27.640650484125285 24.9297
27.66357894728264 24.9198
27.686508540048052 25.0114
27.709618414237887 24.9116
27.732550278321757 24.9767
27.755483275279115 25.1297
27.778417406196485 25.1222
27.801531858397514 25.1378
27.824468269376716 24.9428
27.847405817586786 24.8339
27.870344504116094 24.8306
27.893463551932008 24.7039
27.916404527281053 24.6468
27.93934664422563 24.6301
27.962289903855886 24.6501
27.98541356491974 24.6554
28.00835912214229 24.7866
28.03130582533231 24.8895
28.054253675581805 25.0556
28.077381967556104 25.087
28.100332124185126 25.1723
28.123283431160893 25.29
28.146235889577238 25.2369
28.169368830154156 25.219
28.192323603752033 25.26
28.215279532083304 25.2434
28.238415973016764 25.3591
28.261374223145094 25.4951
28.284333631303806 25.6673
28.307294198589954 25.7328
28.330435319167677 25.6991
28.353398217078915 25.5582
28.376362277420153 25.3998
28.39932750129032 25.2344
28.422473319286713 25.1355
28.44544088262495 25.0883
28.468409612800283 24.9544
28.491379510913497 24.7581
28.51453004413313 24.6353
28.53750229057244 24.5388
28.56047570826344 24.3771
28.583450298308804 24.2592
28.606605564586562 24.0351
28.629582511831156 24.011
28.65256063474956 23.9242
28.675539934446338 23.8582
28.698699951647605 23.7227
28.72168161743193 23.5487
28.74466446331978 23.427
28.767648490417624 23.2745
28.790813276438353 23.2017
28.813799678527303 23.2108
28.836787265157085 23.0683
28.859955641890075 23.0442
28.882945610203045 23.0532
28.905936766392035 22.8702
28.928929111566863 22.9894
28.952102288520145 22.9316
28.975097024308607 22.8841
28.998092952423807 22.802
29.021090073977508 22.8678
29.04426806913204 22.8292
29.067267590245258 22.798000000000002
29.090268308143695 22.9534
29.11327022394099 22.962
29.13645305530891 22.9801
29.159457379627167 23.011999999999997
29.18246290519685 22.9244
29.20546963313352 22.8333
29.22865731875826 22.7479
29.25166646419296 22.6937
29.27467681535305 22.5432
29.29768837335608 22.3368
29.320880931312562 22.436
29.34389491580634 22.2381
29.366910110507334 22.256999999999998
29.38992651653503 22.1917
29.41312396492981 22.1815
29.436142806456754 22.1485
29.45916286268059 22.1509
29.48236399319994 22.1595
29.50538649169417 22.0411
29.528410208259935 22.1031
29.55143514402014 22.0995
29.574641196749695 22.0551
29.597668583816574 22.0779
29.6206971934585 22.1382
29.64372702680042 22.163
29.666938019934474 22.2134
29.689970313635285 22.1467
29.713003834422636 22.0444
29.73603858342347 21.8863
29.759254535188578 21.7709
29.78229175361658 21.7551
29.80533020365064 21.7091
29.82836988641968 21.6717
29.85159081507472 21.487
29.874632976355343 21.47
29.89767637376955 21.5677
29.920721008448314 21.3345
29.9439469322847 21.329
29.96699405457564 21.3557
29.9900424175358 21.3823
30.013092022298157 21.357
30.03632295963995 21.3158
30.059375061131373 21.4332
30.08242840783577 21.4989
30.105483000888153 21.4688
30.128718970092244 21.4856
30.151776069006917 21.5257
30.17483441768648 21.5409
30.198074175317235 21.3898
30.221135036724256 21.3399
30.24419715131772 21.156
30.267260520236203 21.0917
30.290505341942243 21.0417
30.313571232750228 21.1491
30.336638381310948 21.0529
30.35970678876503 21.107
30.38295669299435 21.0919
30.40602763151657 21.1531
30.429099832366074 21.1455
30.452173296685572 21.2055
30.47542830191959 21.1129
30.498504306502497 21.0675
30.521581577995562 21.0881
30.544660117543582 21.1441
30.56792024229725 21.0873
30.59100133132069 20.9702
30.614083691845494 20.8628
30.637167325018545 20.8819
30.660432587840603 20.9089
30.683518779717886 20.905
30.70660624769615 20.8871
30.729694992924372 20.8817
30.75296541239743 20.9053
30.77605672557558 20.8893
30.799149319462742 20.9378
30.8224236211637 20.9586
30.845518789950724 20.9845
30.868615242910597 21.0188
30.891712981195973 21.0202
30.91499247215866 21.0963
30.938092794619365 21.2927
30.96119440587579 21.3038
30.984297307082752 21.2492
31.00758200598383 21.2054
31.030687500658694 21.14
31.053794288760695 21.1736
31.076902371446767 21.1333
31.100192296997445 21.1221
31.12330298246119 21.1246
31.14641496599209 20.9932
31.169528248749216 20.997
31.19282341969534 20.8676
31.215939314557186 20.8395
31.239056512134788 20.7341
31.262175013589378 20.5852
31.28547544871168 20.5229
31.30859657161541 20.4832
31.331719001892175 20.3902
31.35484274070538 20.4278
31.378148458819545 20.3963
31.401274828443725 20.4343
31.424402510106933 20.3592
31.447712205419993 20.3062
31.470842524931633 20.1861
31.493974159989783 20.2761
31.51710711176168 20.3202
31.54042212308802 20.3646
31.563557722100917 20.3514
31.586694641341655 20.2678
31.609832881979628 20.3378
31.63315322823208 20.364
31.656294125521327 20.3067
31.679436347728515 20.3344
31.70257989602529 20.3051
31.725905596152327 20.2676
31.74905181052835 20.2857
31.772199354521323 20.4326
31.79534822930507 20.3307
31.818679302290967 20.2817
31.84183085259981 20.268
31.864983737233473 20.1288
31.88813795736804 20.0768
31.911474422233013 19.8889
31.934631327356435 19.9863
31.9577895715215 19.9332
31.980949155906522 19.894000000000002
32.004291031706956 19.9064
32.027453310562606 19.8516
32.05061693318573 19.8721
32.07396288236386 19.8574
32.09712920658542 19.8353
32.12029687812702 19.8415
32.14346589817093 19.8342
32.166817291729984 19.8809
32.18998902288583 19.89
32.21316210610336 19.9202
32.23633654256711 19.8356
32.259693399663725 19.8866
32.282870556771144 19.8224
32.30604907069099 19.7145
32.329228942610065 19.6972
32.35259128243769 19.5339
32.375773884550505 19.6058
32.398957848235646 19.5195
32.422143174682176 19.5156
32.445511016471215 19.4296
32.468699082679954 19.3973
32.49188851523011 19.2682
32.51507931531304 19.1975
32.538452678331 19.2722
32.56164622776311 19.1126
32.58484114831493 19.1237
32.60803744118015 19.0384
32.631416344731896 19.0367
32.654615396551876 18.9834
32.67781582427913 18.9154
32.701198898634416 18.9138
32.72440209253756 18.9402
32.747606665947124 18.8807
32.77081262006088 18.7973
32.79420126883317 18.7482
32.81740999876112 18.7944
32.840620112999424 18.823
32.86383161274818 18.6751
32.88722585534586 18.7012
32.91044014056596 18.744
32.933655814909734 18.7012
32.95687287957963 18.6771
32.98027273544904 18.6671
33.00349259526636 18.6844
33.026713849030116 18.641
33.04993649794511 18.6271
33.073341986570746 18.6514
33.09656744032826 18.5587
33.11979429286444 18.5053
33.14302254538647 18.4937
33.166433686291185 18.4291
33.18966475336992 18.3204
33.212897224069096 18.3231
33.23613109959831 18.3518
33.259547912343415 18.3074
33.2827846121627 18.3393
33.306022720453775 18.2853
33.32926223842861 18.2446
33.352684742614166 18.3221
33.37592709463173 18.3205
33.399170859982064 18.3287
33.422597648419426 18.3213
33.44584425514446 18.2334
33.46909227885668 18.3239
33.4923417207723 18.2567
33.51577423505344 18.3118
33.539026528130385 18.2572
33.56228024307245 18.2617
33.585535381098246 18.1537
33.60897364093058 18.107
33.63223163992385 18.0922
33.6554910656699 18.023
33.678751919389796 17.9502
33.702195944520106 17.9064
33.72545966903325 17.8879
33.74872482519663 17.7904
33.771991414233746 17.8068
33.79544122444841 17.7422
33.81871069412428 17.6452
33.84198160035767 17.5946
33.86525394437455 17.6026
33.88870955949969 17.5817
33.911984794020626 17.5721
33.93526147001624 17.573
33.958539588715006 17.5194
33.98200102861669 17.5125
34.0052820477047 17.4435
34.02856451319451 17.4505
34.05203033759056 17.3944
34.07531571090147 17.4087
34.09860253431845 17.4567
34.121890809074316 17.3832
34.145362493118924 17.3682
34.16865368561615 17.3558
34.191946333164054 17.3395
34.21524043699793 17.2905
34.23871800066799 17.2606
34.26201503218366 17.174
34.28531352370466 17.1764
34.30861347646881 17.0921
34.33209693978188 17.0789
34.3553998301885 17.0902
34.378704185565205 17.0426
34.402010007152356 16.9627
34.42549939016683 17.0152
34.44880815937748 16.9084
34.472118398533134 16.9059
34.49543010887669 16.8814
34.51892543169198 16.817
34.54224009966052 16.8403
34.56555624255917 16.893
34.58887386163339 16.8122
34.61237514439016 16.858
34.6356957311114 16.7864
34.65901779775809 16.7869
34.68252356662995 16.7855
34.705848608458616 16.7231
34.72917513396849 16.6432
34.75250314440949 16.637
34.77601490857862 16.5518
34.799345904259795 16.5193
34.82267838863559 16.5799
34.846012362958525 16.5146
34.869530142679984 16.5049
34.89286711232212 16.4806
34.91620557568269 16.4417
34.93954553401677 16.4367
34.9630693495876 16.3913
34.986412313340814 16.4093
35.00975677584668 16.3689
35.033102738362956 16.3457
35.05663261012228 16.3197
35.0799815881786 16.288
35.10333207003229 16.1661
35.12668405694369 16.3072
35.150220005273056 16.3403
35.17357501786656 16.3115
35.19693153931268 16.2455
35.220289570874385 16.1667
35.24383161619786 16.1291
35.267192683604904 16.1496
35.290555264930376 16.0806
35.314101899412165 16.0864
35.33746752422433 16.1185
35.36083466676374 16.116
35.38420332829803 16.0379
35.407756095629054 16.0391
35.43112781085063 16.0875
35.45450104888391 16.0026
35.477875810999194 16.0394
35.50143473172161 15.9372
35.52481255774625 15.9132
35.54819191167777 15.946
35.57157279478914 15.8771
35.595137889488406 15.9279
35.61852184675279 15.9787
35.641907337029984 16.0289
35.665294361595684 16.0394
35.68886565090076 15.9133
35.7122557598848 15.9531
35.73564740699838 15.9513
35.759040593519934 15.8732
35.78261809810353 15.8833
35.80601437933051 15.7962
35.829412203814705 15.7636
35.85281157283719 15.8075
35.876395313415884 15.8492
35.8997977874528 15.7565
35.92320180988546 15.7693
35.946790244133936 15.630999999999998
35.97019737933222 15.6616
35.993606066789866 15.6118
36.01701630779276 15.6047
36.04061101440684 15.5341
36.06402437852291 15.5512
36.08743930005611 15.5269
36.1108557802951 15.4856
36.13445678011326 15.421
36.15787639383515 15.3987
36.18129757014299 15.3773
36.20472031032821 15.399000000000001
36.22832762423364 15.3298
36.25175350829375 15.3264
36.275180960119776 15.3344
36.298609981005924 15.3127
36.32222362992669 15.289000000000001
36.34565580510207 15.2753
36.36908955323448 15.2516
36.39252487562093 15.1619
36.416144880530226 15.1957
36.43958336764275 15.1718
36.463023432914625 15.2117
36.486465077645676 15.1651
36.51009145956204 15.1199
36.53353627947859 15.1074
36.55698268276811 15.0956
36.58043067073321 15.1261
36.60406345072071 15.0001
36.62751462435344 14.9819
36.65096738658405 15.0161
36.67460498210655 14.9505
36.69806093788647 14.9872
36.72151848619297 14.9025
36.744977628333636 14.9386
36.76862165890998 14.887
36.79208400512205 14.8872
36.81554794910557 14.9276
36.83901349217101 14.815
36.862663978991606 14.7503
36.88613273667352 14.7623
36.90960309738324 14.8074
36.933075062434064 14.8347
36.95673202673572 14.7462
36.98020721697122 14.7522
37.003684015502365 14.6338
37.027162423645365 14.6204
37.050825886711465 14.6194
37.07430753063053 14.5618
37.09779078812467 14.5792
37.121275660513014 14.5724
37.144945643673694 14.4943
37.16843376245278 14.468
37.19192350009803 14.4873
37.215414857931435 14.4339
37.239091382563885 14.4279
37.262585997426164 14.4092
37.28608223645736 14.3845
37.309763684451696 14.3825
37.33326318851098 14.4043
37.356764320726555 14.4075
37.380267082425526 14.3659
37.40395510942588 14.3194
37.42746114683234 14.2728
37.45096881771841 14.2307
37.474478123414166 14.2555
37.49817275092816 14.2319
37.52168534303452 14.2114
37.54519957395567 14.0802
37.568715445024665 14.0945
37.592416694607714 14.0615
37.61593586281424 14.0997
37.63945667518264 14.1284
37.66297913304891 14.027999999999999
37.68668702630454 14.0251
37.710212792059274 13.999
37.733740207334854 13.9372
37.757269273470364 13.9253
37.780983832050374 13.9349
37.80451621684926 13.8867
37.82805025654007 13.8521
37.851585952464795 13.8334
37.8753071980695 13.8288
37.89884622345676 13.7741
37.92238690911902 13.795
37.94611318753442 13.7446
37.969657210779765 13.832
37.99320289834801 13.7406
38.016750251586465 13.6855
38.04048325513017 13.699000000000002
38.06403395679343 13.7116
38.087586328183946 13.6698
38.11114037065203 13.6643
38.13488012115898 13.6509
38.1584375229181 13.617
38.181996599821 13.5803
38.205557353221124 13.5706
38.229303872575656 13.5303
38.2528679961576 13.4489
38.27643380031219 13.4503
38.30000128639589 13.4177
38.32375459653193 13.4247
38.34732546371299 13.3858
38.37089801690786 13.3444
38.39447225747609 13.3925
38.418232380377425 13.3506
38.441810012983396 13.3555
38.46538933705673 13.2663
38.488970353960084 13.3306
38.51273731166058 13.2859
38.536321731567014 13.2449
38.55990784840681 13.2148
38.58367995004091 13.1917
38.60726947812959 13.1386
38.63086070726198 13.206
38.654453638806274 13.2059
38.678232613930824 13.177999999999999
38.70182896773327 13.1409
38.72542702806741 13.0548
38.7490267963045 13.0198
38.77281266709232 13.0629
38.79641586862214 13.0442
38.8200207821842 13.040999999999999
38.843627409152944 13.0531
38.86742019782782 12.9646
38.891030269149255 12.9279
38.914642058016156 12.9541
38.938255565806124 12.9203
38.96205529464307 12.9401
38.98567225787121 12.9656
39.00929094417078 12.897
39.03291135492255 12.8763
39.05671804624804 12.8878
39.080341923549106 12.82
39.103967529460334 12.7773
39.127594865365744 12.7502
39.15140854155791 12.7919
39.17503935514948 12.7632
39.19867190290282 12.742
39.22249083587951 12.7329
39.24612686969409 12.6674
39.269764641845306 12.6563
39.293404153722804 12.6448
39.317230110864074 12.5942
39.34087311998506 12.5823
39.36451787301696 12.5719
39.388164371352595 12.5766
39.41199737518003 12.5662
39.43564738196752 12.502
39.45929913825317 12.457
39.48295264543308 12.4541
39.506792718520884 12.4624
39.530449745387216 12.4754
39.55410852735203 12.4368
39.57776906581474 12.4174
39.60161623079 12.4431
39.625280300200025 12.3841
39.64894613032202 12.3306
39.67261372255866 12.3427
39.6964680021016 12.3463
39.72013913657293 12.29
39.74381203738292 12.2903
39.76748670593756 12.2578
39.79134812278169 12.23
39.81502634488497 12.1678
39.83870633896685 12.189
39.862388106436654 12.1399
39.88625668336918 12.1171
39.90994201572829 12.17
39.933629125719285 12.1102
39.957503091207826 12.1132
39.9811937746168 12.1357
40.00488623990914 12.0901
40.02858048850006 12.0564
40.05246165409549 12.0438
40.076159487492085 11.9789
40.099859108448875 12.0224
40.123560518384345 12.0042
40.1474489070226 11.9642
40.171153913178564 11.9307
40.194860712584955 11.9448
40.2185693066637 11.9006
40.242464941335314 11.8653
40.26617714307655 11.7944
40.289891143772046 11.8819
40.3136069448471 11.8536
40.33750984859743 11.8487
40.3612292688043 11.8243
40.3849504936829 11.7913
40.40867352466194 11.7656
40.43258372059144 11.7473
40.45631038219906 11.7583
40.48003885420956 11.684000000000001
40.503769138055105 11.7073
40.52768664931955 11.7208
40.55142057531802 11.6777
40.57515631746428 11.6795
40.599079334038514 11.6645
40.62281872700477 11.6494
40.64655994043941 11.5903
40.67030297578061 11.5975
40.69423334835778 11.6093
40.71798004609188 11.5459
40.74172857006355 11.5179
40.76547892171441 11.5582
40.7894166736039 11.4609
40.813170699248566 11.4385
40.83692655691388 11.4261
40.86068424804498 11.4372
40.884629402612525 11.4058
40.908390779366385 11.389000000000001
40.932153993938 11.3865
40.95591904777605 11.3971
40.979871628443995 11.4424
41.003640379561936 11.3895
41.02741097430883 11.3663
41.05118341413683 11.3532
41.075143444384416 11.2921
41.098919593177826 11.3345
41.1226975914255 11.3091
41.14647744058318 11.2373
41.170444943946755 11.218
41.19422851378379 11.2388
41.218013938914645 11.1695
41.24198706625173 11.1322
41.26577622087193 11.1289
41.289567235177785 11.1287
41.31336011063129 11.0854
41.337340752422875 11.0569
41.361137369129835 11.1441
41.38493585138705 11.1296
41.40873620066004 11.0128
41.43272438060107 11.0717
41.45652848292052 11.0402
41.48033445666918 10.9683
41.50414230331616 10.9765
41.528138045159764 10.9839
41.551949656675205 10.9204
41.575763145513235 10.9085
41.59957851314666 10.8859
41.62358184070442 10.9302
41.64740098505737 10.8442
41.6712220126409 10.8626
41.69504492493139 10.8579
41.71905586207357 10.8119
41.74288256296395 10.8144
41.766711153007456 10.8144
41.79054163368412 10.7959
41.814560204340054 10.8109
41.838394485526365 10.7916
41.86223066180303 10.7502
41.88625497706819 10.644
41.910094962812 10.6842
41.93393684811168 10.6866
41.95778063445365 10.6676
41.981812625263366 10.6738
42.00566023303407 10.6202
42.029509746323676 10.6481
42.05336116662236 10.6052
42.077400857069705 10.5906
42.10125611078846 10.5569
42.12511327600405 10.5534
42.14897235421036 10.5219
42.173019768448455 10.4961
42.19688269209613 10.4747
42.22074753323349 10.4482
42.24461429335818 10.4689
42.268669455600495 10.4245
42.292540073217886 10.4637
42.31641261433284 10.4124
42.34028708044675 10.4103
42.36435001496739 10.3472
42.38822835065557 10.3759
42.41210861586426 10.3849
42.4359908120986 10.3796
42.46006154323262 10.3322
42.48394762115317 10.285
42.507835634632315 10.2572
42.531912233047436 10.2699
42.55580413732265 10.2349
42.579697981698 10.2347
42.60359376768525 10.177999999999999
42.62767820545945 10.1795
42.65157789440821 10.1911
42.67547952952185 10.1764
42.699383112316 10.1679
42.72347541395347 10.1107
42.74738291190531 10.1001
42.771292362102166 10.091000000000001
42.795203766063516 10.1108
42.819303956130405 10.0806
42.843219287476536 10.0615
42.86713657716324 10.0384
42.89105582671383 9.98206
42.91516392983864 9.976980000000001
42.939087119032166 9.974160000000001
42.963012272677304 9.98922
42.98693939230129 9.95048
43.01105543317513 9.93635
43.034986504731386 9.91751
43.05891954686589 9.85471
43.08285456110972 9.89445
43.10697856448665 9.8576
43.130917542983475 9.80361
43.15485849820081 9.820260000000001
43.17880143167367 9.7882
43.20293342237094 9.78947
43.226880332449 9.752130000000001
43.25082922540554 9.76817
43.27496722682525 9.74695
43.29892010567796 9.72215
43.32287497204102 9.67561
43.34683182745632 9.67022
43.370977859791836 9.6784
43.39493871351105 9.634139999999999
43.41890156092628 9.589139999999999
43.44286640358341 9.6041
43.46702049182749 9.61295
43.49098934522816 9.58196
43.51496019852649 9.55707
43.5389330532723 9.57743
43.56309522248204 9.53773
43.58707210044314 9.535730000000001
43.61105098451946 9.52149
43.63503187626491 9.46243
43.659202151562134 9.47171
43.68318707902681 9.49063
43.70717401884041 9.47135
43.731162972560874 9.43164
43.75534137913236 9.38144
43.779334381108384 9.355369999999999
43.803329401683186 9.41128
43.82732644241872 9.41813
43.8515130055166 9.41357
43.87551410707659 9.36772
43.89951723350145 9.380460000000001
43.923709934595614 9.304789999999999
43.94771713129917 9.291360000000001
43.97172635758096 9.269039999999999
43.99573761501002 9.26874
44.0199385169922 9.22649
44.04395385732619 9.26293
44.067971233533086 9.2562
44.09199064718605 9.22132
44.11619977548961 9.1975
44.14022328470671 9.15558
44.16424883610785 9.198269999999999
44.18827643127035 9.1899
44.21249381139513 9.14418
44.236525514814076 9.08804
44.26055926674478 9.08398
44.28459506876863 9.10603
44.3088207262813 9.06932
44.33286064928722 9.04079
44.35690262714919 9.03295
44.38094666145278 9.02137
44.4051806219871 9.01056
44.42922879003185 9.022960000000001
44.45327901929361 8.955919999999999
44.477331311362136 8.95946
44.501573600619416 8.98218
44.525630039221795 8.92102
44.54968854541895 8.93356
44.573937102200176 8.86655
44.5979997645541 8.885539999999999
44.622064499300315 8.87919
44.64613130803592 8.84545
44.67038823869318 8.834060000000001
44.69445921643748 8.80896
44.718532272981385 8.80505
44.742607409926194 8.8092
44.76687274034801 8.78043
44.79095205918753 8.770380000000001
44.81503346325094 8.7945
44.839116954143876 8.7281
44.86339071028742 8.75653
44.88747839599524 8.73937
44.91156817336837 8.69553
44.93566004401666 8.67945
44.959942251908146 8.693
44.984038330325966 8.676730000000001
45.00813650686762 8.6407
45.03223678314731 8.64282
45.05652746888232 8.62236
45.08063196592069 8.613010000000001
45.104738567558705 8.57238
45.128847275414856 8.56102
45.15314646515866 8.53214
45.17725940679741 8.50576
45.20137445952892 8.495339999999999
45.22568004865265 8.47978
45.24979934496396 8.48997
45.27392075725247 8.53125
45.29804428714431 8.52107
45.322358426247604 8.499089999999999
45.346486212804315 8.47052
45.370616121861914 8.41559
45.39474815505086 8.38753
45.41907087049246 8.41729
45.4432071734666 8.37957
45.46734560548283 8.41339
45.49148616817604 8.390989999999999
45.51581748638564 8.3651
45.5399623320197 8.32133
45.56410931325473 8.28149
45.58825843173002 8.2716
45.61259837920865 8.278039999999999
45.636751793816 8.29141
45.66090735060093 8.3029
45.68506505120716 8.27218
45.7094136545275 8.240689999999999
45.73357566449271 8.22226
45.75773982322992 8.207419999999999
45.78190613238733 8.18091
45.806263418194064 8.15806
45.83043404997326 8.14306
45.85460683713677 8.13681
45.87897065658495 8.14011
45.90314777634752 8.05987
45.92732705646868 8.13097
45.9515084986045 8.08141
45.97588104735473 8.07028
46.00006683541565 8.02929
46.02425479047904 8.03655
46.04844491420549 8.05137
46.0728262191024 8.05987
46.09702070211635 8.04318
46.12121735879483 8.00528
46.14541619080294 7.9953899999999996
46.169806278764455 7.956410000000001
46.194009483459034 7.95661
46.21821486849841 7.92375
46.24242243555223 7.86153
46.266821333570014 7.88678
46.29103328674601 7.907310000000001
46.31524742696538 7.858169999999999
46.33946375590237 7.88403
46.36387149104216 7.88058
46.38809221957392 7.839460000000001
46.41231514186606 7.8262
46.436540259597464 7.8562899999999996
46.460956858999374 7.81044
46.48518638983522 7.79024
46.509418121166966 7.777880000000001
46.533652054678114 7.74597
46.55807754555709 7.7087699999999995
46.58231590571962 7.737019999999999
46.60655647313217 7.751860000000001
46.630988654873654 7.737889999999999
46.655233659129024 7.71173
46.67948087571551 7.67472
46.70373030632484 7.6564
46.72817142736393 7.64285
46.752425308428684 7.620410000000001
46.77668140861147 7.60032
46.80093972960865 7.58715
46.82538981736788 7.60572
46.849652602470904 7.55347
46.87391761349769 7.55652
46.8981848521493 7.56123
46.9226439341274 7.53632
46.946915650573224 7.502000000000001
46.97118959976749 7.50961
46.99546578341598 7.48848
47.019933887188216 7.48504
47.04421456235744 7.47225
47.06849747711879 7.444030000000001
47.09278263318286 7.4564699999999995
47.11725978640143 7.44528
47.14154944775105 7.405410000000001
47.165841355555656 7.41402
47.1901355115306 7.372560000000001
47.214621741924994 7.35611
47.23892041698887 7.375
47.26322134538975 7.340560000000001
47.28771440635075 7.32932
47.31201986422527 7.323980000000001
47.33632758061436 7.291580000000001
47.360637557241866 7.2969100000000005
47.38513974410611 7.2876
47.40945426407847 7.24868
47.43377104948137 7.255669999999999
47.45809010204344 7.258189999999999
47.48260144275502 7.21975
47.506925052572285 7.2060699999999995
47.53125093475548 7.22509
47.55557909103813 7.18209
47.58009961361992 7.159960000000001
47.60443234110732 7.1333
47.62876734791564 7.1330800000000005
47.65310463578333 7.13428
47.6776343683373 7.11763
47.7019762413987 7.099
47.72632040075572 7.10655
47.75066684815169 7.071330000000001
47.77520581885936 7.08237
47.799556865477655 7.08142
47.823910205386 7.09514
47.84826584033272 7.0707699999999996
47.87281407745551 6.9861
47.89717432569297 7.0338199999999995
47.92153687423484 7.01665
47.94609208429692 7.044339999999999
47.97045925671401 6.991210000000001
47.99482873471275 6.969589999999999
48.01920052005013 6.950239999999999
48.04376504619224 6.939780000000001
48.068141469543484 6.9308
48.09252020552573 6.94865
48.11690125590099 6.94803
48.1414751266064 6.935339999999999
48.16586082917454 6.879519999999999
48.19024885144316 6.85527
48.2146391951793 6.87149
48.239222439012764 6.87438
48.26361744916137 6.850339999999999
48.28801478610016 6.84558
48.31241445160131 6.87403
48.337007097209366 6.822310000000001
48.36141144338331 6.790960000000001
48.38581812345755 6.7953
48.41022713920929 6.8062
48.434829215320704 6.7675
48.45924292604658 6.733060000000001
48.48365897780325 6.704619999999999
48.50807737237308 6.720260000000001
48.532688907799276 6.72129
48.55711201168574 6.70966
48.581537463754074 6.6665600000000005
48.60615611725119 6.711139999999999
48.63058628942721 6.68047
48.65501881516546 6.65793
48.6794536962573 6.6144
48.70408185970339 6.6462
48.72852147531801 6.628260000000001
48.75296345168211 6.61062
48.77740779059232 6.594589999999999
48.80204549302823 6.61591
48.82649458091802 6.590669999999999
48.85094603676547 6.57326
48.87539986237231 6.54593
48.90004713292306 6.52614
48.92450572200832 6.51295
48.94896668628025 6.51693
48.97343002754588 6.47006
48.99808689542115 6.494190000000001
49.02255501470614 6.45974
49.04702551642794 6.45017
49.0714984023988 6.40304
49.096164896893235 6.4195
49.120642575466796 6.4244
49.145122643748394 6.4154
49.16960510355558 6.42208
49.19428125404938 6.3907099999999994
49.2187685210852 6.3893699999999995
49.243258185121555 6.37479
49.26794160167084 6.37322
49.2924360839405 6.35011
49.31693296869764 6.33999
49.34143225776915 6.32445
49.36612538195438 6.30553
49.39062950396021 6.30929
49.41513603578346 6.28207
49.4396449792564 6.270490000000001
49.46434784069503 6.27384
49.488861631846454 6.25012
49.513377840166804 6.26799
49.537896467493745 6.2205
49.56260909589029 6.18272
49.587132585683285 6.19608
49.611658500018365 6.221430000000001
49.636186840738596 6.18446
49.66090926588511 6.16962
49.685442483902584 6.15439
49.70997813385706 6.1512
49.734516217597076 6.12593
49.75924846937352 6.11758
49.7837914452858 6.11615
49.80833686055187 6.11281
49.83288471702571 6.09647
49.85762682540054 6.10544
49.882179588965734 6.10438
49.9067347993235 6.07604
49.93129245833333 6.0549800000000005
49.95604445336378 6.04495
49.98060703442832 6.0239
50.005172069746266 6.0198
50.02993150438364 6.0186
50.05450147301533 5.985530000000001
50.07907390151433 5.98414
50.10364879174981 5.99181
50.12841816587289 5.976
50.1529980044635 5.951630000000001
50.17758031042124 5.93118
50.20216508562089 5.95011
50.22694442953363 5.95694
50.25153416817468 5.9307
50.27612638170508 5.91474
50.300721072005196 5.8703
50.325510416102105 5.86569
50.350110084975064 5.881530000000001
50.37471223628208 5.86455
50.39931687190919 5.84468
50.424116246675766 5.8331800000000005
50.44872587605249 5.84056
50.47333799543065 5.8116699999999994
50.49795260670191 5.81768
50.52276204271512 5.78571
50.54738166295838 5.7921
50.57200378079314 5.76165
50.596628398116835 5.75525
50.62144792604559 5.77732
50.646077567609396 5.74706
50.670709714377715 5.73375
50.69553683636198 5.71496
50.72017401885922 5.70375
50.7448137122895 5.65961
50.76945591856022 5.65
50.79429318636823 5.67258
50.818940443716784 5.69198
50.84359021965163 5.6776800000000005
50.868242516085964 5.68117
50.893089960641895 5.63802
50.917747323549435 5.6323
50.94240721271973 5.60931
50.96706963007175 5.607530000000001
50.99192728239342 5.6173
51.01659478166073 5.6147800000000005
51.04126481489051 5.55274
51.06593738400761 5.55618
51.090805275207074 5.56836
51.11548294172845 5.55426
51.14016314993547 5.56349
51.164845901758845 5.550669999999999
51.18972406304274 5.51291
51.21441192780656 5.50275
51.23910234200271 5.469119999999999
51.2637953075678 5.46071
51.288683770237945 5.438359999999999
51.31338186432707 5.43224
51.33808251561888 5.44226
51.362978729967345 5.4296
51.387684521509755 5.41766
51.41239287610203 5.41604
51.437103795691165 5.39268
51.46201036644977 5.3989199999999995
51.486726441956634 5.3722900000000005
51.51144508832545 5.37331
51.536166307509156 5.381130000000001
51.56108326624387 5.3566
51.58580965706056 5.354369999999999
51.61053862657523 5.34296
51.635270176746864 5.33252
51.66019755512065 5.29401
51.68493429268881 5.29207
51.70967361681515 5.318630000000001
51.73441552946465 5.30638
51.759353359237934 5.2763599999999995
51.7841004750961 5.296069999999999
51.80885018539685 5.2804400000000005
51.833602492111254 5.25841
51.8585508051424 5.225169999999999
51.883308330926425 5.2150099999999995
51.90806845906181 5.213080000000001
51.932831191525715 5.18391
51.95779001977161 5.153569999999999
51.98255798721516 5.20943
52.00732856494335 5.1261
52.03229530577543 5.17658
52.057071130455945 5.17748
52.081849571391054 5.14736
52.106630630568695 5.13169
52.13160794279417 5.09304
52.15639426492067 5.12948
52.18118321127822 5.14286
52.205974783860896 5.053380000000001
52.23096269971011 5.0544
52.255759551287994 5.06621
52.280559035098186 5.04857
52.30536115314103 5.06278
52.33035970494467 5.06385
52.35516711807904 5.03489
52.37997717147198 5.0259599999999995
52.40478986713005 4.9901
52.42979908731974 5.00197
52.454617094216 5.0084599999999995
52.47943774942214 4.98272
52.50426105495102 4.983280000000001
52.529280976059844 4.9726
52.554109609024096 4.94037
52.57894089837482 4.956580000000001
52.60377484613117 4.94046
52.62880550079408 4.946969999999999
52.65364479223379 4.95022
52.67848674816189 4.8922
52.70352547971946 4.90331
52.72837279155837 4.8889
52.753222773982785 4.8627400000000005
52.778075429022984 4.87245
52.80312495150885 4.8705
52.827982978797436 4.8674599999999995
52.85284368481815 4.86185
52.87770707160767 4.86565
52.90276741793998 4.8285
52.92763619336701 4.7987
52.952507655698504 4.83373
52.977381806977576 4.84207
53.00245301017842 4.75973
53.02733256653592 4.78616
53.052214817996074 4.791580000000001
53.077099766608484 4.77217
53.102181859804446 4.752619999999999
53.127072229988265 4.77735
53.15196530349892 4.73905
53.17686108239249 4.714980000000001
53.20195409881522 4.703869999999999
53.22685531582556 4.70158
53.25175924441303 4.6944300000000005
53.27666588664027 4.693569999999999
53.30176985962693 4.67635
53.3266819565689 4.641290000000001
53.35159677336455 4.64706
53.376514312083096 4.66172
53.40162927507703 4.61412
53.42655228516116 4.6569199999999995
53.45147802340193 4.58362
53.47660125628886 4.58249
53.50153247842639 4.56663
53.52646643496923 4.5647400000000005
53.55140312799818 4.5526
53.576537409691696 4.577030000000001
53.60147960336152 4.59898
53.626424539786164 4.55965
53.65137222105307 4.52599
53.67651758529126 4.53049
53.70147078399681 4.5084599999999995
53.72642673383343 4.47516
53.75138543689533 4.47812
53.776541917524526 4.49866
53.801506154876755 4.4802
53.826473151763246 4.46636
53.851442910284916 4.41867
53.87661054126026 4.42793
53.9015858509782 4.37624
53.92656392866066 4.40353
53.95154477641532 4.40384
53.976723591801296 4.35491
54.00171000771266 4.36041
54.02669920004598 4.36607
54.051691170915745 4.32749
54.076881204886796 4.34762
54.101878760928514 4.33248
54.12687910187696 4.32419
54.152077577768296 4.32343
54.1770835166946 4.27911
54.20209224691339 4.256819999999999
54.22710377055121 4.27083
54.25231352511594 4.31056
54.27733066384342 4.25669
54.30235060239643 4.266290000000001
54.32737334290836 4.22023
54.35259441062629 4.18662
54.377622783395324 4.17042
54.40265396455061 4.16022
54.42768795623251 4.16633
54.45292037169559 4.16573
54.477960012857906 4.14971
54.50300247099511 4.13504
54.52804774825457 4.114730000000001
54.55329154616743 4.06775
54.57834249018678 4.06503
54.6033962597977 4.03025
54.6284528571545 3.9827199999999996
54.653708072335164 3.96478
54.67877035378786 3.9978300000000004
54.70383546947698 3.9671
54.72890342156389 3.99074
54.7541700889442 3.92461
54.77924374251975 3.98175
54.8043202390049 3.9297699999999995
54.82959552413022 3.8651199999999997
54.8546777351945 3.85897
54.87976279569621 3.8260699999999996
54.90485070780914 3.8339999999999996
54.930137506558005 3.85915
54.95523115074295 3.87865
54.98032765308844 3.87293
55.005427015775496 3.8138099999999997
55.03072536339621 3.85837
55.05583047570572 3.7781800000000003
55.080938454927676 3.76663
55.10604930325027 3.79219
55.131359235107396 3.80528
55.15647585066083 3.72568
55.181595341907496 3.6869300000000003
55.20671771104285 3.7032800000000003
55.232039262617704 3.6425199999999998
55.25716741665048 3.62238
55.28229845518636 3.6402400000000004
55.30743238042802 3.58189
55.33276558731939 3.5737400000000004
55.357905315183636 3.55619
55.383047936390035 3.4936
55.40819345314859 3.5320400000000003
55.433538351073295 3.5328800000000005
55.458689688238415 3.53935
55.483843927614096 3.45855
55.509197623043605 3.49134
55.53435769621134 3.39205
55.55952067826466 3.4071800000000003
55.5846865714265 3.40035
55.61005202069737 3.42035
55.63522376553902 3.44219
55.66039842818645 3.36283
55.68557601087004 3.40605
55.7109532500271 3.3203
55.73613670233794 3.37115
